wavl,flux,ivar
3566.9744,12.787773191960483,3.4097228912882964
3567.795,13.272034529708435,26.11714067450449
3568.6177,13.585862500175978,2.534966999125779
3569.4385,13.851041846030789,3.3522111765814584
3570.2617,14.105681177859854,0.9215456346102532
3571.083,14.316248974309799,2.5463052258623198
3571.9065,14.419448795162344,2.7990500831330656
3572.7283,14.332991207773127,1.9382824607412956
3573.55,13.983077504475672,2.3918423835211384
3574.374,13.370273683050755,1.524671800148304
3575.1963,12.644463162198171,2.7195998436608058
3576.0208,12.065375564526077,2.41567918085797
3576.8435,11.86718194036698,0.49478184094565836
3577.6682,12.102016171263132,2.7704954201100054
3578.4915,12.631371158968568,1.930399430922522
3579.3145,13.25207798442298,2.7392597209922585
3580.14,13.828891748495389,3.622467035975862
3580.9636,14.31805378556909,2.4719484257595274
3581.7893,14.72274852452379,3.2684353413248015
3582.6133,15.029331336061245,2.42945004171826
3583.4395,15.209701515683886,3.262507134982072
3584.264,15.246696779748525,2.462732524191681
3585.0884,15.16415800413225,4.654439809454672
3585.915,15.017287517761597,3.648147618421457
3586.74,14.849448224579945,3.041935907438162
3587.5671,14.630841288661024,4.746439038475483
3588.3923,14.236991609960327,5.414877596237677
3589.22,13.495840330951179,2.4426333893068093
3590.0457,12.337980137908913,2.545917273697399
3590.8716,10.94052770522045,3.016591313194649
3591.6995,9.752194441389246,3.227259114918884
3592.526,9.283727120813557,2.3761613486207978
3593.3542,9.754209625664188,2.8450823330261508
3594.181,10.928212784667526,2.520603368443896
3595.0098,12.290665788071273,0.6499618365872166
3595.8367,13.370151984483385,2.537167533723234
3596.6638,13.973976270257673,2.767894702981914
3597.4934,14.143052858984648,2.464340712690645
3598.3208,14.011768107018979,2.7571650137689225
3599.1506,13.715360899892264,2.3679057782519184
3599.9788,13.380707020951398,2.0956948395413004
3600.8088,13.129681176813609,1.2892601306416083
3601.6372,13.062181449707593,2.419346606465761
3602.4678,13.219806629267826,2.6572246231793986
3603.2964,13.579978889908727,1.7540536434512426
3604.1252,14.08348193111749,2.5871703534326658
3604.9565,14.662202226093974,2.4115298443114033
3605.786,15.235173723149849,4.812820222182908
3606.6172,15.710031866995653,1.9932984190066856
3607.447,15.992310828635135,1.758213119429103
3608.2788,16.046313048190886,2.547759154698078
3609.109,15.927594178066713,1.1652289557472406
3609.9392,15.754191533370804,5.499178388883993
3610.7717,15.626128324644139,2.9573599662820564
3611.6023,15.567767506088579,3.154398444741318
3612.435,15.532304389283121,2.684675322920055
3613.266,15.451263924459386,3.0186075393521743
3614.0994,15.259729029346063,5.819339830979473
3614.9307,14.868320599222175,2.4772881205835118
3615.7625,14.101230172266513,3.120444757942141
3616.5962,12.691394463562656,2.9813376702791907
3617.4282,10.43664399975093,2.989516205111779
3618.2625,7.454885753276181,2.465000081485827
3619.0947,4.437629929480412,3.0267405398690173
3619.9292,2.43206070556405,9.102428590668552
3620.762,2.2826372510113937,3.5825590032742127
3621.595,3.941641082017986,2.9152193922277725
3622.4302,6.330802406748651,3.2415248694590435
3623.2634,7.741519263912349,3.3409476603624206
3624.0989,6.598901089772568,2.73079587271968
3624.9326,2.2011948157651955,2.637125012746138
3625.7686,-4.670306939529502,3.3292090125928473
3626.6028,-11.563274558371578,5.440265972856322
3627.437,-15.416002930071235,2.77629427138515
3628.2734,-14.282510282344164,3.9495526633733773
3629.1082,-8.633637375282582,2.3113503284125567
3629.945,-0.8870751076642762,2.2577688550712383
3630.78,6.22984687578521,2.6783095639014234
3631.6174,11.249917343091518,3.1838808182024354
3632.453,14.042798368158872,2.6924307165070704
3633.2883,15.256908767043836,3.9598455758107507
3634.1262,15.589173160022371,3.038143050936563
3634.9622,15.517157880208945,3.2333401067260814
3635.8005,15.309842672293433,3.2561003956437755
3636.637,15.103879552379805,6.025710404389528
3637.4756,14.954549300574888,4.022524947485958
3638.3123,14.8726525398688,2.210147459761284
3639.1492,14.852296605648549,3.116837603672961
3639.9885,14.892748690561207,3.40146263357302
3640.826,14.99351345766507,2.861594710261801
3641.6653,15.134854467576927,3.0786840788278487
3642.5032,15.264779368985904,3.257192176917875
3643.343,15.318565506350817,1.5289244580960477
3644.1812,15.25720496066088,1.6067403775263238
3645.0195,15.095530681298124,3.4648984526509614
3645.86,14.885321965426455,2.5454007262058203
3646.699,14.673129511927424,3.022091927000871
3647.5398,14.472776458119824,2.756419192471252
3648.379,14.292484963165379,3.29599048012068
3649.2202,14.171756262628525,4.708977635995852
3650.0596,14.186047700180046,3.0007994564595206
3650.8994,14.391003508952318,2.4100876788396555
3651.7412,14.759121678400668,13.911729378604218
3652.5813,15.162962344081887,3.0065461332821797
3653.4236,15.446643300477515,2.4074401187753467
3654.2642,15.520159181265209,3.2025403867173368
3655.1067,15.415765246337939,3.0710378829652956
3655.9475,15.245084173713725,2.883837319367604
3656.7886,15.102735192016986,2.651757435570996
3657.6318,15.003066465166224,6.403114823795957
3658.4734,14.896694395360011,3.191057385122326
3659.317,14.730528047703316,3.3263615945129263
3660.1587,14.484168293220508,2.526845954913207
3661.003,14.148677506865415,3.350887048989642
3661.845,13.715880293376472,1.9119232453959711
3662.6875,13.211806177535493,3.407931545377973
3663.532,12.757083712047121,0.5096220736521933
3664.3748,12.544080671413116,3.6036653849220817
3665.2197,12.696322801203024,3.0635307628879698
3666.063,13.141341627132528,4.279943558552994
3666.9084,13.634558087533998,0.4744582054252676
3667.752,13.92696657678575,3.909188550207973
3668.5977,13.940635528388633,3.5630267786214924
3669.4417,13.788052440094013,3.855238715258883
3670.286,13.667366026254188,3.6915645583184205
3671.132,13.735758800527423,4.464681104602751
3671.9768,14.038373124182444,4.174758125202042
3672.8235,14.502541103328277,3.3614823428079035
3673.6685,14.968422628314583,3.944254996768352
3674.5156,15.256919591508435,8.880746137699074
3675.3608,15.235129420085372,0.19809498368818465
3676.2063,14.88263972065529,3.3284746940187797
3677.0542,14.308799023861294,1.9319138235608193
3677.9,13.725466042466664,14.908921046047293
3678.748,13.349666206515424,4.848647654986233
3679.5945,13.314319356731874,3.2060416370589753
3680.4429,13.603735881637919,3.316963375526386
3681.2896,14.072851632687174,3.3866908169386902
3682.1365,14.528457358730469,3.7022454158551255
3682.9856,14.811183033648836,12.113991963570577
3683.8328,14.840212237979117,0.40413174908394256
3684.6824,14.621629111160104,3.520101188577386
3685.53,14.225767147745781,3.4922162501388874
3686.38,13.746439947129893,4.674936386414384
3687.2278,13.271031048487922,3.4486387981883326
3688.0762,12.857764015526728,3.710524150838379
3688.9265,12.549299772471157,3.096612175216183
3689.7751,12.381879912314567,2.8335998644920792
3690.626,12.369947040293148,2.7783956806594685
3691.475,12.487812664615834,3.78709559577104
3692.3264,12.665851684131821,3.0182866401468984
3693.1758,12.814994664991563,11.97782671716264
3694.0254,12.870887107053287,4.190790237569173
3694.8772,12.825879583689831,3.0991764865131413
3695.7273,12.737606994404068,5.320627555201505
3696.5793,12.69865227581573,52.30767115684287
3697.43,12.78006633749384,6.528339819929668
3698.2825,12.982293635551112,3.500225309947191
3699.1333,13.230016690094907,2.7466186943391735
3699.9841,13.419687897458504,2.5146212249260813
3700.8374,13.47822897275546,3.1453286137256944
3701.6887,13.401115329549699,3.472006373644178
3702.5425,13.255486701713252,3.8471670527277966
3703.3943,13.162241167676521,3.7752230480756586
3704.2483,13.284752339541718,3.6236336996779164
3705.1003,13.843808973841188,4.01457795402451
3705.9526,15.117608367583763,1.207456576955551
3706.8074,17.332285549953355,2.957573540522289
3707.66,20.360699371165577,6.780082254013461
3708.515,23.51879042564059,2.151827242709068
3709.3682,25.64005327336255,3.7458009093064755
3710.2234,25.754021193351637,4.392756456990041
3711.0771,23.74237203089237,4.9043865168166425
3711.9307,20.463288902341095,2.3585429439909666
3712.7866,17.159175246335813,4.362075989464338
3713.6409,14.774807915114234,3.0640798533313016
3714.4973,13.582866034218014,2.063289488254198
3715.3518,13.364470857651128,2.8843057892553787
3716.2085,13.701586354371871,4.117288527572703
3717.0635,14.245299957664495,4.380878222942028
3717.9185,14.85079242419083,4.489492404314845
3718.776,15.563902421941412,3.403201421516566
3719.6313,16.451425257947513,4.474427110653947
3720.489,17.40782836876887,3.9380752831498107
3721.345,18.08945142366917,3.9086030060176604
3722.2031,18.134953347573298,3.3754143357338457
3723.0593,17.454925712464807,3.682726417911173
3723.9158,16.33042071088198,5.703583644437238
3724.7747,15.20598538827165,2.051324024605809
3725.6316,14.401027668985265,3.2456696429566163
3726.4905,13.947703187126976,20.68529440354464
3727.348,13.686011889560175,4.079346112519186
3728.2073,13.433127373354086,4.021902383814198
3729.065,13.11313081215165,4.661849754118317
3729.9229,12.756137025377036,4.744705287287627
3730.783,12.422963607652763,3.912095535443817
3731.6414,12.141672475419572,5.597404182250062
3732.5017,11.903087082187941,3.4773701067856133
3733.3604,11.708085334003215,5.16498803807317
3734.2214,11.58404741402735,4.417017365814346
3735.0803,11.564203603496715,3.9783359190141416
3735.9417,11.653670350921027,3.7625747215954264
3736.8013,11.827701084108032,113.09368869700413
3737.661,12.049946341249212,4.330550946668739
3738.5227,12.280279732380354,4.536203209466117
3739.3828,12.468203222475896,4.941203531887353
3740.245,12.562095801286175,5.024220134812698
3741.1055,12.531516458819002,4.231676348154489
3741.9683,12.39305110912332,4.795668492587872
3742.829,12.211192827157896,5.352126368489184
3743.69,12.074619995584701,6.254057263207951
3744.5532,12.072338623839576,6.537413587729517
3745.4148,12.266698280679321,5.353370846066047
3746.2786,12.652464064963743,2.4441488841922903
3747.1404,13.117602912384235,3.677477103388698
3748.0044,13.479212017479828,4.886690196648804
3748.8667,13.58527910098754,1.4960748549460217
3749.729,13.419968192256558,4.5828536455830635
3750.5938,13.09099478309849,5.347029220786243
3751.4565,12.741517957673919,4.016872612680819
3752.3215,12.470773345706938,5.370837351282589
3753.1848,12.332676674860528,4.294061333837412
3754.0503,12.34242499969234,54.169614182248225
3754.9138,12.46533726825642,4.288968914357211
3755.7776,12.60583677408864,32.136406421854446
3756.6438,12.643905706370749,0.542751258173386
3757.508,12.510435230269863,4.004521684434688
3758.3745,12.257129185853413,3.837008516881752
3759.239,12.108758409140128,3.7943374761378537
3760.106,12.536269118731878,4.021318789734978
3760.971,14.378878041768019,4.765011326328519
3761.8362,18.873237928801537,3.49161416887833
3762.7036,27.245253345777456,4.679206551096727
3763.5693,39.508674044167,2.9346235405255694
3764.437,53.38030831382641,5.7675007507712515
3765.3032,64.2063147431727,1.923124550865468
3766.1714,67.4243468037459,1.4562919784044144
3767.0378,61.525619871692584,9.13720640615582
3767.9043,49.23600500369544,4.325787397651239
3768.7732,35.46489259425497,7.022460927712408
3769.6401,24.338125548891284,6.124710955016908
3770.5095,17.28458057639344,4.9283671926008505
3771.377,13.709829691769345,88.66316858300493
3772.2466,12.222642782822385,4.182776559806498
3773.1145,11.714991575878402,4.16830268437179
3773.9824,11.598882907211415,4.729165864475631
3774.8528,11.670987165979412,11.647327594774225
3775.721,11.862399993122711,4.63237557001826
3776.5918,12.089956726810753,10.190454510894146
3777.4604,12.246181665615309,6.888690746414045
3778.3315,12.27562098567328,3.8421680480160494
3779.201,12.213816541647548,6.579642336087656
3780.0703,12.149315024168175,4.015536492198632
3780.942,12.145354279803913,5.323421191923829
3781.8118,12.195379493431002,4.500931277834776
3782.6838,12.23913022940428,5.950126761037301
3783.554,12.214080220527599,3.758392518836912
3784.4265,12.100309791345117,5.818567556118361
3785.297,11.929919609372117,6.120498925005364
3786.168,11.754636513008435,5.354046848786854
3787.041,11.602880171778402,4.460293817194756
3787.912,11.463893083493655,0.99316655279883
3788.7856,11.307904623124164,6.102531473902167
3789.6572,11.118798925472296,5.541625003581803
3790.531,10.886076528686404,4.948538081576378
3791.403,10.56895415735991,7.190736014524447
3792.2754,10.058243018785362,10.026212312391408
3793.15,9.192093527876109,6.181743738894417
3794.0225,7.86092246132504,25.384692234289982
3794.8972,6.143974581417827,8.348162254253797
3795.7703,4.415311859270225,4.131788358537049
3796.6455,3.156440864327494,4.38876014354771
3797.519,2.599160097858479,187.14597096801938
3798.3926,2.4370072006982526,6.0554921748630495
3799.2686,2.0533099642323225,6.919785075331132
3800.1426,1.1294774593368442,4.766929048611732
3801.0188,0.05293412313489684,4.479378364709059
3801.8933,-0.3266225050118063,2.0895720248326617
3802.77,0.5695201145726648,6.339585159186972
3803.6448,2.5721013381686135,5.292834717329203
3804.522,4.984929657246641,2.8386274660938917
3805.3972,7.150141816706819,5.959154911588074
3806.2727,8.870468891012248,3.2388229788386234
3807.1504,10.295354060737514,2.8158976019449256
3808.0261,11.589605825653962,5.261587015908191
3808.9043,12.758755889144478,6.181657008620428
3809.7805,13.6705561272647,6.009248771215228
3810.659,14.221512533356622,2.505532898190276
3811.5356,14.389832628206266,5.141045048047148
3812.4126,14.224675612501757,3.9668180903854093
3813.2917,13.812785834522451,3.8244436837747635
3814.169,13.282874834174859,4.93627071586069
3815.0483,12.776716480912029,5.242891414503185
3815.926,12.401968193516685,1.9235443751870696
3816.806,12.179961976485625,4.275188290079549
3817.684,12.056389979175853,5.376207590338405
3818.5623,11.938383845644912,4.51813649046916
3819.4429,11.74454359340836,5.3198026058673555
3820.3215,11.442496154963502,3.0480442559452072
3821.2024,11.056172252758135,4.870846030940681
3822.0815,10.652532967648941,3.2543209299279945
3822.963,10.298798018853992,48.30896076234281
3823.8423,10.040062935566407,6.170887232484842
3824.722,9.891234604563397,6.233382866252242
3825.604,9.858844866372388,6.495546711447287
3826.4841,9.949822994167235,7.8782333024644355
3827.3665,10.154520564864528,17.386106958818026
3828.2468,10.420000700954057,7.950281170788366
3829.1296,10.657536857323105,6.177510070206591
3830.0105,10.782008008061977,5.469814030299197
3830.8916,10.764728084732988,0.22720883172905865
3831.7751,10.638147354362722,8.077298575740008
3832.6565,10.45323502746696,7.205835673653681
3833.5403,10.2112339676065,6.244386306544628
3834.4224,9.829859389131233,18.176171895868592
3835.3064,9.144927988931308,5.987595650912759
3836.1887,7.934066070835812,2.7876522726257864
3837.0713,5.906067844080196,5.86538632881803
3837.956,2.764348328080658,7.1089865773158225
3838.839,-1.476794406788035,6.263008605244218
3839.7244,-6.119957830700415,6.416646521717291
3840.6077,-9.64717228102586,5.495911797121034
3841.4932,-10.50001924512672,7.494277094074289
3842.377,-8.12235757960718,85.37940819372426
3843.261,-3.451583426536609,2.3143341300854297
3844.1472,1.7540038923374592,9.833883248884216
3845.0315,5.975382954236381,6.629853875674442
3845.9182,8.63642905107363,5.150236419211901
3846.803,9.897455644781376,5.5454444607599305
3847.69,10.257184740994482,9.540041071172823
3848.5752,10.18843358515937,4.819655195257402
3849.4604,10.024915571125291,38.122162131304975
3850.3481,9.941356407761084,6.262657736199756
3851.234,9.974565747836637,6.519046671734948
3852.122,10.067162527970146,6.365074368377532
3853.0083,10.132452875022736,6.238312339485107
3853.8967,10.100435423961938,7.5266102462932105
3854.7832,9.903877975419611,5.085709192131465
3855.6702,9.429400313790318,7.2448203837632805
3856.559,8.5192703881902,6.713615756192246
3857.4463,7.103371451406017,6.893113200982121
3858.336,5.370447194348963,7.2990239028759465
3859.2234,3.856810525564143,6.71144980216161
3860.1135,3.201752153575527,7.809627792256228
3861.0015,3.7822942512600046,6.346834806232221
3861.8896,5.45894598716024,6.716087237123938
3862.7803,7.7151593075638,13.761858985240668
3863.6687,9.948610575352017,3.3829266977962225
3864.5598,11.71895520334212,14.93725439943434
3865.4487,12.721818960195446,22.97599400191478
3866.34,12.821108992555141,6.1541318476162035
3867.2297,12.117020026562704,0.737639844504744
3868.1213,11.013409099317025,3.767939446043788
3869.0112,10.077836028222563,10.916296907551267
3869.9014,9.701469027597913,4.988163704882093
3870.7937,9.882578881138707,23.384374363982992
3871.684,10.313996018282227,5.994695850836879
3872.577,10.686154082142325,7.286378490456945
3873.4678,10.87871237750835,5.858453221329087
3874.361,10.93231208211991,8.298230240245152
3875.2524,10.91618498091127,2.5004600735586493
3876.1438,10.866361432100536,9.924091789636227
3877.0376,10.794989340167634,5.1760003312534995
3877.9297,10.70760036542792,7.079273828446207
3878.8237,10.600398773924898,8.703460597924908
3879.716,10.46401782527865,6.401307562982611
3880.6108,10.296050663349947,6.101937869499718
3881.5037,10.113583962225542,6.789674001790272
3882.3965,9.943770422203773,7.889153145147788
3883.2917,9.80763168801792,7.487994006576476
3884.185,9.705847105169514,5.714315209816026
3885.0808,9.613017342440939,13.137032549512972
3885.9746,9.493262528702017,4.396223134329813
3886.8706,9.324264492616162,7.169299768114642
3887.765,9.122668176045542,6.674049975823321
3888.6592,8.94356458714049,5.85240452021268
3889.556,8.858392691192154,4.518400610072892
3890.4507,8.92271309722106,12.225068373494972
3891.348,9.159647660234167,6.207314127726056
3892.243,9.576824630957693,8.79417241213472
3893.1406,10.210585861050756,4.934080716266401
3894.0361,11.124986657791611,10.34303830304291
3894.932,12.351920132495756,0.5232378979082175
3895.83,13.762143590916153,7.710225367393958
3896.7263,14.992766224762574,8.67049434252897
3897.625,15.603488139489519,16.24882562247934
3898.5215,15.33681652011175,7.618441284565089
3899.4207,14.314533609827265,4.241194000215382
3900.3176,12.954873071023151,8.087243528060878
3901.2148,11.684881890447446,7.891684643557478
3902.1145,10.743751953642477,8.84392429540917
3903.0122,10.18191020552233,9.123301945902634
3903.912,9.961148943635845,13.117846465717703
3904.8103,10.062367693406207,7.664575691179061
3905.7107,10.496249588299781,7.964951317964643
3906.6094,11.246956354485004,8.929714391691729
3907.508,12.195504462045342,6.7792023793854685
3908.409,13.08001695191413,9.263260262340278
3909.308,13.564940967207349,5.5563395110333405
3910.2097,13.436008930755474,14.320921038633593
3911.1091,12.741106561872995,8.043091361101789
3912.011,11.749934854545623,5.1413561171062705
3912.9111,10.77623031720481,7.334259396731538
3913.8113,10.003859010362238,11.476993143034901
3914.7136,9.474357056119452,7.726431736024928
3915.6143,9.154876116034439,6.450926501608296
3916.517,8.979246148023167,7.160300424075567
3917.4182,8.866863139602001,6.542062722764433
3918.3215,8.739760799774512,6.864588595811624
3919.223,8.570960631241654,10.785480705820286
3920.1245,8.41440430416962,9.67221254335738
3921.0286,8.378906773376128,7.623600363152642
3921.9307,8.538410605625284,6.535724517791792
3922.835,8.837244294204165,7.078326322271968
3923.7373,9.076710176420049,7.728751376062292
3924.642,9.035320701662748,7.1322665609185245
3925.5452,8.635186033466026,7.865217529875674
3926.448,8.002653194365742,6.937021506665438
3927.3535,7.333982127677753,10.556865174013916
3928.257,6.706443898434643,7.950638010792285
3929.1628,6.022922567706711,10.633841821841404
3930.0667,5.2024598954957675,10.650461755316355
3930.9731,4.377428056652681,7.47464727610832
3931.8774,3.899846483236317,20.270263922360726
3932.782,4.0658067142163645,12.986242077796827
3933.6887,4.868653820550838,8.801363349729217
3934.5938,5.992149819723336,9.197758741118863
3935.501,7.072343401345535,8.223748583648579
