wavl,flux,ivar
3566.9744,0.6033820640521372,1174.4930120282716
3567.795,0.603034580708529,1362.8497272847503
3568.6177,0.603008538221564,1748.6785933632996
3569.4385,0.6029495124455561,1410.8720019532454
3570.2617,0.6023306877443378,1490.3930704045672
3571.083,0.6008173220843579,877.9170162524454
3571.9065,0.5982610143212983,2088.991658065683
3572.7283,0.5946271358462959,1782.6073257498692
3573.55,0.5900680665883226,989.1539467283509
3574.374,0.5851595159861467,1535.7465981404218
3575.1963,0.5809029646224949,2107.265651759153
3576.0208,0.5782133618987754,1255.8202540122275
3576.8435,0.5775411190219819,2066.2114571506722
3577.6682,0.5787525376114865,2253.510666130033
3578.4915,0.5813959468776441,1174.6297100357324
3579.3145,0.5849469984890169,1361.473637292461
3580.14,0.5888770025153544,1002.0493896984102
3580.9636,0.5925870222027791,2083.544020418725
3581.7893,0.5955429659842333,1249.0165416736327
3582.6133,0.5973841368803453,1401.150903927019
3583.4395,0.5981193170474611,1322.163360428272
3584.264,0.5980703701134953,1260.2665146107868
3585.0884,0.5976571342642651,1615.3236063112952
3585.915,0.5971154914302134,1179.7452826256406
3586.74,0.5964941020706302,1285.0111984358061
3587.5671,0.5959812256269681,1074.592347220378
3588.3923,0.5962766053759734,1219.065004822904
3589.22,0.5985216438129096,2084.200380618996
3590.0457,0.6036493327781816,1383.6513916345618
3590.8716,0.6115875566632589,1403.040832751692
3591.6995,0.6208531920593648,1092.96716259473
3592.526,0.6289285469106805,999.8233636394561
3593.3542,0.6336064976168403,1263.18294245858
3594.181,0.6341345361064971,900.0174766790082
3595.0098,0.6316441482035132,1339.4526613744451
3595.8367,0.6282304353845366,1021.636862484206
3596.6638,0.6254223725198095,1384.2210666750505
3597.4934,0.6232944239665004,1138.1092751399472
3598.3208,0.6208245236917578,1183.7373678134857
3599.1506,0.6169930875180801,2305.0090726937274
3599.9788,0.611729047646169,2223.8006180347793
3600.8088,0.6058194749152829,1266.396002291517
3601.6372,0.6003766007898668,1273.1394413321816
3602.4678,0.5962149773606656,1323.4154795759462
3603.2964,0.5937958906630036,1105.0105212191067
3604.1252,0.5931701268005212,1921.1605176899855
3604.9565,0.5940262291421503,1178.294763373969
3605.786,0.5957339412473039,1343.422045197873
3606.6172,0.5976454782684304,986.4892431100518
3607.447,0.5994675958697157,1157.0837471383318
3608.2788,0.60145872797297,1300.6812612564377
3609.109,0.6040713569967455,1730.759151915442
3609.9392,0.6073881149845418,1192.1238580916665
3610.7717,0.6108826680369058,1066.7312456963161
3611.6023,0.6138224962469881,1209.552257589156
3612.435,0.6159458905532728,1474.2514652481236
3613.266,0.6175293960499431,1156.9818578560557
3614.0994,0.6190137603406125,1084.9431281165698
3614.9307,0.6205327011603987,1051.105553456006
3615.7625,0.6218613164637496,1346.2092882604547
3616.5962,0.6225934296954307,1537.3086586196364
3617.4282,0.6223642222582428,1382.998148761275
3618.2625,0.6210149075993843,1530.44234044445
3619.0947,0.618725828920598,1035.2891444329357
3619.9292,0.6160495595136238,1025.4344487920805
3620.762,0.6138380635653886,1183.4118029693236
3621.595,0.6129144791037551,1659.3061845074578
3622.4302,0.6137689389740595,1478.5684391536427
3623.2634,0.6162728785412555,1418.5137419080204
3624.0989,0.6195817478421076,1217.7438093783624
3624.9326,0.6222753651698166,657.0114266340145
3625.7686,0.6229838265333512,799.5408272537022
3626.6028,0.6210623193876273,1072.4494488543498
3627.437,0.6169102875294136,1058.0675861688144
3628.2734,0.6115588378583953,1450.9003361396608
3629.1082,0.606018551993273,1338.6197063702007
3629.945,0.6007546828972308,1434.3231226021562
3630.78,0.5959041190037077,1253.1774308089011
3631.6174,0.5915675910228657,1343.2922756849691
3632.453,0.5881284930748383,1456.487171986101
3633.2883,0.5860841982148773,1280.3563752988084
3634.1262,0.5859060581599815,1515.1612818389224
3634.9622,0.5878832434246687,1185.0767525320878
3635.8005,0.591978353337682,1338.0770601857628
3636.637,0.5976404007164056,1381.0603241101928
3637.4756,0.6039323039058166,1634.122372267246
3638.3123,0.6097333662759462,1569.2511576502447
3639.1492,0.6141752902801393,1104.072481490941
3639.9885,0.6167149095869121,1258.1808931546664
3640.826,0.6170984787777741,1673.9278371492633
3641.6653,0.6153895993691477,1297.9297687198086
3642.5032,0.6120406243876513,1551.643593767575
3643.343,0.607870937981866,1542.3909755408436
3644.1812,0.6038211199446982,1264.1197536406887
3645.0195,0.6004405575019754,878.6541695169875
3645.86,0.597742268302486,2634.60471323556
3646.699,0.5954968829738786,1060.7962893948559
3647.5398,0.593604342190369,1742.7195349432363
3648.379,0.5922671706606342,1805.107722145273
3649.2202,0.5917711460267198,1556.181207149164
3650.0596,0.592227490171561,838.7962745360836
3650.8994,0.5933572778469103,2239.193359393722
3651.7412,0.5944157672346763,1254.339865873776
3652.5813,0.5943047445135993,1734.9183216283468
3653.4236,0.5920066767313233,2520.1081755261216
3654.2642,0.587181197654476,1787.326872567676
3655.1067,0.5804219252998977,2571.2124889979486
3655.9475,0.5730379833768495,790.315505759818
3656.7886,0.5663339643159377,1751.4846982827753
3657.6318,0.5612875884189821,2440.5404281065926
3658.4734,0.5586510557891335,1935.812684467394
3659.317,0.558986562798414,2441.0281512276665
3660.1587,0.5624217183643453,1402.9406514872708
3661.003,0.5681901133014371,3231.6538840804797
3661.845,0.5745742116693195,959.6172938653935
3662.6875,0.5797979756462176,994.8089040924374
3663.532,0.5829750139982152,1007.6364186847646
3664.3748,0.5844180082623213,1454.8987773252984
3665.2197,0.585006882999278,1409.4314162101568
3666.063,0.5852519062826891,1402.6931873342073
3666.9084,0.585125431252767,1404.7349206071183
3667.752,0.58463630309759,1263.2071856633652
3668.5977,0.5842905059879435,1571.9508140701505
3669.4417,0.584784102483278,1406.2638343548754
3670.286,0.5863356955903105,1261.405102551079
3671.132,0.5885819147740609,1062.974366291345
3671.9768,0.5911106488387261,1141.5962510598988
3672.8235,0.5939475930811065,1351.910474736083
3673.6685,0.5972833414637004,1144.6209115104523
3674.5156,0.6009564524893152,1505.5599937890697
3675.3608,0.6042251200494516,790.117412131821
3676.2063,0.6062408836085486,1236.0159187948993
3677.0542,0.6065207575723316,1978.5366855345726
3677.9,0.6051427127600899,2053.6932589464186
3678.748,0.6026601821008881,926.6027632463065
3679.5945,0.6000240524340558,1574.7954887159492
3680.4429,0.5983864201976087,1783.250781212023
3681.2896,0.5987239431063625,2029.5092233920125
3682.1365,0.6012610415325804,1195.278380074193
3682.9856,0.6052365559831516,1103.6088478481056
3683.8328,0.6091719877586985,1377.3713298678201
3684.6824,0.6116770318552793,1311.9943252960766
3685.53,0.6120792034834355,3088.8062600518992
3686.38,0.6106844860977555,1021.7647149705339
3687.2278,0.608433176491738,2323.436247194053
3688.0762,0.6063389254061307,1512.916884269585
3688.9265,0.6051198809448578,1317.389185015803
3689.7751,0.6050551936903854,1410.0857555413143
3690.626,0.6059597169245736,2034.3376434673723
3691.475,0.607350954447273,731.2613274155899
3692.3264,0.6088516647654215,853.0652050005882
3693.1758,0.610485004260415,1402.0718915123612
3694.0254,0.6125295493339934,1224.8868515954955
3694.8772,0.6149959191281958,944.5316801002934
3695.7273,0.6174043509984665,1081.585598871005
3696.5793,0.6192513167588755,1476.0561827826048
3697.43,0.6205454488200455,1110.7551750437772
3698.2825,0.6218918669996092,1201.3300414518535
3699.1333,0.6239586434834193,878.0665066562468
3699.9841,0.6269567342622709,1474.1178633153759
3700.8374,0.6305028868787326,1246.091645077283
3701.6887,0.6338339533595789,854.3709165719312
3702.5425,0.6362446647522804,771.2995871818214
3703.3943,0.6373049841640662,1120.436716444904
3704.2483,0.6370094193894533,1670.5956386047899
3705.1003,0.6357168268845115,898.709777498894
3705.9526,0.6340226188256781,1310.9116397067828
3706.8074,0.6325753422367297,1137.244881459595
3707.66,0.6319300917963082,1038.9853453256246
3708.515,0.6324623095167102,1179.989212152342
3709.3682,0.6343501775805254,1425.187656687708
3710.2234,0.6373920951905256,1342.8585735072604
3711.0771,0.6406549148836194,993.3597730769699
3711.9307,0.6425285649721874,652.310839826807
3712.7866,0.6414726916112494,944.4411740624246
3713.6409,0.637193676005175,1371.8433982553156
3714.4973,0.6311075138773699,1323.2871103216412
3715.3518,0.6255555038501215,1928.827852333672
3716.2085,0.6221083896422891,787.8868289560197
3717.0635,0.6206521265277047,1254.6371710783014
3717.9185,0.6197106641078632,1001.675246520773
3718.776,0.6178318395686774,1529.7748606381056
3719.6313,0.6147953764510953,1175.03978530539
3720.489,0.6117409957860888,1072.004609503173
3721.345,0.6103300599332092,1333.1684147303486
3722.2031,0.6115230757761472,1940.0746844612386
3723.0593,0.61500290944877,1406.5172312244272
3723.9158,0.6195393269808452,1238.552655636508
3724.7747,0.6238915019683762,1214.2441555342484
3725.6316,0.6274630351167095,2844.0283523117364
3726.4905,0.6304470618776241,792.5537556665121
3727.348,0.6333200179626298,1151.07219593838
3728.2073,0.6363273351107791,1164.224052934281
3729.065,0.6390837383163311,1011.7194769014409
3729.9229,0.6407658477129785,1059.0061225222846
3730.783,0.6407352425765227,1266.6943507632932
3731.6414,0.6392064105402205,778.0028656406755
3732.5017,0.6372591295063607,1587.7842170721235
3733.3604,0.6362082112438763,1339.900563911482
3734.2214,0.6369013935140102,1156.939189211324
3735.0803,0.6394976677202762,1227.9558193124824
3735.9417,0.6436133899129047,1012.0835498254719
3736.8013,0.6484806526177714,1091.9236645325739
3737.661,0.6532542621935068,1202.749684407399
3738.5227,0.6572874860725206,662.3252301540156
3739.3828,0.6602511826022459,1181.800085481544
3740.245,0.6620151211813246,1300.7628631362663
3741.1055,0.6623167990707663,1820.4062522586685
3741.9683,0.6608611627650455,829.0236055514288
3742.829,0.6577738631285979,935.1357105907525
3743.69,0.6538790014235762,848.3937955330898
3744.5532,0.6503480694959611,1519.8618442523239
3745.4148,0.6479772967426753,1176.5002993425603
3746.2786,0.6466964642372061,1405.5461840698204
3747.1404,0.6459163073936576,996.6855986050379
3748.0044,0.6451955464823248,1171.5091247029636
3748.8667,0.64465407667745,1091.600478557397
3749.729,0.6447609813443376,1304.95017087508
3750.5938,0.6459117129817957,1119.3953142814573
3751.4565,0.6482592401199565,1457.2047419223459
3752.3215,0.6519292726008286,1572.9449369315732
3753.1848,0.6571005295939751,1072.9124680305927
3754.0503,0.6638048990282446,1546.051487038196
3754.9138,0.6713589957586252,933.3368558418807
3755.7776,0.6783499153923942,1112.8144211136846
3756.6438,0.6831319413159644,813.1396409267977
3757.508,0.684689918240691,1059.9538879013364
3758.3745,0.68320646497297,987.000773815247
3759.239,0.6797630535271016,1017.6954587230267
3760.106,0.6756038463332337,954.5135581868929
3760.971,0.6715768635074707,1004.3254558857527
3761.8362,0.6678778444281286,902.9632970414478
3762.7036,0.6643412548411995,1109.4167944458188
3763.5693,0.6609246086148877,1102.2216787425496
3764.437,0.6578909263089163,1250.1126906666443
3765.3032,0.6556214810249127,1087.5150469354635
3766.1714,0.6541576174086471,1824.871634404269
3767.0378,0.6531855979506023,837.7700681159818
3767.9043,0.6523626673286411,963.0378438644656
3768.7732,0.6515964538526487,1082.0308353901264
3769.6401,0.6509119887389162,1238.580667743529
3770.5095,0.6501228524985112,1303.9548575808417
3771.377,0.6488031640316254,999.5809471207901
3772.2466,0.6466253304553028,1174.3611641369455
3773.1145,0.6438247290249908,1063.119800128731
3773.9824,0.6412395750447423,1034.954188650007
3774.8528,0.639894769490449,1598.4266416286778
3775.721,0.6404005850844448,1541.7211248369285
3776.5918,0.6426693517042401,1840.162445613425
3777.4604,0.6462088085420635,947.8181900213822
3778.3315,0.6507015991429765,874.9272834161895
3779.201,0.6560882798612216,873.7821810937448
3780.0703,0.6622371593782687,1264.17534243024
3780.942,0.6685589482957931,1140.4812302725552
3781.8118,0.6742506548725551,1208.1141584744166
3782.6838,0.679114957880776,959.6272102763196
3783.554,0.6836687633033869,1228.5014952531574
3784.4265,0.6885101621559783,1509.015973731453
3785.297,0.6932778964378548,1422.5563819410781
3786.168,0.696614613767051,723.4302346150604
3787.041,0.6969798798097576,1344.2164208348602
3787.912,0.6937411980914691,686.7503928523914
3788.7856,0.6875958129593744,1211.8152521635354
3789.6572,0.6802230502299861,940.4494898181808
3790.531,0.6733685022925076,1083.8169897703322
3791.403,0.6682853756392432,1662.4259444779416
3792.2754,0.6652807710759949,850.2011940999971
3793.15,0.6637127380349065,731.2276454509783
3794.0225,0.6622313236343875,1378.6270206274376
3794.8972,0.6594312268860987,834.9914005693166
3795.7703,0.6547745624027635,1075.4008432807252
3796.6455,0.6490000389091994,1875.3529776814587
3797.519,0.643820300143242,837.249981436922
3798.3926,0.6408988914936222,1486.592164285148
3799.2686,0.6411159636729846,1028.7833259017614
3800.1426,0.6443499826830699,1174.9643341872295
3801.0188,0.6497575221211358,1323.4240195094415
3801.8933,0.6560786019569633,1195.2969675177378
3802.77,0.6620041075801564,1025.333993098071
3803.6448,0.6663968532207417,1004.0833531142229
3804.522,0.6687883752838131,882.0521738048224
3805.3972,0.66952125810271,864.6699518368613
3806.2727,0.6695765375582787,926.9652959214346
3807.1504,0.669970162283645,887.694122712915
3808.0261,0.6712651962796146,1213.2405730840383
3808.9043,0.6735379719622201,841.3789482237488
3809.7805,0.6766707159493732,4502.725679075721
3810.659,0.6806679898774132,841.0685564316776
3811.5356,0.6855375737252034,999.4700041504552
3812.4126,0.6910743777164781,970.5594476033086
3813.2917,0.6966998442840908,871.4103684407297
3814.169,0.7016114904317916,1101.7097369306382
3815.0483,0.7052651761790879,882.8297450980917
3815.926,0.7075445921163301,953.1245313029784
3816.806,0.7087305749129738,827.7541430946495
3817.684,0.709148528844667,1008.3932394532031
3818.5623,0.7089856054791864,791.1364409687269
3819.4429,0.7082943767581823,1032.1794045862637
3820.3215,0.7071152623848111,1088.3883240545138
3821.2024,0.7055228909790497,939.464758423702
3822.0815,0.7036414188899073,801.4770931813096
3822.963,0.701576722394845,803.2418513027184
3823.8423,0.6993797617464836,1057.428398194663
3824.722,0.6969155494429449,1019.571488772986
3825.604,0.6937953958888609,1021.3869205456346
3826.4841,0.689475483874916,1095.617165442596
3827.3665,0.6835202975914156,998.6082874647477
3828.2468,0.6761202326935059,950.7191660498955
3829.1296,0.6681196809266934,1108.1059001885799
3830.0105,0.6607353818090737,1532.2009979217985
3830.8916,0.6546785862632488,882.6114036114831
3831.7751,0.6497443737583206,1397.0996835178848
3832.6565,0.6449760431771931,1070.679956566098
3833.5403,0.6391612274977999,1051.6904051889535
3834.4224,0.6315869657096892,1081.682438532127
3835.3064,0.6224141098336679,1031.210987259991
3836.1887,0.6130233828951664,1189.8808005792507
3837.0713,0.6056254983448482,1105.6395013724043
3837.956,0.6025046429809281,1372.3560025057677
3838.839,0.6049808514006313,1457.852513857485
3839.7244,0.6128162875579054,1343.018246640327
3840.6077,0.6244046889238862,952.3800899268168
3841.4932,0.6376653664783921,1134.2975842478736
3842.377,0.6506066823903254,1052.8425250359899
3843.261,0.6619562194204988,974.09843664403
3844.1472,0.6711670471417528,1103.2668028878422
3845.0315,0.6782623607666558,925.817754164713
3845.9182,0.6838067397304985,1079.6203259757879
3846.803,0.6886636635574325,1151.2916661711442
3847.69,0.6940210601168387,1108.5057967383623
3848.5752,0.7009638518000028,1013.9707898603991
3849.4604,0.709978976635308,1009.0004811934448
3850.3481,0.7205620076525839,908.8191100662532
3851.234,0.731399850573899,695.8973848689882
3852.122,0.7413828569557586,679.5884724256871
3853.0083,0.7500177668389704,790.3345269569002
3853.8967,0.7574412098955446,1069.0278534081588
3854.7832,0.7635748395771669,1061.2429817487196
3855.6702,0.7679230817453123,960.9625164356073
3856.559,0.7699136604959345,534.2096201099615
3857.4463,0.7695879777751264,745.9283867608831
3858.336,0.7678132599242825,807.0153897883129
3859.2234,0.7658811025335326,830.2275983187303
3860.1135,0.7649205997830004,793.9616437441392
3861.0015,0.765541669334368,776.099477161383
3861.8896,0.7676210795307923,1065.6648705887862
3862.7803,0.7703392041027572,1100.149967660502
3863.6687,0.7724907933315518,884.0646620440198
3864.5598,0.7731319314675101,815.6288163374686
3865.4487,0.7720069458860045,684.096276612429
3866.34,0.7695277526281196,701.1262164579738
3867.2297,0.766340133182493,867.3977159546221
3868.1213,0.7628319159604385,713.5070252763833
3869.0112,0.7590321506972322,725.9691234753315
3869.9014,0.7547055652614775,692.57206208387
3870.7937,0.7496420520383533,845.7577504572653
3871.684,0.7439784643433346,759.4424025251885
3872.577,0.7382545938256385,808.8837761156751
3873.4678,0.7332946821147148,927.12358581583
3874.361,0.7294869315178285,827.6368918237606
3875.2524,0.7262944398633913,1036.744524476687
3876.1438,0.7222345936045993,1071.17579763107
3877.0376,0.7157256286607716,586.2912321126755
3877.9297,0.7062073605836539,949.6481098551299
3878.8237,0.69449622749122,1413.7726867147062
3879.716,0.6823947518699599,883.4756803403618
3880.6108,0.6713523114252027,831.3236671787425
3881.5037,0.6617609666278566,1231.041197896693
3882.3965,0.6527229370055224,1509.3340432930927
3883.2917,0.6428727963009504,1184.832682446379
3884.185,0.6313547467532588,1237.3803377926865
3885.0808,0.6180796638729207,1533.977770189092
3885.9746,0.6037797278182657,1217.2874122232754
3886.8706,0.589314668822467,1530.7768591931076
3887.765,0.5756037311935429,1650.0581075862312
3888.6592,0.5633419557501156,1305.3788424704176
3889.556,0.5532074634546191,2283.3270599121497
3890.4507,0.5460584636648937,1627.441606278967
3891.348,0.542743840794187,2226.030307614968
3892.243,0.5439763362834583,1381.9801641472304
3893.1406,0.5499129424741498,1449.6513054133306
3894.0361,0.5598988169631139,1369.141534394412
3894.932,0.5726490114239834,1184.1971180398039
3895.83,0.5866525151789785,1686.1354730035337
3896.7263,0.6005969692142273,945.1995325067747
3897.625,0.6140188220350148,1055.6895290662258
3898.5215,0.6270947051975407,1043.4529817753516
3899.4207,0.6405992710752003,975.5825600482561
3900.3176,0.655041785665606,3444.330205370517
3901.2148,0.6703950132287928,1231.0980736255458
3902.1145,0.6858960926205317,1034.47146862878
3903.0122,0.7003970663874761,909.2040181237516
3903.912,0.7132841204043171,1115.9237257363886
3904.8103,0.7245248394104441,782.7525218594526
3905.7107,0.734697664380361,843.4287445068359
3906.6094,0.744394406757114,719.2323654125314
3907.508,0.7541138880320709,895.8182511276293
3908.409,0.7640842238423255,1186.4978572064558
3909.308,0.7740659402434759,1120.9669683183988
3910.2097,0.7834410053630292,870.7717840877959
3911.1091,0.7913247360814032,709.1531595708167
3912.011,0.7974233659197316,726.9306347604506
3912.9111,0.8023803234085845,670.7570705872984
3913.8113,0.8075824802721151,754.9504495343468
3914.7136,0.8141380461076585,785.3990579308036
3915.6143,0.8220564087976321,854.6900141769441
3916.517,0.8304905851986992,561.9753015468876
3917.4182,0.8384020401448062,616.2458696361044
3918.3215,0.8453039412831777,604.93970458879
3919.223,0.8511095676599867,538.3228201485232
3920.1245,0.8559443825821884,640.0881033587954
3921.0286,0.8600069604000243,584.4281198599065
3921.9307,0.8636733445522652,715.756346951195
3922.835,0.867486415102805,685.446725409695
3923.7373,0.8716967003311414,637.7081700054006
3924.642,0.8760465088172484,691.1768055809306
3925.5452,0.8798585069974971,675.0597889582693
3926.448,0.8825593693386429,551.3833213911842
3927.3535,0.8839402310016644,571.8313872568322
3928.257,0.884094480433051,460.27637322720733
3929.1628,0.8832150661668421,606.0467898960544
3930.0667,0.8814317068311847,658.7369935696825
3930.9731,0.8787894005102955,573.3269784175312
3931.8774,0.875405283290529,685.6403087734726
3932.782,0.8715848897791714,589.6799762218334
