wavl,flux,ivar
3566.9744,2.5276835977037897,117.19959593568508
3567.795,2.519882415608714,118.89608307726472
3568.6177,2.5126267526614203,99.46531470283227
3569.4385,2.5045544503007173,95.93556463277619
3570.2617,2.4955185989643676,114.91390861306226
3571.083,2.4873412699407136,120.63770496292273
3571.9065,2.4822016941544436,119.48607618405205
3572.7283,2.4808740376246106,101.64484206443812
3573.55,2.482206817610936,128.72748071368653
3574.374,2.4843715903681,111.21333173707544
3575.1963,2.4861320315657447,124.24560509818343
3576.0208,2.487245891136821,113.31725376729973
3576.8435,2.488118270800002,117.13405117712449
3577.6682,2.48949073073251,113.28860915629429
3578.4915,2.492083037549959,113.3350846671417
3579.3145,2.4960136437429012,119.49572785584144
3580.14,2.500279563851605,135.56179938580365
3580.9636,2.5028921465530583,93.51878106910083
3581.7893,2.501811292300079,120.53992228720928
3582.6133,2.495734922728484,114.5331690607116
3583.4395,2.484459153047248,110.84384158545504
3584.264,2.4692475454461857,133.4899031479859
3585.0884,2.452761207838335,107.8915831317942
3585.915,2.4383944908992286,159.19158422171313
3586.74,2.428790662368658,139.62637100949618
3587.5671,2.4242825647507438,123.95139866011681
3588.3923,2.4232916477446884,134.05443941084832
3589.22,2.4238117378491926,127.26743722147165
3590.0457,2.4248066595406135,118.00915416973636
3590.8716,2.426200814818095,129.53206613688374
3591.6995,2.4280512002733,114.92055223938956
3592.526,2.430137838107548,132.5923256020513
3593.3542,2.432233245094429,122.01991447582995
3594.181,2.4340865302286994,123.35166491431255
3595.0098,2.4349957519179237,125.85550293082368
3595.8367,2.433743568487031,131.47036950093022
3596.6638,2.429509653449376,114.23515376537625
3597.4934,2.422714353473786,128.0131983594598
3598.3208,2.414820985582781,117.68631034788835
3599.1506,2.4070545511803116,104.08522412289567
3599.9788,2.3999547151374503,119.21694394747311
3600.8088,2.3937477360878128,115.74173522644713
3601.6372,2.3891926039494855,127.02509751000453
3602.4678,2.3872641462044073,157.4279970911736
3603.2964,2.3882035860059667,152.4685514398961
3604.1252,2.390827357092604,112.33292387041556
3604.9565,2.393071196600294,156.27517361247195
3605.786,2.3931822259146514,122.22826634098767
3606.6172,2.3906175851550695,152.92211783377027
3607.447,2.3860443365568895,124.86644318561076
3608.2788,2.3807798125942723,90.19264497560012
3609.109,2.3762411726715467,113.71622270107638
3609.9392,2.3733155060543614,109.10738052748214
3610.7717,2.372105909801011,138.61462363069833
3611.6023,2.372176134329226,114.61279706026751
3612.435,2.3731792036535,144.38536219175418
3613.266,2.375164224802256,130.36919460628792
3614.0994,2.378114387651073,134.74739155163036
3614.9307,2.381135188916641,107.66021334441153
3615.7625,2.3823945883016417,116.45813822552756
3616.5962,2.3800321042335177,163.3359036347986
3617.4282,2.373540183568599,119.98855139240715
3618.2625,2.364253285199223,145.4856767723426
3619.0947,2.3546799778905307,113.35458161881336
3619.9292,2.3469271346408074,123.43170630965395
3620.762,2.341941556711606,122.33879901310925
3621.595,2.3394539798752514,126.160155845972
3622.4302,2.338785748632033,142.88638093216468
3623.2634,2.339476477336959,138.2771750574185
3624.0989,2.3413186987888817,157.58807585789407
3624.9326,2.343823424522222,153.21245870822602
3625.7686,2.3457976191436236,124.85074963186015
3626.6028,2.3455837939445177,163.96664853992903
3627.437,2.342061352094593,138.3854060102207
3628.2734,2.335433467164796,121.36193478632435
3629.1082,2.3270812880572422,189.41547690229777
3629.945,2.3181930534255124,147.95545549656052
3630.78,2.3088310344367966,112.2997522008572
3631.6174,2.2980697864002546,114.99172083720116
3632.453,2.2856592440554784,124.92758637332967
3633.2883,2.2728687426941483,125.06612677080585
3634.1262,2.2619844318831315,140.58184356867335
3634.9622,2.2547287546287365,135.89067079905564
3635.8005,2.2509270027469084,191.78493302927814
3636.637,2.2490893906130345,127.34629753256982
3637.4756,2.2476727894773294,129.75802404195076
3638.3123,2.2459514530949014,150.60353134517547
3639.1492,2.243772447421263,132.53907249758353
3639.9885,2.2412277765899424,100.29734471033301
3640.826,2.23895423895899,169.91967481900573
3641.6653,2.2383212639813377,184.00077317672398
3642.5032,2.240669199566818,147.0896631524723
3643.343,2.245943714264543,160.03413304319938
3644.1812,2.2522645599762514,157.89907650295365
3645.0195,2.257169556851659,123.55761114067235
3645.86,2.2591709604822254,157.41979746440086
3646.699,2.258324480602192,112.00420018483003
3647.5398,2.2555662153806733,156.46929176435728
3648.379,2.2517223124855077,134.95703473652446
3649.2202,2.24705066336273,130.4862166477757
3650.0596,2.241514306091853,144.98517553485598
3650.8994,2.2350345071652358,138.16759606342526
3651.7412,2.22764672224426,129.9906357817149
3652.5813,2.2194905817335644,145.58836129021884
3653.4236,2.210651758635481,119.48737318728531
3654.2642,2.2014529291141027,129.76619535980262
3655.1067,2.1925652915344847,122.86817080506815
3655.9475,2.185196832208756,134.26560114684406
3656.7886,2.1804712608877748,159.39900886054616
3657.6318,2.178806523266843,154.13928731702416
3658.4734,2.179627219963735,169.51877040157763
3659.317,2.1817942064096063,140.810646445218
3660.1587,2.184368327227804,149.86075326954884
3661.003,2.1870966131453686,122.78224335181152
3661.845,2.1902120793491413,127.6415337184297
3662.6875,2.1938941987825866,150.45400729789463
3663.532,2.1976499644898193,141.18702435507663
3664.3748,2.2001462419668796,152.76285693246214
3665.2197,2.199766439352665,133.28745469932815
3666.063,2.195475203530229,131.69304048149354
3666.9084,2.187411286488496,154.92148756738638
3667.752,2.1768385690953087,134.02405212862783
3668.5977,2.1653358048214812,178.4689154617066
3669.4417,2.1543920340951614,160.78268566738382
3670.286,2.1450453621707646,148.1740680319604
3671.132,2.1380099047575567,152.57665253761544
3671.9768,2.1336043999314,173.2249070702609
3672.8235,2.1314731726350913,160.48253398223702
3673.6685,2.1307419750666314,161.95941128111198
3674.5156,2.130443406172157,164.23150927355815
3675.3608,2.1299833190852593,145.64157477899022
3676.2063,2.129146867063003,168.21607145881705
3677.0542,2.1278019398861643,161.52501502951446
3677.9,2.1257478103493916,143.4738629529572
3678.748,2.1228512552681185,177.86169600714862
3679.5945,2.1193751924632154,162.75708373648968
3680.4429,2.1159531206186233,143.00778325699653
3681.2896,2.1132552260640303,178.5348526163388
3682.1365,2.1114065116484597,196.54880704248893
3682.9856,2.109826514067277,175.38158070464016
3683.8328,2.1075587729839875,209.32532888832236
3684.6824,2.1037591689148365,154.73588723619997
3685.53,2.098112296921556,184.8447623605984
3686.38,2.090962719582508,165.81051581820057
3687.2278,2.0835770540828094,167.99317303714326
3688.0762,2.077868156421651,227.86996786473912
3688.9265,2.0756529134607464,146.96634834099822
3689.7751,2.077432014476883,152.19207568182816
3690.626,2.081760181147585,171.4211027304224
3691.475,2.0859324020797465,200.53543323582977
3692.3264,2.087649398726316,167.1630037512988
3693.1758,2.0861834401665815,173.78044923984044
3694.0254,2.08239303848733,179.20660491484693
3694.8772,2.077796874256264,169.38594198399528
3695.7273,2.0737530914717257,172.3599584035896
3696.5793,2.0709048854113594,156.37048554297763
3697.43,2.0690536623742934,160.46610888997307
3698.2825,2.067266412502722,183.3159311526097
3699.1333,2.0645688919051555,143.57933195656673
3699.9841,2.0606902372199616,165.3185829804166
3700.8374,2.056148194371011,180.22439105343034
3701.6887,2.051508217128308,174.59747951427326
3702.5425,2.046524161337815,191.63780636332905
3703.3943,2.040480125723808,145.36622228042174
3704.2483,2.033136327448196,185.63669323697786
3705.1003,2.025460676953207,188.40714516804582
3705.9526,2.0189291981434105,181.49054706028193
3706.8074,2.0144633569367145,166.575201544825
3707.66,2.0119414349750064,192.06338361570204
3708.515,2.010604876345378,165.05525800855324
3709.3682,2.0099631598828958,161.82493608460837
3710.2234,2.0101433040596475,188.8144375757618
3711.0771,2.0115654749719014,157.3062629169701
3711.9307,2.0143000933148514,177.87225695094065
3712.7866,2.017792038540857,158.6991824842894
3713.6409,2.021135378403218,157.60839534708873
3714.4973,2.0237169695269013,143.5273101974776
3715.3518,2.0254777554319703,168.6791744017688
3716.2085,2.0267921969938176,187.51683897319657
3717.0635,2.027998462173262,214.82260482265525
3717.9185,2.029119849966445,165.735505383568
3718.776,2.029901084376979,179.34115760243503
3719.6313,2.030040518814801,179.12785955973237
3720.489,2.0292455807700898,181.4026265096602
3721.345,2.0269857825274453,204.75274738935423
3722.2031,2.022425118391918,203.05916806615136
3723.0593,2.0151297252300813,194.0259549290258
3723.9158,2.005925006356645,190.1909268505491
3724.7747,1.9969266961385799,195.0126837048066
3725.6316,1.9902856381193754,203.02818974831297
3726.4905,1.9864714871689675,167.1705136365377
3727.348,1.9841165065428295,172.92254241993038
3728.2073,1.9811657708936066,171.5782830083931
3729.065,1.9764970290793984,170.47549056638493
3729.9229,1.9705325624732215,212.36282630230494
3730.783,1.9647016918056122,209.79883253601506
3731.6414,1.9603470526718114,180.3779248441954
3732.5017,1.9577968462180704,225.42022994450815
3733.3604,1.9564183495001677,173.31308530732292
3734.2214,1.9551583465568474,170.14545247716268
3735.0803,1.9531443477680144,199.65090801133883
3735.9417,1.949857529699499,206.38148989327664
3736.8013,1.9452380464630141,206.3931440157479
3737.661,1.9397566076703525,146.08990066057137
3738.5227,1.9343988328058723,190.4450317292583
3739.3828,1.9303201687472833,199.44016019243045
3740.245,1.9282421326329182,191.59956213022946
3741.1055,1.928272154727858,221.07046676386017
3741.9683,1.929958415871103,176.24328391223978
3742.829,1.9325048372675542,173.71736087176922
3743.69,1.9350293043030566,165.88706234836962
3744.5532,1.9368222905701995,190.34649078614484
3745.4148,1.9374897283377208,223.2697600271493
3746.2786,1.936848064810845,163.31081265471664
3747.1404,1.934596280312091,182.883183210206
3748.0044,1.9301926463863386,210.71889401816625
3748.8667,1.92329774970804,163.09249006510234
3749.729,1.9144143980335475,216.58067488801902
3750.5938,1.905227100326468,178.9974699290128
3751.4565,1.8981078082750553,235.47277427963715
3752.3215,1.894666726019074,279.78907310380134
3753.1848,1.8948781823329461,223.8009748543362
3754.0503,1.897191418903916,172.69225800924505
3754.9138,1.8997174591078991,212.09159808108637
3755.7776,1.9014136639169017,192.95756011645068
3756.6438,1.9023542375297338,210.72101578956864
3757.508,1.9031436837255638,197.0212298817195
3758.3745,1.9041302007990681,165.6800299591076
3759.239,1.9050559532973963,199.3526737353546
3760.106,1.9053640807456051,194.23026497853337
3760.971,1.9046544383238642,182.60368223689449
3761.8362,1.9028144679630143,198.746495334657
3762.7036,1.899736422544714,214.1427287903254
3763.5693,1.8951314539078716,176.5550288232937
3764.437,1.8886672078574556,192.6245092031877
3765.3032,1.8804946283603892,195.1851689775712
3766.1714,1.8714085005078895,258.1805314046387
3767.0378,1.8628343329592663,200.9605454006619
3767.9043,1.8562788999032451,259.85783131656393
3768.7732,1.8528433182194444,249.3289102542285
3769.6401,1.8526727550323083,222.24536646472478
3770.5095,1.8546461748884626,208.57911427367665
3771.377,1.8567683766285903,203.82823603008782
3772.2466,1.8571079212718495,213.0064987115692
3773.1145,1.8546546269768158,205.16681474062125
3773.9824,1.849628368958807,242.37106210858263
3774.8528,1.843086064433056,219.75730151286513
3775.721,1.8363371956062524,187.4963970848886
3776.5918,1.8303567641868308,189.00527689591223
3777.4604,1.8259507209515857,210.2351687709409
3778.3315,1.823931776881476,281.56105918255236
3779.201,1.8252031206597794,193.5068841293277
3780.0703,1.830114806533565,248.78074687424453
3780.942,1.837758165339435,227.96945116268782
3781.8118,1.8457293941804775,178.13656580621173
3782.6838,1.8510988591007722,198.6549875506264
3783.554,1.851723990805442,215.54013598766122
3784.4265,1.8473792926215946,261.4417243182738
3785.297,1.8397753432141666,255.61310495125235
3786.168,1.8316351103280808,184.68347045844484
3787.041,1.8255649928005668,220.18490713530156
3787.912,1.8231281322384956,259.48977039823353
3788.7856,1.8241953812062575,241.9453926383165
3789.6572,1.8270635381054774,193.65123555059506
3790.531,1.829332522613989,214.80658906080404
3791.403,1.8291720212722518,209.39323422670986
3792.2754,1.8261528359021035,207.42499037340133
3793.15,1.8209017161373713,239.88521232565355
3794.0225,1.8141895109947628,234.7468462571709
3794.8972,1.8062472206095797,210.79777251658754
3795.7703,1.797194463057969,235.45200360784258
3796.6455,1.7875557020060087,255.68036832239747
3797.519,1.778550438986569,215.11001416158692
3798.3926,1.771346112431074,248.68269542833198
3799.2686,1.7663966582352137,239.07012851616736
3800.1426,1.763306883913106,241.32998456870388
3801.0188,1.7612872290306154,247.19561997796475
3801.8933,1.759982678733808,167.7945475776596
3802.77,1.7597971496176583,269.00842521817935
3803.6448,1.761598923089062,221.80874401547496
3804.522,1.765992955820567,235.9877686512773
3805.3972,1.7727232521127751,205.3456878479601
3806.2727,1.7807661437017646,234.54297299931315
3807.1504,1.7887700143791356,198.7936416536879
3808.0261,1.795470851015351,229.52438894468767
3808.9043,1.8001665208642619,215.53150634423258
3809.7805,1.8028407724287492,222.92788085010943
3810.659,1.804247516738843,211.15480357650017
3811.5356,1.8053556927283927,232.29733847029001
3812.4126,1.8066375724387538,218.12715404539802
3813.2917,1.8077346473092533,250.93059696161836
3814.169,1.8078685892279933,228.10147182830883
3815.0483,1.806517843111329,223.41231301494292
3815.926,1.8036119506955661,191.8843518792653
3816.806,1.7992114540642234,230.50622962344622
3817.684,1.7934089304687517,193.2191965602819
3818.5623,1.786573374662868,205.20965045509914
3819.4429,1.7796442073701624,258.87278455165097
3820.3215,1.7739156807581646,263.3518908057016
3821.2024,1.7702078847888292,252.49540753753865
3822.0815,1.7683899012564004,229.99860276661252
3822.963,1.7672350480504693,218.45038237683633
3823.8423,1.7649224737172835,223.52089484887634
3824.722,1.759873226847775,213.92759030203686
3825.604,1.751611630009142,240.79238554540544
3826.4841,1.7411344094410233,261.05373259383447
3827.3665,1.7300909132236764,240.21733660770042
3828.2468,1.719768190783132,219.7455605917533
3829.1296,1.7100892297348822,259.68895449486786
3830.0105,1.7000019071989672,245.57874389913232
3830.8916,1.6882885164130277,236.972199784224
3831.7751,1.674592195570238,257.59503852763135
3832.6565,1.6597619619885284,213.4651987435834
3833.5403,1.64504377193995,250.31573169355994
3834.4224,1.6317019491776992,272.36521411466373
3835.3064,1.6205746046957763,228.4611054600528
3836.1887,1.612521269621269,238.19244663586142
3837.0713,1.6083436041855343,269.3043603674537
3837.956,1.6085936934030596,255.67524060079867
3838.839,1.6131244854629168,306.32060619019677
3839.7244,1.6209898993236234,304.07029528725195
3840.6077,1.6306501237545943,254.31441645669878
3841.4932,1.6406257409380267,259.08617364738586
3842.377,1.64986055800389,246.7308220820281
3843.261,1.6581936200888927,248.38239926064003
3844.1472,1.666247404289516,279.0211179448066
3845.0315,1.674984538685893,253.0544332074549
3845.9182,1.685282106576393,256.53260466915333
3846.803,1.6972758110219286,234.86387511869836
3847.69,1.710408030601127,255.11540646064677
3848.5752,1.7235176552663694,215.2049832057535
3849.4604,1.7356759327225904,262.0489924441952
3850.3481,1.7466207807692307,219.7253505639598
3851.234,1.7566215478472247,248.58111565748302
3852.122,1.7660900347568917,225.58056392783618
3853.0083,1.774803005833262,219.9839278710184
3853.8967,1.782055241410123,198.99923483544055
3854.7832,1.7870414207043128,203.8880038339946
3855.6702,1.7895784973926054,255.21326131162198
3856.559,1.7901624467549158,203.99766768687687
3857.4463,1.7896393561109794,223.14930877894173
3858.336,1.788754498620749,248.61144006088122
3859.2234,1.787945770346296,219.5041636808449
3860.1135,1.7873828076711997,227.8212213427115
3861.0015,1.7870902417454162,209.05391212873724
3861.8896,1.7869271528438,228.5457125024201
3862.7803,1.7865235531768742,242.19053545596051
3863.6687,1.7853267574675191,220.9592816782643
3864.5598,1.7827488683058956,248.58686847610358
3865.4487,1.7782967164480616,244.09505076679957
3866.34,1.7714798358171122,237.3963135212057
3867.2297,1.7619148533620104,228.44677238715607
3868.1213,1.7493956284290113,253.06125099796108
3869.0112,1.7343525014461982,190.41539646521426
3869.9014,1.7178732367598963,240.86295324926596
3870.7937,1.7016378728796298,229.65263582803738
3871.684,1.6874826682575466,241.78991898632748
3872.577,1.676347528227512,257.7322223659155
3873.4678,1.6680053199789278,250.6483248540775
3874.361,1.6609768006669445,264.53061162627864
3875.2524,1.6534210167531784,276.5355620263511
3876.1438,1.6437935676746234,232.50321309990187
3877.0376,1.6313071371516437,297.99555359181056
3877.9297,1.6160554026105405,359.22540376733485
3878.8237,1.5985443224621947,332.37314452196637
3879.716,1.5796340196997167,263.38163287355263
3880.6108,1.560036769671607,261.7914689692533
3881.5037,1.5405218929410285,338.8287846920328
3882.3965,1.5214376325871137,293.7878667076884
3883.2917,1.5026934907217575,291.3213219724449
3884.185,1.4839364723764,310.26834515799817
3885.0808,1.464511345967473,328.7115600561415
3885.9746,1.4442828232523073,317.35478685620103
3886.8706,1.4236391737632093,425.2570612979028
3887.765,1.403943459788521,352.7896708914873
3888.6592,1.3868755007876716,368.66795394678616
3889.556,1.3739701103450488,361.1557982719349
3890.4507,1.36623810516367,346.62893311644814
3891.348,1.3638881503475644,359.23559545558766
3892.243,1.3666456003188205,348.70994665168485
3893.1406,1.3738447226318233,458.98642113006986
3894.0361,1.3844501113284486,409.869824307591
3894.932,1.3973439867200628,380.3336710043477
3895.83,1.411550732136765,369.5755291604363
3896.7263,1.4262518957250299,349.0398866342859
3897.625,1.441052107039816,374.33105860439827
3898.5215,1.4558099941663787,370.5127546413574
3899.4207,1.4711948739216096,328.8419050379773
3900.3176,1.4883727055451734,310.92144615610647
3901.2148,1.5087218159541604,388.49333577192704
3902.1145,1.5327821715573071,356.9837512545203
3903.0122,1.5593820123420643,261.6170773369988
3903.912,1.5862282328295163,304.9429115690722
3904.8103,1.6104843106231488,267.23716293739176
3905.7107,1.6305355029562998,273.7840278071081
3906.6094,1.6463448277181805,267.06259351736816
3907.508,1.6594978814341363,236.34893330433474
3908.409,1.671977986080655,288.2100744802366
3909.308,1.6849621844301854,251.9033823647596
3910.2097,1.6985366368891073,217.0862439382086
3911.1091,1.7118552270942822,229.1088432001469
3912.011,1.724289900634545,207.98624637178696
3912.9111,1.735780381687885,221.44631181913797
3913.8113,1.746923382966029,254.93833950127888
3914.7136,1.7583267440444028,241.31630066964024
3915.6143,1.7701299992637918,222.82393131163457
3916.517,1.7821552771705478,215.03767640949079
3917.4182,1.7937831147586007,272.734586649316
3918.3215,1.8041994330145674,221.4007390694803
3919.223,1.8124091348970777,206.70170325310838
3920.1245,1.817821002160692,213.43955178680756
3921.0286,1.8204393497569282,224.64168887708436
3921.9307,1.820821743783168,189.0103942629495
3922.835,1.8198970570460151,209.5513705414842
3923.7373,1.8187470084597934,226.81048833772303
3924.642,1.8183118167045746,214.32052166847092
3925.5452,1.8189907432186132,209.83271080337914
3926.448,1.8204177740977963,218.78051690591298
3927.3535,1.821786029981573,233.51811407480162
3928.257,1.8224889753521367,220.14754578006176
3929.1628,1.8225500959170366,194.19570995869543
3930.0667,1.8223342609186393,235.9405378345663
3930.9731,1.8218591683524208,212.02868677146387
3931.8774,1.820447852349572,198.18866823417787
3932.782,1.8171710948496276,199.15630417374447
