wavl,flux,ivar
3566.9744,0.1653065688010929,2141.658628920967
3567.795,0.16109563426741835,2626.6871050505333
3568.6177,0.15752450154558797,2695.065724733404
3569.4385,0.15511822897958352,3698.7357292110755
3570.2617,0.15402585551378853,1884.2565563414912
3571.083,0.15390380283245605,1529.0228487228023
3571.9065,0.15409026805323764,2593.3938901142533
3572.7283,0.15407451775183767,4617.391312049895
3573.55,0.15388891974982966,2097.578267120912
3574.374,0.1541442505231142,9660.520859706963
3575.1963,0.15565986132505086,353287.2452215186
3576.0208,0.15894086115530998,1461.494907287423
3576.8435,0.16380052221803454,4491.361016916856
3577.6682,0.16944534681491463,3048.108345639489
3578.4915,0.1747014164706616,1166.5950494848846
3579.3145,0.1784828539018126,1076.3028070267535
3580.14,0.18009854126337063,889.7259603142269
3580.9636,0.17940938165710096,1192.7131309647652
3581.7893,0.17672681893493847,1889.227941554768
3582.6133,0.17253341158298618,20471.652646578546
3583.4395,0.1673457649736832,157461.40342307996
3584.264,0.16201624335454032,2640.659783701829
3585.0884,0.15783444339619682,3801.5026572122324
3585.915,0.15625137046989043,2736.7519991456943
3586.74,0.15812743381121358,1302.6108738921564
3587.5671,0.1630927955589023,5658.193971720667
3588.3923,0.169529595220542,2520.624177432072
3589.22,0.17537550901119553,1179.7037134578693
3590.0457,0.17901892953143583,842.7058213305636
3590.8716,0.18010908667746076,1871.1090277096096
3591.6995,0.1794790676527994,751.9418882272864
3592.526,0.1785252169875437,2251.9802782719207
3593.3542,0.17831165763653695,3445.179576638815
3594.181,0.17894201778435365,1452.2044652507082
3595.0098,0.17953893941899413,731.7156795580856
3595.8367,0.17887347796953992,1525.0039766400769
3596.6638,0.17622998637029813,3366.5939023926276
3597.4934,0.17183605475567112,651.1202959822408
3598.3208,0.16670267149997203,4096.024585252799
3599.1506,0.16192969909574548,11469.191970583648
3599.9788,0.158306336589718,824.9271076603088
3600.8088,0.15607619769072067,1976.1924140284702
3601.6372,0.1551256398838464,94423.20755635224
3602.4678,0.1551538384552858,9507.012064660905
3603.2964,0.15589644616091994,2966.9782542767616
3604.1252,0.15726404214000675,838.639167860628
3604.9565,0.1593286764771896,948.0032927931379
3605.786,0.16207256219149022,225438.32848482815
3606.6172,0.16517058160959108,933.2071480854615
3607.447,0.16794945891064345,1888.6858413644375
3608.2788,0.16978133234061973,786.0615836285536
3609.109,0.17044235753270862,1050.5523173058623
3609.9392,0.17021471774113056,3907.0483658026055
3610.7717,0.16956005515476266,1432.5473777845898
3611.6023,0.16878921446132497,2726.3827400032
3612.435,0.16804043362892115,1040.1905521239821
3613.266,0.1675836419302468,1217.8237013924625
3614.0994,0.16794700476711805,3950.852184345352
3614.9307,0.1695635924191654,2902.447717558517
3615.7625,0.1722100285547878,2005.1942305103066
3616.5962,0.17490400588108312,4576.314118055843
3617.4282,0.17650073730444363,1001.5228149599112
3618.2625,0.17657314255351644,1939.7135571786662
3619.0947,0.17571228178286308,9441.698111746626
3619.9292,0.1750939653425003,4909.010105522337
3620.762,0.1756699953223362,1665.0264010912663
3621.595,0.17754385229729297,1186.9894652240991
3622.4302,0.17988714447021398,3919.792432781701
3623.2634,0.1813477694199919,1087.4303651768207
3624.0989,0.18087287395367233,1121.464340961028
3624.9326,0.17842638024686852,657.7077433365365
3625.7686,0.17511994473426593,2093.7710923326185
3626.6028,0.17253347750040093,744.8772450091305
3627.437,0.17155200737148757,1700.352925614852
3628.2734,0.17175302020216673,1436.277998807639
3629.1082,0.1717203381244811,993.9698138862658
3629.945,0.17003205299523527,10231.344665578159
3630.78,0.16615656029123999,6687.828823039816
3631.6174,0.16060642834627295,8343.586186059514
3632.453,0.15454167187907222,1587.0331868854055
3633.2883,0.149002041306843,1429.8123069576932
3634.1262,0.14458795758615417,3257.6702990047575
3634.9622,0.14162330114716346,4805.889688379964
3635.8005,0.14037351839779197,1948.9988630534447
3636.637,0.14109717145961498,2473.679985944844
3637.4756,0.1436915391895495,1416.5482658859853
3638.3123,0.14748756654433515,1888.4376485634148
3639.1492,0.15152039329725717,1912.1452612406138
3639.9885,0.1549199210434034,2543.5358119352913
3640.826,0.15710595954951515,3688.625107635821
3641.6653,0.15788047916744338,888.9813592152326
3642.5032,0.15738476827578077,12153.851150525983
3643.343,0.1560347559837631,6438.938835268413
3644.1812,0.15428228873372038,2542.2609776744594
3645.0195,0.15237640294528948,1625.8862037966892
3645.86,0.15042434197834353,3271.9184926762637
3646.699,0.14866865618867953,2472.1852264964987
3647.5398,0.1475930569583077,2163.239494020362
3648.379,0.14777268764440654,1581.754928845046
3649.2202,0.1495086197745069,1927.2896153778718
3650.0596,0.15253800475299759,855.7803687380714
3650.8994,0.1560058695998192,1393.172322480999
3651.7412,0.15866772075078378,4655.544910739608
3652.5813,0.15931728740659595,1916.5909162644411
3653.4236,0.15734410880495106,2848.6845021625304
3654.2642,0.15309797296476205,19120.35706938169
3655.1067,0.1478189426679663,2104.494890281288
3655.9475,0.143184894245152,1194.6605204280056
3656.7886,0.14048460947991062,2804.7037301101095
3657.6318,0.14012050844702809,2051.3920254576833
3658.4734,0.1415781660994204,25075.042452588787
3659.317,0.14390181430997145,15415.745828493858
3660.1587,0.14623809688028863,1988.848305887033
3661.003,0.14811813404490504,1457.6631812387566
3661.845,0.1492997456779153,1578.9377637265281
3662.6875,0.14958175424993608,1335.6674381222483
3663.532,0.148729402079283,1586.0364037077413
3664.3748,0.14663921908515995,2465.2250647382284
3665.2197,0.1434716587594873,1544.3796310823918
3666.063,0.13972413443292245,4443.052137582508
3666.9084,0.13614193288502252,898.3801303449952
3667.752,0.1336823270332071,1963.79452940799
3668.5977,0.13317528347512633,1168.0761802796976
3669.4417,0.13494419295308555,12681.665051529953
3670.286,0.13858316196754233,2305.884423104949
3671.132,0.1432477285705135,37389.59234075589
3671.9768,0.1481136467676405,3663.246981852315
3672.8235,0.15269683746544957,3551.915910378092
3673.6685,0.1566650338922304,2817.536737510193
3674.5156,0.15973647339150573,2796.534583309094
3675.3608,0.16160799890592364,1476.9937491115015
3676.2063,0.16211359164647604,1805.5697604349841
3677.0542,0.16126175014943658,2528.526866019381
3677.9,0.1592937103198703,2229.071717552275
3678.748,0.1566300343868647,2232.0181024998715
3679.5945,0.1537225130213077,1808.230151319182
3680.4429,0.1507453915749238,2304.628747019118
3681.2896,0.14760987961774485,3308.8035421985337
3682.1365,0.14428736126568525,2488.6717759465755
3682.9856,0.14129312870049143,2370.739916614517
3683.8328,0.13970094497417837,26836.569588400624
3684.6824,0.14042906999080304,3649.2541809183954
3685.53,0.14341645574825984,5903.57376466966
3686.38,0.1473754589465792,8042.288523139632
3687.2278,0.15036807080254833,2157.2880677068597
3688.0762,0.15091742530182506,1590.061150311098
3688.9265,0.14869112828819325,17321.64600385466
3689.7751,0.14453559936104296,3256.275076759296
3690.626,0.1398382075451658,5484.644843270901
3691.475,0.1359075455324253,7626.73854932278
3692.3264,0.13352036925029326,6854.4474269090915
3693.1758,0.1329355059081255,912.4326179521539
3694.0254,0.13394506960276154,4199.419193929798
3694.8772,0.13607805265082012,1554.869177269424
3695.7273,0.13883952336549366,5358.62308139935
3696.5793,0.14198236450404433,2011.7408445786537
3697.43,0.14540186577643777,6534.232036499067
3698.2825,0.14886295225324234,2468.566483603404
3699.1333,0.15178774002284748,2185.341082380591
3699.9841,0.15359412842884823,2680.008834187797
3700.8374,0.15412034828501966,3676.9942016210894
3701.6887,0.15374685352668532,2918.3454339511313
3702.5425,0.15305987635268822,4349.214815395669
3703.3943,0.15241077813215648,1037.5559374399948
3704.2483,0.15175597900358262,3413.079059847899
3705.1003,0.15086710739560766,1954.615512202628
3705.9526,0.14964937247062562,1292.0165043445213
3706.8074,0.14835072801878074,2199.005744602644
3707.66,0.1474900327558431,2181.1440351186425
3708.515,0.14747776703914364,5546.975887539986
3709.3682,0.14827066878100903,4784.431195965913
3710.2234,0.14935804530063287,3133.633363686663
3711.0771,0.15015513902716981,957.2967278938722
3711.9307,0.1504752841378267,5346.521439304602
3712.7866,0.15061554851107606,2471.0186924931945
3713.6409,0.1510441267675681,2817.757735162341
3714.4973,0.15202075901897052,3344.1309268483496
3715.3518,0.15343340776016443,1660.2876368671932
3716.2085,0.15490127692763042,1823.1092045329842
3717.0635,0.15593803481981328,1221.6384884364584
3717.9185,0.1561896900080459,1397.513680249364
3718.776,0.15559161961177823,1179.6820477705705
3719.6313,0.15438741535018122,2912.3864506355553
3720.489,0.15293206131323714,3594.4978263715816
3721.345,0.15151521797436898,1715.1685236636358
3722.2031,0.15029512393858968,3231.7033500376283
3723.0593,0.14936771190128167,1024.462568274966
3723.9158,0.1487397543843417,4037.8702113544905
3724.7747,0.14832422497814396,6145.1516694817765
3725.6316,0.14803728379336042,1761.8724787569454
3726.4905,0.14794697374422788,3751.23012265161
3727.348,0.1482860262993991,3850.1149420565926
3728.2073,0.14924933963622736,2406.6344299914226
3729.065,0.15075590752431625,2369.7597272989697
3729.9229,0.1524181740542304,3786.045364462163
3730.783,0.15371827684854059,2246.6303167229194
3731.6414,0.15426835905162106,1955.7840523403913
3732.5017,0.1540047703836891,4347.903727654327
3733.3604,0.15316172104057654,2269.36966959154
3734.2214,0.1521041177610665,1231.021402310622
3735.0803,0.15115630157539378,1153.5693501355408
3735.9417,0.15046722414042088,7314.194890278829
3736.8013,0.15002401312144412,2589.738206649371
3737.661,0.14975042664748284,1968.9164954322118
3738.5227,0.14965156770940982,2937.7925574919645
3739.3828,0.14982505643771835,1817.0887617593582
3740.245,0.15034011529790386,2836.764309460352
3741.1055,0.15115355970436417,2773.41396388311
3741.9683,0.15216127144590028,2260.3607508214623
3742.829,0.1532116323106863,1885.4406195739166
3743.69,0.15405944936962374,2310.3533833690526
3744.5532,0.15433314317152555,2288.3719309496405
3745.4148,0.1536574175518119,1247.1230442621456
3746.2786,0.151850219414894,2410.982114994225
3747.1404,0.1491099806563571,2181.4971523683853
3748.0044,0.14608447846006797,1418.571364323059
3748.8667,0.14382133030075317,4552.218851828739
3749.729,0.14332053739241654,3305.773573820671
3750.5938,0.14504162793069814,4778.838073261634
3751.4565,0.14861411744991962,2134.8732277639256
3752.3215,0.1530785678136753,1006.90926653672
3753.1848,0.15729641259539096,2231.276356829376
3754.0503,0.1604209570014532,3199.3470585219566
3754.9138,0.16203017365690892,12317.000682816246
3755.7776,0.16221321887338255,2968.2449185546648
3756.6438,0.16140546267584285,3649.8082708304046
3757.508,0.16013558378315604,2538.239478668697
3758.3745,0.15874864744966308,2510.5815149596037
3759.239,0.15737651735702515,2377.6103131975183
3760.106,0.15605161085748998,2335.762776978604
3760.971,0.15484738597024672,4996.207927964708
3761.8362,0.1538224697701433,3092.1187548657103
3762.7036,0.15295553300109732,1693.3672471642835
3763.5693,0.15217372453103664,1552.845616796318
3764.437,0.15145414783308142,3542.820724229173
3765.3032,0.15089161936451928,2318.687821419161
3766.1714,0.1505974718697183,3686.7365073969113
3767.0378,0.15056601705685718,1605.6110357641119
3767.9043,0.15063404491101434,2660.4341566024373
3768.7732,0.1506054862061415,1967.696759940401
3769.6401,0.15043885482104508,1377.0885881337204
3770.5095,0.15033336884575493,9881.806173894875
3771.377,0.15059251193792808,4429.799750528109
3772.2466,0.15132880632348195,3149.4779017282394
3773.1145,0.15226972358529148,6285.409505444656
3773.9824,0.15291653212022932,1796.7836849982493
3774.8528,0.15295424140376263,1110.4774450990094
3775.721,0.152569932673174,2550.9841957780536
3776.5918,0.15234151694867024,6523.628655365061
3777.4604,0.15277339006572146,1739.7021598789652
3778.3315,0.15392572013631614,2165.184566636872
3779.201,0.15547273092547492,1457.876852339763
3780.0703,0.1570529371893764,1020.3742706320531
3780.942,0.1584223741943912,1167.3685295582382
3781.8118,0.1593069813625287,1402.2113709275554
3782.6838,0.15933928796523394,3365.2259619782876
3783.554,0.158299767303911,5818.840097657316
3784.4265,0.1564738612044231,1631.9699632557413
3785.297,0.15466007931396566,2881.3897276508687
3786.168,0.15364057557753713,3963.7831644896623
3787.041,0.15361887361870785,2007.2878025124173
3787.912,0.15407141479948191,2812.0275748938657
3788.7856,0.15417428508280762,3127.2763923126263
3789.6572,0.15342927836855758,2119.5925494317607
3790.531,0.15199854863263582,1784.4868455528238
3791.403,0.1505456773189353,1691.2905781034428
3792.2754,0.14969941099244344,2618.8493750869075
3793.15,0.14959220813329782,10130.257577414995
3794.0225,0.14979712953123903,1774.9971487658768
3794.8972,0.14974364478157542,2572.1371812930943
3795.7703,0.1492423973841458,17714.96095143209
3796.6455,0.1486377905160799,1700.0881493487802
3797.519,0.14849955121867953,1195.877961875698
3798.3926,0.14914293132257075,1834.2979650072975
3799.2686,0.15038688744541281,4338.525608742701
3800.1426,0.1516754009025095,2072.780008483659
3801.0188,0.15254585554937966,1899.1436574291986
3801.8933,0.15300635282013075,2923.7750444355256
3802.77,0.1534618671577779,2068.995774096069
3803.6448,0.15412907175838192,2762.8365544111566
3804.522,0.1546194556473008,889.7587032091844
3805.3972,0.15423342771902346,2028.0790201467591
3806.2727,0.15274667895417637,815.7248734615681
3807.1504,0.15077484115901396,4472.665048914856
3808.0261,0.14933422483621184,5713.782822620767
3808.9043,0.14901357037621668,7238.50571259866
3809.7805,0.14967042243002326,3060.6183374751927
3810.659,0.15077439976095552,2437.9379529369085
3811.5356,0.1519364431565917,2444.204509157666
3812.4126,0.15312376117448123,2178.3540547266794
3813.2917,0.15448315579658833,3695.108135766402
3814.169,0.15608805127273598,2098.4410374775816
3815.0483,0.15786536967341566,1949.0290427620928
3815.926,0.15959340496954455,1188.726266800214
3816.806,0.16097740705932978,3718.2725173381123
3817.684,0.16168349667006632,2102.4793513998948
3818.5623,0.16150176415374629,1899.1399111378066
3819.4429,0.1605000210199691,3347.693142782044
3820.3215,0.1590577947434815,1572.2518080633233
3821.2024,0.15762183169250674,3199.7096146887648
3822.0815,0.15643756391972521,1405.6201922476762
3822.963,0.15545962133542987,2888.3640442040273
3823.8423,0.15458333169693894,5889.229312248316
3824.722,0.15386092198392406,2384.222957586504
3825.604,0.15351430039005579,2345.9027525891634
3826.4841,0.15373685139395943,1920.619489188392
3827.3665,0.15452967933930536,1676.4074172012743
3828.2468,0.15572206737583372,1801.7651430213311
3829.1296,0.15707839550265393,2662.0865240183434
3830.0105,0.1582564281219145,3231.6473423564253
3830.8916,0.1587450215779541,2902.859975770393
3831.7751,0.1579379205058759,2283.8759119163524
3832.6565,0.15549152411205575,1443.2225946142185
3833.5403,0.151625040668694,2394.6314977984734
3834.4224,0.14715986178522963,2027.1033703399207
3835.3064,0.14311893084723065,1341.0500802731776
3836.1887,0.1403875343775165,2180.876767364598
3837.0713,0.13940782684494443,4565.797715241514
3837.956,0.1401707742828648,2645.2516538338964
3838.839,0.14231088963422195,2104.027630642132
3839.7244,0.14534388846992716,4150.373120058166
3840.6077,0.1488100467545473,3235.0007963665807
3841.4932,0.15230442556335608,1860.9660223753338
3842.377,0.15526025028580867,10904.548733310688
3843.261,0.15701828703649623,1468.5625594748972
3844.1472,0.1571470772279008,2973.741420381659
3845.0315,0.1558653576219847,3420.3378753422407
3845.9182,0.15403788031748838,1952.8383731888832
3846.803,0.15269906664070634,15144.549591838892
3847.69,0.15245909257793816,3121.8228255933395
3848.5752,0.15330592947652474,2853.482559274833
3849.4604,0.1547706167411275,2682.7549974435706
3850.3481,0.15626567326121468,2120.1547393992796
3851.234,0.15734235760421494,1678.196844673532
3852.122,0.15784194061167078,3001.5318188913557
3853.0083,0.15784417888765864,2413.29487432525
3853.8967,0.15756570448452492,1757.281908997594
3854.7832,0.15726625107588996,3861.748558886528
3855.6702,0.15717678015244532,1841.770435350401
3856.559,0.15739926710319502,4538.627795058243
3857.4463,0.15782940519164074,1810.3094691021975
3858.336,0.1582654911731009,1844.3694250987094
3859.2234,0.15864872503461672,1933.2741950927368
3860.1135,0.1591846554986458,2167.9027947031773
3861.0015,0.16013484629497382,1658.8188924631277
3861.8896,0.16151171227242184,2275.9841576028066
3862.7803,0.16299623448287523,2131.082331522117
3863.6687,0.16415632579665207,1767.2902506173675
3864.5598,0.16475458847257096,7402.0564511790035
3865.4487,0.1647865015327324,2988.7275847187443
3866.34,0.16435493811454457,1728.859154357703
3867.2297,0.16355357212665927,2055.4616247467507
3868.1213,0.16248283510652134,1281.333690797995
3869.0112,0.16132210568622307,2601.5135842149416
3869.9014,0.16029335466656988,746.8492576737428
3870.7937,0.15957890514695072,1424.358299929574
3871.684,0.15925425376759042,4812.968279444049
3872.577,0.1592624798148366,3952.071989204903
3873.4678,0.15942869797480486,1676.2419075874013
3874.361,0.1594665129879376,3762.9834632297693
3875.2524,0.1590272627396513,2754.966604037636
3876.1438,0.15784896563175108,4351.204200061285
3877.0376,0.15594689117083513,1662.6464304264182
3877.9297,0.15371840378712084,4606.75534776785
3878.8237,0.15175862327526765,2694.02866873436
3879.716,0.15057407016233235,1862.2223334638943
3880.6108,0.1502741423582236,2827.3247308136647
3881.5037,0.15051403443232966,2314.092806942159
3882.3965,0.15066875777535965,1479.6640035804426
3883.2917,0.15018508086904406,1133.352262269168
3884.185,0.14887598374800848,3164.0236292384816
3885.0808,0.14692166220557884,2796.6069324625564
3885.9746,0.14463034781336745,3525.8149564376486
3886.8706,0.14212464424667534,1663.8232742994155
3887.765,0.13937411227545107,2833.505929785851
3888.6592,0.13642510300050814,2448.432328065157
3889.556,0.13363982920668113,5197.678351790501
3890.4507,0.13160990915473061,2218.291764755506
3891.348,0.1307307272615155,4801.335163680775
3892.243,0.13096542088046895,2566.938721426026
3893.1406,0.13194489246563174,2111.919270502783
3894.0361,0.13332929012756065,2842.213866510268
3894.932,0.13502348254742932,4652.097869802763
3895.83,0.1370176425125413,4506.042668542381
3896.7263,0.139122399056821,2792.7649659456542
3897.625,0.14106016396693938,3197.335930973454
3898.5215,0.14276512235394523,1560.3630311705897
3899.4207,0.14459157702612857,5958.60162208992
3900.3176,0.1469919968487213,3550.8394704842117
3901.2148,0.15011025976054676,3614.9940944350324
3902.1145,0.15366135312405854,2957.773815883901
3903.0122,0.1571897765900961,2264.2837086949476
3903.912,0.16043603111694704,2012.7219047477045
3904.8103,0.1632830560269997,4712.048656089573
3905.7107,0.1656376076565822,1416.1808933808747
3906.6094,0.16733364379488588,1536.8010507398583
3907.508,0.16831441518965665,3455.638609896101
3908.409,0.168721575987577,2644.121866067901
3909.308,0.16880591027848635,1930.5297174327045
3910.2097,0.1687443356402373,982.0490821157762
3911.1091,0.16855109151830097,1318.0938222184427
3912.011,0.16814975906356266,2719.528535524898
3912.9111,0.16753809088579596,1821.035386373656
3913.8113,0.16692595777165378,1479.1011181392296
3914.7136,0.16672470147423502,1208.0385168043854
3915.6143,0.16729186578036156,5019.016494891565
3916.517,0.16859676745242708,1731.700764070491
3917.4182,0.1701442053392868,2225.3524589555395
3918.3215,0.17131552010159945,1727.4458948582826
3919.223,0.17178519555928945,1697.3372301413592
3920.1245,0.17173265775339364,1363.3912900391476
3921.0286,0.1716764386684348,2372.7238734614903
3921.9307,0.17211533323038877,2047.6221384404002
3922.835,0.17317487547022645,1260.116066912597
3923.7373,0.17447107253238142,1600.0040954631518
3924.642,0.17533256810653558,1527.9485731135208
3925.5452,0.17518599540332272,2204.604596798196
