wavl,flux,ivar
3566.9744,1.100679087234646,716.8828513318792
3567.795,1.0988646185833952,594.6977147156537
3568.6177,1.0985165743005663,542.0467258395786
3569.4385,1.0988167171541465,654.5136797755428
3570.2617,1.0988298570168566,613.0328079300681
3571.083,1.0981409037783785,534.405934095005
3571.9065,1.0969933387678268,499.17149207226475
3572.7283,1.0958573858768204,566.322397564362
3573.55,1.094848854547569,488.889557133758
3574.374,1.093644802824807,556.123568822268
3575.1963,1.0919645924784434,545.6212729101104
3576.0208,1.090058337630656,563.8752401067543
3576.8435,1.088744905214758,584.0397315123444
3577.6682,1.0889170276046267,665.950811825756
3578.4915,1.091069089068866,537.066488788249
3579.3145,1.0950619850545382,523.1294736600671
3580.14,1.1000525552440739,723.0268035828465
3580.9636,1.1043756520162864,741.6488135040761
3581.7893,1.1059201041960436,530.0703388813906
3582.6133,1.1029962072246717,447.1932766114699
3583.4395,1.0954526205761468,534.5925203171627
3584.264,1.0850563951817755,665.908443943521
3585.0884,1.0745201446512282,873.3200835500631
3585.915,1.0661654653676045,640.0106761300738
3586.74,1.0611644275439878,543.3221138637344
3587.5671,1.0594711901551832,743.7632776058665
3588.3923,1.0603947671000766,583.8721626804333
3589.22,1.0629595244397847,583.7133221595188
3590.0457,1.0661486721134776,627.0720025287782
3590.8716,1.069191921293853,623.1266550372115
3591.6995,1.0717609590496187,501.02715829685275
3592.526,1.0739551888930425,688.0118787573014
3593.3542,1.0760515834755313,521.3322148150511
3594.181,1.0780771332677124,565.4164893225314
3595.0098,1.0796831881729263,570.6524074186259
3595.8367,1.0803251670371892,570.0383242877098
3596.6638,1.079657793269785,644.6010870628469
3597.4934,1.0776607888949212,763.2404173767561
3598.3208,1.0745305898154252,737.1094539565919
3599.1506,1.0704499636988347,632.6376582401988
3599.9788,1.0656450230374086,743.1544501824276
3600.8088,1.060437789559544,532.1116448044855
3601.6372,1.0554494271556067,685.0943835048175
3602.4678,1.051538940655891,579.3419002900288
3603.2964,1.049726057955778,665.0991031976567
3604.1252,1.0506653158926613,776.1868034999011
3604.9565,1.054065998036387,654.2433653546925
3605.786,1.0583143138891782,596.2355940764518
3606.6172,1.0611144327293573,662.8510150778948
3607.447,1.0608048831004782,559.0196225984811
3608.2788,1.0575261674274952,702.1353067786076
3609.109,1.053057143883363,678.8131881946927
3609.9392,1.0494131596836498,698.5668142641704
3610.7717,1.047564887436507,622.3250516538171
3611.6023,1.0472576628446169,693.5095319630274
3612.435,1.0477764113430152,594.575114913327
3613.266,1.0487117950690876,665.3707184475961
3614.0994,1.0499793939901452,563.1432754543653
3614.9307,1.0513230984047952,731.8945770705809
3615.7625,1.0520863838647339,742.8517620762357
3616.5962,1.0515270593332027,527.730314065656
3617.4282,1.0494028699507214,708.1579384630145
3618.2625,1.0461633551871465,566.5219547361986
3619.0947,1.0426200341211664,611.5763926571805
3619.9292,1.0393470730648837,552.7282792515986
3620.762,1.0365668390125078,627.963959014417
3621.595,1.0343731750322938,630.124723432846
3622.4302,1.0330898283615648,616.3711857858294
3623.2634,1.033225285421292,762.1516676421992
3624.0989,1.0350164719915815,808.1099741890662
3624.9326,1.037973233842083,654.9616789912272
3625.7686,1.0409105498964633,621.98642919598
3626.6028,1.042513472095606,639.6877541422637
3627.437,1.0422257209967414,870.5593922343311
3628.2734,1.0406367317679117,477.2339156701367
3629.1082,1.0391046388266094,782.0719967502002
3629.945,1.0387426544964566,586.3740661977857
3630.78,1.0396266039884858,648.5621608708782
3631.6174,1.0408295664857194,590.0967706165872
3632.453,1.0412255821209297,615.0698525964667
3633.2883,1.0403476910183467,778.9530378413679
3634.1262,1.0385788734753458,736.4006277919135
3634.9622,1.036776327631703,629.2225701577411
3635.8005,1.0356750245681046,799.6366946178589
3636.637,1.035558032992105,979.4149090675651
3637.4756,1.036205429794695,907.9892421728632
3638.3123,1.0371315428177883,686.5611931182639
3639.1492,1.0378847090429721,929.5263730009278
3639.9885,1.0382030480179074,693.4406078343343
3640.826,1.0380549563573227,597.8771708046705
3641.6653,1.0376640792797407,595.30756558884
3642.5032,1.0374480843107177,615.1719257327277
3643.343,1.037743851089238,733.9729750045766
3644.1812,1.0384585371294104,843.4043837070112
3645.0195,1.0390271333337735,653.2192853072911
3645.86,1.0388169524313489,632.8068400202444
3646.699,1.0376372135260958,656.8490471385583
3647.5398,1.0358311364801427,652.1520124755973
3648.379,1.0339273265217563,721.7568709918676
3649.2202,1.0322271432536507,742.838938560627
3650.0596,1.0308129623300069,655.5106830410449
3650.8994,1.0297476896144404,630.9504405546592
3651.7412,1.0292130862607796,570.6255049435827
3652.5813,1.0293846692852873,667.2911279212021
3653.4236,1.0302430160131089,682.4265131782918
3654.2642,1.0315185256971282,668.2878848399077
3655.1067,1.0328047079456883,626.0420271928381
3655.9475,1.0337061083905936,621.644344678345
3656.7886,1.033991262324962,561.1429467688107
3657.6318,1.0336011709457156,491.80077102200056
3658.4734,1.0325638506281705,568.6506083265547
3659.317,1.0308632523637982,615.3597048481391
3660.1587,1.0284062826335962,566.2335985034266
3661.003,1.025034730792603,823.652676749668
3661.845,1.0207287948493724,655.9471426750962
3662.6875,1.015816212782029,645.9557808123119
3663.532,1.0112164538938342,575.7186198909973
3664.3748,1.0082279748607297,787.5340661487979
3665.2197,1.0076730794962758,775.9235175077616
3666.063,1.0091989986671632,697.7277683537875
3666.9084,1.011399466213096,588.0928551212539
3667.752,1.0128423013920684,760.4847115305587
3668.5977,1.013107045520996,658.3809640812573
3669.4417,1.0128231156073526,654.5918166525826
3670.286,1.0128688295333337,582.8470987280155
3671.132,1.0135613589585368,610.2634992882058
3671.9768,1.0145282019653434,735.0070572019755
3672.8235,1.0151770207150708,632.9371358446544
3673.6685,1.0151475545330202,637.5267311107297
3674.5156,1.0144058230784991,752.7749260414992
3675.3608,1.013068727770809,739.7618221506639
3676.2063,1.011284226439974,785.0759751885843
3677.0542,1.0093199246327162,722.4297338836052
3677.9,1.0076696361883757,682.6586446763956
3678.748,1.0068480904915378,771.9736435009545
3679.5945,1.0070565368947482,931.9125455370342
3680.4429,1.0079804578476728,754.8841370949293
3681.2896,1.0090188430740918,645.6265327657877
3682.1365,1.0097129586088152,745.8747854078607
3682.9856,1.0099243607732833,654.5144545323469
3683.8328,1.0096829398281935,745.2525663016352
3684.6824,1.0089651467511964,797.0069432858169
3685.53,1.0076727475873293,781.8724738039309
3686.38,1.005779139701357,715.7346909489021
3687.2278,1.003531430532159,676.9938340511898
3688.0762,1.0014433097208075,586.9305970312482
3688.9265,1.0000938517756732,838.3933164987992
3689.7751,0.9997650020530512,693.4549861184959
3690.626,1.0002217791731143,725.337262123764
3691.475,1.0008836224146194,787.4823941288566
3692.3264,1.0011953318297453,933.9860074545808
3693.1758,1.0008563360157177,725.9580566788624
3694.0254,0.9998148998410437,867.0899585073005
3694.8772,0.998143366167265,877.1564220992562
3695.7273,0.9959932110465389,676.5471258943763
3696.5793,0.9935908362867896,720.4224787037325
3697.43,0.9913186339606721,711.404672882754
3698.2825,0.9896447421449879,674.5846185420619
3699.1333,0.9889957609309487,1040.4246406012737
3699.9841,0.9895455710033246,708.9095590264184
3700.8374,0.99117489177387,659.2300317747014
3701.6887,0.9935109129524172,960.3527988950502
3702.5425,0.9960516134533104,811.8845457513576
3703.3943,0.9982146458651864,683.843243162981
3704.2483,0.9995255128595563,681.7695792216457
3705.1003,0.9997397101140756,753.7930510491628
3705.9526,0.9989203792712331,687.321049262978
3706.8074,0.9973383464801668,725.3900017898058
3707.66,0.9953956808789419,679.5748918634372
3708.515,0.9935387323602038,654.4609825943645
3709.3682,0.9922106124653013,749.5380698073589
3710.2234,0.9916298437005318,860.08520702247
3711.0771,0.9916054879333505,633.9468021000565
3711.9307,0.9915057543538377,648.1340397733553
3712.7866,0.9905418807126808,720.6685950886907
3713.6409,0.9882519645901543,757.4961864919779
3714.4973,0.9848704117560033,806.2260585358966
3715.3518,0.9813638338492154,603.9688504862304
3716.2085,0.9788549359085676,906.6825514402141
3717.0635,0.9779169543771415,915.5298714815056
3717.9185,0.978106043113118,728.8856853303079
3718.776,0.9782864244366359,934.1988143994803
3719.6313,0.9774033165069372,693.9845772176453
3720.489,0.975125286805722,764.4542608167577
3721.345,0.9719503547457854,853.9011878911957
3722.2031,0.9687720121167809,839.6535794495197
3723.0593,0.9664049901037293,631.2690839468447
3723.9158,0.9652334436342653,666.2220042565605
3724.7747,0.965293553398139,643.4467822901956
3725.6316,0.966463593365261,715.4650321362645
3726.4905,0.968508174739691,788.6187591572308
3727.348,0.9708730635525089,819.6300408412449
3728.2073,0.9726337622415033,739.8854935682631
3729.065,0.9728353979824289,794.4493598574286
3729.9229,0.971162375466653,917.0196439497948
3730.783,0.968231514629825,636.1889018097291
3731.6414,0.9652610785001041,779.4064855345067
3732.5017,0.9632486313147371,816.6743624287662
3733.3604,0.962439370079908,791.9184780514877
3734.2214,0.9623056882748737,818.2039168267772
3735.0803,0.9620766991214078,681.0210521228589
3735.9417,0.9613412069874984,782.3310161719479
3736.8013,0.9603243916473169,650.2452116564981
3737.661,0.9596260321894275,737.5519482416864
3738.5227,0.959729411025305,765.7719820472538
3739.3828,0.9607232186424628,835.7324963320677
3740.245,0.9624069962657635,673.2263436095071
3741.1055,0.9644618370804933,754.9567969100644
3741.9683,0.9664776774588256,708.2530518633705
3742.829,0.9678521392047376,730.2419389226772
3743.69,0.96799448724583,675.9057759258657
3744.5532,0.9666722732900069,782.2741248415188
3745.4148,0.9642593784492453,627.5531300371931
3746.2786,0.9615290421258218,941.938369153177
3747.1404,0.9592177087263973,776.3231630916757
3748.0044,0.9575861355433113,802.7641853733218
3748.8667,0.9564160841931351,774.2229416007972
3749.729,0.9552623618869488,747.7683038883797
3750.5938,0.9538209096908788,907.3207641717878
3751.4565,0.9521258809240177,706.428332324398
3752.3215,0.9504446439368364,672.701901210655
3753.1848,0.9490548654041215,779.3557900625516
3754.0503,0.9480043596392294,879.4779453104852
3754.9138,0.9471538728643141,750.5904793254089
3755.7776,0.9463714982663731,724.4791722008774
3756.6438,0.9456953281467024,929.0234073783162
3757.508,0.9452542514675265,751.6122956876027
3758.3745,0.9450610467204851,837.9908452723478
3759.239,0.9449578919837459,766.2016490783246
3760.106,0.9447262529681333,713.0655043319543
3760.971,0.9442126956255585,779.2220016497673
3761.8362,0.9433359070376368,832.7287042337146
3762.7036,0.9420633104884846,726.7719222523865
3763.5693,0.940479703974562,646.6425264593262
3764.437,0.9388510300660959,858.7518345467528
3765.3032,0.9376036383558256,763.6526631238638
3766.1714,0.9370652175885695,866.2470351475126
3767.0378,0.937198333103859,807.9634338392317
3767.9043,0.9375353094153605,746.8593125223099
3768.7732,0.9374876523061763,849.4532548524547
3769.6401,0.9367945465897971,732.7829813298952
3770.5095,0.9357267304937887,885.528522144115
3771.377,0.9349197899342913,772.6708351099425
3772.2466,0.9350205585037146,886.9060962000967
3773.1145,0.9364566671297205,839.3371596070878
3773.9824,0.9393118830814373,761.9287821368481
3774.8528,0.9432639781463141,700.0703843063445
3775.721,0.9475764027051916,806.4027805735789
3776.5918,0.9514523635690344,816.6788134848539
3777.4604,0.9543467037261826,760.8347578156485
3778.3315,0.9562097266065486,1092.6416705314537
3779.201,0.9571871462215056,781.4063562268393
3780.0703,0.9572962294279727,623.9524938932552
3780.942,0.9563279388762731,740.7422425729874
3781.8118,0.9541409317700994,706.2542722773982
3782.6838,0.9509391088651561,767.6480527747908
3783.554,0.9472954437887445,922.9509054343487
3784.4265,0.9437908684760351,690.0960519893999
3785.297,0.9407904909686027,955.3769724262929
3786.168,0.9383539601448532,653.5828717688411
3787.041,0.9364584979545938,826.0570697927857
3787.912,0.9351635805271097,700.7193439143985
3788.7856,0.9345116375648297,823.1126683672684
3789.6572,0.9342967492458035,813.7103937212449
3790.531,0.9338769443476415,715.3929278993475
3791.403,0.9323522740944121,852.9471499713351
3792.2754,0.929037535263886,928.2138754079674
3793.15,0.9239172929935907,824.187956258907
3794.0225,0.9177960237464338,705.6068342180434
3794.8972,0.9118443690261624,868.2057980735083
3795.7703,0.9071196989746191,880.339157060039
3796.6455,0.904076601535672,803.1441305869163
3797.519,0.9026847114680553,806.481650879197
3798.3926,0.9027156849144277,852.3750644367065
3799.2686,0.9040535126719532,908.1074891315691
3800.1426,0.9066157461546809,891.1469350276512
3801.0188,0.9101199452575415,829.066355094444
3801.8933,0.9139364328454802,947.2752077669444
3802.77,0.9173936866839156,853.5193018430335
3803.6448,0.9201053409689496,825.6203773202033
3804.522,0.922171137452229,816.0434904762118
3805.3972,0.9238870294147021,809.7364301169773
3806.2727,0.9254501196436288,873.7561470934256
3807.1504,0.926874150240987,665.6168727139291
3808.0261,0.9282309134709648,810.9205359091259
3808.9043,0.9299043469385244,901.8917099201042
3809.7805,0.9324242306455668,793.4717597401409
3810.659,0.9360324720780304,911.8177489627631
3811.5356,0.9402269536920731,765.787643075238
3812.4126,0.9438747387089784,856.9716810019484
3813.2917,0.9457542926197713,702.3082444718152
3814.169,0.9452658973826432,832.8154916431429
3815.0483,0.9427886159727258,879.5866997481461
3815.926,0.9393888403521271,835.8882745050748
3816.806,0.9361083534584821,971.8073413011821
3817.684,0.9334876074226659,801.1897546158343
3818.5623,0.9314553739776029,795.0317306232176
3819.4429,0.9296156840743841,834.2394643948363
3820.3215,0.9275377536321938,940.4762433790241
3821.2024,0.9248856484147326,915.661961297906
3822.0815,0.9215419976092306,760.6036018740597
3822.963,0.9175662867638809,870.3487197730872
3823.8423,0.9131735958173999,821.8717859051146
3824.722,0.9085598811356146,877.2911182030639
3825.604,0.9038544185075953,904.4827605349687
3826.4841,0.8991229547089231,1005.9875421102845
3827.3665,0.8942918242537088,885.8108909400278
3828.2468,0.8893244940453128,1153.4097909676962
3829.1296,0.8842395893449347,942.3849486500889
3830.0105,0.8791865324773569,932.1463162524042
3830.8916,0.8741919416767174,807.7579880553468
3831.7751,0.8691214108136759,939.1523597502102
3832.6565,0.8639005016740156,848.3381542099677
3833.5403,0.8586870767260628,1011.7025684632041
3834.4224,0.8540101362339181,1004.8923536486603
3835.3064,0.8504377607369777,967.8022149263363
3836.1887,0.8484208873450217,1318.0869206326877
3837.0713,0.8482464242209796,1005.2023340733098
3837.956,0.8502316209207053,958.902058861055
3838.839,0.8546958947088786,968.7401905165963
3839.7244,0.8617444063184903,868.0901861388642
3840.6077,0.8709134003491592,1065.0800216188236
3841.4932,0.8813297122735458,1016.2810024521556
3842.377,0.8918603821150638,952.6183245178078
3843.261,0.9015698192188915,750.3733241444885
3844.1472,0.909790740923359,857.1602019645476
3845.0315,0.9161655398600607,942.6162805144179
3845.9182,0.9208709331751288,824.8538319346422
3846.803,0.9244831680792255,863.1554083645796
3847.69,0.9278588691450401,943.9325955226941
3848.5752,0.9317302730113712,792.9296701166287
3849.4604,0.9365267985386895,835.1571710918031
3850.3481,0.9423197246061352,773.2384236971471
3851.234,0.9488416200829709,741.880265133029
3852.122,0.9556839876663278,897.3619301972452
3853.0083,0.962235842988336,732.6697932215914
3853.8967,0.9678777484509922,717.1184734888052
3854.7832,0.9719898752145447,765.4502722352165
3855.6702,0.974224816706781,733.0319830384514
3856.559,0.9745788199177193,699.3767288105577
3857.4463,0.9734149677696395,683.3572732637934
3858.336,0.971351994025221,755.9560971936804
3859.2234,0.969137511663044,655.9147932679278
3860.1135,0.9674460755719881,877.1948387246335
3861.0015,0.9667134311211847,711.0412891331358
3861.8896,0.9669118745245846,875.1311738088756
3862.7803,0.9675442017784022,711.6087182243782
3863.6687,0.9678450038537184,688.8070973815214
3864.5598,0.9671420219968602,651.0687844221362
3865.4487,0.9651064200469266,814.1203349485056
3866.34,0.961730373961133,705.6912598094681
3867.2297,0.9571975121335413,744.5018855311657
3868.1213,0.9516991040269602,836.0234821795759
3869.0112,0.945522188592492,809.578258982269
3869.9014,0.9390258768819049,812.9947492061914
3870.7937,0.9326147927611856,794.7017608147531
3871.684,0.9266210202230157,826.5971059203756
3872.577,0.9210657945134543,886.4275663234624
3873.4678,0.9157632294799425,771.7357634646547
3874.361,0.9102975738470961,747.7480795164308
3875.2524,0.904275615852855,796.4377412124477
3876.1438,0.8973811155256384,750.5408687653841
3877.0376,0.8894524483669008,826.3324031249183
3877.9297,0.8804736419297227,703.7784681226284
3878.8237,0.8703666861695388,791.2481737708358
3879.716,0.8592161850541274,1048.2520548493385
3880.6108,0.8472424343469892,951.4407129513821
3881.5037,0.835010502117491,1105.260721707492
3882.3965,0.8230515307073841,1127.78001964804
3883.2917,0.8117152986397693,938.8034364513826
3884.185,0.8011261898109333,1259.8574533705862
3885.0808,0.7909927563671285,982.0735874736091
3885.9746,0.7810005614694074,1316.2915577342255
3886.8706,0.7709751985739568,1302.5818038572602
3887.765,0.761447781966893,1136.238126199631
3888.6592,0.7535816031615589,1157.1946576168086
3889.556,0.7488267503529157,1550.5167487686836
3890.4507,0.7482031801828476,1269.7884049571621
3891.348,0.7517059057369752,1138.7177291433875
3892.243,0.7584412045436187,1172.435598245689
3893.1406,0.7673392116806736,1122.118346180475
3894.0361,0.77757800597048,1402.2163232795656
3894.932,0.7887908066167125,1254.2777213243457
3895.83,0.8007259748580007,1038.6797292324516
3896.7263,0.8130167863723701,1053.007339060945
3897.625,0.8256347309964496,932.8206528560072
3898.5215,0.8391863927520238,1040.98955985273
3899.4207,0.8559081116874646,864.5013139381848
3900.3176,0.8800432304468474,801.5442412346499
3901.2148,0.9178243697776133,878.7685991015022
3902.1145,0.9743671588203076,954.9279683461224
3903.0122,1.0469360311965403,1094.7165493058121
3903.912,1.1210489414931892,878.6621888296718
3904.8103,1.1729153820553802,1150.8610741968187
3905.7107,1.1839396881681574,742.3702477570525
3906.6094,1.153218556849185,765.5685651803133
3907.508,1.098475371873938,763.4847711186512
3908.409,1.0431336534748323,850.264551057321
3909.308,1.0031997690908447,705.8580974439524
3910.2097,0.9820253784572508,720.0244460636779
3911.1091,0.9753654335114659,803.9697394967528
3912.011,0.9771290081450451,814.3629932101124
3912.9111,0.9828542373032738,824.1044737271941
3913.8113,0.9900458165843884,685.5389823756817
3914.7136,0.9975363034674463,662.429907564985
3915.6143,1.0048169005171352,780.2761925291484
3916.517,1.011750224357253,766.7780206066398
3917.4182,1.0181827902745648,653.6283710248739
3918.3215,1.0239857038492832,759.3010660426118
3919.223,1.0290088808332136,643.8940574785654
3920.1245,1.0332272254664514,667.3812278829212
3921.0286,1.0366647618900537,769.8521615744404
3921.9307,1.0393580382305263,613.06490157194
3922.835,1.0414554690821152,633.7864839539063
3923.7373,1.04320581355293,599.4030963368823
3924.642,1.044940815848055,749.4137318563538
3925.5452,1.046899265085085,536.6975484921222
3926.448,1.049150370660143,608.6991136227595
3927.3535,1.0515898140751523,592.2488926592997
3928.257,1.0539523516879863,666.6739622272885
3929.1628,1.055841566929361,578.1271092943794
3930.0667,1.0566666604942294,661.0226855555491
3930.9731,1.0557715966732364,726.4581874137889
3931.8774,1.0527040067723052,688.5621079037512
3932.782,1.0475294013325638,590.7996725610227
3933.6887,1.0409690433796241,605.823088836132
3934.5938,1.0342633902890341,658.8844193364464
3935.501,1.0285401711287,582.1672871623692
3936.4062,1.0243334690371366,568.3959914824901
3937.3142,1.0212277977411903,660.4753923710116
