wavl,flux,ivar
3566.9744,1.0448476984320456,195.42734940626553
3567.795,1.0475621218000746,283.98191421828847
3568.6177,1.0474689002533535,130.7537784815752
3569.4385,1.0443391947567748,208.77829404143705
3570.2617,1.0394506249721207,186.9011746270928
3571.083,1.0348195619867984,235.5965684306503
3571.9065,1.0319010285137247,222.55739846265502
3572.7283,1.030988856064188,246.52711434153275
3573.55,1.0313170840134576,228.218588864564
3574.374,1.031710641507695,219.32535975143347
3575.1963,1.031191529720259,295.71941197085357
3576.0208,1.0293893147298085,213.03714582135734
3576.8435,1.0266391765394591,216.17001480090482
3577.6682,1.0236629576897143,285.99724231274257
3578.4915,1.02109913037694,220.61526736118898
3579.3145,1.019063089446168,216.70455675980006
3580.14,1.01711899771879,167.67839121113767
3580.9636,1.0145626590525687,172.14887114373994
3581.7893,1.0107559039606462,204.36673207032084
3582.6133,1.0055191873139429,198.2652409793765
3583.4395,0.9992809524087963,224.3522626755252
3584.264,0.9930928922166711,268.7453930727197
3585.0884,0.9880414644190233,362.3051951920739
3585.915,0.9846851216357498,234.13896302802164
3586.74,0.9829185984229483,243.37719154807715
3587.5671,0.9824054254183512,212.81522973921662
3588.3923,0.9831680446774419,244.5539781805314
3589.22,0.9854958911247788,246.66122830188846
3590.0457,0.9892775656827876,205.9947189887116
3590.8716,0.9936879013319517,201.8739350100607
3591.6995,0.9977179794706923,205.42993002167603
3592.526,1.0010516776939722,225.98036273471246
3593.3542,1.004283490412915,184.39632046073694
3594.181,1.0079541353473371,269.31933686616037
3595.0098,1.0116299215129771,186.99782014963498
3595.8367,1.0139322288205264,168.03666156027157
3596.6638,1.0137083880878117,248.0788619208556
3597.4934,1.010936636603955,196.98703017337814
3598.3208,1.0067130992004159,263.0967304169923
3599.1506,1.0023448318830306,258.39401347990633
3599.9788,0.9986396826028241,221.42643175802223
3600.8088,0.9955945028492458,221.97658076279842
3601.6372,0.9927207623065457,332.7809162782628
3602.4678,0.9894797967725848,236.3702274155171
3603.2964,0.9858398540731811,210.8235016947278
3604.1252,0.9824354734170813,200.05471622320593
3604.9565,0.9803292064130793,214.21591456497902
3605.786,0.9804266252095528,304.43029542548834
3606.6172,0.9829416222993212,272.9999720969515
3607.447,0.9872505189190011,194.0692448620174
3608.2788,0.992100449107593,198.6023788330288
3609.109,0.9959149145305595,245.63521610100452
3609.9392,0.9973115920494007,218.35105457079152
3610.7717,0.995473539527371,191.51618828063152
3611.6023,0.9904742274251374,182.67912535832374
3612.435,0.9832346440980937,164.0397581143073
3613.266,0.9752127112941805,278.0209698103741
3614.0994,0.9676095482580125,237.6875279281134
3614.9307,0.9610702900832013,242.95156517831694
3615.7625,0.9557724315778945,338.66029206170265
3616.5962,0.9521138374680014,265.04009469506707
3617.4282,0.9509229334399597,261.93972355762907
3618.2625,0.952861411455675,221.45319814013888
3619.0947,0.9576294191593764,352.54918996928086
3619.9292,0.9637739685600426,201.9972872502288
3620.762,0.9692393254565383,263.51932167333325
3621.595,0.9724663020023301,179.33286512093937
3622.4302,0.9729897520806136,209.93655875317262
3623.2634,0.9714046823011612,211.46410927941574
3624.0989,0.9688050819008163,214.75550722783174
3624.9326,0.9662531485682582,194.84677567295086
3625.7686,0.9645121768775082,273.87102848869256
3626.6028,0.9640839768482345,217.90432984226734
3627.437,0.9652073247827306,263.6677949347105
3628.2734,0.9679163987563474,323.13241419978857
3629.1082,0.9720418979618832,226.3607702307517
3629.945,0.9772292257542639,272.2639477036225
3630.78,0.9827947458080004,222.69682659035027
3631.6174,0.9878988321021799,220.5145767969253
3632.453,0.9917197492219274,225.56870971652378
3633.2883,0.9938549368616196,164.77203815280345
3634.1262,0.9944044646038978,181.86847643697664
3634.9622,0.9939115748284615,160.1072727968782
3635.8005,0.993107711844665,179.45755137952224
3636.637,0.9925115293441116,204.41802737147225
3637.4756,0.9920840562854637,238.5099381300828
3638.3123,0.9912964174404676,182.0496576201498
3639.1492,0.9896397020458525,237.18741820835
3639.9885,0.9871959162619921,247.87202328934595
3640.826,0.9847574472743587,259.7949557326592
3641.6653,0.9832766306741555,185.5428671720068
3642.5032,0.983211053835037,248.76545413001347
3643.343,0.984143608011598,172.61700507476456
3644.1812,0.9850027443755703,194.58977815609305
3645.0195,0.9847551420303623,172.28724934620772
3645.86,0.9831613037557458,317.0793290275461
3646.699,0.981122469584618,247.6597130038604
3647.5398,0.9801631156051016,261.39735975688427
3648.379,0.9813275405375265,297.71955311161366
3649.2202,0.9842390508367258,248.3419779164755
3650.0596,0.9871072997674655,186.5712007149303
3650.8994,0.9875419062293405,284.8899894054706
3651.7412,0.9827153977385467,179.75942765173008
3652.5813,0.9680044638654469,343.14452278723974
3653.4236,0.934707437736444,243.04831765217764
3654.2642,0.8711009482909969,250.9048887279804
3655.1067,0.7691428518274297,272.0986987532812
3655.9475,0.6384331791319863,281.0114393912449
3656.7886,0.5121767876146629,207.5447340723834
3657.6318,0.43696116851994604,40.666131341589974
3658.4734,0.44520935972630105,264.7947292253808
3659.317,0.5315326075605968,265.19796010622895
3660.1587,0.6568381059166283,208.29986862039212
3661.003,0.7764499955174361,279.3284669719753
3661.845,0.8628121534271632,171.5300762156961
3662.6875,0.9128556156859248,188.82797424898155
3663.532,0.9365222346546419,172.951907901429
3664.3748,0.9455518746106504,308.20997556164315
3665.2197,0.948244357309875,284.366748115548
3666.063,0.9489538886766132,208.79151092523801
3666.9084,0.9496386512631252,222.2825100702997
3667.752,0.9509277640398641,252.14466936670703
3668.5977,0.9526052371595776,262.81862020530326
3669.4417,0.9539006408433026,163.90065518517412
3670.286,0.9540316759395101,199.0575049463429
3671.132,0.9527347829989733,284.3668203899607
3671.9768,0.9504543678833207,222.64988466248286
3672.8235,0.9480008858717346,234.23645212097873
3673.6685,0.946089981881428,258.7284797734305
3674.5156,0.9450404089300074,259.06566203440724
3675.3608,0.9448678986950789,293.32653821495245
3676.2063,0.9454608412279061,181.0924489193881
3677.0542,0.9466864128427448,400.9979159395837
3677.9,0.9483037808091969,238.657318011518
3678.748,0.9499220948795712,173.199669168792
3679.5945,0.9510661914491177,243.37985934270804
3680.4429,0.9514344058460246,231.51189188959893
3681.2896,0.9510688590636535,249.98637807366168
3682.1365,0.9503698425493267,251.62198271158408
3682.9856,0.9498956146268401,269.8027777330859
3683.8328,0.9500404551367704,348.7032712148503
3684.6824,0.9507595503318632,275.0379205944488
3685.53,0.9516098812968842,223.9209712167775
3686.38,0.9521305624319208,290.12517274507127
3687.2278,0.9521419348312693,291.74653977984326
3688.0762,0.9516383801165968,245.0060190972555
3688.9265,0.9504096717583782,214.80695648689883
3689.7751,0.947986568544699,286.02014565522614
3690.626,0.9440736668118124,222.87137321319216
3691.475,0.9391380151210489,220.95139368959605
3692.3264,0.9343229109155369,214.79453849301888
3693.1758,0.9308517892853091,289.11667920456017
3694.0254,0.929207803501822,290.7041599074106
3694.8772,0.9290478262157885,202.89924149287774
3695.7273,0.9296722666215768,306.3837488331651
3696.5793,0.9305380227766405,284.3882399421782
3697.43,0.9312859382111808,286.6797228031129
3698.2825,0.931467262384959,262.1562936316524
3699.1333,0.9305205553471472,322.2427651653236
3699.9841,0.9282676113692097,232.27160958806522
3700.8374,0.9254338396744566,320.3697704073325
3701.6887,0.9235608270998206,202.98157031369684
3702.5425,0.9240199507938389,297.7811369864344
3703.3943,0.926924743749617,215.63649357042044
3704.2483,0.9307935226584492,320.27715840503953
3705.1003,0.9333136030579422,242.19029447460494
3705.9526,0.9328260618748648,187.5768860734098
3706.8074,0.9293239355930855,213.3898284570446
3707.66,0.9245002697527364,234.895201619644
3708.515,0.9206697892361446,212.19162082157965
3709.3682,0.9195497343994041,211.76286521944348
3710.2234,0.9214423672357048,221.90660835050772
3711.0771,0.9254148876484578,248.4426106473348
3711.9307,0.9300849617536417,258.4615354182248
3712.7866,0.9343709458211267,191.13037814665742
3713.6409,0.9376822737170224,243.1752904336417
3714.4973,0.9397438264553268,277.7055157816728
3715.3518,0.9402118628462582,177.92301871735728
3716.2085,0.9387180534430294,216.20217106900552
3717.0635,0.9352057159700226,285.81025127017205
3717.9185,0.9301694656666497,231.86083099512342
3718.776,0.9244639112468924,290.2023734252971
3719.6313,0.9189123497006829,249.3704844292131
3720.489,0.9139379116510116,255.3482065504721
3721.345,0.9098177520584154,196.49047260016013
3722.2031,0.9069000390307738,282.4952113375588
3723.0593,0.9056745974776476,277.3401523382415
3723.9158,0.9062852866150184,205.71981213944542
3724.7747,0.908115398194947,323.8888687651954
3725.6316,0.9098393125684874,367.80405895956267
3726.4905,0.9101573336337904,242.1981284556983
3727.348,0.9085548103039127,233.22260515287465
3728.2073,0.9055237811341541,234.81919555289122
3729.065,0.9021609799642021,297.05476312231605
3729.9229,0.8995040638229845,225.5436929648032
3730.783,0.8981515456814655,232.547292160054
3731.6414,0.8981556888505517,215.23003061011656
3732.5017,0.89908625997173,228.99479346974695
3733.3604,0.9002182024453885,240.89847414272558
3734.2214,0.9007587927541936,314.74068924454394
3735.0803,0.90006451200977,203.5618266787736
3735.9417,0.897919569075069,250.1319235994066
3736.8013,0.8948054877863202,286.56671878614753
3737.661,0.8918352932087051,267.1516370849833
3738.5227,0.8902351397724262,337.4486890055628
3739.3828,0.8906130551658326,365.76430248460684
3740.245,0.8925996323300701,215.9238968548875
3741.1055,0.8952003284827831,374.26173362067107
3741.9683,0.8975064355524555,245.7305028186177
3742.829,0.8990570257390605,328.5707775860211
3743.69,0.8998129560943351,265.9959754676969
3744.5532,0.8998806972239952,327.76363396572015
3745.4148,0.8994171610207293,261.4719438054405
3746.2786,0.8986648684062541,240.01572281028376
3747.1404,0.8978670449819494,296.0833155154494
3748.0044,0.8969725787119189,266.4988834418462
3748.8667,0.8955147818861559,244.14333002005026
3749.729,0.892932283201455,240.26192134540005
3750.5938,0.8891787579176321,251.55081778165027
3751.4565,0.8850954354900818,362.8981165294285
3752.3215,0.8820225905698191,336.8190294123662
3753.1848,0.8810740477651414,290.26554153610545
3754.0503,0.8824252108639279,248.76735440443022
3754.9138,0.885270388094831,236.1757597333225
3755.7776,0.8883438973979326,232.0154355630354
3756.6438,0.8905287151643375,265.8574941602739
3757.508,0.8912014885758452,266.1652759031092
3758.3745,0.8903705777523074,295.3659784776514
3759.239,0.8886080632812844,278.79672547816523
3760.106,0.8867940363057094,295.55586948355295
3760.971,0.8857273632013738,283.925037881963
3761.8362,0.8857788555587774,274.6759408216012
3762.7036,0.8869412786121758,266.60701832227386
3763.5693,0.8890311108095773,263.61342814059657
3764.437,0.8917975814990032,276.28099467094347
3765.3032,0.8947934250699059,244.6724531444446
3766.1714,0.8973754676704381,237.5376293271625
3767.0378,0.8988529613488697,292.02207331712566
3767.9043,0.8988465483202843,267.14979843208414
3768.7732,0.8974518052819421,225.2949541434595
3769.6401,0.8951271213150027,340.03419523041737
3770.5095,0.892266900261233,300.52169081012846
3771.377,0.8889533593971424,276.2375185811148
3772.2466,0.8850215326111073,294.5183295193904
3773.1145,0.8805006044231467,242.5195201533453
3773.9824,0.8757380926078824,236.53065474612896
3774.8528,0.871221513021511,273.6614016655279
3775.721,0.8673300369951958,243.73569923173872
3776.5918,0.8642300914627324,308.194001118044
3777.4604,0.8621850097050936,307.5305895842409
3778.3315,0.8615955960496287,302.6697427921364
3779.201,0.8627740428268104,331.5977802506746
3780.0703,0.8654980867110921,293.82924412874524
3780.942,0.8689326613003197,298.5312175904739
3781.8118,0.8719957133202616,275.2330273676443
3782.6838,0.873964272392839,288.0606241256041
3783.554,0.8746416507342542,267.30982824846603
3784.4265,0.874172596271392,237.98758870362008
3785.297,0.8727149627009544,233.6161540441122
3786.168,0.8703778884059215,289.5974119799408
3787.041,0.8674146358475326,298.1800489520559
3787.912,0.8644113860653103,304.2807757344491
3788.7856,0.8621064686875024,336.93060802793593
3789.6572,0.8610856671473628,281.08059027119094
3790.531,0.861479686705046,261.3359924018449
3791.403,0.8630237846851578,254.52376062218096
3792.2754,0.8652483455092951,262.48746923020377
3793.15,0.8675672059054991,304.4064559744009
3794.0225,0.869270725482252,320.63995349998936
3794.8972,0.8697645748574767,269.80218962423515
3795.7703,0.8689243025377963,266.6882636510943
3796.6455,0.8672681638593717,249.81283378798307
3797.519,0.8656307382268151,269.8785557246107
3798.3926,0.8645223224742324,414.0913489225586
3799.2686,0.8637736815094825,259.68709787578723
3800.1426,0.8627683826645858,239.08259566026237
3801.0188,0.861091438214401,310.639204674125
3801.8933,0.8591049725417574,352.4278446625887
3802.77,0.857896820553088,282.4128369885089
3803.6448,0.8586564321689528,405.90675911018116
3804.522,0.8617642686819175,270.99487802557
3805.3972,0.866216364204721,383.0140854776612
3806.2727,0.8699732088281509,269.2423115955449
3807.1504,0.8710446095527342,250.01498659762467
3808.0261,0.868659227956823,271.50020720971395
3808.9043,0.8636479239734903,255.60746173941533
3809.7805,0.8579261309416192,340.5894994984498
3810.659,0.8534425565424268,238.43019373217504
3811.5356,0.8514758474133637,363.3966847876989
3812.4126,0.8522469554498949,248.42984370377886
3813.2917,0.8551264078880172,271.47397786226804
3814.169,0.8589977960676348,333.0405175599843
3815.0483,0.862707577840123,362.8279906301667
3815.926,0.8652648407648289,334.36592285785673
3816.806,0.8660823931753128,246.9966477829613
3817.684,0.865092260525209,275.39080958640454
3818.5623,0.8627926713281381,284.94424139852157
3819.4429,0.8600069130510195,278.4586124288754
3820.3215,0.8575156963213059,301.1653209637564
3821.2024,0.8556548634386436,322.9490489818527
3822.0815,0.8542480555461966,270.02440831298287
3822.963,0.8527406148161146,283.7617810041757
3823.8423,0.8505716140693883,347.991484671733
3824.722,0.847477024340856,238.75482351623464
3825.604,0.8436151653317812,290.1104750370629
3826.4841,0.8394411290314729,362.8540925723672
3827.3665,0.8353083622438557,309.0266562111513
3828.2468,0.8313069843496682,331.55904659174774
3829.1296,0.8272259497256587,326.4397075895961
3830.0105,0.8229138003491497,324.53999779215104
3830.8916,0.8185225633368949,314.2563146438624
3831.7751,0.8146538803371024,352.35088257269234
3832.6565,0.8121610836795343,350.62253766742725
3833.5403,0.8116003007711978,357.3050070575006
3834.4224,0.8128625781734212,348.4281798893266
3835.3064,0.8151755007896129,303.877002818618
3836.1887,0.8175742974654882,392.39388779981226
3837.0713,0.819477796695289,330.1859032383698
3837.956,0.820833700216148,309.95134426032564
3838.839,0.8218480774645585,437.52551429543894
3839.7244,0.8227152378355148,335.5566839289704
3840.6077,0.8236560761579963,307.4222013391695
3841.4932,0.8252215719110335,321.38241699146596
3842.377,0.8282996756810534,361.0958187550666
3843.261,0.8336810839271162,317.4579934903203
3844.1472,0.8414544845732493,311.49940257449697
3845.0315,0.8506460948812447,325.2554585941647
3845.9182,0.8595849072278987,326.62137832412003
3846.803,0.8663632879649403,225.8795602616825
3847.69,0.8697826924609832,284.6483981911731
3848.5752,0.8698762057236966,279.597944276778
3849.4604,0.8680428200507084,270.22248404858
3850.3481,0.8662859259133906,352.44967197973375
3851.234,0.8661138903747038,288.96132565068285
3852.122,0.867788077461648,279.660686678435
3853.0083,0.8705303837881313,234.2881006683844
3853.8967,0.873386286609589,285.7511145356108
3854.7832,0.8758375534765745,318.0382661431303
3855.6702,0.8778627214877516,319.2918717845692
3856.559,0.8795589576866847,245.46041664194038
3857.4463,0.880922836799146,329.63537772993095
3858.336,0.8819701811162083,340.0373689823314
3859.2234,0.882949554894144,246.44259933457207
3860.1135,0.8844695429090176,254.94961313866128
3861.0015,0.8872083678895091,269.27765382936286
3861.8896,0.8912862620324938,318.1514935913203
3862.7803,0.8956184680827746,250.3497555854742
3863.6687,0.897947527823154,286.7653730433862
3864.5598,0.8960427777378769,103.00811842087552
3865.4487,0.8892070711455403,278.42146859327033
3866.34,0.8788848541122887,235.55476906779262
3867.2297,0.8679411918889026,255.44223524618738
3868.1213,0.8588611080627222,259.47535630466683
3869.0112,0.8527351060676184,322.73952463714966
3869.9014,0.8490647728045175,326.81313660706695
3870.7937,0.8465988569557567,239.63326255712474
3871.684,0.8441869560115152,284.8169402084696
3872.577,0.8411921513861905,300.5844196082095
3873.4678,0.837516779184161,301.58501017383514
3874.361,0.8332671593163518,332.40306309279794
3875.2524,0.8285722347445579,433.87721623554495
3876.1438,0.8234192346846995,386.69493301354186
3877.0376,0.8177278003923035,255.9749366175622
3877.9297,0.811510262145006,325.04434279601236
3878.8237,0.8048598477795826,256.8713503035488
3879.716,0.7980688601793057,339.61919784861936
3880.6108,0.7914554019630012,339.32562934135416
3881.5037,0.7853541035613221,334.8602839722501
3882.3965,0.7798806092288539,351.49674374406493
3883.2917,0.7749476345672714,417.75724093524997
3884.185,0.7703434326668663,348.3433497107122
3885.0808,0.7657022581270366,547.7334852393448
3885.9746,0.7606975693196909,302.9135437336636
3886.8706,0.755162492880798,390.73917146805456
3887.765,0.7494285144218104,401.20166224737113
3888.6592,0.7442921656499687,363.6545938779363
3889.556,0.7407759275149042,398.3726156162839
3890.4507,0.7396751575796039,461.2081047505407
3891.348,0.7411467289922238,451.79419077688874
3892.243,0.7447776957977498,469.50686590559695
3893.1406,0.7500440014889748,347.03437780439475
3894.0361,0.7566093749194018,257.7568082149992
3894.932,0.7643177611928658,466.0845264754
3895.83,0.7727528158832909,301.18085100133237
3896.7263,0.7810455321576146,380.83919986797997
3897.625,0.7884499602143931,331.15973605462466
3898.5215,0.7947114898403244,449.7013214584286
3899.4207,0.8002290096326821,308.8963784656624
3900.3176,0.8054327883551847,414.9528632942767
3901.2148,0.8104945202107483,388.53428773347383
3902.1145,0.8153925859823745,277.57419240358155
3903.0122,0.8203090429463972,446.90953141769654
3903.912,0.8258756862515477,379.3509348519489
3904.8103,0.8326941984000444,356.6307997703787
3905.7107,0.8408862625044258,492.2407689453461
3906.6094,0.8498350085050513,311.82584106026644
3907.508,0.8586812359599699,308.0679631923831
3908.409,0.8667366003497861,272.1945764504356
3909.308,0.8735623811680386,236.2765673330435
3910.2097,0.8789841076910868,238.87247337176547
3911.1091,0.8829416330346194,306.1465296910068
3912.011,0.8857204961679177,384.79825606342035
3912.9111,0.8878821820887843,268.2559006674
3913.8113,0.890030491540974,205.6592903316985
3914.7136,0.8924067255300423,252.74470482348892
3915.6143,0.8947833196189646,237.63547958779412
3916.517,0.896831601443757,213.21907863817776
3917.4182,0.8985277914873536,277.1059529392001
3918.3215,0.9003010942916507,222.40039039538996
3919.223,0.9026325640247526,253.88751190870417
3920.1245,0.9055263443069959,280.1638732074617
3921.0286,0.9082459234287682,217.04579004509844
3921.9307,0.9096465214182986,226.79783418388038
3922.835,0.9090029655199531,197.33518980230178
3923.7373,0.9066068075346687,319.0343257379713
3924.642,0.903639787542693,330.427974532396
3925.5452,0.9014079760184589,290.9442879227298
3926.448,0.9004727865437036,337.3714974254357
3927.3535,0.9004732404007988,338.2275502273415
3928.257,0.9005702509252983,253.9984889382167
3929.1628,0.9000640780473138,220.35298925661007
3930.0667,0.8987185294310519,308.9307730470465
3930.9731,0.8966829908359932,249.3251376779958
3931.8774,0.894297229692266,333.49388636438914
3932.782,0.8918799620706371,216.52210516106692
