wavl,flux,ivar
3566.9744,2.648386772177382,49.845269437067586
3567.795,2.6328373646095122,48.1151025422205
3568.6177,2.6208750639579903,41.667149726475586
3569.4385,2.6141327117112065,38.195015078261434
3570.2617,2.6129096409109662,48.65002882081101
3571.083,2.6165744146875656,50.7650695741973
3571.9065,2.623965641784227,47.678275378269376
3572.7283,2.6333845240444917,50.814813323991665
3573.55,2.6425315118424164,40.73154501948482
3574.374,2.648766980658513,38.47838528369421
3575.1963,2.6500550963758234,50.578045930981084
3576.0208,2.646088255454233,40.686062111312275
3576.8435,2.638456629023843,44.470622064837876
3577.6682,2.6297011277361713,53.04229142406913
3578.4915,2.6221052966961658,36.116851635265974
3579.3145,2.616739212962902,40.43863163520192
3580.14,2.6134987117808484,52.3237567833687
3580.9636,2.611595891468085,43.48796248292109
3581.7893,2.6099435474494013,43.959294647404164
3582.6133,2.6073863730576,54.874754119979805
3583.4395,2.602770185929606,41.96387597991726
3584.264,2.595382029794997,40.30357523635265
3585.0884,2.5855266047287473,47.42961292514374
3585.915,2.574883933731148,32.14797513510753
3586.74,2.56610460260793,50.589603630382115
3587.5671,2.5613705779558864,49.505735742971844
3588.3923,2.5613106011122766,42.430541491601396
3589.22,2.564588187789027,50.89988809722168
3590.0457,2.568664776590951,48.68419799286576
3590.8716,2.571123808487843,44.872765115399815
3591.6995,2.570614647825945,47.61939861508979
3592.526,2.567057928396653,41.86929269100562
3593.3542,2.561206438254929,46.977585083961266
3594.181,2.5542246947762686,42.41476250456236
3595.0098,2.547345743634497,45.701974350139615
3595.8367,2.541779488652375,47.535140871612995
3596.6638,2.5382499615130802,40.26315085095697
3597.4934,2.5367735488648147,45.07505366502021
3598.3208,2.5366770125753137,52.76634312851492
3599.1506,2.5369118560293966,55.10314785604114
3599.9788,2.536423052150154,42.12986571603125
3600.8088,2.5343157091038586,49.438289467711726
3601.6372,2.529971593757119,47.755030259413644
3602.4678,2.52325182877084,48.78165068689592
3603.2964,2.5149120073591757,44.57929715298091
3604.1252,2.5064799428676023,50.85555302805443
3604.9565,2.4996651346531187,64.57987005814049
3605.786,2.4954404009038207,52.82036762967188
3606.6172,2.4933751546155434,58.250335134030855
3607.447,2.4921338034152947,49.120001143786524
3608.2788,2.490561162070607,47.417237735809564
3609.109,2.488654031746458,45.664548243164205
3609.9392,2.4874610440389264,45.0959982292907
3610.7717,2.4881005096717277,60.47145812411389
3611.6023,2.4907532054615213,45.090027599522294
3612.435,2.494579344603927,50.45791349939315
3613.266,2.4984306790368067,57.12585124977625
3614.0994,2.501608726564969,41.44533650235413
3614.9307,2.5035147030277423,52.662832057339585
3615.7625,2.5021630096789225,52.44666413820827
3616.5962,2.4912877275879715,45.033642523217935
3617.4282,2.4563206415743792,51.73706605221858
3618.2625,2.3706160937542635,59.6515841333125
3619.0947,2.2012378100788594,48.14145438219817
3619.9292,1.9290305791571283,47.56080001133105
3620.762,1.5863787413415091,41.37717404522604
3621.595,1.2685769204048591,46.21951390752851
3622.4302,1.0993103190201094,58.46225263525891
3623.2634,1.153945070192486,49.76579100199596
3624.0989,1.4041103892771336,55.68024156620326
3624.9326,1.7389736930346917,52.925620733525584
3625.7686,2.044051120985958,54.619400880211174
3626.6028,2.2560419404750456,57.7504327025397
3627.437,2.373722367047767,48.570066809839794
3628.2734,2.425699907728535,47.956594150105815
3629.1082,2.4419829271852964,45.49139604511683
3629.945,2.4426255689452465,46.759195884905886
3630.78,2.4374785345344354,68.02463926401728
3631.6174,2.430497627676021,55.29496492939961
3632.453,2.4234736898566656,65.84939400385952
3633.2883,2.417845654479066,56.42923052148997
3634.1262,2.4150876386628997,53.17556314410581
3634.9622,2.416286022980697,58.39140234790343
3635.8005,2.421774172793101,52.610161204169316
3636.637,2.431094690959936,58.489410084902524
3637.4756,2.4431091743760147,52.43589114694452
3638.3123,2.4556826767842477,49.92252519657501
3639.1492,2.4659633102370004,43.03352903909796
3639.9885,2.471049721780743,46.506410650529546
3640.826,2.469303606846837,50.90262830682567
3641.6653,2.4613910555281278,43.32797177758889
3642.5032,2.4501382225289654,51.71971893117614
3643.343,2.4391177616143276,53.54634341070245
3644.1812,2.4310180059502056,56.93789310907373
3645.0195,2.426294462564006,51.330862031894874
3645.86,2.4234541503312674,45.79727736230231
3646.699,2.4203666618495103,44.26511475498299
3647.5398,2.415481472085955,54.51825954997412
3648.379,2.4082138685207792,65.96928847377997
3649.2202,2.3985296545948813,46.09614414837915
3650.0596,2.386955131693858,58.427986990318544
3650.8994,2.3745853619503556,57.289006057144796
3651.7412,2.363069573051012,63.69083355061279
3652.5813,2.3540697502188106,53.43852692652465
3653.4236,2.3483984744202178,60.03742293594485
3654.2642,2.3458564062931937,49.98532648271108
3655.1067,2.3453280376444896,51.4000031005251
3655.9475,2.345486860481651,46.256645527757144
3656.7886,2.3456603819115194,47.70999444782335
3657.6318,2.3464641351521642,60.64784641199868
3658.4734,2.349522645280707,63.470350052063935
3659.317,2.356199205487464,64.41623820345956
3660.1587,2.366069706132275,55.505811413249134
3661.003,2.3766994227311105,53.46031555199528
3661.845,2.3846716265816403,57.212124043350244
3662.6875,2.387550503890595,49.89656462694454
3663.532,2.3847214881426053,59.79035755258069
3664.3748,2.377215348227203,52.13671301750067
3665.2197,2.366695767652796,57.58676053155426
3666.063,2.35472785916667,47.28198256398784
3666.9084,2.342275609852484,55.51345443017689
3667.752,2.330167612737583,50.541685149567854
3668.5977,2.3193082920896044,56.26611664696673
3669.4417,2.3109546934616305,53.12417397003547
3670.286,2.3059968406688776,51.09725671345682
3671.132,2.3044225071111533,65.66841779611791
3671.9768,2.305188131614898,51.70090950603459
3672.8235,2.306735273911897,57.33159072267872
3673.6685,2.307697310036347,62.43070170282609
3674.5156,2.307337742931386,55.797651129656245
3675.3608,2.3056447476966775,59.23580322430601
3676.2063,2.303261754844125,57.30513802590431
3677.0542,2.3011761465371436,64.5352563574058
3677.9,2.3000752868288385,58.41317534632711
3678.748,2.2996374486598916,62.19583476789266
3679.5945,2.2985696275953105,55.276961052607184
3680.4429,2.295413959877739,56.03818766361118
3681.2896,2.2895143656685732,66.10876550091437
3682.1365,2.281309375611212,54.1489100536229
3682.9856,2.2720892207864516,70.61628822515613
3683.8328,2.263593868503951,60.4873383508471
3684.6824,2.257246475773769,59.02484364420666
3685.53,2.2537128439802254,59.52429165978404
3686.38,2.252554682199556,51.9610752022063
3687.2278,2.252628988396211,57.63905172391972
3688.0762,2.252613080926914,59.127164281155885
3688.9265,2.251450701377689,57.79920280395155
3689.7751,2.2486567364870162,61.74628044025696
3690.626,2.2444960639680844,63.02756992468709
3691.475,2.2399452399079034,70.16206815486552
3692.3264,2.236067630286133,69.86065907918264
3693.1758,2.2333809219556517,54.47462617564914
3694.0254,2.2315829972846197,59.15697349240999
3694.8772,2.230078259940554,52.688987783253886
3695.7273,2.22857381159654,67.67746063007053
3696.5793,2.227081373694243,60.22277697417891
3697.43,2.2254821477322637,66.34856644548472
3698.2825,2.2232200307018397,52.054285701654585
3699.1333,2.2195881073221755,63.768905311088766
3699.9841,2.2142177851076643,61.58587142582652
3700.8374,2.2074200424971053,73.76642435911472
3701.6887,2.2002200053657806,54.9909451557445
3702.5425,2.1938280463721123,61.1670656188652
3703.3943,2.1892702394185313,63.95426511216235
3704.2483,2.187004304048807,62.77148326187905
3705.1003,2.187011452598181,55.903312298229366
3705.9526,2.1887683059504215,72.46140971581231
3706.8074,2.1913003836822513,60.081610852854475
3707.66,2.1934426087582133,55.8385883706354
3708.515,2.194431517031558,69.9669131751869
3709.3682,2.194180995987507,73.13421334275166
3710.2234,2.1931438216614505,61.196922610580984
3711.0771,2.1919995716617753,70.09371108154274
3711.9307,2.19145043982603,72.50291532060469
3712.7866,2.1919932821962465,66.05681008034698
3713.6409,2.193581362321142,69.30077658514975
3714.4973,2.195580199187313,58.111913458418215
3715.3518,2.1971496372365382,68.30817881276441
3716.2085,2.197710679360559,74.5299915735277
3717.0635,2.1969665917791805,61.96497966536962
3717.9185,2.1947502020642067,54.337738186060754
3718.776,2.191013466148781,68.48318371622318
3719.6313,2.1860482108047607,56.049930907382716
3720.489,2.180436292971034,42.908428103384615
3721.345,2.1749150900733643,63.54019212615606
3722.2031,2.170090509409102,68.63299442126115
3723.0593,2.1666266288495963,63.743175505304414
3723.9158,2.165317490968484,62.68141789066325
3724.7747,2.1668210003361636,64.57373885965819
3725.6316,2.1707922285239714,78.41561502808771
3726.4905,2.175441430513478,52.6218076711842
3727.348,2.178164596658569,65.48995954204187
3728.2073,2.177043295588225,64.5376790373489
3729.065,2.1718048723728027,61.76587538471883
3729.9229,2.1636365520087617,63.532780841492574
3730.783,2.1542246348311993,70.59558510259671
3731.6414,2.1450254744873085,68.3705283394349
3732.5017,2.1369215177056904,70.96808330876429
3733.3604,2.130597128147076,85.57747734730222
3734.2214,2.126482918526453,67.8818675861257
3735.0803,2.1245602676009288,69.04841359802569
3735.9417,2.123988075424725,64.96150613948137
3736.8013,2.1234104256236273,73.61010869405027
3737.661,2.1217293429845983,60.28552503214222
3738.5227,2.1188498963846714,71.88038153387356
3739.3828,2.1157566337645677,76.81888328765106
3740.245,2.1136533766285392,67.93951991436514
3741.1055,2.1129216420356625,63.19012341991958
3741.9683,2.1126896867914717,74.91319447972296
3742.829,2.111516197855617,73.52397899299571
3743.69,2.108427827930731,69.89323166589521
3744.5532,2.103364957267484,85.60200779807289
3745.4148,2.0969102334515752,78.02971340182735
3746.2786,2.089635685373649,75.09129745109085
3747.1404,2.081992475897525,76.01241674797797
3748.0044,2.0743564830704533,73.15686479051283
3748.8667,2.0673994427786244,70.27982122312542
3749.729,2.061891641533281,66.41141789846274
3750.5938,2.058376279487169,83.84432804397498
3751.4565,2.0568636016830566,74.18000691815458
3752.3215,2.056839089325191,91.73716877611544
3753.1848,2.0576466837225955,84.35389673710048
3754.0503,2.0587488389371167,71.4548545948744
3754.9138,2.059736921932294,61.139355959638316
3755.7776,2.0602272846361975,65.25593947651315
3756.6438,2.059754713982692,70.97092565658384
3757.508,2.057862935405504,65.33445380465668
3758.3745,2.054433072075743,66.62092059061933
3759.239,2.0501184731834274,65.27810462243195
3760.106,2.046217953216242,78.06307606891757
3760.971,2.0439851496919443,79.11572481663245
3761.8362,2.043660596937945,64.93229880337348
3762.7036,2.0443517804262292,72.50494587983074
3763.5693,2.0447370252145913,65.51114129533607
3764.437,2.0439875877609195,73.05814807632271
3765.3032,2.0421137733075687,60.30871323430576
3766.1714,2.039612519847412,69.00443539929856
3767.0378,2.036835012811309,80.84364620118288
3767.9043,2.033450722287953,77.26996998543551
3768.7732,2.028506859402996,62.49434847673408
3769.6401,2.0211927312412645,71.9799355549912
3770.5095,2.0116352675800657,69.45125556925547
3771.377,2.0013578255050084,90.73913274370315
3772.2466,1.992535087677418,76.49894588349699
3773.1145,1.987166845626611,80.17836399628459
3773.9824,1.9861577502556234,95.8332640742917
3774.8528,1.98914303632923,83.87138878707269
3775.721,1.9945946176198586,98.89477189754201
3776.5918,2.000417419010781,71.53077334355739
3777.4604,2.00465446817756,80.93490996373848
3778.3315,2.006381340903121,88.94681586837619
3779.201,2.0059690961138803,78.40073159114564
3780.0703,2.0047593797280476,73.29676298395599
3780.942,2.004122457592625,69.87433107241613
3781.8118,2.004610661272651,69.5975038800085
3782.6838,2.00575887809854,75.88148701590664
3783.554,2.0066055412323887,71.83805813170042
3784.4265,2.006400885748646,76.82793342922761
3785.297,2.004894620451001,91.0306804340627
3786.168,2.0021403404255294,65.05966880805393
3787.041,1.9981337110731205,72.88360898433584
3787.912,1.9927109904001044,78.6604695151895
3788.7856,1.985614666403841,86.6532269688141
3789.6572,1.9768576437192484,72.17096923450228
3790.531,1.9667385504904578,67.93690906701293
3791.403,1.9559645197564854,81.77876954057237
3792.2754,1.9452767631120207,79.50881533348466
3793.15,1.9352151145813397,82.37279426067983
3794.0225,1.9259974075800923,76.06417065921984
3794.8972,1.917431776028557,74.04451989726725
3795.7703,1.9093748473657184,94.54809861206462
3796.6455,1.9018619165784514,85.23439691698104
3797.519,1.895362405887767,78.5370573436835
3798.3926,1.8905143711007493,103.04796822840208
3799.2686,1.887843374275928,84.35595410437946
3800.1426,1.8874859357629978,91.20323655452927
3801.0188,1.889212087694959,76.48829529614346
3801.8933,1.892801790788353,102.83615115589049
3802.77,1.898299743977533,73.83001213589823
3803.6448,1.905677639724697,97.08646359025495
3804.522,1.9144071150678288,96.02623745585046
3805.3972,1.9231849051169971,67.25794753253429
3806.2727,1.9306389834397975,82.92464752167713
3807.1504,1.9360166658415596,65.50850624278833
3808.0261,1.9394438681111998,81.53015829138977
3808.9043,1.9416934316282286,71.19539343391943
3809.7805,1.9436479188254236,83.21122511812038
3810.659,1.9460472269220004,84.1268293682791
3811.5356,1.949203976565452,78.66492747533614
3812.4126,1.9528662061691309,82.52248317251784
3813.2917,1.9564017561872002,73.08982804672027
3814.169,1.9593569244291769,85.62181178465066
3815.0483,1.9618317729059427,69.07846785938553
3815.926,1.9639489329054627,74.45422647876102
3816.806,1.965159165994582,88.27772540687279
3817.684,1.9642443060009207,74.72077292486073
3818.5623,1.9602885174792317,72.51707116608831
3819.4429,1.953477424959917,66.3723536781753
3820.3215,1.9449913604493958,85.41787223005659
3821.2024,1.9359168156984488,87.15949276921936
3822.0815,1.9266780419666167,71.66973783441361
3822.963,1.917010117980287,79.39007944031627
3823.8423,1.9067468700313388,93.00557366742682
3824.722,1.8960763001275118,77.07123767970249
3825.604,1.8855331102554622,85.80176284769678
3826.4841,1.8756548535172333,86.08841964146043
3827.3665,1.866262150254101,96.57587909937955
3828.2468,1.8563682229204996,97.84660776664217
3829.1296,1.84439886081176,80.0128518900992
3830.0105,1.8294310495835255,95.74662675782928
3830.8916,1.811787995524165,78.46569020928312
3831.7751,1.7928683425537577,94.41169923879384
3832.6565,1.7742869143095106,102.74910639951905
3833.5403,1.7567593012877434,98.24888930926728
3834.4224,1.740660668320804,92.87124490244756
3835.3064,1.7264635426610002,122.48604305531073
3836.1887,1.7154485174993066,104.25044049987972
3837.0713,1.7091588080089901,94.64746207159433
3837.956,1.7087684590119332,111.00515864017305
3838.839,1.7144217770452908,115.42303574964431
3839.7244,1.7251202482326669,109.27596316094632
3840.6077,1.738999398056697,99.32471347233471
3841.4932,1.7541984140220224,95.25143872622348
3842.377,1.7692912005028871,77.83156141334089
3843.261,1.7838531218783715,99.54365659050069
3844.1472,1.798226970882558,96.67344943951606
3845.0315,1.8129191591392306,106.22440126982467
3845.9182,1.8282620485309156,87.26480149223922
3846.803,1.8438455950785289,84.4930498430102
3847.69,1.859012126398496,112.736333172367
3848.5752,1.8731074535388528,78.84585312126183
3849.4604,1.8862181158574447,100.80550760289313
3850.3481,1.8991340557774343,91.71879116482684
3851.234,1.9126882144530049,87.2216309345481
3852.122,1.9271388955251263,79.17849897308596
3853.0083,1.941440733107827,71.87573972047926
3853.8967,1.9539132085921695,75.03442936906006
3854.7832,1.962982175405606,74.44345951121845
3855.6702,1.9682005112136909,79.7856405557489
3856.559,1.970203838869002,77.09887678982153
3857.4463,1.9702535155593002,80.36177561930202
3858.336,1.9696292648400808,89.54926850303856
3859.2234,1.9690853937140032,85.39495545021694
3860.1135,1.9685057661140275,86.25567804841425
3861.0015,1.9670084781849706,89.40655881255174
3861.8896,1.9635707935506483,71.78213887124753
3862.7803,1.9578135100426572,92.03286466306574
3863.6687,1.950403533685378,78.61581744763464
3864.5598,1.9425543676516213,87.26429301556205
3865.4487,1.9354093150917084,80.98392407715978
3866.34,1.9293275101452474,93.24753021518808
3867.2297,1.9239594222924064,103.0479683220729
3868.1213,1.9183853746900794,83.57747661425273
3869.0112,1.9115072304453242,97.91995690956763
3869.9014,1.9022146398594775,80.58378283198144
3870.7937,1.8897052158629153,77.3224882763829
3871.684,1.8739662671332369,91.48693918706897
3872.577,1.855746086860881,85.48002051443635
3873.4678,1.836584179326258,93.23601130976392
3874.361,1.8177483952597573,88.47896639135327
3875.2524,1.7998429808033098,82.39823528097052
3876.1438,1.7822558380903337,99.01497248405401
3877.0376,1.7637843718810085,88.73837147417018
3877.9297,1.7436643277658892,99.07792318121561
3878.8237,1.7218889491423721,94.37867353031328
3879.716,1.6994500331948441,131.67093573072106
3880.6108,1.677220128957046,110.78772617717017
3881.5037,1.655497589139771,102.21319986904369
3882.3965,1.6333900175978977,111.36281613541563
3883.2917,1.609589543562174,102.7546763309338
3884.185,1.5835751399012188,106.21086125592264
3885.0808,1.5556812032958922,112.5702921306155
3885.9746,1.527226648020842,142.07266578615366
3886.8706,1.4992516501417004,134.05794724746644
3887.765,1.472751119616778,142.6568824505905
3888.6592,1.4486430258753618,139.37738934078772
3889.556,1.428477888255348,155.74302529530237
3890.4507,1.4145367587011168,156.75181349269573
3891.348,1.4087853293456947,226.0857815159259
3892.243,1.4122742822814989,181.10831849604594
3893.1406,1.4246533949402376,152.14482225270694
3894.0361,1.4442903148196715,135.62771525093615
3894.932,1.4690517951585818,123.5490946785365
3895.83,1.4969704811028486,140.92641391626012
3896.7263,1.526439234432068,134.2769642293333
3897.625,1.5566044764210336,116.6157618307998
3898.5215,1.5863486984022015,104.74242881966836
3899.4207,1.6147558745591237,108.58072934364694
3900.3176,1.6409290217379435,135.08465738850373
3901.2148,1.6650655341780385,120.23303223336222
3902.1145,1.6881402608899452,111.66533052802026
3903.0122,1.7111217964592258,114.58077106756936
3903.912,1.7347202004481557,108.43017487022192
3904.8103,1.7587242032953265,104.76872783816646
3905.7107,1.7825235996774589,103.71296716732837
3906.6094,1.8049726698845276,89.87803682429579
3907.508,1.825167364113086,91.89265228832585
3908.409,1.8427560146061484,84.22286350704881
3909.308,1.8580631660298819,80.79533585883324
3910.2097,1.8721737721128902,96.17317852608572
3911.1091,1.8861607247683876,72.05160179838771
3912.011,1.9009089617357096,93.5442355564837
3912.9111,1.9165734267162435,84.63120619651005
3913.8113,1.932807542650807,95.49678460335906
3914.7136,1.9488506075263077,71.53647277617411
3915.6143,1.963703781861631,81.80359230647836
3916.517,1.976750159006447,74.7981545460326
3917.4182,1.9877979998310524,75.70765428841293
3918.3215,1.9972697286917451,83.92658519528895
3919.223,2.00560976919012,71.23720384376325
3920.1245,2.013037037076687,70.81070735754545
3921.0286,2.019430460793166,65.79966049148322
3921.9307,2.0245866302042166,72.5631549099657
3922.835,2.0285599582463885,76.0373148262637
3923.7373,2.031523642130784,76.64617736993979
3924.642,2.0336741997284458,67.87160086618223
3925.5452,2.0351065006960476,71.67809990201644
3926.448,2.0359115430231003,73.03475649067299
3927.3535,2.0362373452600706,74.73009990680947
3928.257,2.036317316665676,68.67970639471
3929.1628,2.036372329948111,73.85650217646963
3930.0667,2.0363415348062914,64.21916089923539
3930.9731,2.0356456495281985,76.2420945007171
3931.8774,2.033323494376504,67.96583735883218
3932.782,2.028595122438614,85.2197405232285
3933.6887,2.021443679467083,71.3845856154508
3934.5938,2.012736556525855,70.0785652090512
3935.501,2.0035134624477777,64.97645293376402
3936.4062,1.994436113104973,69.82265338293337
3937.3142,1.9854550518002778,75.40236024174337
