wavl,flux,ivar
3566.9744,1.1873402192585727,182.79957277732998
3567.795,1.1910719432361572,117.62856377435169
3568.6177,1.1958137883806264,79.51656745819257
3569.4385,1.200132111447006,117.57359217723017
3570.2617,1.2025217070775411,127.21971631947272
3571.083,1.2019614465460862,132.13657295654937
3571.9065,1.1982817207309422,101.5823581577824
3572.7283,1.1923189414552169,140.65150319709676
3573.55,1.1856717594996677,165.60125832567002
3574.374,1.1799700972811082,147.14412329499072
3575.1963,1.1760456439228344,107.07698702384468
3576.0208,1.1735881771086605,123.29111267177066
3576.8435,1.1718309848167006,143.21006728086002
3577.6682,1.1703291911367018,156.76062511735094
3578.4915,1.1692609017779925,128.5647919477552
3579.3145,1.1689572520195892,130.0528317065378
3580.14,1.1693008666408216,118.81175295213876
3580.9636,1.1695515303023678,110.25696284941408
3581.7893,1.1687834597068596,155.58670018375813
3582.6133,1.1665555833537748,172.1664518749633
3583.4395,1.1632856587704505,144.7934250900371
3584.264,1.1601495834093996,119.91615738376855
3585.0884,1.1584331095753333,228.64352687461255
3585.915,1.1588230154511359,141.52170155404846
3586.74,1.1609503339291543,231.5529638037442
3587.5671,1.1635556678647387,131.62060742181828
3588.3923,1.165136204653848,134.40029197919011
3589.22,1.1647580118137293,129.18578487955418
3590.0457,1.1624445558814005,130.63320403384355
3590.8716,1.1590047261369518,151.24805818009494
3591.6995,1.1554728159925536,149.99159581961388
3592.526,1.1527124937309714,140.54556464886878
3593.3542,1.1513246211635835,115.62022902455045
3594.181,1.1517084050962498,149.15729482806435
3595.0098,1.153719379089778,191.7885451602308
3595.8367,1.1562743003399505,131.3317497744522
3596.6638,1.1576886272324847,149.5993512204866
3597.4934,1.1567394034746608,125.04209522365798
3598.3208,1.1535763377345571,181.654715134121
3599.1506,1.1494322941034096,194.96330477440407
3599.9788,1.1455641836800539,117.2841890919429
3600.8088,1.142396439568406,106.64622015644815
3601.6372,1.1397569233225027,126.04238567625022
3602.4678,1.1374104266747709,167.7530089167338
3603.2964,1.1353071849634149,169.93121869175602
3604.1252,1.1333079213290096,120.09176569348848
3604.9565,1.1310966894177228,167.4741051258596
3605.786,1.1284458699625601,199.59862034028765
3606.6172,1.1254175472685104,121.52674051513513
3607.447,1.1222858750645601,142.38371983191084
3608.2788,1.1191098063992244,131.91346704278993
3609.109,1.1156001075209103,191.09690033547875
3609.9392,1.1113482635779337,127.25188952788218
3610.7717,1.1063533463720425,153.91813966104456
3611.6023,1.1013251718906774,136.51346754910657
3612.435,1.0973802146062372,118.35168425788862
3613.266,1.095598308976151,247.57787081232902
3614.0994,1.0964078350367332,161.84629206410403
3614.9307,1.0993065183609754,192.0371542120169
3615.7625,1.103042764127236,140.15031975638325
3616.5962,1.106257492824254,153.85189039784368
3617.4282,1.1081144752928014,151.46930827066967
3618.2625,1.1085105752486644,164.21092843601323
3619.0947,1.1077524250866253,148.5752349669805
3619.9292,1.1062827027606448,238.78664607181682
3620.762,1.104678944376826,158.74251772183212
3621.595,1.1036951592218494,188.93387486778715
3622.4302,1.104134324281318,157.91482020733255
3623.2634,1.1065005978078453,208.61175809159653
3624.0989,1.110679901618118,173.67559255589433
3624.9326,1.1156817944776083,180.553405344511
3625.7686,1.1197679365248348,162.68255588352446
3626.6028,1.1209767081825395,141.93325039914228
3627.437,1.1182967229271428,149.96393798780696
3628.2734,1.1125029027221436,193.68247634517058
3629.1082,1.106032845984371,158.10638788527467
3629.945,1.1015220668113335,157.47847641511078
3630.78,1.1003293925104063,287.9742964434992
3631.6174,1.1018753177129894,176.27747110284662
3632.453,1.1043744246892317,138.15731734654483
3633.2883,1.106171532692342,270.8616820075556
3634.1262,1.106715344167495,185.22040670926785
3634.9622,1.1066947633811575,149.27278062169773
3635.8005,1.1074228750616892,120.08786107782875
3636.637,1.1098570190562433,192.8400538516103
3637.4756,1.1138720375708346,147.77803685237487
3638.3123,1.1181197059826709,142.66005358786478
3639.1492,1.1207251385310808,149.36216554771886
3639.9885,1.1202433039245017,140.62524711086175
3640.826,1.1165383385114513,149.90932061162107
3641.6653,1.111012479143478,133.33963232515532
3642.5032,1.106079947465701,165.72452078112235
3643.343,1.1039080856443284,239.11742187403183
3644.1812,1.1053288049669276,166.918661540036
3645.0195,1.1094544051617,150.87062777366026
3645.86,1.114425312680518,205.53831164859415
3646.699,1.1185740926827752,140.29143493023534
3647.5398,1.1213073305033514,132.91537373425462
3648.379,1.1229344218356665,140.25212047927778
3649.2202,1.1240038705664706,114.85663179002141
3650.0596,1.124617626326828,155.79538031898636
3650.8994,1.1243281772250016,138.33547948487126
3651.7412,1.1225682289658532,102.8008034276347
3652.5813,1.11931992676581,149.35941730036092
3653.4236,1.11530136633149,197.34591473278581
3654.2642,1.1114788066125465,130.79473346768336
3655.1067,1.1081451680072565,160.5433881288982
3655.9475,1.1046781980662472,139.7476140803357
3656.7886,1.1000946895330053,159.00852020746484
3657.6318,1.0940619477413778,189.29398047674775
3658.4734,1.0875039077563613,170.51463186620563
3659.317,1.082204880264085,187.68793185435305
3660.1587,1.0800071326499083,131.5849828787758
3661.003,1.0818151744365645,213.45098977962334
3661.845,1.0871208748897498,206.49757838740877
3662.6875,1.0941164850334486,164.61815234486116
3663.532,1.1003600462268595,122.04149591094642
3664.3748,1.1038118652798328,163.22263820391055
3665.2197,1.1039300678689683,120.78141134498631
3666.063,1.1019109401380602,148.3028251753012
3666.9084,1.0999024872724177,127.16342186382278
3667.752,1.0995109602331932,192.78839472700648
3668.5977,1.1005825218342713,201.6971938092332
3669.4417,1.1012498363255905,148.589295184776
3670.286,1.0992474223515725,215.57144933088205
3671.132,1.0935669152024396,167.43226958612416
3671.9768,1.0853972189810335,133.9733277282874
3672.8235,1.0774888659997632,151.56779699122936
3673.6685,1.072647486962559,164.59263965505738
3674.5156,1.0720778383037528,225.56599763607167
3675.3608,1.074997514610806,160.08091298455406
3676.2063,1.0793719335198424,136.15140784701302
3677.0542,1.0831896310733526,142.59154252125973
3677.9,1.0853065202934102,155.3241635900052
3678.748,1.0857039514998141,150.47215503570607
3679.5945,1.085129173154881,147.2185236715039
3680.4429,1.0845865873860834,172.2783499898245
3681.2896,1.0847607417360912,135.0917124491747
3682.1365,1.0855963846336867,254.39382018745545
3682.9856,1.086343971924268,148.30621549061868
3683.8328,1.086088736845084,230.41624133069297
3684.6824,1.0844024007907787,142.89003835323737
3685.53,1.0816092655421397,179.55738177577737
3686.38,1.078530656173072,128.520392196692
3687.2278,1.0761260346409585,213.16700671141837
3688.0762,1.0751061221372693,149.7707306955332
3688.9265,1.0756729240820564,252.55590142576452
3689.7751,1.0772415158611974,183.50985805723212
3690.626,1.078527273542819,187.56045129426153
3691.475,1.0782019313522622,152.51893443598271
3692.3264,1.0758130750171695,151.0502806568172
3693.1758,1.0720853393689564,168.9511021105967
3694.0254,1.0682070368176817,143.63480308774132
3694.8772,1.0649034419653387,160.1347302263206
3695.7273,1.0622176292747056,166.33076360220014
3696.5793,1.0599719503932519,174.415460023321
3697.43,1.0582915365315118,221.7848141933332
3698.2825,1.0574539769295117,240.46106792023556
3699.1333,1.0574910736937735,205.56460740801828
3699.9841,1.0580064223192625,175.3793497795752
3700.8374,1.0584071744623573,238.9001465378769
3701.6887,1.058248768750111,139.10542546595505
3702.5425,1.0574818106328718,160.43123951730544
3703.3943,1.056457888266924,216.12862990741414
3704.2483,1.0556128481841058,166.66114527165834
3705.1003,1.0550446798071489,158.85542016349623
3705.9526,1.0543775232130852,170.8753421057035
3706.8074,1.053190031349444,126.87284452907627
3707.66,1.0515905157292869,244.41870816537784
3708.515,1.050234951146623,183.11120197296182
3709.3682,1.04977092326913,144.3102826733492
3710.2234,1.0502639791992234,163.51646912893878
3711.0771,1.051327907099693,160.49452742562934
3711.9307,1.0527373477087225,176.622511069682
3712.7866,1.0547146192715962,222.11596672518812
3713.6409,1.057409471203086,178.9168522845137
3714.4973,1.060193981583535,169.99040837714804
3715.3518,1.0616202954759484,120.63381342053223
3716.2085,1.0604487145876658,169.4179382084766
3717.0635,1.0566919038385463,164.24909400532943
3717.9185,1.0516262691272225,176.2886009909042
3718.776,1.0467397640381355,205.19072355531378
3719.6313,1.04278624824454,176.66753544119084
3720.489,1.0396736917405063,165.95565703358355
3721.345,1.0372726230166698,184.1997131439618
3722.2031,1.0358692371725964,183.4501575300239
3723.0593,1.0359266833353615,184.0515721049491
3723.9158,1.037361983455092,192.5874141099005
3724.7747,1.0392528061300208,166.06447150180256
3725.6316,1.0402323706025172,137.26394160524478
3726.4905,1.0393119202172723,181.9979369995761
3727.348,1.036382738144939,139.81868652932465
3728.2073,1.0320998133832497,183.33644245764486
3729.065,1.0274160616512742,161.8304160658002
3729.9229,1.0230997919039082,186.37838654689642
3730.783,1.0197132769399073,145.78190750285256
3731.6414,1.0177797983305146,157.55994409561058
3732.5017,1.0176923583963855,198.75302478258587
3733.3604,1.0194235024063258,213.82359623834589
3734.2214,1.0223186265515272,195.9344338870265
3735.0803,1.0253455673084622,144.16381649064488
3735.9417,1.027715415616283,170.3633544472904
3736.8013,1.0291039850803467,209.88291136197506
3737.661,1.0294845617037736,194.7866237255826
3738.5227,1.02883886932675,169.77189003809076
3739.3828,1.0272780392270437,211.3969231751865
3740.245,1.0253028516848235,158.28351579197522
3741.1055,1.0237376573998753,213.3288186834192
3741.9683,1.023159668041271,161.94249322390834
3742.829,1.0234528711783681,151.01526044149114
3743.69,1.0238914545037499,200.21477502632828
3744.5532,1.0236989071821487,175.57051636385546
3745.4148,1.0224992099362782,182.8975956738993
3746.2786,1.0203111608406574,200.4243007041735
3747.1404,1.0173193126512343,193.35419482974902
3748.0044,1.0137796337734122,191.52874399919824
3748.8667,1.010306900227133,146.0557849239828
3749.729,1.00790479517443,194.02582067798306
3750.5938,1.007542542207738,178.94115422283764
3751.4565,1.0094237907608776,165.22467209771582
3752.3215,1.012666379245062,180.9795454503402
3753.1848,1.0156415518446893,219.0036532237928
3754.0503,1.016737293559292,168.75400646593326
3754.9138,1.014993451220223,170.89057892906786
3755.7776,1.0105876037058488,189.3091480354024
3756.6438,1.0048775167067798,154.45104607984217
3757.508,0.9999005554179438,193.42877962294196
3758.3745,0.9972098005345872,231.0711018951887
3759.239,0.997116260631673,175.50489358747652
3760.106,0.9986734914792111,201.60423798625558
3760.971,1.0004525265327784,185.26460508981998
3761.8362,1.0013848084909502,159.82183054427426
3762.7036,1.001128275355279,157.36829244809832
3763.5693,0.9999830426594893,189.31983740119574
3764.437,0.9985278602519965,205.14224383965717
3765.3032,0.9972595753089416,235.61466354187465
3766.1714,0.9963715008512197,164.14940875642452
3767.0378,0.995776428494646,169.70718149691177
3767.9043,0.9952021541371316,216.6571113645288
3768.7732,0.9943411204879136,173.41225514603084
3769.6401,0.9930793459096594,166.24933827527195
3770.5095,0.9917373668525328,206.0185154287825
3771.377,0.9911305297704797,222.6067019831882
3772.2466,0.9921395244497527,175.0441130562819
3773.1145,0.9950114303316702,199.48478346869823
3773.9824,0.9989199412775012,207.82213138226285
3774.8528,1.0022642110006652,139.73889026826222
3775.721,1.0035576323092446,140.86202778306847
3776.5918,1.0023296378850375,194.34268223830193
3777.4604,0.9992206983914279,156.26290705014108
3778.3315,0.9953461479679709,216.21743642944293
3779.201,0.9915637743636675,153.64203968716893
3780.0703,0.9880273125339524,178.10287312018195
3780.942,0.9844077758343386,187.00152164875345
3781.8118,0.9804861527858284,159.3946044306356
3782.6838,0.9765471605826095,292.5846980046571
3783.554,0.9733874921931231,220.60722711613332
3784.4265,0.9717582762108664,203.82448288982144
3785.297,0.9719789218842991,226.00374520351576
3786.168,0.9738550064214605,187.90521232176482
3787.041,0.9769250248325059,225.1670228061857
3787.912,0.9805726490180728,214.12769573649322
3788.7856,0.9840792067808196,157.050626285809
3789.6572,0.986614271444077,205.09976505684017
3790.531,0.9875744569565379,197.6751323331173
3791.403,0.986888934581376,141.68629232627734
3792.2754,0.9851245551851526,210.96366399985084
3793.15,0.98312176611022,265.4398233168285
3794.0225,0.9814765216990462,228.68245575502857
3794.8972,0.9802055887247678,161.82998364330527
3795.7703,0.9789068952536539,239.8165563811791
3796.6455,0.9770976813123258,175.7734840383553
3797.519,0.9745400001854038,188.77689856203162
3798.3926,0.9713185463656583,160.80128390240588
3799.2686,0.967791297087381,207.08168864798407
3800.1426,0.9645055305544254,199.08891916901285
3801.0188,0.9620171655158565,209.6394925754257
3801.8933,0.9608256248555893,174.64450330084898
3802.77,0.9611628713633094,206.87304322221374
3803.6448,0.9628371384717231,235.9413551442814
3804.522,0.9652178361625262,169.56060056814667
3805.3972,0.967411275045885,187.3585024841995
3806.2727,0.9686136471640471,258.2667040964081
3807.1504,0.9683785515551553,196.09193023490027
3808.0261,0.9668563755326123,143.15330974203937
3808.9043,0.9648322154533104,203.42871622631756
3809.7805,0.9633951448530953,190.14340310612337
3810.659,0.9631740485191317,197.73662786410114
3811.5356,0.9637769724538267,232.88949057489168
3812.4126,0.9639858277812561,223.25056757543956
3813.2917,0.9626835481902585,194.8763710838191
3814.169,0.9597155140632561,227.2250141984762
3815.0483,0.9559200528471313,201.9307856747075
3815.926,0.9525414815612933,241.91030196879998
3816.806,0.9504691272950632,194.5942713407184
3817.684,0.9499671725957423,196.09071797441013
3818.5623,0.9507294065309457,249.86400493566384
3819.4429,0.9521906705309239,227.289459741502
3820.3215,0.953732462285958,281.6318815313276
3821.2024,0.9547713570403097,226.8379243392122
3822.0815,0.954748198861335,196.02600762534286
3822.963,0.9532889060891827,244.77117999352112
3823.8423,0.950484980208077,206.55735951689198
3824.722,0.9470193612344207,218.48854762471942
3825.604,0.9439342012900684,267.9327321873384
3826.4841,0.9420924098803111,239.90449646479536
3827.3665,0.9415932813568981,237.12592528958203
3828.2468,0.9417089122464832,229.50171242740927
3829.1296,0.9413301876376022,228.34789711485098
3830.0105,0.9397370782701128,258.9818009642831
3830.8916,0.9371317521361054,210.08677008611278
3831.7751,0.9345172427934335,196.49116116882448
3832.6565,0.9330182894732754,231.7830814900485
3833.5403,0.9331622895755951,276.81132193256497
3834.4224,0.9348308187839521,176.837946994136
3835.3064,0.9376508383157536,242.6362603315448
3836.1887,0.941230443781211,277.4595759060259
3837.0713,0.945074374577914,224.48623143474865
3837.956,0.9484091391832947,231.90122781854163
3838.839,0.9503035941358128,224.62964855591173
3839.7244,0.9501077348959296,297.9502349110738
3840.6077,0.9478119552125966,176.7692918644731
3841.4932,0.9441777553840476,207.71486342980208
3842.377,0.9405169984342683,238.17060413143722
3843.261,0.938075669449214,226.2832977364665
3844.1472,0.9375350956761572,193.38836488427137
3845.0315,0.9388260299945703,204.18431104495588
3845.9182,0.94130641597937,222.2476224515175
3846.803,0.9440742374956544,190.85321086418116
3847.69,0.9463488432643811,226.14095227298017
3848.5752,0.9476964045226095,164.38633518599912
3849.4604,0.9481350180264654,228.04603581703594
3850.3481,0.947922866323258,285.6935713615713
3851.234,0.9472823882942657,241.98400345190169
3852.122,0.9462792256353958,234.84087547482775
3853.0083,0.9449746189123195,223.6787705712488
3853.8967,0.943595330079,198.85328463950972
3854.7832,0.9425164252724708,275.2705980347667
3855.6702,0.9419586893060409,218.05136190340403
3856.559,0.9417737268509142,238.75260765166576
3857.4463,0.9415381174611452,255.1259984620435
3858.336,0.9409004272960032,194.7820971622105
3859.2234,0.9398439972047496,226.13579418172284
3860.1135,0.9386272627485369,216.19218277686787
3861.0015,0.9376121098549809,213.5160093031879
3861.8896,0.9371347369087281,311.3516956444805
3862.7803,0.93747063232433,224.03526126398629
3863.6687,0.9386610630331655,283.69680162205276
3864.5598,0.9403170904938127,206.18367629842234
3865.4487,0.9416546672786457,209.64359181653992
3866.34,0.9419431607539203,180.69644480658417
3867.2297,0.9409576526834293,254.20531748383115
3868.1213,0.9391039096076472,216.85044174401486
3869.0112,0.9371246486928833,205.66645120071962
3869.9014,0.9356256693618226,210.1872336337453
3870.7937,0.9347839587481411,210.32760972921517
3871.684,0.934263153269264,251.89144433555322
3872.577,0.9333046991277829,227.8954073688007
3873.4678,0.9310510307731411,204.7925413293902
3874.361,0.9269517556469677,199.31055720835198
3875.2524,0.9211016254750671,247.9714921426867
3876.1438,0.914062990084367,232.50167551995503
3877.0376,0.9064763268709577,247.669909941326
3877.9297,0.898869511469564,218.87063601370468
3878.8237,0.8916489652364046,256.20185591898417
3879.716,0.88547020105743,214.5556249775801
3880.6108,0.881062606461216,316.4736274816163
3881.5037,0.8788804588032673,225.368575005272
3882.3965,0.8785812980034913,254.10568977522212
3883.2917,0.8791016513534446,263.0781745562518
3884.185,0.8791656536542867,219.25389685308622
3885.0808,0.8779542121147679,236.31874938171265
3885.9746,0.8754851310973093,253.40973425985317
3886.8706,0.87248466783287,269.6579154631202
3887.765,0.8699902799303035,277.31435108831465
3888.6592,0.8688513938220205,291.9999552522401
3889.556,0.8694886892672865,299.68745022726773
3890.4507,0.8718110222182345,290.5713442845481
3891.348,0.8753165361582463,255.89650358497533
3892.243,0.8792516278226321,234.8555770870128
3893.1406,0.8829412115433268,268.1219693875921
3894.0361,0.8859550224389149,212.05464141037444
3894.932,0.8882928169709273,280.7012732425606
3895.83,0.8902630613506867,299.94616396024566
3896.7263,0.8922382632206599,243.20957827698962
3897.625,0.8944579881703771,240.49916389963033
3898.5215,0.8968942941801176,208.0849075934244
3899.4207,0.8993479330100649,238.1831742304793
3900.3176,0.9015622090697543,247.63055356359226
3901.2148,0.9035089649997632,263.72451449920766
3902.1145,0.9055114056532468,263.17301570657236
3903.0122,0.9080482674399439,289.07119470916444
3903.912,0.9113182891029447,263.9297298433309
3904.8103,0.914852045341525,212.75409025245554
3905.7107,0.917761286039011,216.30612374976192
3906.6094,0.9193451667305277,216.3094902045088
3907.508,0.9197301158427258,258.24903499787945
3908.409,0.9198640661605199,202.46900773847537
3909.308,0.920940387737955,217.5676790995762
3910.2097,0.9236303869847887,240.09851062787476
3911.1091,0.9275781596677316,243.75460428908107
3912.011,0.9315594246860268,217.88204295330513
3912.9111,0.9341048838953835,180.7824516048641
3913.8113,0.9344941246040922,244.91078557246738
3914.7136,0.9332454838641076,239.25139457082363
3915.6143,0.9318018416514953,203.43953323093126
3916.517,0.9315092128527951,192.5272723032155
3917.4182,0.9327589658279575,245.04332935193477
3918.3215,0.9349035475198787,165.10439061821083
3919.223,0.9368959140495112,209.10322188103018
3920.1245,0.9381193156715458,231.3996958818529
3921.0286,0.9387324450159812,215.3173740390286
3921.9307,0.9393898306424845,216.03283434877804
3922.835,0.9405558438420595,183.02511049835127
3923.7373,0.9419354793132354,216.61091950629114
3924.642,0.9425859500572813,222.08428949290433
3925.5452,0.9415930408274713,216.14316474318116
3926.448,0.9388011184637128,219.71550718355195
3927.3535,0.9349693872872242,228.1625352806175
3928.257,0.9314240231763149,188.89036506605612
3929.1628,0.929336864526072,222.38529816950788
3930.0667,0.9291954157425594,232.94730633251478
3930.9731,0.9305034575235459,257.61877146144263
3931.8774,0.9320338408576351,177.54728160869803
