wavl,flux,ivar
3566.9744,1.1942276752761847,171.4830662686616
3567.795,1.196665741589669,268.44805137546564
3568.6177,1.1993769313410068,211.95359714461517
3569.4385,1.2015705513245087,247.35037654022562
3570.2617,1.20294128777194,192.41273524897338
3571.083,1.2036263548227804,166.26287737695804
3571.9065,1.2041475172565688,267.9223471144706
3572.7283,1.2049917971895976,208.3656418287458
3573.55,1.2060664813174884,168.85427498736786
3574.374,1.2065639734636242,145.24487400913387
3575.1963,1.2055174030963465,180.78178136741118
3576.0208,1.2025555098106644,166.7935135890278
3576.8435,1.1981378898604162,261.28876884250457
3577.6682,1.1930489920421836,243.08084559013136
3578.4915,1.1879172122830026,220.851121443343
3579.3145,1.1830723658933764,190.33950888485043
3580.14,1.178877746021749,130.59375061212745
3580.9636,1.1758625677398113,166.07919369615072
3581.7893,1.1742687451006606,200.59370726017679
3582.6133,1.1737676958663716,146.38083120098705
3583.4395,1.1736847756598465,286.20775139820256
3584.264,1.1736018575809513,193.17180170147955
3585.0884,1.1736133502323822,109.05693956176054
3585.915,1.1741316842243819,168.49490711690007
3586.74,1.1755782493400688,198.71901089825096
3587.5671,1.1781613812978764,192.71057510627375
3588.3923,1.1815879187721232,205.36947022041232
3589.22,1.1849179607206406,200.2860327816161
3590.0457,1.186696579739145,169.61041120934777
3590.8716,1.1857201131645356,175.99654566264698
3591.6995,1.1818069786619665,171.60285007560267
3592.526,1.1761596198082285,206.26176929663836
3593.3542,1.170775474288514,199.30385156480924
3594.181,1.1674274707272871,193.98583099627007
3595.0098,1.1666466883871325,259.27874828051114
3595.8367,1.1676707077363604,178.3206107599857
3596.6638,1.169231850906727,188.9252239227491
3597.4934,1.1705597459529637,217.33924846000969
3598.3208,1.1716005408144035,247.65197474730752
3599.1506,1.1724497809638772,207.1331414632846
3599.9788,1.1728350413625281,236.15472025381305
3600.8088,1.172465740370097,209.24067061193614
3601.6372,1.1716859550631853,207.27373558454966
3602.4678,1.1713946166365299,212.26154628396
3603.2964,1.1721363112471126,174.87588228779774
3604.1252,1.1734000992997768,156.93467694800893
3604.9565,1.1739797190276402,301.2874754673363
3605.786,1.1729841008185815,147.09703112560697
3606.6172,1.1704842193873228,189.85157212290173
3607.447,1.1672716653945758,231.6974426260607
3608.2788,1.1640822316794865,174.02994566729194
3609.109,1.161171347558233,200.1716311899244
3609.9392,1.1583408540814777,209.64482991887328
3610.7717,1.155211301103954,205.7905854755117
3611.6023,1.1513664996080948,190.6456873176021
3612.435,1.1465044304018737,145.85466768659848
3613.266,1.1409844205587043,223.31945328583777
3614.0994,1.1359920857830974,252.90160693775695
3614.9307,1.1331048202353367,202.77577794440916
3615.7625,1.1331441985064805,166.43826136520326
3616.5962,1.1355070124066242,238.42535266217675
3617.4282,1.1382692954967653,240.7066705234157
3618.2625,1.139167794620104,183.76287064101956
3619.0947,1.136812714305662,212.90654088524494
3619.9292,1.1315319992451942,170.72198243694675
3620.762,1.1252568260908429,219.15907269458216
3621.595,1.1203054660080636,207.16196850483834
3622.4302,1.118094761981948,231.28984994742942
3623.2634,1.1185362399755445,240.27623859538005
3624.0989,1.120393459195309,155.8523475981739
3624.9326,1.12216575791222,243.15653851709732
3625.7686,1.1228355784779045,191.1430325874988
3626.6028,1.1221292375169396,235.85002874238995
3627.437,1.1204198539412895,235.35048813547795
3628.2734,1.1183458124182648,179.53974868249637
3629.1082,1.1163648677987887,277.130879733186
3629.945,1.1144128551983006,230.7745311437555
3630.78,1.112112950470102,194.22879754560788
3631.6174,1.1093488825036326,188.83868857314386
3632.453,1.1067914534706726,235.87362334848012
3633.2883,1.1055687423266676,301.72566262468956
3634.1262,1.1063669780544236,262.6973933512124
3634.9622,1.108651788012616,203.1225428741934
3635.8005,1.1107979535455712,265.2008186799649
3636.637,1.110957385377723,181.03761714478372
3637.4756,1.1080674199494978,194.36321080290054
3638.3123,1.102294655001791,187.20236809629006
3639.1492,1.0947569309897134,280.363129292141
3639.9885,1.0869631214451094,254.10475548250653
3640.826,1.080417337869867,284.869926436324
3641.6653,1.0762105114246392,354.0470056269339
3642.5032,1.0749183337797874,219.60284976454176
3643.343,1.0763088269777534,250.80834410664974
3644.1812,1.0793064646509354,210.02982530211068
3645.0195,1.0822983484484672,220.8470206562123
3645.86,1.083748846534458,217.42829320852485
3646.699,1.082895892203842,264.87812986336814
3647.5398,1.0802032001209716,190.21798739877013
3648.379,1.0772137979106466,224.0188197214919
3649.2202,1.0756815912893631,301.97916971018446
3650.0596,1.076491171519798,343.1352326431256
3650.8994,1.0789929224406116,227.80849943921396
3651.7412,1.0814043897536818,270.3667124486221
3652.5813,1.0819614021826283,254.70372432921062
3653.4236,1.0801066950810085,267.81334826388945
3654.2642,1.076828840138341,305.19311328607824
3655.1067,1.0739256147616203,261.19391491410863
3655.9475,1.0727396326679366,247.80531750180114
3656.7886,1.073130844064815,242.75256048463893
3657.6318,1.0735894290270627,160.7404635990626
3658.4734,1.0723606050059842,228.58293228996752
3659.317,1.0687899976918525,191.907829684282
3660.1587,1.0638587077691948,187.59122878733925
3661.003,1.0594755176253037,260.8698047688625
3661.845,1.0573690674635645,253.9025102787839
3662.6875,1.0582081085008246,214.8574728423892
3663.532,1.0616391146000765,240.61156030766054
3664.3748,1.0667041854200583,213.68826536136942
3665.2197,1.072392773361214,235.52620161586572
3666.063,1.0777846208193715,234.5042313479048
3666.9084,1.0821085870108935,220.58612432279716
3667.752,1.0845795178855666,255.358251675322
3668.5977,1.0846375146625458,259.99633790333985
3669.4417,1.08229270339746,217.56889697625184
3670.286,1.0783726293036395,254.50530494655754
3671.132,1.0742066834372896,271.05202400040764
3671.9768,1.0709101203900044,372.0048126297533
3672.8235,1.0687027339252697,368.7395202111154
3673.6685,1.0670288590739858,211.77343626838217
3674.5156,1.065233688545115,220.60968800627057
3675.3608,1.063266270939881,216.62089301174498
3676.2063,1.0615965510131768,222.45769548120091
3677.0542,1.0605589962726332,195.91679631041382
3677.9,1.0598325927633878,223.3779537489353
3678.748,1.0586423909626181,198.25951097807283
3679.5945,1.0565213564554194,265.7423603628036
3680.4429,1.053746700900723,203.86074513936703
3681.2896,1.0510803582777644,184.90216291638617
3682.1365,1.04901845230887,277.21266921206455
3682.9856,1.0474363497808052,225.29423418307965
3683.8328,1.045853425818275,297.045013533833
3684.6824,1.0438611329305008,244.8707077602697
3685.53,1.0412896294327751,292.0293147219265
3686.38,1.038089013745563,198.2424699412009
3687.2278,1.0345599096201161,295.4213259768737
3688.0762,1.031635685608466,324.14658289619933
3688.9265,1.030718206995379,315.6929261992254
3689.7751,1.0327019921483795,234.84620921555165
3690.626,1.0370813271813124,254.19595748957965
3691.475,1.042126486687318,205.3786643042187
3692.3264,1.0461570643523974,268.4793455770837
3693.1758,1.0484587000230183,229.07761658484577
3694.0254,1.0492623696025665,273.16816000488126
3694.8772,1.0489776737914953,232.4341064451803
3695.7273,1.0478879092763456,178.60042567346053
3696.5793,1.0464680877968657,281.78076224241477
3697.43,1.0456510906529886,196.34177710113556
3698.2825,1.0463479770848936,352.51090573725526
3699.1333,1.0485584337278264,254.76070539652912
3699.9841,1.0509718398287273,201.60213295992463
3700.8374,1.0515783134466359,227.3468300037619
3701.6887,1.0489073913316325,206.51463132005674
3702.5425,1.0429801425885137,216.36107349968793
3703.3943,1.035383260414496,219.5192583948766
3704.2483,1.0283080569577672,268.282283384769
3705.1003,1.0235271808698898,239.0106768247047
3705.9526,1.0214843824935418,219.83045393985165
3706.8074,1.0212950125239086,290.11385706247086
3707.66,1.021371688366965,286.4610542207111
3708.515,1.0204775459399857,229.55058504281033
3709.3682,1.0185995902824303,293.1838946537269
3710.2234,1.017013599526553,210.66315375973406
3711.0771,1.0174557677665055,312.6274253279282
3711.9307,1.0208138756135583,256.35730052979704
3712.7866,1.0263276247829949,271.76543589054336
3713.6409,1.0317776974842219,278.77886679378366
3714.4973,1.0348075497509335,187.39038346289024
3715.3518,1.0341910859869323,244.78301164967738
3716.2085,1.030394248128792,220.3221428183028
3717.0635,1.0250347399552255,230.7422182595238
3717.9185,1.019777634731739,232.17537637659422
3718.776,1.0155892483107707,239.29445646239853
3719.6313,1.0127471145773217,175.57277545140855
3720.489,1.011253617628967,252.32600809656063
3721.345,1.011264097504563,274.1591406936713
3722.2031,1.0129322377282315,284.94350717242764
3723.0593,1.0160150821796927,258.6887610322481
3723.9158,1.0197601672306813,330.7514446383183
3724.7747,1.0232100122710612,248.88219074685696
3725.6316,1.0256186773569902,226.99877013824604
3726.4905,1.0267005534772151,318.96826653805874
3727.348,1.0264639858906748,269.26388420355323
3728.2073,1.0250506384560714,223.57303686474978
3729.065,1.0226959202097345,244.38442886440694
3729.9229,1.0197004602188686,319.24847542182783
3730.783,1.016273436015848,300.64650450240697
3731.6414,1.0123633238261012,252.51724700728866
3732.5017,1.0076672685943062,259.02527252166635
3733.3604,1.0020989902920372,226.16533470513906
3734.2214,0.9961089561194071,285.94093542383837
3735.0803,0.9908362861730988,278.99068258865026
3735.9417,0.9876273779234169,242.88240669902197
3736.8013,0.9875391506225125,291.02552747621047
3737.661,0.9906867721923208,290.84938884249186
3738.5227,0.9960128913205198,330.43854844997355
3739.3828,1.0015074544935578,279.16036025601534
3740.245,1.005144711659913,235.06851872476858
3741.1055,1.0057722390593664,198.4064454543991
3741.9683,1.003610496867757,290.37672530181663
3742.829,0.9999102801123224,266.63705981601674
3743.69,0.9961640664938941,288.7160217476514
3744.5532,0.9934915003180019,269.56201530661923
3745.4148,0.9924770429056692,229.68591565676826
3746.2786,0.9932318923669589,257.85724026890193
3747.1404,0.9954764140182821,219.4395922390696
3748.0044,0.9984785604325778,240.05084815957255
3748.8667,1.0010695945015469,297.96182194129057
3749.729,1.002142167459121,227.5786879268339
3750.5938,1.0013164136923296,269.1638050757786
3751.4565,0.999336854036391,314.8456840850018
3752.3215,0.9977130254973859,315.016257015836
3753.1848,0.997856265019192,276.66478731109765
3754.0503,1.0002362176483497,222.37253733228482
3754.9138,1.004121475243695,260.87491204921605
3755.7776,1.0080368375602826,354.2490366324214
3756.6438,1.0105493564435548,281.38897166740594
3757.508,1.0109674461617943,308.0279390888311
3758.3745,1.00964163084713,233.28014223266254
3759.239,1.0076718347676068,209.9206187179975
3760.106,1.0062668455198465,218.45301025513817
3760.971,1.0061112398855765,270.1303985024481
3761.8362,1.0069434573526166,261.39158328590787
3762.7036,1.0076908563375218,327.7169607549749
3763.5693,1.0071271720398984,278.5782874439159
3764.437,1.0047359172824264,347.86256916040605
3765.3032,1.0011377684323806,261.32631792432585
3766.1714,0.9976842737162713,233.00684526850117
3767.0378,0.995610440039382,275.12520331106913
3767.9043,0.9952638431182425,308.41500703041885
3768.7732,0.9961227467882817,274.22120876938743
3769.6401,0.9973656255584843,270.56254291045644
3770.5095,0.9984341910071105,339.57550967748034
3771.377,0.9990038554029045,217.7511746444649
3772.2466,0.9986648678110507,281.0348551555961
3773.1145,0.9968873125634078,291.77882737148195
3773.9824,0.9934110738435852,229.9333775381152
3774.8528,0.9884805443414459,260.3389801162222
3775.721,0.9827299735918612,244.71259025696668
3776.5918,0.9769380123693016,268.78048393231165
3777.4604,0.9723187839530059,243.28333932608697
3778.3315,0.9703190720478703,384.54092765333866
3779.201,0.9718312528339174,307.5534343968177
3780.0703,0.976213267201196,363.8883168825235
3780.942,0.9815615691732968,282.21287474751085
3781.8118,0.9859778586608478,368.9931313712658
3782.6838,0.988742089543473,303.7395552982672
3783.554,0.9901695013400725,315.64300476297274
3784.4265,0.9908880388463124,311.7814216579202
3785.297,0.9912810001378709,273.3063825261128
3786.168,0.9915238116829934,387.9895964642076
3787.041,0.9917792361627327,259.52343317416916
3787.912,0.9922560689519481,284.3688067030329
3788.7856,0.9930837906661634,277.41960043271297
3789.6572,0.994077904291127,311.7845191468478
3790.531,0.9946411203587602,288.7428411509404
3791.403,0.9939811557503065,288.79822842142306
3792.2754,0.9916475128772506,284.74807035377694
3793.15,0.9878981785414627,269.7379115171088
3794.0225,0.9835818255623727,272.73239207595844
3794.8972,0.979498700165856,268.60461073617205
3795.7703,0.9760392241105473,249.37465686008133
3796.6455,0.9731900929672204,235.89591615944292
3797.519,0.970979613148887,253.45831234596503
3798.3926,0.9696556432811013,217.37479050385758
3799.2686,0.9695769781832935,293.0292063292668
3800.1426,0.9708644723200404,255.2335972089678
3801.0188,0.973126838709143,260.04004949832535
3801.8933,0.9754365149238479,277.9563910973737
3802.77,0.9767029548437414,237.0977946006684
3803.6448,0.9761868050693912,269.33664236437
3804.522,0.9739048356107788,285.062332614978
3805.3972,0.9705951650582142,257.20969958512734
3806.2727,0.96729228871266,380.55470818354894
3807.1504,0.964980246621104,272.81374584336965
3808.0261,0.9645060473819183,287.7169238115546
3808.9043,0.9665361981178402,343.7371947511566
3809.7805,0.971323116547593,275.46370911859213
3810.659,0.978368916983969,342.62866940248836
3811.5356,0.9863084258770997,288.37570839026665
3812.4126,0.9935818206035053,263.27787427505376
3813.2917,0.9991311797401224,289.15310486732074
3814.169,1.0025878758397384,231.63893423637438
3815.0483,1.0039376060447307,226.6284377496498
3815.926,1.0030385835283167,310.65779176269825
3816.806,0.9997546719271977,350.24104821621205
3817.684,0.9943811964932576,234.55422804402508
3818.5623,0.9877467065372503,236.42865851342404
3819.4429,0.980933769077597,204.57019320510253
3820.3215,0.9749721423874631,329.3471369973357
3821.2024,0.9704932799250746,311.2403252253366
3822.0815,0.9676709239609613,290.1077932025311
3822.963,0.965994409034248,266.4695781332937
3823.8423,0.9644255973945586,285.21204943109757
3824.722,0.9618986535319536,216.5626557863177
3825.604,0.9580115825813276,322.3068028061513
3826.4841,0.9533325366473857,277.2651566117052
3827.3665,0.9488790286969151,295.70542829145285
3828.2468,0.9453488672155146,327.94878324202654
3829.1296,0.9425060787994914,300.08193416307233
3830.0105,0.9394634212380126,264.84424355187065
3830.8916,0.9353394541244022,323.05498532285776
3831.7751,0.9298270843475936,315.54130551334663
3832.6565,0.9233190971516961,272.01820556949417
3833.5403,0.9166155561506769,343.23037766567387
3834.4224,0.9108921638559928,334.66272496643927
3835.3064,0.9073778916341413,346.34793696887266
3836.1887,0.9069921959221894,264.9398879710201
3837.0713,0.9097594048973375,393.85830426791
3837.956,0.9147103166723957,275.09978096555216
3838.839,0.9203006349170372,199.68834682913968
3839.7244,0.9253141598498367,286.0442109806478
3840.6077,0.9293706004360489,198.67374202546733
3841.4932,0.9330206081223407,285.10773219896333
3842.377,0.9371997876173419,266.98740828702813
3843.261,0.9427116891836554,319.4185035086217
3844.1472,0.9498074410625977,374.0326068029899
3845.0315,0.9580175966036432,258.0521173812187
3845.9182,0.9665054653726723,222.8183665377246
3846.803,0.9743526493690753,253.81307987228345
3847.69,0.9810288699232905,223.58478205188408
3848.5752,0.9861997859288657,304.3791813005332
3849.4604,0.9896188146243533,273.91662463566075
3850.3481,0.991123189213639,218.79233332176074
3851.234,0.9910059909053737,252.1528072680301
3852.122,0.9901899216791711,310.86608462289615
3853.0083,0.9897444726214317,261.26742153689264
3853.8967,0.9901483199364667,239.82129541320504
3854.7832,0.9910821474543111,242.73675098773
3855.6702,0.9919280294040483,276.80812283805227
3856.559,0.9923389444411598,269.623307447781
3857.4463,0.9923046351618972,285.17789580448675
3858.336,0.9918753428286049,313.19257225210947
3859.2234,0.9910528687667217,255.12255909163827
3860.1135,0.9899091430744608,248.4533527220191
3861.0015,0.9886077540741889,271.23393551234
3861.8896,0.9871590487856607,233.3390796652892
3862.7803,0.9853035132414354,247.1408696211451
3863.6687,0.9827300396592773,346.1276987064816
3864.5598,0.9793546495644688,277.8979415647168
3865.4487,0.9754780859256781,297.5476403865281
3866.34,0.971525784635534,249.13718010028197
3867.2297,0.9678410820134864,284.3882495692789
3868.1213,0.9645067897984562,242.54350517636826
3869.0112,0.9615572901206068,289.35875666628993
3869.9014,0.9591373894202312,278.87159798806493
3870.7937,0.9575239352731981,290.8137494099466
3871.684,0.9568868229080554,265.7854720154091
3872.577,0.9570095815616675,269.9519336981322
3873.4678,0.9572310237686565,302.39590870727045
3874.361,0.9565857590185932,236.62007958478802
3875.2524,0.9541219010457949,271.2808243567894
3876.1438,0.9492627593489491,337.18695466085234
3877.0376,0.942020014457145,291.0571345596843
3877.9297,0.9330221420919708,321.6416112507508
3878.8237,0.9231018712434832,362.72173584147225
3879.716,0.9131280299201904,322.0108679412035
3880.6108,0.9036810223843278,313.60626742631206
3881.5037,0.8951727016860314,294.7222814936254
3882.3965,0.8876303818237522,378.7324617008779
3883.2917,0.8807255168342655,458.29252446370697
3884.185,0.873919230509023,343.4543820092115
3885.0808,0.8666271887903019,345.17577611361776
3885.9746,0.8586760369223915,366.791467381987
3886.8706,0.850275011687441,386.9870742396512
3887.765,0.8420472647672997,357.91272355190307
3888.6592,0.834743348430544,381.34084942579585
3889.556,0.8291755350014968,382.3355191940053
3890.4507,0.8260759171379791,393.8097106356037
3891.348,0.8257848971631765,366.67686150385833
3892.243,0.8282664903119213,349.5829440006243
3893.1406,0.8333478122933061,415.81893860882
3894.0361,0.8409200069748525,365.3550817895238
3894.932,0.8509524811410761,422.98386622354286
3895.83,0.863129466060816,373.4870461498155
3896.7263,0.8765111608470663,276.63469716532677
3897.625,0.8899533701234783,336.41651365600217
3898.5215,0.9023316291755142,479.88372907046295
3899.4207,0.9131464593805037,271.27057065708937
3900.3176,0.9222798152813271,403.36488616432365
3901.2148,0.9300448622672668,277.31604617220836
3902.1145,0.9369338815583854,283.1441427668353
3903.0122,0.9434876897678188,322.85440553428003
3903.912,0.9502910755898727,289.8306489513323
3904.8103,0.9577049312665682,261.27421652409254
3905.7107,0.9659273306455554,268.7254019502565
3906.6094,0.9748839652269495,272.18775608196904
3907.508,0.9842888769301203,279.66609595879436
3908.409,0.9934280659546171,225.89063328307236
3909.308,1.0011117891208754,239.78424999631173
3910.2097,1.0063081629793356,268.1592998636212
3911.1091,1.0086969920417181,258.4300291470364
3912.011,1.008983566034873,238.59650477704452
3912.9111,1.0083922024176368,258.51295656018806
3913.8113,1.0080588197039115,314.2382999131341
3914.7136,1.008749062847887,277.1155975901176
3915.6143,1.0109008179227144,246.48016532219714
3916.517,1.014667673189127,259.8836454924325
3917.4182,1.0197406687502566,236.36116301745602
3918.3215,1.0253104883655648,227.54993933033225
3919.223,1.0301952395747254,227.01490154906983
3920.1245,1.0334554753490528,200.13743928302947
3921.0286,1.0348684156933965,201.6550157701083
3921.9307,1.0350142527065322,237.81771614542114
3922.835,1.0347776898996055,252.62501784460483
3923.7373,1.0346127351204657,254.1603485434624
3924.642,1.034268340777889,263.1378191250471
3925.5452,1.033226384225808,248.64693147515717
3926.448,1.0313890121198361,231.09786207597554
3927.3535,1.0292937658429104,228.46373080934274
3928.257,1.0276397648929225,244.80837016277238
3929.1628,1.02648688582749,244.40499544420064
3930.0667,1.0249807323406768,235.8004624888874
3930.9731,1.0218293979165447,276.2833052393207
3931.8774,1.0163794949838543,229.11942393062014
