wavl,flux,ivar
3566.9744,1.1477138628595656,200.4799076555804
3567.795,1.1490257694087105,254.78568273528504
3568.6177,1.14819027522565,194.27607102778435
3569.4385,1.1455329041712157,228.71092719148962
3570.2617,1.142007506502452,245.81403028977923
3571.083,1.1388002413842901,269.7194905580287
3571.9065,1.136495234502828,270.8456912575968
3572.7283,1.1347014943234748,217.44327161800953
3573.55,1.1323642407212884,229.76535398988878
3574.374,1.128645811157775,217.69960506658356
3575.1963,1.1236600677244022,182.38803781463707
3576.0208,1.1183828607495476,159.3754239862554
3576.8435,1.1139494390034324,151.9660220438314
3577.6682,1.1106259937760865,216.8463425097788
3578.4915,1.107674381384419,181.31453146560182
3579.3145,1.1041111631315172,213.8906136637864
3580.14,1.0997628559291899,218.41399194852386
3580.9636,1.0954743779651432,289.0859101528768
3581.7893,1.0922024342260586,266.51527624484504
3582.6133,1.0903335605133477,246.72032918309142
3583.4395,1.0898396300433026,288.2266645466269
3584.264,1.0910173311113833,245.6289141067676
3585.0884,1.0945391743513884,263.27740808311563
3585.915,1.1006230188271415,222.3298934702755
3586.74,1.1080849809393538,213.5878884276836
3587.5671,1.1145876416869562,193.08533882220678
3588.3923,1.1177764672171635,188.8754113446424
3589.22,1.1167973059434668,192.41136209598255
3590.0457,1.112758331193567,218.18949825776176
3590.8716,1.1080773481305095,214.11408407876468
3591.6995,1.105210931260297,175.90585693454867
3592.526,1.1055401012116102,202.56796580958508
3593.3542,1.108782444159046,214.53685158238844
3594.181,1.1131925202340363,235.38567945842473
3595.0098,1.1164968211455524,149.96317273041115
3595.8367,1.1169559766898145,225.43633792038167
3596.6638,1.114083598961015,212.43113336083212
3597.4934,1.1084566974054977,211.93988244302213
3598.3208,1.1012324764899186,207.8524887279161
3599.1506,1.093605292658565,310.6930598364556
3599.9788,1.0867867038243098,247.9473756988558
3600.8088,1.081654268463061,219.38500263029835
3601.6372,1.0785728120587386,262.5665935737766
3602.4678,1.0773152727084874,193.82370172018986
3603.2964,1.0775311733638415,209.7726487913309
3604.1252,1.0790173264437402,306.9186912823723
3604.9565,1.081537690921738,189.21663682306422
3605.786,1.0844529720431417,269.7546910301665
3606.6172,1.0869134137296432,167.39754204826855
3607.447,1.0883749906685645,200.89444189908875
3608.2788,1.0889353688705665,249.45350561589134
3609.109,1.0889446157419458,184.22601394908585
3609.9392,1.0883765005084716,209.35647667995613
3610.7717,1.0866243573688723,274.62512191982364
3611.6023,1.0830363252830693,292.29015273738236
3612.435,1.0775969047303622,248.40021963712
3613.266,1.0712274153299552,341.43327013359755
3614.0994,1.0652823833303506,219.47933721943954
3614.9307,1.061044313810261,217.90090150825603
3615.7625,1.0592319798032852,197.9196781682077
3616.5962,1.0599722560496876,254.65820707087133
3617.4282,1.062824772785678,211.85758651167524
3618.2625,1.0669103209776996,217.15425100491166
3619.0947,1.0709451432595554,217.32985750423668
3619.9292,1.0734237451548174,180.3809359049256
3620.762,1.0729356288199376,263.2755070078839
3621.595,1.0689291142497193,206.3914256724438
3622.4302,1.0622924403129361,238.4457275791794
3623.2634,1.0553123538585718,238.85401546088346
3624.0989,1.050475289474984,232.1368894173149
3624.9326,1.0491548017571954,298.5192506114828
3625.7686,1.0507694118061135,235.77049893614972
3626.6028,1.0533107043145926,251.9717776595547
3627.437,1.054780635557069,162.05758473085956
3628.2734,1.0544539685475496,256.41428873974127
3629.1082,1.0530416842907582,297.16353498690603
3629.945,1.0517626476250297,276.84317828478373
3630.78,1.0513250078628549,278.23858174515686
3631.6174,1.0515753367974925,239.01174670185216
3632.453,1.0518080208149994,235.29338442404762
3633.2883,1.051212721347677,273.00353282732254
3634.1262,1.0492271546620535,266.6539147162285
3634.9622,1.045837818411871,162.9690824907774
3635.8005,1.041622265078336,188.38143263222506
3636.637,1.0375534525288537,282.24976064185046
3637.4756,1.0343971220114252,254.70491952311102
3638.3123,1.0323219916114388,289.60780327438306
3639.1492,1.030780269208358,261.89515376802035
3639.9885,1.0289533645998927,242.8937418524798
3640.826,1.0263979199110942,205.6752139411716
3641.6653,1.0234022499981827,325.15088159106386
3642.5032,1.0208221204709702,256.8098024208507
3643.343,1.0193421425109737,242.96198098178982
3644.1812,1.0189149517307732,222.17758298768268
3645.0195,1.0187983052281027,266.922148846899
3645.86,1.0182275537943684,266.0196461090572
3646.699,1.0170450977892211,264.1707891580513
3647.5398,1.0157485970875413,290.49832703918156
3648.379,1.0150476361565086,281.8953669620486
3649.2202,1.0153389111746367,271.87603936457094
3650.0596,1.0165108905175226,266.6886498134159
3650.8994,1.0180458913763677,246.74733362761594
3651.7412,1.0192394120574453,233.14148263558374
3652.5813,1.0194195675591469,331.3732194119576
3653.4236,1.0182035946109145,225.8842263270882
3654.2642,1.0157366892352735,203.07535591003077
3655.1067,1.0127259549613379,256.15919627035515
3655.9475,1.0101621769576357,217.39981385214728
3656.7886,1.0087343638004174,240.52470424709466
3657.6318,1.0085312599625658,179.6958610821975
3658.4734,1.0091774665406477,234.45600320548712
3659.317,1.0102397280465534,291.35053727577235
3660.1587,1.0114998195732998,304.263823638301
3661.003,1.012956581772765,330.224698052161
3661.845,1.01452070948751,253.98849257580923
3662.6875,1.015643484468718,239.9157075524254
3663.532,1.0151704902678969,187.6101406459902
3664.3748,1.0119376930545705,229.1179001188493
3665.2197,1.0058404772293283,262.5270915827565
3666.063,0.998506560790494,287.7697210537983
3666.9084,0.9924927539271176,237.79718276248803
3667.752,0.9897205128714974,336.0345878345409
3668.5977,0.9900708949329843,257.75020096355644
3669.4417,0.9916290110528906,297.22698853943666
3670.286,0.9922316959943264,240.7693636549406
3671.132,0.9911143818566069,258.05121340786195
3671.9768,0.9893447066472278,259.42303555588114
3672.8235,0.9887651415081444,285.71402535770267
3673.6685,0.9904735346221997,286.5449219929725
3674.5156,0.9940194948275716,271.5038374564056
3675.3608,0.9977070931977597,237.31175277380086
3676.2063,0.9996683588032756,217.31194658144793
3677.0542,0.9988552954306756,285.79539655557477
3677.9,0.9956139076442091,250.34691653378454
3678.748,0.9914195959651697,265.53646533594537
3679.5945,0.9879922607904271,353.60443899125585
3680.4429,0.9862389905953531,219.30732459326273
3681.2896,0.9859853461454884,292.43531556427234
3682.1365,0.9863980732522666,242.60532085374476
3682.9856,0.9866580572035988,270.1643577790332
3683.8328,0.9862670585223335,298.13537025684764
3684.6824,0.9850196296904012,258.09092042036116
3685.53,0.9829545387313161,358.77528834072484
3686.38,0.9803884775312975,410.78377322341845
3687.2278,0.9779872213866821,265.6538488341415
3688.0762,0.9765328278433073,264.27311458476254
3688.9265,0.9765215059197524,384.8961955055577
3689.7751,0.9777737517574522,233.9228482362396
3690.626,0.9795288127720944,196.75180422219876
3691.475,0.9809837346300848,264.1590744338947
3692.3264,0.9817762597391225,400.5801546155068
3693.1758,0.9818883641829546,311.8110070015853
3694.0254,0.9813809481320508,210.42483591835293
3694.8772,0.98045012439079,301.60469318976226
3695.7273,0.9797020488146203,297.5534177734244
3696.5793,0.9799162269545229,231.51889568204808
3697.43,0.9812658420398674,320.9733703252911
3698.2825,0.9828156218465206,285.5467039991453
3699.1333,0.9829924549814991,286.88089623599427
3699.9841,0.9807484728275512,260.38761990899434
3700.8374,0.9763345156988334,272.5799905371803
3701.6887,0.9711963730836054,304.80263086773994
3702.5425,0.9669407921252838,258.7957260121246
3703.3943,0.964443878666646,246.35041551005747
3704.2483,0.9634862303613628,334.4112020361699
3705.1003,0.9632786514398083,323.68422957437326
3705.9526,0.9630900863669667,346.60332478977784
3706.8074,0.9625669444999433,282.60136882899167
3707.66,0.9617480654943517,302.554829221765
3708.515,0.96103362938081,289.28706389635636
3709.3682,0.961100598938355,224.14169094143276
3710.2234,0.9625098600795094,297.88617333446064
3711.0771,0.965195233612052,287.23497875714475
3711.9307,0.9683752122328582,254.03797043117953
3712.7866,0.9710686139495147,261.7582257201945
3713.6409,0.9726682123952036,248.58204577413574
3714.4973,0.973010990738126,307.34467593361364
3715.3518,0.971896410238895,250.85460148699738
3716.2085,0.9689649376117884,316.3409712902588
3717.0635,0.9643017935412991,303.9811837775584
3717.9185,0.9589442431265526,310.25408861238196
3718.776,0.9544633032153668,258.4992138825974
3719.6313,0.9518273350780597,276.3601715570718
3720.489,0.950611508162255,270.4564538794097
3721.345,0.9495474580256862,269.6114264445147
3722.2031,0.9476297863827353,323.3201649304276
3723.0593,0.9448639867897392,339.69623383404655
3723.9158,0.9420621057686637,323.3218612195008
3724.7747,0.9401229561688721,360.04906713611894
3725.6316,0.9393691984587595,333.7086145130823
3726.4905,0.9393688941028356,281.4970513011757
3727.348,0.9393906928130089,291.5349232989315
3728.2073,0.9389804860385803,265.9546810601908
3729.065,0.9381478045902586,358.9112547188163
3729.9229,0.9370457432503523,273.6891170245341
3730.783,0.9356085484703429,322.09952442714007
3731.6414,0.9336117066983384,368.9670524499125
3732.5017,0.931042970143721,313.3533519803695
3733.3604,0.9283978197425693,364.03936123970027
3734.2214,0.9264236590059299,349.2452313997846
3735.0803,0.9256490527167375,327.74316930347953
3735.9417,0.9260384881209047,270.67537221917087
3736.8013,0.9271800068479538,311.8897370706657
3737.661,0.9286931516029138,368.8753972969785
3738.5227,0.9304377240728828,255.75268845154338
3739.3828,0.9323644798909976,423.016820998319
3740.245,0.9343409652984698,225.92853536328118
3741.1055,0.9361129928225784,247.57857321219
3741.9683,0.937513920705541,359.7798259387581
3742.829,0.938566489620781,283.5781194932273
3743.69,0.9394297816114575,268.93254457289754
3744.5532,0.9401259900904313,383.0317557867303
3745.4148,0.9403600096700606,277.6785881424893
3746.2786,0.9396823195130577,359.26919091716735
3747.1404,0.937886246217499,266.13526243956466
3748.0044,0.93526899855306,281.0656018176195
3748.8667,0.9325783108577402,364.3550920392908
3749.729,0.9306167098928746,376.4360318790555
3750.5938,0.9298798225933775,271.4230946969222
3751.4565,0.9303373966434929,355.1344787686029
3752.3215,0.9314078236901255,288.0878146018126
3753.1848,0.9321077283545796,334.47792331778
3754.0503,0.9313800314427468,265.11801750162107
3754.9138,0.928570318730895,295.0171228228995
3755.7776,0.9238588642996608,295.1755575269032
3756.6438,0.9182948054422662,256.42654879846305
3757.508,0.9133355533185117,371.26437281234854
3758.3745,0.9099563908393447,398.4940233919291
3759.239,0.9082668033910383,294.0581373163493
3760.106,0.9076702466862757,290.7079339664796
3760.971,0.9075580119949211,398.712760554417
3761.8362,0.9077537074488647,374.4287226351508
3762.7036,0.9084402439569201,387.0373940069507
3763.5693,0.9097401650178066,323.2273240656661
3764.437,0.9114644310237857,356.1906326241586
3765.3032,0.9132197196166824,253.65479343686982
3766.1714,0.9147732792492881,361.78307197987965
3767.0378,0.9161947082709494,356.427304966936
3767.9043,0.9176633762335529,301.29980930087777
3768.7732,0.9190441740312004,287.3899761458402
3769.6401,0.9196797195204063,304.4857260003762
3770.5095,0.9187181502052644,269.54368646933193
3771.377,0.915789525085139,266.8186582815222
3772.2466,0.9115027536790239,340.13240951714454
3773.1145,0.9073406149161359,387.23593271136804
3773.9824,0.904804785187876,283.76864075687223
3774.8528,0.9046103564969097,360.36126038580846
3775.721,0.9063885099602116,317.304573588617
3776.5918,0.9090526521175327,337.1361084325356
3777.4604,0.9113991536887375,361.5893279605882
3778.3315,0.9126333687303204,326.2603287857728
3779.201,0.9124983703700534,295.84958568157936
3780.0703,0.9112018717878483,303.0805370925932
3780.942,0.9091332820077427,267.24864358885725
3781.8118,0.9066060792202656,354.43035935392254
3782.6838,0.9036634506721113,339.13200897915306
3783.554,0.9002088740157036,336.74467665896356
3784.4265,0.8962771199464599,367.19165864173937
3785.297,0.8924343598685879,288.118979214756
3786.168,0.8896588137152224,294.20378571641857
3787.041,0.8888185338894586,383.10282482184533
3787.912,0.8899898033046988,268.9654081335558
3788.7856,0.8922945952675273,448.0945213607813
3789.6572,0.8944583605244133,297.51576162700906
3790.531,0.8956749716220455,382.8454918562317
3791.403,0.8959254990407673,326.91563011837013
3792.2754,0.8956211773622818,298.0764303481085
3793.15,0.8949567362912257,297.3179070102714
3794.0225,0.8937080516113328,320.7452239295374
3794.8972,0.8916018752818922,313.3927904030772
3795.7703,0.8888901858189627,384.66312453051137
3796.6455,0.8864381474450851,360.0494522435495
3797.519,0.8852705400983302,343.0670330370752
3798.3926,0.8858127540017875,362.1034370746421
3799.2686,0.8875824251553671,308.93159105313566
3800.1426,0.8894417322653496,329.9744592056664
3801.0188,0.8902506905530981,351.6389303925187
3801.8933,0.8893808010888188,340.8550591730958
3802.77,0.8869679229204592,327.5519416057059
3803.6448,0.8838660937698294,281.9692024378942
3804.522,0.8812510517334197,383.9275128910121
3805.3972,0.8801105977832655,447.72654690467976
3806.2727,0.8807412665164619,320.0523182820202
3807.1504,0.8827533532216014,339.7600768907525
3808.0261,0.885408579649878,276.49199319137625
3808.9043,0.8880551106245921,264.22846313615463
3809.7805,0.8902067889234075,354.85884224989996
3810.659,0.8915337933446071,329.41774000423146
3811.5356,0.891867455736368,327.38787210861585
3812.4126,0.8913920835727973,327.0855500600578
3813.2917,0.8906552616261779,338.64681815310917
3814.169,0.8903042245705168,306.40923193400465
3815.0483,0.8906647892184271,411.0236781286716
3815.926,0.8914835592396485,379.12569204955264
3816.806,0.8919888402775821,376.8536736785025
3817.684,0.8912878410913724,298.8466539712975
3818.5623,0.8889594116050893,416.9479858519036
3819.4429,0.8853967171166172,373.08193945736775
3820.3215,0.8816361310085198,303.9248934372145
3821.2024,0.8786051388993538,332.5691104313077
3822.0815,0.8765407235152438,340.44957938785836
3822.963,0.8748398856444628,389.9393087017083
3823.8423,0.8726113494486485,328.8561987649192
3824.722,0.8693417246365398,347.0853986922302
3825.604,0.8652189752162424,324.4931309089589
3826.4841,0.860912888468323,333.75913907007424
3827.3665,0.8569881763791833,357.1989603063722
3828.2468,0.8536817118150437,365.4087083208794
3829.1296,0.8508880487214097,339.62482668291864
3830.0105,0.8484343573124088,414.7386427570995
3830.8916,0.8461822378294551,386.22607527874055
3831.7751,0.8441083046481737,325.9542022445039
3832.6565,0.8423003544243939,458.7437198697743
3833.5403,0.8408377487655166,387.78449988671156
3834.4224,0.8397541284105275,446.31176323188754
3835.3064,0.8390729435214326,396.20500725768983
3836.1887,0.8389820802937576,457.70992315831177
3837.0713,0.8398178010568469,388.6989466047976
3837.956,0.8418130507728416,283.0182433328195
3838.839,0.8448195953377015,304.7520653718142
3839.7244,0.8483992104549547,428.57777868340725
3840.6077,0.8520753140161188,337.7744339366415
3841.4932,0.8556375907536464,362.688365406776
3842.377,0.8591244227178765,260.9751795762614
3843.261,0.8628102280357468,384.86556900689624
3844.1472,0.8670441407668293,306.84646586184994
3845.0315,0.8719961424986279,302.0127091190767
3845.9182,0.877520719221951,386.95857659653757
3846.803,0.8830170245595825,341.1274074746227
3847.69,0.8876704861330652,329.383068985586
3848.5752,0.890597641840718,422.3998925659227
3849.4604,0.8912343352784541,344.8138419142343
3850.3481,0.8896254530249392,268.04263312365697
3851.234,0.8865872136700447,334.2628363800115
3852.122,0.8833428211421772,334.8437623616887
3853.0083,0.8809557275474135,417.9036039619356
3853.8967,0.8799021852250186,426.6151843234322
3854.7832,0.8801865593368978,378.9129894416589
3855.6702,0.8815155608113697,410.01335223011404
3856.559,0.8833608611385975,316.83757775280617
3857.4463,0.8850158343062202,350.7243611940837
3858.336,0.8859309314289684,345.60721891013304
3859.2234,0.8860301405720864,304.6503396243204
3860.1135,0.8857421921713068,277.38111845539817
3861.0015,0.8856417401645624,343.7819569681564
3861.8896,0.8860207984186752,417.09706032043994
3862.7803,0.8867145803251358,356.40824611552455
3863.6687,0.887250473894461,379.2676259991339
3864.5598,0.8871735314269741,366.87458022244635
3865.4487,0.8862315991964256,367.62438195849234
3866.34,0.884354896908089,351.3377301100279
3867.2297,0.8816235508768552,338.8335150114524
3868.1213,0.8782838833016393,446.66288230405695
3869.0112,0.8747975892822892,382.4835345702472
3869.9014,0.8715521210922988,395.417761315552
3870.7937,0.868513867922837,296.62461124299614
3871.684,0.8651848912775518,338.55743657483475
3872.577,0.8609987809603955,395.72695720964106
3873.4678,0.8559730014577783,363.3598178977057
3874.361,0.8507332127098005,309.4204590150596
3875.2524,0.8460858519599417,419.8619045212877
3876.1438,0.8422804020456539,368.0785168445753
3877.0376,0.8388593796443409,399.86696704349856
3877.9297,0.8350217699142879,492.449198796243
3878.8237,0.8300750235783524,501.9595560006391
3879.716,0.8238506192889473,342.5201229949799
3880.6108,0.8166894494684858,334.74392976216626
3881.5037,0.8093382198101698,343.2712461325425
3882.3965,0.8024107106012577,501.5140294215321
3883.2917,0.7960634436785143,405.45671241406274
3884.185,0.7899975803997467,460.57228100790144
3885.0808,0.7836600748441745,424.0964010032458
3885.9746,0.7768092998954165,418.50301208704343
3886.8706,0.7696549914361515,489.4491929342946
3887.765,0.7629217167120489,451.8079412093682
3888.6592,0.7574575596451287,589.1728298845934
3889.556,0.754026659820129,435.79455936102084
3890.4507,0.7532219284048972,441.42081889676797
3891.348,0.7553781731448393,432.90527787836146
3892.243,0.7604715192596829,417.1717812204606
3893.1406,0.7680252887939187,481.1406935018577
3894.0361,0.7770277529887653,481.6623648790324
3894.932,0.7863658361817891,449.6033500888669
3895.83,0.7952251694805821,418.4823303699433
3896.7263,0.8033419310045282,405.0344791590383
3897.625,0.8110619251568779,523.100705244118
3898.5215,0.8186785925404034,408.4487819049436
3899.4207,0.8261037211548548,342.36093275370274
3900.3176,0.8327458403236921,362.5934773128392
3901.2148,0.8382374772168856,371.348688007756
3902.1145,0.8428490079935301,300.55073482586147
3903.0122,0.8472840369000691,440.8113449131078
3903.912,0.8521174713029953,332.70228110659593
3904.8103,0.8573339477088441,371.7464961056338
3905.7107,0.8626348007962432,337.2786634839336
3906.6094,0.8677691092464297,314.1765429460316
3907.508,0.8726928529619522,357.57192931745163
3908.409,0.8772800984226246,303.58149697126913
3909.308,0.8811695468947627,357.75948101433505
3910.2097,0.8841090506142071,317.47794911969197
3911.1091,0.8862218165952487,311.42248082697853
3912.011,0.8879657278360606,389.65000121481313
3912.9111,0.889614400030709,257.62827475880766
3913.8113,0.8910088657499327,298.4398435471841
3914.7136,0.8917787070819411,281.5480483668036
3915.6143,0.891807416084234,407.7032661132593
3916.517,0.8914562006120328,336.88456094437845
3917.4182,0.8913433482430324,361.5813628249469
3918.3215,0.8919018552664079,286.59067597170537
3919.223,0.8930580979317898,330.01292448196193
3920.1245,0.8942801749672386,301.18641354359676
3921.0286,0.8949526765224369,269.43112020329
3921.9307,0.8948165360065283,289.0710455502123
3922.835,0.8941613445765498,360.63053594540304
3923.7373,0.8936360560480225,339.971430206907
3924.642,0.8938675780436547,333.3137113239189
3925.5452,0.8951604784810852,309.9027390734172
3926.448,0.8973690485116063,332.4991130226744
3927.3535,0.8999575152565258,328.1039620768539
3928.257,0.9021793781493752,283.3946586582956
3929.1628,0.9034209585213578,367.44026317532183
3930.0667,0.9033732633044312,335.22150098438476
3930.9731,0.9020479082502055,277.33559202757215
3931.8774,0.8996622218487766,341.2694651264929
3932.782,0.8965596668324067,278.27576381332165
