wavl,flux,ivar
3566.9744,1.7420202177126844,188.0503920467518
3567.795,1.7425461285625417,206.37534205995377
3568.6177,1.7447016305944938,199.57791850496574
3569.4385,1.7478184358583453,209.92738178643378
3570.2617,1.7509599852015998,181.0696417865136
3571.083,1.7529768610317147,226.8231230961731
3571.9065,1.7528119347494266,163.89479441293324
3572.7283,1.7498710139952023,176.16688934923997
3573.55,1.744452561290639,135.75269195610562
3574.374,1.7378200392955059,206.10965427403224
3575.1963,1.7317906942903711,183.56402682243652
3576.0208,1.7277576463114368,217.051805242091
3576.8435,1.7261524814054605,185.45392522777323
3577.6682,1.7264487137572735,192.65294656295126
3578.4915,1.727805193658623,216.38119004772005
3579.3145,1.729523363360508,281.87210422701617
3580.14,1.730953603927651,214.63292524914803
3580.9636,1.7311632840977331,191.1294373147591
3581.7893,1.729150837660058,197.52402390534962
3582.6133,1.7246825034563695,167.40232762158192
3583.4395,1.7188717458445304,241.66596564264
3584.264,1.713690659223542,163.70363138584858
3585.0884,1.7103692621182547,211.62818783331085
3585.915,1.7084414896499789,247.80949308361468
3586.74,1.7063309185596967,196.38985392743896
3587.5671,1.702857299758775,212.34677670592458
3588.3923,1.698217602828545,210.84073388129568
3589.22,1.6935120664257888,168.9634958142478
3590.0457,1.6898013970427177,203.66587342523383
3590.8716,1.68740927117878,206.0487473426584
3591.6995,1.6861010615023206,186.5813113999655
3592.526,1.6855469834220866,196.62738864083087
3593.3542,1.6855843336639353,217.64428353318888
3594.181,1.6861245885465714,265.4317374510864
3595.0098,1.6869089999090758,204.21358744646722
3595.8367,1.6874663071444032,213.49199101220526
3596.6638,1.6873636151166496,174.92934579683762
3597.4934,1.6864586765847605,194.09797311198614
3598.3208,1.6849837122322218,235.86330484138566
3599.1506,1.6834087737431753,256.0714810925441
3599.9788,1.6823010810534866,188.7365455891377
3600.8088,1.6821420772559075,211.58654859215227
3601.6372,1.6831735054998718,229.5108124299196
3602.4678,1.6852060107197244,206.6149125689015
3603.2964,1.6874415789301949,171.90768817278934
3604.1252,1.6885610411375462,191.38105594667053
3604.9565,1.6872373358348276,189.80605819139302
3605.786,1.6831452368781097,202.52327566323922
3606.6172,1.6775796454489909,199.2906510828095
3607.447,1.672899937831055,237.36475703492238
3608.2788,1.6707810862856964,203.32795385180313
3609.109,1.671013693709645,236.34399675242776
3609.9392,1.6718305848878297,186.81068389219973
3610.7717,1.6714780645520593,223.19935916492705
3611.6023,1.6694440424594175,179.70114738320166
3612.435,1.6664167034995554,215.85081536921967
3613.266,1.6634404053082392,189.01013965209114
3614.0994,1.6611395344982143,259.48216626939507
3614.9307,1.6596266205226098,217.3305504565625
3615.7625,1.6586192934866164,243.0624864867882
3616.5962,1.6576103396787014,230.8076807245363
3617.4282,1.6560703248440092,197.09253038091103
3618.2625,1.653779643032674,257.10547441851116
3619.0947,1.6511248798006095,195.88461584553738
3619.9292,1.6489291067008987,235.46728714955023
3620.762,1.6480106551116076,238.68308859868853
3621.595,1.6486826353867383,209.74120257890033
3622.4302,1.650683243896012,271.8594529759068
3623.2634,1.6533752508087347,192.55161601284468
3624.0989,1.6560342515313815,192.11721710574562
3624.9326,1.6578960908975344,154.6867095595408
3625.7686,1.6582683213055032,182.3834861054508
3626.6028,1.6567046298321955,192.63893758400476
3627.437,1.6532684758269798,222.29746150421047
3628.2734,1.6486368518840775,254.54724870187044
3629.1082,1.644095064312561,188.4711880425793
3629.945,1.6412067702238995,233.92114309574703
3630.78,1.6414178335031988,182.49455736392846
3631.6174,1.645497931356122,231.21685373160128
3632.453,1.6531924012865524,226.04856417134368
3633.2883,1.6631883438852941,176.93808120264302
3634.1262,1.6732467579338988,240.87075343314515
3634.9622,1.680625199795719,226.24826334735744
3635.8005,1.683367964469916,179.77947905973667
3636.637,1.6814022551764196,231.81482256804895
3637.4756,1.6768530047319394,186.90649996384928
3638.3123,1.672791204800804,220.13565560054204
3639.1492,1.6711999557346624,249.67842185588734
3639.9885,1.6719233480055453,169.57259101581707
3640.826,1.6732501472046928,205.50975424477852
3641.6653,1.673610536284422,172.6881636135442
3642.5032,1.6727938011009686,228.66468152239057
3643.343,1.6717575442352055,236.01208908982204
3644.1812,1.6714290458545722,213.7340293127907
3645.0195,1.6717337186198455,195.7992499201965
3645.86,1.6717064396336991,219.13510285430533
3646.699,1.6703497087328412,222.89744505727572
3647.5398,1.6673509803411772,215.96565712474992
3648.379,1.6631665780090163,232.80435806611638
3649.2202,1.6585627389313349,214.42909037830316
3650.0596,1.6543069100751486,239.81069357330074
3650.8994,1.6509936918530426,236.51737010603628
3651.7412,1.6491644488218893,235.88699683759626
3652.5813,1.6492817724357425,210.3760192972781
3653.4236,1.6514674915273746,207.7402507795032
3654.2642,1.6551712992030336,273.84595418946435
3655.1067,1.6591391859442168,235.16146926826616
3655.9475,1.661764170813592,181.51043896067574
3656.7886,1.66181664393153,195.04507781197054
3657.6318,1.6589119970697963,229.31006583162736
3658.4734,1.6537054410789132,210.02897008421348
3659.317,1.6476690081830816,255.97001663586974
3660.1587,1.6426765580930607,232.08454531490162
3661.003,1.640030714457157,235.7218564117167
3661.845,1.639616122709561,206.95168657556488
3662.6875,1.6397582363663328,215.7341861221024
3663.532,1.6384383624767427,173.31759749152232
3664.3748,1.6348666090811967,209.2575352930136
3665.2197,1.6299289666368963,212.66569571469665
3666.063,1.6252830752513985,200.63339836571419
3666.9084,1.6220389373575437,223.25126966683771
3667.752,1.6204841965838717,202.3903702621219
3668.5977,1.6204773775608474,210.63994810465994
3669.4417,1.62184615043526,231.67485352221314
3670.286,1.624223411649913,252.8911202802015
3671.132,1.6267715114009509,220.49940078512125
3671.9768,1.6283316190119934,205.53821392961189
3672.8235,1.6281410499321856,219.8769854704103
3673.6685,1.6264162504294362,185.85066370144767
3674.5156,1.624180974309744,216.25508653007324
3675.3608,1.6223652011319414,199.9528963863451
3676.2063,1.6209280737663825,218.7678096257506
3677.0542,1.6189493179544234,215.69930612685852
3677.9,1.6155886784461544,226.71541319354293
3678.748,1.6109644035134747,224.58115217509618
3679.5945,1.6062923717331195,218.68048241736903
3680.4429,1.6030349903719836,245.07929686712419
3681.2896,1.6021025593861313,202.19285340889343
3682.1365,1.6035326752342478,212.9812014478103
3682.9856,1.6068581203710692,255.70144111366915
3683.8328,1.6114311999629038,252.14818874698705
3684.6824,1.6165526003119803,220.45494024007
3685.53,1.6213344176334106,301.254121521132
3686.38,1.6250114632150734,237.72764406595633
3687.2278,1.627338646843795,202.40242774824708
3688.0762,1.6289403271459273,242.93886383676553
3688.9265,1.630916355137616,177.00552554101714
3689.7751,1.6339558248429615,251.64915969335448
3690.626,1.637622706788562,202.6616562481769
3691.475,1.640312429817622,251.8557207047951
3692.3264,1.6401159907937999,155.95885621476975
3693.1758,1.635887774128149,205.91376244762375
3694.0254,1.6279712213610256,262.75155518288875
3694.8772,1.6181284754703347,205.43073603670427
3695.7273,1.6088693153100768,221.51180177176386
3696.5793,1.6021730567083676,251.23068205577115
3697.43,1.5987524933061323,217.62208554318238
3698.2825,1.5978557131758766,202.7440647200928
3699.1333,1.5980221946523832,212.23763590360565
3699.9841,1.5979528675663512,208.84928545874155
3700.8374,1.596987999851298,230.62919618176815
3701.6887,1.5950832562306392,191.64288907741314
3702.5425,1.5925565919734683,218.85620544949006
3703.3943,1.5899026716126257,254.06575033728265
3704.2483,1.587559942480789,219.10376865870532
3705.1003,1.5858254981339273,213.94219594150843
3705.9526,1.584751596100937,221.02196476028527
3706.8074,1.5841081507259964,235.08258096165824
3707.66,1.5833234863972678,225.2379246666909
3708.515,1.5815978290080002,252.04138829116766
3709.3682,1.5783662504507927,223.57472490853954
3710.2234,1.5737729816035904,260.726058490279
3711.0771,1.5687985488466405,274.33666583305194
3711.9307,1.5646286036311159,335.8588034020983
3712.7866,1.5619039306630906,212.41228580450863
3713.6409,1.5604911265019636,207.628992608369
3714.4973,1.5598827962656754,194.83852544497836
3715.3518,1.5598295912166682,231.35077183100714
3716.2085,1.5604610797499212,251.49545776162435
3717.0635,1.561919553282038,253.20878966685356
3717.9185,1.563973512389119,230.54785346586843
3718.776,1.5659950699139311,236.84559594919685
3719.6313,1.567198910376298,245.14041720243495
3720.489,1.56689603739179,267.3183340464923
3721.345,1.5645791550258474,201.1656062906959
3722.2031,1.5601305241458172,224.21476263398137
3723.0593,1.5542171600154402,231.7856663649666
3723.9158,1.5482133973447123,231.74505735228743
3724.7747,1.5434850711196244,311.14492742901155
3725.6316,1.5404181315838938,248.21498971145857
3726.4905,1.5380952749917565,234.80879730436968
3727.348,1.5352849649231735,229.10711000180146
3728.2073,1.5316830485977277,221.1523157590447
3729.065,1.5283467285960906,265.10777160386294
3729.9229,1.5266758300144736,311.7283811203754
3730.783,1.5270522030598475,250.28576127933883
3731.6414,1.528389716094183,247.5882591810548
3732.5017,1.529053330066849,241.73826495554871
3733.3604,1.528095234459162,270.88072531955476
3734.2214,1.5256414821549027,245.6428168684759
3735.0803,1.5223888079404473,230.36698048555044
3735.9417,1.5189673751148023,238.91573254062484
3736.8013,1.5159072827712954,281.0268560796567
3737.661,1.5137625627714808,279.7082448334933
3738.5227,1.5131407050502188,264.47583968253105
3739.3828,1.514436649748695,243.33986732992037
3740.245,1.5175683662735568,245.502905579955
3741.1055,1.5219195343030212,271.4674602474851
3741.9683,1.5266012504604805,245.94406484896814
3742.829,1.5307134787575079,268.0220359269698
3743.69,1.5337951314818699,271.06318957491084
3744.5532,1.5359924266722267,228.22825890978785
3745.4148,1.5378524632640647,277.906324444077
3746.2786,1.539777563661132,320.9612388239163
3747.1404,1.54147523222269,155.340223423361
3748.0044,1.5420004397219673,205.2995039411431
3748.8667,1.5401767652763565,267.11688155675955
3749.729,1.535079299619703,191.28848027596388
3750.5938,1.5263487465890415,235.81869624039018
3751.4565,1.5147239888480009,241.56936622941043
3752.3215,1.502273953178968,287.2978075075755
3753.1848,1.4923371123853888,280.3390722494941
3754.0503,1.4880072966368465,278.3500735803278
3754.9138,1.490576856613056,334.3738251603212
3755.7776,1.4986967272830538,263.66200158717567
3756.6438,1.509258467690217,228.41316199820074
3757.508,1.5188948186002693,261.4564682053539
3758.3745,1.5254857591110562,241.15898925818047
3759.239,1.5284405147080111,306.02011609428587
3760.106,1.5284802078016886,284.02923496973494
3760.971,1.5268514445175685,243.38009160210746
3761.8362,1.524633373010776,215.72526184464343
3762.7036,1.5223035149382471,241.06325402875953
3763.5693,1.5197243453795684,240.09455714676395
3764.437,1.516399669910083,298.22392739762705
3765.3032,1.5119747795087584,276.75441512277314
3766.1714,1.5065507913214926,239.18290250568202
3767.0378,1.5008477631494608,245.45072502207844
3767.9043,1.495883277858762,323.2384428584556
3768.7732,1.492548542564065,266.63329405040486
3769.6401,1.491232623456213,223.571232033628
3770.5095,1.4916851879747395,323.51239775232244
3771.377,1.4932556822478849,238.40897268882208
3772.2466,1.4951634547277977,279.6589309148454
3773.1145,1.496642157199309,241.79377084422043
3773.9824,1.4971092601616471,240.03945888557297
3774.8528,1.4964084401465156,284.8956838985628
3775.721,1.4950537646078783,252.75407324365133
3776.5918,1.4939853352545391,341.5682281080156
3777.4604,1.4938346841995909,285.27955744757156
3778.3315,1.4943459964468653,234.33809174347456
3779.201,1.4947353841139206,275.86754118104284
3780.0703,1.4946000365532566,284.13832598902405
3780.942,1.4942756505234602,273.59581030747006
3781.8118,1.494268740985336,295.25994431191964
3782.6838,1.4945025194951767,280.9481517231184
3783.554,1.4942626576322657,253.89193200169586
3784.4265,1.4928104495694858,243.26343666499386
3785.297,1.4899617572736175,220.82278694679042
3786.168,1.486065685092497,333.0377092953025
3787.041,1.481621870424546,282.6209757724585
3787.912,1.4770675918553358,237.29547323410773
3788.7856,1.472752517972515,289.11497229588304
3789.6572,1.4690997695632233,253.3178756397706
3790.531,1.4663926017265174,259.7131359137773
3791.403,1.464660415072717,262.15741136513
3792.2754,1.463640490346969,273.3434716734165
3793.15,1.4629481843772971,240.69106510860757
3794.0225,1.4621528436229603,278.0431255406211
3794.8972,1.4608051862318239,288.12115337183576
3795.7703,1.4586580709822576,260.2013284299964
3796.6455,1.4559316911116595,261.47893420980546
3797.519,1.4533600949668986,289.21662190138767
3798.3926,1.4517307619538795,289.987583183206
3799.2686,1.4513837980551993,272.7595874954506
3800.1426,1.4519915901223304,253.6520022815808
3801.0188,1.4527787953021742,262.30573215710837
3801.8933,1.4530772048091176,238.1996594649215
3802.77,1.45292856276453,306.90980115128696
3803.6448,1.4532125184606097,252.86612614014865
3804.522,1.4549855882416298,259.9935224805896
3805.3972,1.4584103106747555,263.0433795127422
3806.2727,1.462348530690297,248.64139808184743
3807.1504,1.465066406416741,233.17639778370784
3808.0261,1.4654160882289715,261.2729146551874
3808.9043,1.4634408487790072,250.3741422044644
3809.7805,1.4599755763153806,299.7587657208365
3810.659,1.4559025323068355,278.9131047736126
3811.5356,1.4518750473703979,279.8232349289533
3812.4126,1.4483423721092898,247.0807904216145
3813.2917,1.4456491817983312,313.45710984049174
3814.169,1.443881743732669,291.8954353951606
3815.0483,1.4427067934936917,354.78089677254445
3815.926,1.4416718680070058,287.1055394245621
3816.806,1.440645048365868,252.19453302389545
3817.684,1.4399333662037892,290.7102767531732
3818.5623,1.4398362146302157,257.65079939865194
3819.4429,1.4402436623539892,289.4416256029786
3820.3215,1.4407410011948327,265.7093185496936
3821.2024,1.4410185938159,324.15819965613616
3822.0815,1.4409948141035975,281.08271155734707
3822.963,1.4406238285353323,290.4198549314278
3823.8423,1.4398039219736236,266.9163242751703
3824.722,1.4385519063294956,274.16951211216843
3825.604,1.4371318027605267,274.31123794527014
3826.4841,1.4358794342024386,282.8165760240201
3827.3665,1.434862603559015,315.8825961363682
3828.2468,1.4338416181207616,235.94508941083933
3829.1296,1.432481453055985,265.166267709171
3830.0105,1.430588028668129,280.9983698140162
3830.8916,1.4280561613855653,283.6436980317363
3831.7751,1.4247623403138672,276.41135237188297
3832.6565,1.4206852502100753,322.87488926505165
3833.5403,1.416092933126487,303.40922510699215
3834.4224,1.411712747707397,309.04659237446884
3835.3064,1.4083812636217228,293.9577147049381
3836.1887,1.40665497059795,280.6401875710696
3837.0713,1.4064810437982005,322.5386141081673
3837.956,1.4073492247371244,293.78454805664404
3838.839,1.4087022112193641,270.7483709003717
3839.7244,1.4103395530479008,295.3119693678111
3840.6077,1.4123630774935596,330.832018285263
3841.4932,1.4147684427206866,292.8998125111317
3842.377,1.417078224866105,267.4081290751293
3843.261,1.418647170181482,226.70768883331337
3844.1472,1.419325061389073,296.0680246510549
3845.0315,1.419782912110738,261.2422597553217
3845.9182,1.420967106572833,310.3848576958858
3846.803,1.4230686616998804,303.3516437744762
3847.69,1.4251271218915638,246.59468651835053
3848.5752,1.4256986300442784,275.9285951752876
3849.4604,1.4240832166226807,276.1221886417487
3850.3481,1.4208946603680783,295.0175457019908
3851.234,1.4176872909982308,236.50604946072906
3852.122,1.4159590865613458,322.76042367114724
3853.0083,1.4164714930533873,304.5715034835265
3853.8967,1.4190215353472122,299.3813582290554
3854.7832,1.422624248543937,295.6961764444788
3855.6702,1.4259471982709995,305.79990622315165
3856.559,1.4278461188540428,323.51345514358025
3857.4463,1.427901131952602,284.7578076014857
3858.336,1.4265698678377514,267.64455832496844
3859.2234,1.424733441368689,299.3832482558364
3860.1135,1.4229633510298725,314.8788203262769
3861.0015,1.4211750923389426,271.4103163897016
3861.8896,1.4188584392526733,276.86571132449484
3862.7803,1.4157258187663022,270.6135870246097
3863.6687,1.4121127839294678,348.3786109288034
3864.5598,1.4086255976012438,319.6913276369867
3865.4487,1.4055892147598763,324.88018286417235
3866.34,1.4027515766120777,315.22258979957905
3867.2297,1.3997466380807742,297.66503496784617
3868.1213,1.3965086181273616,329.66757335054115
3869.0112,1.393326425373484,282.38368708663415
3869.9014,1.3904859887937615,291.5644397783142
3870.7937,1.388141334086564,333.8125225473722
3871.684,1.3864023574476325,342.2547868358446
3872.577,1.385308619439018,302.96004067279455
3873.4678,1.3847076264060434,240.76368344196663
3874.361,1.3841112811322804,348.1081774619218
3875.2524,1.3827647209107603,284.95635581333204
3876.1438,1.37985598338115,281.389100269252
3877.0376,1.3749144026880722,322.3272143472489
3877.9297,1.3683802841313886,281.66923928789504
3878.8237,1.3616747605174269,298.6716224691932
3879.716,1.356590155430021,356.3870868028982
3880.6108,1.3539277375713574,315.31897886646317
3881.5037,1.352855836079208,319.0436535637551
3882.3965,1.3514643606488452,287.02153248688813
3883.2917,1.3481966694483183,296.07076882485944
3884.185,1.3427947299954666,346.4561180946113
3885.0808,1.3360071010166417,335.46751619046546
3885.9746,1.3288763962305776,351.44867760090796
3886.8706,1.3221255257187934,343.9457541463178
3887.765,1.3163281974955892,371.19485856795484
3888.6592,1.3119412312579872,369.22487952375513
3889.556,1.3092335462886497,357.4586464183332
3890.4507,1.3080972816931677,341.7619331611908
3891.348,1.3081199797795449,300.13617774213145
3892.243,1.3090420410102956,344.8886912468086
3893.1406,1.3110528956745604,336.58252771183186
3894.0361,1.3145888611559093,304.63648851929713
3894.932,1.3199067545729968,349.6596350101758
3895.83,1.3267927408092088,349.6094604024204
3896.7263,1.334526339157604,389.7352757216297
3897.625,1.3422153060515525,268.9636398516086
3898.5215,1.348883712964975,349.9821277547138
3899.4207,1.3538081254682224,373.3327518703017
3900.3176,1.3565502178640794,321.53014744761674
3901.2148,1.3572664610851153,296.549370974837
3902.1145,1.3568433265762128,339.8030275615922
3903.0122,1.3568176701347552,330.2477236794661
3903.912,1.3587364845741567,320.67724913018645
3904.8103,1.363263919531503,313.6344332114356
3905.7107,1.3698200772480664,285.8927302348881
3906.6094,1.3770211691219072,344.6288009047876
3907.508,1.3838076827279442,273.19925785300387
3908.409,1.390070628203741,360.3001065467132
3909.308,1.3963380477585883,293.02979944604033
3910.2097,1.4030286783230737,243.9340385021303
3911.1091,1.4097892241337586,272.6911793530602
3912.011,1.4158707413857197,263.100712883763
3912.9111,1.420665636414132,313.5680863405786
3913.8113,1.4241874628071256,296.18537573950135
3914.7136,1.4268069237076948,314.4877735584715
3915.6143,1.4287459904542226,286.27477762870325
3916.517,1.4298539054619743,266.13769283009583
3917.4182,1.4297821633091325,292.43572158418425
3918.3215,1.4284444839102348,296.2737683299404
3919.223,1.426264536714094,257.57232639784326
3920.1245,1.4239872003064946,271.84639800913885
3921.0286,1.4222712911447477,301.6840301438107
3921.9307,1.4214126287324471,294.1134654351837
3922.835,1.421372759948465,273.5128030346975
3923.7373,1.4220505194908273,308.5816484056703
3924.642,1.4233817931573858,286.1830159039295
3925.5452,1.425147694410063,267.5507637540457
3926.448,1.426835419591488,259.7278511118971
3927.3535,1.4278290466819132,283.6729352731317
3928.257,1.4277870523748115,288.76335775783406
3929.1628,1.4267672937464628,327.86750778243794
3930.0667,1.424937716730293,301.93094540690726
3930.9731,1.4222634443864786,293.74255844102
3931.8774,1.4186109963438491,316.43396460793065
3932.782,1.4140407869077691,278.00684614832426
