wavl,flux,ivar
3566.9744,0.7091311655541022,552.3882584321877
3567.795,0.7092873340366469,547.1865683853828
3568.6177,0.7091131094831649,664.5628986387211
3569.4385,0.7078851547918109,361.6736409936295
3570.2617,0.7046520353980315,472.37522634395873
3571.083,0.6994399184932825,428.853329759361
3571.9065,0.6935320241768016,562.261325740213
3572.7283,0.6886003049753527,530.3832520859296
3573.55,0.6853308749948425,524.7897882719211
3574.374,0.6831684982694618,436.34305995728
3575.1963,0.6811121841571824,563.2857447011988
3576.0208,0.6785729655840831,412.9142758018055
3576.8435,0.6756521284919351,424.9352778622083
3577.6682,0.6728434871477897,523.217951647076
3578.4915,0.6708435432061111,319.93129581665016
3579.3145,0.6703522347688748,747.9915519488598
3580.14,0.6718214482285407,605.4165999097152
3580.9636,0.675096987864347,497.78930125464956
3581.7893,0.6794229166007816,798.3203507485953
3582.6133,0.6838156567673085,343.57836046571254
3583.4395,0.6876474180552927,351.8834957813095
3584.264,0.6907289414632547,881.0115585803633
3585.0884,0.6931841810754951,413.4998745331981
3585.915,0.6952407105628892,469.40384359361275
3586.74,0.6972027272382847,779.3682322950763
3587.5671,0.6994618075961291,467.60223444424787
3588.3923,0.7023047562426965,389.0208801220159
3589.22,0.7057697807189961,416.30907919765514
3590.0457,0.7094425532112718,353.403126297928
3590.8716,0.7124841607652256,456.2460740484382
3591.6995,0.7137744673653345,434.2763344017454
3592.526,0.7123322305215265,517.0624453008505
3593.3542,0.7078133268601484,466.55583942082586
3594.181,0.7008580907545093,298.25634501470165
3595.0098,0.6929938028377769,657.6870718871756
3595.8367,0.686321996012429,423.51401473658757
3596.6638,0.6826232333904706,550.8310261008434
3597.4934,0.682676725153736,787.1870173256546
3598.3208,0.6858912898926779,487.1172835799361
3599.1506,0.690662036616674,870.8034056744517
3599.9788,0.6950912174907004,375.71477618614216
3600.8088,0.6977663642027693,462.1476760122619
3601.6372,0.6980394374434006,410.05376680078575
3602.4678,0.696124998475648,428.9809806647014
3603.2964,0.6929857881196486,521.6327245761635
3604.1252,0.689940454111982,356.30881474936444
3604.9565,0.6880586630042693,564.0001517997844
3605.786,0.6876893937634282,1339.857116893533
3606.6172,0.6885020706376449,392.29155082591336
3607.447,0.6899802352369822,433.0556753118828
3608.2788,0.6917218566601051,729.2648574798031
3609.109,0.6932751586430608,691.6999974569349
3609.9392,0.6940071085068386,449.67919767563046
3610.7717,0.6933337279581215,715.3327087315026
3611.6023,0.6911467186004053,548.3855412198216
3612.435,0.6878461634016527,394.4460598253649
3613.266,0.6840553493924841,793.5900432473709
3614.0994,0.6802846317666795,493.68294961712013
3614.9307,0.6769555310889024,530.9156866589226
3615.7625,0.6743697788717715,418.4351255807804
3616.5962,0.6727318057310444,469.62026409768225
3617.4282,0.6721028753709757,754.5206516046965
3618.2625,0.6723279289884985,628.8513415992261
3619.0947,0.6729987856004508,457.19866076667125
3619.9292,0.673522784632549,681.1367344876321
3620.762,0.6733777103237325,490.4977747437294
3621.595,0.6724082821018409,511.2956786169098
3622.4302,0.6708259881510226,587.5300396394193
3623.2634,0.6689097446070561,469.6002649392145
3624.0989,0.666668316443824,467.74286876947843
3624.9326,0.6639421821173815,603.1643865591416
3625.7686,0.6607489224461919,470.68094426867304
3626.6028,0.6576843106599122,986.3593551241472
3627.437,0.6558976156407723,1339.5842539816297
3628.2734,0.6567438482142106,502.61729839058256
3629.1082,0.6610469313429359,697.5505754285573
3629.945,0.6684149019747264,2312.069883891385
3630.78,0.6770648656702971,498.2248040700206
3631.6174,0.6847950010723997,467.222637752999
3632.453,0.6900622723701934,516.1835888433577
3633.2883,0.6927527578729401,325.28530500456725
3634.1262,0.6936985777731316,398.73218135956023
3634.9622,0.6937914429431722,607.2632321628549
3635.8005,0.6933770322536678,890.3917362671268
3636.637,0.6922351137701861,428.5998082700466
3637.4756,0.6899760493642445,700.5807363164367
3638.3123,0.6865682724952907,409.3618354098505
3639.1492,0.6826464495611088,583.5290459987924
3639.9885,0.6794874319881414,514.3625568570619
3640.826,0.6784460549056397,1020.767702615033
3641.6653,0.6799503380666815,806.6204622964517
3642.5032,0.6829311072957956,385.5080741552984
3643.343,0.6853227203790337,683.4799539785874
3644.1812,0.6854450766938341,320.6555151052126
3645.0195,0.6832726303587601,687.0883985671562
3645.86,0.6804294119730934,539.5843964744582
3646.699,0.6790375490389754,558.3653953690007
3647.5398,0.680185082952927,388.3930612310397
3648.379,0.6831459727503643,387.3911603620113
3649.2202,0.6857697520841154,597.5524668822305
3650.0596,0.6857836671612848,307.15681969636375
3650.8994,0.6822830062182484,321.90676141192006
3651.7412,0.6761552535684722,770.0374098190051
3652.5813,0.6692900887555173,510.7809747780577
3653.4236,0.6632494676307056,715.2689425799233
3654.2642,0.6590435293088639,494.0270186393423
3655.1067,0.6575910271744798,1177.0101240554443
3655.9475,0.6600067806803975,609.2604314377463
3656.7886,0.6667402911862435,327.2025552977817
3657.6318,0.6765560794796008,884.9173730958778
3658.4734,0.6864246788606431,408.2939468580395
3659.317,0.6930645182945049,259.2972328897813
3660.1587,0.6946435611074269,449.39297612278654
3661.003,0.6918855296402062,536.8153847347885
3661.845,0.6875491366213323,454.2699957350964
3662.6875,0.6847613339982735,841.5938147727205
3663.532,0.6853681508540799,1078.120050344996
3664.3748,0.6891414635591372,909.4002649266786
3665.2197,0.6942326604289099,652.14510187595
3666.063,0.6983461575846508,373.06479468777457
3666.9084,0.7000925508633569,471.9970241996527
3667.752,0.6995131130796147,631.1013965438822
3668.5977,0.6976817406573327,1144.5354914657864
3669.4417,0.6956826129508689,586.9639670843084
3670.286,0.693839248124048,282.9036973822625
3671.132,0.6917657006163718,754.0238809815872
3671.9768,0.688994968062221,365.6293639900323
3672.8235,0.6855086448641967,420.51891636523885
3673.6685,0.6818259503450459,672.2325310883309
3674.5156,0.6785475049284945,683.5006485645913
3675.3608,0.6760614483112565,742.1085161791814
3676.2063,0.6744681413827117,1052.8805540122385
3677.0542,0.673687611469302,733.7213203109727
3677.9,0.6733365603462481,892.6908078400786
3678.748,0.6726648259879613,735.9526791344957
3679.5945,0.6710055136337542,650.9907383445128
3680.4429,0.6684134623709158,468.13787726399
3681.2896,0.6657910738469853,403.48990570134754
3682.1365,0.6641477013575559,765.7773452550927
3682.9856,0.6638352254757103,402.0110239202934
3683.8328,0.6644911944272163,430.05115155613277
3684.6824,0.6656671783996998,792.6737641866387
3685.53,0.6672866558209976,581.8190334508438
3686.38,0.6694205382977576,519.7430852940212
3687.2278,0.6717006558328991,848.3762933799519
3688.0762,0.6733125859835951,824.8542556363989
3688.9265,0.6736128028936018,709.8863256092558
3689.7751,0.67275371712038,584.4635489829152
3690.626,0.6715533289613678,456.7122789327015
3691.475,0.6707657540124979,1611.2763501040392
3692.3264,0.6705102273415867,1019.5624858391091
3693.1758,0.6704322312908909,440.65164074376776
3694.0254,0.6703043739183754,477.36332689097776
3694.8772,0.6704017647776251,396.07514222375505
3695.7273,0.6711582199533832,434.6362924535952
3696.5793,0.6723892867545742,777.9398032191015
3697.43,0.673021352222124,461.1463611671448
3698.2825,0.6719597835042025,501.99758767903785
3699.1333,0.6692977945758352,602.0591684668966
3699.9841,0.6664277394594775,1288.5279417738477
3700.8374,0.6648320238800671,415.64191129006065
3701.6887,0.6648806911723173,550.5004146402616
3702.5425,0.665790354237815,536.258833392087
3703.3943,0.6665559887961044,453.9581226504091
3704.2483,0.6667314865294282,549.5663611326414
3705.1003,0.6664800150164316,761.0309561151822
3705.9526,0.6662027115938688,641.4202242310456
3706.8074,0.6661848510736627,462.7654536981467
3707.66,0.6664192363755537,1192.042893769464
3708.515,0.6665520826114275,573.4449332493266
3709.3682,0.6659734309493655,548.4546551933655
3710.2234,0.664149923760424,607.0755637669848
3711.0771,0.6611447859805725,574.7780896423048
3711.9307,0.6579107076186588,542.9431556787096
3712.7866,0.6559826925900138,526.1718046174909
3713.6409,0.6565635689008985,877.2028792293302
3714.4973,0.659601860970578,682.6710460840437
3715.3518,0.6637749254689402,292.1479728356956
3716.2085,0.6674940296888773,428.18643575183347
3717.0635,0.669870502628798,766.7082766808478
3717.9185,0.6710388298600304,617.4831432844682
3718.776,0.671690005796223,717.778409131292
3719.6313,0.6725278010704028,783.8936411338062
3720.489,0.6739098919303704,553.1950243168558
3721.345,0.6756238884270424,502.1669872220149
3722.2031,0.6769349867994294,582.5563427383329
3723.0593,0.6769154174127822,847.5120210828674
3723.9158,0.6749958684841928,704.2996181413334
3724.7747,0.6712575147837105,793.2276329950834
3725.6316,0.6663350245499458,677.6434669416697
3726.4905,0.660894403556656,509.70203432197013
3727.348,0.6554129165059748,601.5198055294577
3728.2073,0.6502428428288858,684.1437009530734
3729.065,0.6460922164296461,493.03355125725807
3729.9229,0.6440412968978075,531.5052957412381
3730.783,0.6450385474516308,630.0591580540615
3731.6414,0.6489941809017367,885.847076094084
3732.5017,0.6544651918507545,613.3657724025987
3733.3604,0.6593052207848038,667.8317573988236
3734.2214,0.6619501549604035,617.6789579566937
3735.0803,0.6620292072276581,667.9853636890991
3735.9417,0.660172363404807,443.23549108343144
3736.8013,0.6573448683744725,601.9020443296117
3737.661,0.6543783941640547,449.79813841322306
3738.5227,0.6518092911395649,566.6389819822248
3739.3828,0.6498330940202163,638.9631866827046
3740.245,0.6483098563256275,721.912074317922
3741.1055,0.6470825856242441,451.8326039724366
3741.9683,0.6462966234248926,678.199667740321
3742.829,0.6464036081458086,475.82739329054414
3743.69,0.647621973797932,523.265010098869
3744.5532,0.6494201196776772,453.6297782774618
3745.4148,0.650564836399544,804.2004855304232
3746.2786,0.6498823097648467,636.8391280911557
3747.1404,0.6471168461061841,560.8892717945421
3748.0044,0.6432834115146447,610.6942523803586
3748.8667,0.640245342232594,661.0609703432283
3749.729,0.6395391671670444,590.1684107478882
3750.5938,0.641377293685661,563.7258772698355
3751.4565,0.6445072229671471,783.4616667268276
3752.3215,0.6472592451845165,454.9393197400255
3753.1848,0.6488536702496485,353.7529254804322
3754.0503,0.6500095453085784,1397.4866483462715
3754.9138,0.6521990406842817,555.0968848844798
3755.7776,0.6562341103760352,3785.4276418149198
3756.6438,0.6612815468549471,473.8129581314879
3757.508,0.6651631666471672,667.7995122412265
3758.3745,0.6659743258867736,462.30825172908106
3759.239,0.6634996099966309,465.3513231356069
3760.106,0.6593137476762746,727.1248440797125
3760.971,0.6554538850831375,721.6555200969433
3761.8362,0.6528359007633092,830.941370617355
3762.7036,0.6509729225284435,625.9473814264855
3763.5693,0.64892063082047,650.4457323897494
3764.437,0.6463374743552471,400.5939864695535
3765.3032,0.6437534857786376,901.0219085036861
3766.1714,0.6419478652723734,890.9896321977315
3767.0378,0.6413127105424055,575.7568631277641
3767.9043,0.6415974410364934,583.7185584643055
3768.7732,0.6421318688636294,647.0118373760866
3769.6401,0.6422026248622121,565.2746513773736
3770.5095,0.6414323823370203,470.3210650594192
3771.377,0.6399775942270634,1163.5934880143525
3772.2466,0.6383804641879903,651.2422060538094
3773.1145,0.6371426372493699,1065.339825294809
3773.9824,0.6362667331248318,642.6723274888265
3774.8528,0.635265920898839,497.4989353245855
3775.721,0.6336567439467193,703.7983866612883
3776.5918,0.6314843636484928,620.8179989168475
3777.4604,0.6294988926008381,501.70927912116036
3778.3315,0.6287557740768573,788.1665682481237
3779.201,0.6300350988902005,456.67097125656346
3780.0703,0.6333199136171194,699.5920701405997
3780.942,0.6377607990784985,510.4740172976056
3781.8118,0.6421064972375524,678.7024417176483
3782.6838,0.6455116236409134,466.00456731021467
3783.554,0.6479045781328576,605.0774293987448
3784.4265,0.6498158840402598,745.5933255127948
3785.297,0.6516436112397814,896.6559900064652
3786.168,0.6532227123115557,727.766656095575
3787.041,0.6539671315438867,647.1103483812574
3787.912,0.6533914457107645,444.0637348655519
3788.7856,0.6514272675149702,590.3097391305374
3789.6572,0.6483592229204188,343.68875747185433
3790.531,0.6445912082639369,587.217360511525
3791.403,0.6405797732379505,684.2811538136743
3792.2754,0.6366634276428383,708.1143875968482
3793.15,0.632952185763738,1126.8424573774419
3794.0225,0.629388371624505,582.7806615347084
3794.8972,0.6259424880545953,450.13130736826866
3795.7703,0.6228333257384322,546.8771677830163
3796.6455,0.6202516688722992,620.0992625357404
3797.519,0.6181146263864161,558.7129214612696
3798.3926,0.6161390366936765,486.1560267214269
3799.2686,0.6143213553705688,526.9432485943288
3800.1426,0.6131242540124052,897.6211645373348
3801.0188,0.6130254833659011,588.7605504313436
3801.8933,0.6140454591830862,514.0736303198121
3802.77,0.6158643484857842,778.6905278664118
3803.6448,0.6184001247953163,560.5918240753315
3804.522,0.6220958622279888,645.2196995948547
3805.3972,0.6273718747660294,1093.087466777574
3806.2727,0.6340110799098398,495.1446614737704
3807.1504,0.6410650071351028,794.5921526797007
3808.0261,0.6473429439560549,634.3148913452817
3808.9043,0.6520994157374204,681.8123958681995
3809.7805,0.6550833762176882,866.4144351332661
3810.659,0.6564642788281627,656.2363284365725
3811.5356,0.6565683008657682,364.42073052132804
3812.4126,0.6558452050869986,692.5967660259407
3813.2917,0.6549118370002514,625.2248990559382
3814.169,0.654576162818157,634.0763152196394
3815.0483,0.655569099782163,478.01682412909696
3815.926,0.6580301688298024,579.0865585694813
3816.806,0.6611534615800686,927.564536790065
3817.684,0.6634051919694409,440.64387044593354
3818.5623,0.6634284056435966,506.0204511893405
3819.4429,0.6608261440391788,576.8524163977684
3820.3215,0.6562984833461267,839.5099039520447
3821.2024,0.6509152836773346,630.4486389345933
3822.0815,0.6453680082929373,946.6642581062
3822.963,0.6396173814710958,669.3511188934517
3823.8423,0.6334046448912416,744.6850803619625
3824.722,0.6267305870849883,766.1313830588344
3825.604,0.6200596300372831,770.5589344944943
3826.4841,0.6140526434382947,524.145892736806
3827.3665,0.6090097146189449,556.1283372464414
3828.2468,0.604784250031041,710.8631839439836
3829.1296,0.6008087002171925,811.5832894384783
3830.0105,0.5964534593735892,624.0863531040235
3830.8916,0.5912028716922703,672.0449762579533
3831.7751,0.5848823125905055,507.22179721644363
3832.6565,0.5778783630674473,796.0771412582234
3833.5403,0.5709812718123916,741.1053514055882
3834.4224,0.5651792319633865,538.3008579362252
3835.3064,0.5611658881042133,775.4350828768526
3836.1887,0.5594202012965623,744.6087553166337
3837.0713,0.5603868414092108,668.0162982274212
3837.956,0.5645186991288048,581.4153339714096
3838.839,0.5717826731832912,607.7416479778877
3839.7244,0.5813397817648485,1066.1547689596032
3840.6077,0.5916039831648058,477.82512351146
3841.4932,0.6011283286442031,600.7536753546702
3842.377,0.6091763681074671,590.102000792262
3843.261,0.6161641590682341,820.9075633144912
3844.1472,0.6232519867207577,754.4088923284794
3845.0315,0.6314765089226894,582.1975003711661
3845.9182,0.6409918021937283,721.1261208760974
3846.803,0.6506079385894338,892.840231219081
3847.69,0.6586253552992957,490.74385732269445
3848.5752,0.663903226305828,514.6202266057012
3849.4604,0.6667921858639533,439.4047310444293
3850.3481,0.6687079754078546,857.8086652234895
3851.234,0.6709098379587329,677.2437377968558
3852.122,0.6735702437406836,465.93752215531725
3853.0083,0.6759218443202819,418.84631523351135
3853.8967,0.6773623592370963,573.3047073079886
3854.7832,0.6781531124252539,591.8324668927928
3855.6702,0.6791238099532074,610.3416111163627
3856.559,0.6807593152226092,464.2627921689381
3857.4463,0.6827053876556506,648.556803758609
3858.336,0.6841403087707162,550.4688234851867
3859.2234,0.6845242121561099,380.3082129580028
3860.1135,0.6841362282960027,464.3661646375966
3861.0015,0.6838782917269063,590.1316464360386
3861.8896,0.684490199871898,720.95042904435
3862.7803,0.6858301947009016,484.7026394019366
3863.6687,0.6868936645448321,350.09778779570433
3864.5598,0.6866610372403786,625.4927248339857
3865.4487,0.6848836389703825,744.7851796738946
3866.34,0.6820198442300488,730.6273402872616
3867.2297,0.6784706736878712,981.5840789500778
3868.1213,0.6739326265064753,653.5459301694757
3869.0112,0.6677355773485547,461.2464214876481
3869.9014,0.6595992092671945,632.6219173216413
3870.7937,0.6501148999086361,1207.2562806804283
3871.684,0.6405610349099066,556.7394183403936
3872.577,0.632109286505208,609.8791788513495
3873.4678,0.625439613007797,793.2885994078393
3874.361,0.6202630512874748,582.0131615393308
3875.2524,0.6155365692361143,655.6161701348773
3876.1438,0.6099952769997694,575.233093192443
3877.0376,0.6030061129507647,573.0111768854703
3877.9297,0.5949406774689477,739.9079112556177
3878.8237,0.5866194605440107,840.5732595077691
3879.716,0.5787750555362646,1010.5765003357653
3880.6108,0.5716196152536195,867.1557722286489
3881.5037,0.5650435454148472,1535.6642748640952
3882.3965,0.5585572166769182,592.1886649163712
3883.2917,0.5513233907495518,713.8112860119244
3884.185,0.5424067033136933,1073.8790664158703
3885.0808,0.5312272701305557,506.87876575717496
3885.9746,0.5184197126460524,1071.1885861416433
3886.8706,0.5057472730807943,863.7531411658454
3887.765,0.49559929733414093,6732.025705811309
3888.6592,0.48970440541351745,1158.7377884452403
3889.556,0.4886098146798599,1369.6184917863577
3890.4507,0.49180930306305404,831.0166365436739
3891.348,0.49828599431910153,425.3440437045221
3892.243,0.5068487447463488,1187.0856759824094
3893.1406,0.516381076584271,977.1877991385362
3894.0361,0.5257748842520944,734.4247117646835
3894.932,0.5343080572877255,979.3754029558988
3895.83,0.5417172910323318,727.2235485684172
3896.7263,0.5481445307049012,826.2557748685687
3897.625,0.554134398090547,937.2677744379533
3898.5215,0.5603537935350703,740.4987504906863
3899.4207,0.5675177879423976,687.9343591062607
3900.3176,0.5759500085439309,831.346773397972
3901.2148,0.5855157225318479,1069.595185483675
3902.1145,0.5957346328761193,618.2167635163527
3903.0122,0.6061279195943611,659.2266139231316
3903.912,0.6166437978390951,691.9745283505333
3904.8103,0.6272959655946542,519.7033766235854
3905.7107,0.638030887411243,729.5743057932548
3906.6094,0.6484731691094859,668.127064875925
3907.508,0.6582811840460508,399.4350177724118
3908.409,0.6672423100953996,718.4494695241558
3909.308,0.6751422304219695,528.6971242643846
3910.2097,0.6817049637329919,724.2353455824301
3911.1091,0.6864111966368134,475.2205879086755
3912.011,0.6889128022850001,478.1630354809102
3912.9111,0.6894052928237475,421.3292538441391
3913.8113,0.6888848065594508,768.7976396834927
3914.7136,0.6887510138814791,496.2549045177952
3915.6143,0.6901093014416562,641.3174883324807
3916.517,0.69332566571007,462.86354530605394
3917.4182,0.6981079446133347,488.0866667103465
3918.3215,0.7039572755829586,450.09677414959174
3919.223,0.7103599820596235,628.869539808716
3920.1245,0.7169008443020031,431.45442445549475
3921.0286,0.723138611620276,429.541122349939
3921.9307,0.7285063819580447,434.5213550551133
3922.835,0.7324914790712124,352.6446466093904
3923.7373,0.7348025726777506,343.50280616586883
3924.642,0.7357151672596816,381.4446370096679
3925.5452,0.7359621150844364,471.8520406423492
3926.448,0.736257526250017,478.4915307265471
3927.3535,0.7368077641764238,410.6968063988012
3928.257,0.7373901600253404,504.1576210413422
3929.1628,0.7379023495718424,414.7048958088371
3930.0667,0.7386398613710711,386.061947160832
3930.9731,0.7399348577716,602.8919393311768
3931.8774,0.7415529390268779,384.25232278903326
3932.782,0.7426636947728936,474.9696455809358
3933.6887,0.7424079846593027,456.489903116129
3934.5938,0.7405164177103524,589.907498602238
3935.501,0.7373795076842506,414.0526658750319
