wavl,flux,ivar
3566.9744,0.75598682003688,711.758053575632
3567.795,0.7598655353345982,462.08999194031014
3568.6177,0.7635715849775355,813.7824640315891
3569.4385,0.7655681207675321,382.67250515218313
3570.2617,0.7652856246779316,482.8203185016944
3571.083,0.7633418854940464,546.4861425944899
3571.9065,0.7608764182243156,610.4049247628479
3572.7283,0.7586313787400765,438.3250280154165
3573.55,0.7565086483875922,621.6775789548202
3574.374,0.7539351690402977,710.8765416095846
3575.1963,0.7505342190361908,849.8835986986403
3576.0208,0.7464614831251967,738.1202807422981
3576.8435,0.7423916335047183,427.85203567753047
3577.6682,0.7391013131844897,1837.2096426950034
3578.4915,0.7372185966909737,1080.4349785659156
3579.3145,0.7370825551111304,915.0501831918176
3580.14,0.7388480850020918,481.90061295110286
3580.9636,0.7423950054609173,546.1072973716373
3581.7893,0.7470556327677605,593.3776680097358
3582.6133,0.751357636846033,406.7132734916946
3583.4395,0.7535119935699107,342.5081760971468
3584.264,0.7524244584609113,907.0143396722933
3585.0884,0.7487432330495281,659.6587394914791
3585.915,0.7447493924970954,503.3174687060308
3586.74,0.7429774292884413,829.3790673961821
3587.5671,0.7443984264225912,639.7674694880429
3588.3923,0.7479076882233627,521.6793819354262
3589.22,0.7514651911969372,962.5546216325976
3590.0457,0.7536029094752668,665.156688886659
3590.8716,0.7541114095881187,678.3735362451318
3591.6995,0.7535722441927818,823.8022866776578
3592.526,0.7527356292254307,438.70256582947036
3593.3542,0.7522070340253367,504.1091910237028
3594.181,0.7523480285960266,1025.0910998371394
3595.0098,0.7531033034102799,948.730080653299
3595.8367,0.7539018759967338,593.6632924670503
3596.6638,0.753934502338103,494.67225235471784
3597.4934,0.7526789655086981,494.2886152184954
3598.3208,0.7502761425688386,702.8001367099913
3599.1506,0.7473883106818225,1646.1011003619822
3599.9788,0.7448605570674431,578.8731939252459
3600.8088,0.7433859113716922,537.9705677928879
3601.6372,0.7434392692042165,572.6874737818273
3602.4678,0.7451090284941855,2797.7662723198964
3603.2964,0.7477934400664885,629.145748396806
3604.1252,0.7500997499161712,551.3628821163533
3604.9565,0.7503177076368035,619.2061634286779
3605.786,0.7474574902576171,534.9207071023976
3606.6172,0.7420695568403697,756.2181862426185
3607.447,0.7360960034321079,1070.7681764864762
3608.2788,0.7315455605282397,659.416788544216
3609.109,0.7292240249927072,1374.200054457596
3609.9392,0.7284529173825792,412.79990736047023
3610.7717,0.7281976446359703,417.2563160734789
3611.6023,0.7281647083438315,929.6704456002374
3612.435,0.7286828321348077,1044.7668903302822
3613.266,0.7297233758601347,574.710901098264
3614.0994,0.730550365602124,625.7443835675743
3614.9307,0.7305134679692011,707.9157682076469
3615.7625,0.7299598073235405,730.1547603197429
3616.5962,0.730065966991005,797.0632789139219
3617.4282,0.731816202219917,422.5556165648738
3618.2625,0.7351896478015285,739.2847728284002
3619.0947,0.7391107865654519,696.6020942343075
3619.9292,0.7420780271764529,738.8445703971698
3620.762,0.7428392853559502,750.7142459512373
3621.595,0.7410840015854965,552.2963491474651
3622.4302,0.737636808119979,707.1795415127854
3623.2634,0.7340487115248244,477.97636304096767
3624.0989,0.7316020163322884,495.3938914359876
3624.9326,0.7307257526196413,737.4843862884987
3625.7686,0.7311091982437222,523.9844395563028
3626.6028,0.7323122646983767,670.4372868621417
3627.437,0.7340621717639425,468.2158126435213
3628.2734,0.7360968830040305,763.6969055316584
3629.1082,0.7379807069076767,383.43063302323696
3629.945,0.7393047028968063,606.8005919663486
3630.78,0.7399663554987569,754.3248192502974
3631.6174,0.7402889856084974,474.9806908105127
3632.453,0.7407609049221678,643.8699284120328
3633.2883,0.7416057297188383,656.7447165519465
3634.1262,0.7424969884129256,550.1293523494963
3634.9622,0.7427812025275927,768.3805843738087
3635.8005,0.7421845464949732,905.21824343295
3636.637,0.7412968745246665,877.6442334040415
3637.4756,0.7411923719443375,473.30231363374594
3638.3123,0.742385923409076,1070.9201480424201
3639.1492,0.7440779335893603,1228.9333340674882
3639.9885,0.7445085804826307,522.5149556675324
3640.826,0.7422297345767822,889.4377047280656
3641.6653,0.7372834265545074,593.2558495489704
3642.5032,0.7313891525625072,522.0357558811262
3643.343,0.7269336782993348,707.337999660058
3644.1812,0.7256749136575434,801.1676166269771
3645.0195,0.7276781058001526,709.8036774621078
3645.86,0.7312215072367124,478.86243919658153
3646.699,0.7335096705774431,464.240577369342
3647.5398,0.73206322212405,546.7648433353368
3648.379,0.7259162844695075,610.6050769093985
3649.2202,0.7159714599318168,929.3505226627899
3650.0596,0.7045587456256035,929.0133006835024
3650.8994,0.6942916695005783,786.761332156094
3651.7412,0.6873263218845472,794.8084813404805
3652.5813,0.6848667771377659,654.7875437181601
3653.4236,0.6868428436386376,1153.3872336964241
3654.2642,0.6920482670124916,908.66897195717
3655.1067,0.6986979430271617,580.0790710691342
3655.9475,0.7051022453308982,523.7737019170293
3656.7886,0.7102498367471028,633.330000054002
3657.6318,0.7137766906058484,652.4721197328063
3658.4734,0.7157345720020017,783.3054757221206
3659.317,0.716484800486683,454.94623413080967
3660.1587,0.7166134260454493,824.8073527289047
3661.003,0.7168324935189273,531.0061869775448
3661.845,0.7176569644926157,1381.110444167954
3662.6875,0.7190576067993758,1970.1342067666865
3663.532,0.720411983757991,1132.6400170193779
3664.3748,0.7209198457292878,801.4646008399537
3665.2197,0.7202313273403045,557.4636689355877
3666.063,0.7186869428849024,642.5314649155723
3666.9084,0.7169724461965856,930.2716623049718
3667.752,0.7156251010801504,596.6484304257187
3668.5977,0.71480113260182,736.8060047820824
3669.4417,0.7143995375950872,883.0769617151719
3670.286,0.7141419022482726,586.8530525755764
3671.132,0.7136098202608124,501.70548002121586
3671.9768,0.712365313954732,720.7553790159977
3672.8235,0.7101388168999575,491.18209706182887
3673.6685,0.7069892518075168,369.4053057537817
3674.5156,0.7033031110412876,703.7160194212553
3675.3608,0.6998028384714257,578.5531952708683
3676.2063,0.697265708332009,596.9434762836864
3677.0542,0.6961382436545405,798.8457552979794
3677.9,0.6961732702584881,813.2548690158571
3678.748,0.6965137543185285,656.5549727516714
3679.5945,0.6963448880279515,653.566980454588
3680.4429,0.6956106085031396,1013.1945794253218
3681.2896,0.6951275835428657,896.1551438595424
3682.1365,0.695843121565973,729.2057895069441
3682.9856,0.6978576837323501,530.6137480348541
3683.8328,0.7001414002854393,776.0007554000919
3684.6824,0.701460452335597,522.5665580226865
3685.53,0.7015955578144198,845.8696370584697
3686.38,0.7016470745890513,975.8820711279104
3687.2278,0.702916962914801,671.8647110909233
3688.0762,0.7055120081979785,541.3833932709291
3688.9265,0.7080811082768019,551.3521327195964
3689.7751,0.7089157016140445,952.6702256873808
3690.626,0.70736968313466,1048.9573523815857
3691.475,0.7042646049620633,539.4136788252749
3692.3264,0.70115841093816,1144.0145943049522
3693.1758,0.6994027328429013,651.3842088602685
3694.0254,0.6995719152306163,1379.9716162601471
3694.8772,0.701436735450128,787.6150146618666
3695.7273,0.7040132965095437,949.2790744856725
3696.5793,0.7058361590484635,901.5731664405654
3697.43,0.7055359366966073,499.25805808637847
3698.2825,0.7026560313788579,622.9490745091557
3699.1333,0.6980598083403713,727.5855429750006
3699.9841,0.6934927571472426,737.8400395014157
3700.8374,0.6906675192364622,793.5868863002329
3701.6887,0.690471136934414,585.8861162376456
3702.5425,0.6926282323358126,689.2008467901272
3703.3943,0.6959639104385082,740.4612504664212
3704.2483,0.6990557355591294,405.1901458627328
3705.1003,0.7008392343303922,587.6028016682872
3705.9526,0.7009598603476679,592.8814417906449
3706.8074,0.699551370099174,805.0859075641227
3707.66,0.6968736971854542,530.2509655406353
3708.515,0.6930855888570682,710.3805983846282
3709.3682,0.688465393743165,854.7022091279918
3710.2234,0.6836479281146597,619.8074195233587
3711.0771,0.6797302135552629,906.8350741166147
3711.9307,0.6777770441331534,503.55163077766923
3712.7866,0.6782644744870804,664.050936614065
3713.6409,0.6808103679796437,1142.260698033905
3714.4973,0.6844692050397972,638.5667283834875
3715.3518,0.6882579429411653,680.361401377733
3716.2085,0.6916657459543523,647.8824379924886
3717.0635,0.69470387099448,617.1336958387001
3717.9185,0.6977196795079477,575.4148643934217
3718.776,0.7008875667040778,549.4892623753991
3719.6313,0.7037313808528954,647.6549767298322
3720.489,0.7051712193938715,487.86787532278714
3721.345,0.7041089301631263,808.9987529682579
3722.2031,0.7003162571367871,798.3493143553952
3723.0593,0.6947715156021135,851.2821600823826
3723.9158,0.6889742394668201,563.5127574225971
3724.7747,0.68396487438707,946.2716243226553
3725.6316,0.6799498353839418,439.78863279088347
3726.4905,0.6766509182341698,621.7833432149423
3727.348,0.6740181840414377,1230.7556942839983
3728.2073,0.6723393808056924,714.0011983114015
3729.065,0.6719756207433228,1007.306127453345
3729.9229,0.6729532350502936,1044.938069345422
3730.783,0.6748034804357294,813.0787216932152
3731.6414,0.6766593969013527,874.5741236654288
3732.5017,0.6777200949404036,849.4458868043583
3733.3604,0.6777433051262531,749.3120643933437
3734.2214,0.6772350512424521,860.8964996754414
3735.0803,0.6771044677509018,686.2456441743929
3735.9417,0.6781031449550031,838.540084431527
3736.8013,0.6804885278871454,659.4185712950105
3737.661,0.684088095221456,768.6786858821462
3738.5227,0.6885947038049895,809.8818519293276
3739.3828,0.6937713988931477,568.6038286093329
3740.245,0.699513458694515,950.4990514212121
3741.1055,0.7054417243971893,824.9546019384001
3741.9683,0.7106688163020821,732.646635604742
3742.829,0.7137368735498546,860.6569159626679
3743.69,0.713288566267442,607.316646684189
3744.5532,0.7087440090659218,604.647315525224
3745.4148,0.7007712903085846,1282.4747331658812
3746.2786,0.6909593401419578,1027.5496100927758
3747.1404,0.6812319308375687,808.2075334744585
3748.0044,0.672991365363075,530.4207153553187
3748.8667,0.6670221574428996,814.1090326860838
3749.729,0.6634585653429386,1006.2387525892186
3750.5938,0.6620405554961396,634.0930369006096
3751.4565,0.6622568238607927,996.9317369589974
3752.3215,0.6635290326074093,1301.1533204930865
3753.1848,0.6654399372400277,1026.6780471285028
3754.0503,0.667854245979331,721.6979373768164
3754.9138,0.6708086300840141,620.014107734009
3755.7776,0.6743404497096778,795.3237062535514
3756.6438,0.6782374178555542,778.4650386327527
3757.508,0.681930613330833,633.4442473669862
3758.3745,0.6848023000725352,524.0383615114474
3759.239,0.6864952853313823,582.383892389711
3760.106,0.6870798041899424,774.5847152287289
3760.971,0.6867802718439141,880.6438807103455
3761.8362,0.6857285188958301,611.5262708973569
3762.7036,0.6839545873166711,680.1597714012861
3763.5693,0.681564363222855,591.2783684649585
3764.437,0.6787418618195256,950.4038837937405
3765.3032,0.6756746828680954,1040.0558018166762
3766.1714,0.6724500733040774,849.3765161099586
3767.0378,0.6691428782771621,842.6456140513292
3767.9043,0.6657771602426636,765.9028099971987
3768.7732,0.6623306580890491,782.0175166558935
3769.6401,0.6589183085666941,881.6414903447804
3770.5095,0.6560027764985277,856.7051417627551
3771.377,0.6544796818209442,829.3828803890002
3772.2466,0.6552062952733038,683.266659448584
3773.1145,0.6584729583618563,775.1213595143399
3773.9824,0.6637887043858108,1006.3810558543398
3774.8528,0.6701422461018419,1257.120220016618
3775.721,0.6763334163042742,887.6291705110034
3776.5918,0.6813337482364956,612.9221124261333
3777.4604,0.6842223040437229,707.4114511951758
3778.3315,0.6844203497453664,836.9683078132317
3779.201,0.6819820625577746,583.0142261971391
3780.0703,0.6779208021755755,1071.2654019261004
3780.942,0.6740223842220806,890.642633432219
3781.8118,0.6721546944828339,618.4948406580422
3782.6838,0.6732720917618085,679.385338937023
3783.554,0.6768560969038966,1494.0374615871979
3784.4265,0.6811476526843335,555.3956921407737
3785.297,0.6840767115689071,680.1628633631096
3786.168,0.684477275441443,486.9959530715776
3787.041,0.6825647628850238,652.080691224678
3787.912,0.6796138328453958,775.7475309630893
3788.7856,0.6770478146765027,736.5041989759691
3789.6572,0.6756814628049391,909.5304097742859
3790.531,0.6753335288756674,582.3588365225512
3791.403,0.6750730136761905,604.4719382561855
3792.2754,0.6738111850182845,753.5242897804455
3793.15,0.6708882351007803,712.7873562222684
3794.0225,0.666335332614597,617.3260718936451
3794.8972,0.6606858730799525,677.3448430200558
3795.7703,0.654825985419208,886.586685840981
3796.6455,0.6497570589288115,745.9291262760802
3797.519,0.6465575144944196,799.7219177231635
3798.3926,0.6460564949358235,720.9700455331164
3799.2686,0.6485649150958215,834.3800459969924
3800.1426,0.6535587330127435,702.0369636569126
3801.0188,0.6597092020999016,1118.5848501934524
3801.8933,0.6652082672842186,824.1524616419135
3802.77,0.668651447561372,874.7487824266988
3803.6448,0.6697506916813184,483.4002333164746
3804.522,0.6696508636435893,725.1187347621751
3805.3972,0.6703168625459017,617.3090128311901
3806.2727,0.6733673820089028,594.423564916352
3807.1504,0.6790618620385974,608.5664916908912
3808.0261,0.6860599973159718,811.6807868748957
3808.9043,0.6923386554653665,1253.7251961948546
3809.7805,0.6963384170111944,712.3587010819363
3810.659,0.698000000066317,673.5997000874148
3811.5356,0.6989078983178442,568.3839983647861
3812.4126,0.7021398536095453,474.49120806775113
3813.2917,0.7121247757590278,662.6405956141618
3814.169,0.7339341815665678,859.2295270934983
3815.0483,0.771002884631474,611.8418150444754
3815.926,0.8200199284110123,581.604530681001
3816.806,0.8683145050731569,882.2093130270433
3817.684,0.8969261261934939,571.8677904278063
3818.5623,0.8925016755066751,813.4658078432728
3819.4429,0.8565626110386984,766.4584662269926
3820.3215,0.8050679559763647,893.6083352023702
3821.2024,0.7566588111017526,660.1695781181286
3822.0815,0.7225074177591376,902.1346632620815
3822.963,0.7029910825890539,917.7763074031
3823.8423,0.6928491201007979,678.331106059066
3824.722,0.6863495957041154,814.939820396593
3825.604,0.6801514724883075,723.323963742338
3826.4841,0.6732326008655976,860.2058850127567
3827.3665,0.6656664285921208,855.4310457333588
3828.2468,0.6578208725957767,821.7599756222717
3829.1296,0.6498628013335863,985.1700154046413
3830.0105,0.64197877745749,790.5574728289444
3830.8916,0.6343880668389675,1055.2863324501518
3831.7751,0.6273822999050856,960.667856491783
3832.6565,0.6211715251291791,913.7584535107699
3833.5403,0.6156487115766769,993.2988060340414
3834.4224,0.6107790458059966,1045.4637163212894
3835.3064,0.6069696277101483,867.3496027267606
3836.1887,0.6052589178384989,1613.63504345846
3837.0713,0.6067026347717557,1177.6172920904392
3837.956,0.6116746817860719,934.462899374726
3838.839,0.619551742976814,712.5061428497191
3839.7244,0.6291613419712532,890.7790874453184
3840.6077,0.6391837094255665,736.6111799433025
3841.4932,0.6486605830510376,742.7487329406654
3842.377,0.65695933646644,783.0947207896182
3843.261,0.6639494200079031,608.2546428574689
3844.1472,0.6698368782089127,731.7302264390354
3845.0315,0.6749172107053121,719.483490841792
3845.9182,0.6793952698548887,1124.2771472494662
3846.803,0.6831248937827552,1090.0427326508336
3847.69,0.6858307247289214,692.3367194804621
3848.5752,0.6874753089238785,631.9521852943889
3849.4604,0.6887032729240762,654.3167974827097
3850.3481,0.6907180839749257,739.1765592380352
3851.234,0.6945924978440332,541.5689990815789
3852.122,0.7005637620275255,760.1941951296623
3853.0083,0.7077305954908161,692.8947433580215
3853.8967,0.7146289826596699,509.5095103774521
3854.7832,0.7199175175249855,594.9346946564076
3855.6702,0.723068756699595,625.8512727339289
3856.559,0.7243277079400039,638.8647838839177
3857.4463,0.7243572559229595,653.4018805348427
3858.336,0.7238745699597351,777.5933077577891
3859.2234,0.7234729236693689,692.7500534944005
3860.1135,0.7235393989860344,647.4543876821016
3861.0015,0.7241547229168377,795.1128358073813
3861.8896,0.7250305726037286,650.4770859436271
3862.7803,0.7256182669076283,851.6666056470478
3863.6687,0.7253934083936039,550.0936251398572
3864.5598,0.7242182448205946,545.9993201133046
3865.4487,0.7225357418070573,693.5724282019171
3866.34,0.7211146274993375,716.3800493582617
3867.2297,0.7204496602876886,850.1068000969211
3868.1213,0.7202393134560816,723.8793055095839
3869.0112,0.7196034383237919,718.9483099408056
3869.9014,0.717862185371206,752.2438160160356
3870.7937,0.7150761951237949,805.4487718581358
3871.684,0.7118274756566271,769.4478536284396
3872.577,0.7084818205106953,728.1257360604725
3873.4678,0.7048634884533123,813.9370780183546
3874.361,0.7003654459547382,505.11066986092
3875.2524,0.6944659859753073,508.4632620610554
3876.1438,0.6869990915529359,620.6894699823509
3877.0376,0.6782402297971386,879.2225604824491
3877.9297,0.6687813166679033,720.1786556929385
3878.8237,0.6590698147936207,1081.1029089059016
3879.716,0.649422033163743,1054.386835560657
3880.6108,0.6399787794988165,735.9046812441386
3881.5037,0.6310083441701593,901.2611021947783
3882.3965,0.6226227559851505,706.5360370525475
3883.2917,0.6145109495757369,1161.9795985978062
3884.185,0.605773434421308,1658.645506773417
3885.0808,0.5949721069591353,842.7567960230301
3885.9746,0.5810196295144958,741.5202751857967
3886.8706,0.5638501344726976,1082.8537445268828
3887.765,0.5451628886770786,1281.1300525101342
3888.6592,0.5278445772163959,2584.0167742610474
3889.556,0.5150610635877485,1279.5774736694275
3890.4507,0.5092287288586616,1756.6611284150101
3891.348,0.5111203905845424,1844.780981325955
3892.243,0.519888125217608,1381.332869011787
3893.1406,0.5335330134737242,1439.5347019236933
3894.0361,0.5494373542016685,1329.8539224852743
3894.932,0.5653222992908548,844.8672129985198
3895.83,0.579707679614173,1075.1460977741274
3896.7263,0.5920983483857775,896.0196158135885
3897.625,0.60311236266091,1221.1765646081017
3898.5215,0.6136684413131321,952.239108278735
3899.4207,0.6244481369762225,1062.8048202662535
3900.3176,0.6352328485850057,1010.7976599103506
3901.2148,0.6454319666848206,493.9514262572316
3902.1145,0.6547734068516033,1158.0197978882752
3903.0122,0.6636940099540539,1192.8166097380322
3903.912,0.6731349171990371,635.833424547385
3904.8103,0.6835597149563822,1171.9878927772722
3905.7107,0.6946509034701446,775.2340860607599
3906.6094,0.7053417801394098,645.5040781993681
3907.508,0.7145491263605159,672.6308574871198
3908.409,0.721534630432378,554.8772210644577
3909.308,0.726061390870717,780.4766047229691
3910.2097,0.7286144522062201,395.22891082653973
3911.1091,0.7303248829757987,709.7862004678335
3912.011,0.732659789016586,604.2621517052005
3912.9111,0.7366155691985431,478.8437935516482
3913.8113,0.7421292741859798,598.0310003063818
3914.7136,0.7481320204132017,631.2096739668489
3915.6143,0.7531805272226075,567.8264900495369
3916.517,0.7563060311727002,405.5423765845918
3917.4182,0.7573001533850425,599.2680495055347
3918.3215,0.7567168873142242,563.831358153792
3919.223,0.7556210864371293,619.5976026914132
3920.1245,0.7552827791343196,643.154450549432
3921.0286,0.7567514210621501,536.7091042332036
3921.9307,0.7603671974729984,588.1791348874856
3922.835,0.7656251576170373,648.4255627193602
3923.7373,0.7714255189060244,568.3628006061882
3924.642,0.7767017316034712,517.7005928555471
3925.5452,0.7806876765786431,568.142424665948
3926.448,0.7830303307489076,549.8456867336063
3927.3535,0.7834677315177541,546.523343759654
3928.257,0.7813132287835277,604.5783509376846
3929.1628,0.7747918075096942,476.1763436984948
3930.0667,0.7607913242168485,772.4875337247167
3930.9731,0.7357868226290717,606.2179426028833
3931.8774,0.6994280296321403,584.012209589187
3932.782,0.6579592471183883,476.97093228432266
3933.6887,0.6245376296240529,592.3513029439454
3934.5938,0.6130042924983137,379.73530897099846
3935.501,0.6281790087595225,502.63879938668254
