wavl,flux,ivar
3566.9744,0.5263906801519335,225.43988976447224
3567.795,0.5200166085493798,746.8303002603658
3568.6177,0.5116604806799818,445.967981056989
3569.4385,0.5019128623453288,424.28297106082255
3570.2617,0.49229415681989225,162.48559228846904
3571.083,0.48426366020119976,381.3268196866239
3571.9065,0.47807530116740005,494.12080728144224
3572.7283,0.47321221130758073,471.7509122180001
3573.55,0.46948260018481214,217.14872528804858
3574.374,0.4678074157908207,7141.958210362005
3575.1963,0.4696082428145092,284.59785983506936
3576.0208,0.4756172388924075,172.89811561967127
3576.8435,0.4853906916992587,361.0099504550828
3577.6682,0.49781948860521363,290.42391692115257
3578.4915,0.5113362969710922,265.62407393756405
3579.3145,0.5241262854007531,609.3076929145878
3580.14,0.5344525024343515,148.11351503777564
3580.9636,0.5413863175173561,314.9635680240875
3581.7893,0.5453040339680121,680.7313418847116
3582.6133,0.5469599484433068,730.482829243696
3583.4395,0.5465963313566611,126.13536577302668
3584.264,0.5440176474669752,383.21672948620414
3585.0884,0.5395845752089308,520.3472764002995
3585.915,0.5347916869250596,393.7579028753253
3586.74,0.53180626291371,866.6446845594469
3587.5671,0.5322197978100784,405.3199435051503
3588.3923,0.5361564507585251,524.8393126833121
3589.22,0.5421674616889818,865.6430437447546
3590.0457,0.5478425613538913,398.2061928538199
3590.8716,0.5510149375555068,259.16418836921594
3591.6995,0.5507068884481516,118.63415783677843
3592.526,0.5475289546687279,186.86330535440663
3593.3542,0.5430841040209506,500.6826877888028
3594.181,0.5388423867587333,406.96254223810797
3595.0098,0.5353059001958098,449.51216711255006
3595.8367,0.532419367603829,332.33082527572117
3596.6638,0.5305720856459247,259.2635634473346
3597.4934,0.5312364286072617,529.3676403260927
3598.3208,0.5362091482794284,436.4953359059905
3599.1506,0.5460316106420969,401.3636863015908
3599.9788,0.5588420247986571,156.26112000421656
3600.8088,0.5711198174674508,284.63745976958114
3601.6372,0.5792597944771786,159.2706405121046
3602.4678,0.581425747697251,118.7727883323299
3603.2964,0.5781262607918431,301.73996731958226
3604.1252,0.5718946897362801,702.6248514991024
3604.9565,0.5659942319948247,100.82487258054945
3605.786,0.5628876842992049,166.1584930373938
3606.6172,0.5630820326971652,390.00663533175145
3607.447,0.565375773080804,490.45728976989926
3608.2788,0.5679505021540892,459.2765533779351
3609.109,0.5693334338331593,540.4676987138248
3609.9392,0.5687329661994533,450.61575935910855
3610.7717,0.5659112162976944,183.85920722301248
3611.6023,0.5611121919052936,726.7276855847443
3612.435,0.5547929006495155,296.27721817422946
3613.266,0.547378975023288,362.82189982670405
3614.0994,0.5390251651275517,199.94018115809186
3614.9307,0.5300347640896647,244.08963134889402
3615.7625,0.5211184892021964,532.7885801196909
3616.5962,0.5135524427709344,13129.802564915268
3617.4282,0.5087305767693466,217.56074673277908
3618.2625,0.5071984727493771,379.786100530299
3619.0947,0.5081080617315592,260.9062532573966
3619.9292,0.5094817569607767,216.27239225965104
3620.762,0.5094372049134837,186.0921447613048
3621.595,0.5075144207207027,283.02608727025074
3622.4302,0.5051552398645577,208.35696964714032
3623.2634,0.5051364101550362,1199.8926169050583
3624.0989,0.5101312691883058,14310.321489612525
3624.9326,0.5209781676846603,322.1945035246248
3625.7686,0.5355912038385152,2574.185661717788
3626.6028,0.5491794454781043,236.11966423891485
3627.437,0.5568930804201658,454.7835610499604
3628.2734,0.5567507875505274,149.81424021427748
3629.1082,0.5508453322406277,315.681087421134
3629.945,0.5433657474849404,969.8539821195797
3630.78,0.5372744815831575,440.75471715736273
3631.6174,0.5323909602014767,728.7189674101306
3632.453,0.5266462538573226,274.6153044166341
3633.2883,0.5185802651860338,215.99284322802373
3634.1262,0.508847332150948,1588.3907238713027
3634.9622,0.4996170775611126,843.1178272280542
3635.8005,0.49265619656089715,269.7057786811141
3636.637,0.48854165063976485,290.38898783725773
3637.4756,0.4869018970438809,293.1818820882346
3638.3123,0.48734483308746185,788.8209277984863
3639.1492,0.4897041332976442,411.64779436065066
3639.9885,0.4936799028484207,477.7463752155925
3640.826,0.49837608685906354,505.40019214028
3641.6653,0.5026263081040899,89.8250867731307
3642.5032,0.5056664265455955,413.7873902253949
3643.343,0.5074640151050193,467.8638293117627
3644.1812,0.507954826391921,462.2518280694079
3645.0195,0.5062889222370615,148.41066476177653
3645.86,0.5012052515554929,399.881104462633
3646.699,0.4925454188800795,179.57862653836878
3647.5398,0.4820946846701715,526.6331133417539
3648.379,0.4730300848369347,338.8236019570064
3649.2202,0.4680679462101625,736.7171843070518
3650.0596,0.468299717968529,287.02879493870586
3650.8994,0.4728809407544684,438.8773438564068
3651.7412,0.47963550322006226,343.5678230002864
3652.5813,0.4857638563520856,413.56553703605323
3653.4236,0.48884991538142253,208.46917190368822
3654.2642,0.48769615523349497,1473.1933452094702
3655.1067,0.482916018185441,1258.2886210982492
3655.9475,0.4766867307746358,913.7817949541013
3656.7886,0.471698578597277,582.7309961335559
3657.6318,0.47005594925137895,1025.190282142757
3658.4734,0.47257924247327154,1985.7937609907503
3659.317,0.4786553097451254,794.3251070613903
3660.1587,0.48640455242363423,506.89170730783883
3661.003,0.4932443725065902,330.94964663624575
3661.845,0.49656534133341446,296.72380317432976
3662.6875,0.494730172884427,2519.7447112730274
3663.532,0.48742418764124523,469.7647466618614
3664.3748,0.4757975707110771,189.4323211112873
3665.2197,0.4622955401909039,363.30966634180555
3666.063,0.45058116869816617,429.44877143702286
3666.9084,0.44417787380905144,1864.9697276035297
3667.752,0.44473401575129384,8101.291615832335
3668.5977,0.4507044575553196,150.38438410958705
3669.4417,0.4582781812049459,552.8500085525637
3670.286,0.4640675433445625,542.4039995708231
3671.132,0.4672452388448669,296.52884387511165
3671.9768,0.46957199146596135,475.91324123255515
3672.8235,0.4735780142875469,564.3749464836867
3673.6685,0.48035908064766814,481.49867642287717
3674.5156,0.4887071399097902,347.66800069974335
3675.3608,0.49572698760232176,446.00195849284466
3676.2063,0.49887010554690336,297.6113247509804
3677.0542,0.49758390508225625,317.5210031188078
3677.9,0.4935834814810169,1145.653115086521
3678.748,0.4893080977269312,1465.3889369867702
3679.5945,0.4861999370924372,318.966557079239
3680.4429,0.48424118807473565,1695.3128625363192
3681.2896,0.4830487869851543,631.6848464815175
3682.1365,0.4828730943463282,254.52221587667208
3682.9856,0.4845401945421035,357.04010171583525
3683.8328,0.48849963996002277,220.97722953281323
3684.6824,0.49411422727697996,1029.0883720114946
3685.53,0.49965756323273286,390.96103965036014
3686.38,0.5031710291719359,757.7686968778779
3687.2278,0.5032279801180419,163.25037373037762
3688.0762,0.4994528608594438,313.8756491374904
3688.9265,0.4924363579712667,413.92717134480114
3689.7751,0.48353557133219377,172.5005855697471
3690.626,0.47440621002393235,464.30058243306814
3691.475,0.46675153793298135,3158.660829366745
3692.3264,0.4617683181352413,951.6662679030904
3693.1758,0.4599797039492606,4538.8932186066295
3694.0254,0.46099834594634354,251.06695302524736
3694.8772,0.46362700956441916,612.626343039231
3695.7273,0.4662753022185859,357.8158529726199
3696.5793,0.4679861632722952,282.023528731343
3697.43,0.46923422098446876,1731.7695838819031
3698.2825,0.471704274832874,105255.3718389934
3699.1333,0.4769472405872218,565.633075538243
3699.9841,0.4851746540467374,394.36104286557327
3700.8374,0.4950373722453513,180.09435653342274
3701.6887,0.5042036428924148,181.00470764046253
3702.5425,0.5105078448989713,1051.2043442196948
3703.3943,0.512516005138205,434.91853934027756
3704.2483,0.5098923643405939,321.12589352005807
3705.1003,0.5032784509251936,609.4050752495315
3705.9526,0.4941786423604405,774.0157423637922
3706.8074,0.48482997424554886,275.67650677327487
3707.66,0.47768671433825804,242.8583795721494
3708.515,0.4740508829308549,844.7886425685864
3709.3682,0.47329620858439314,186.0552156267352
3710.2234,0.4731900004642744,262.3915001947258
3711.0771,0.4715589858791304,307.4533969298199
3711.9307,0.4678292087574746,696.8760557202265
3712.7866,0.4632383033890039,1112.3593582607439
3713.6409,0.4597695025335216,762.5601047420561
3714.4973,0.45868006230574293,413.5234968283654
3715.3518,0.4600084624997705,1306.2901177154795
3716.2085,0.46302146930021276,315.4733423133145
3717.0635,0.46689926285063177,219.15466177787613
3717.9185,0.4710153353830287,514.3145130529329
3718.776,0.474781023335562,1625.2401133831852
3719.6313,0.4775506368806474,625.1394246204821
3720.489,0.4788621764402776,159.53390431149944
3721.345,0.47853443134257934,333.2114461638112
3722.2031,0.4765934200525718,478.4770979575285
3723.0593,0.4730897411973332,436.79925596261637
3723.9158,0.46807000771680074,225.68289578125422
3724.7747,0.46180235685407467,365.29861557595495
3725.6316,0.4550467086981493,264.178740960217
3726.4905,0.44883151081160205,943.9099075643636
3727.348,0.44416166551371633,1017.4890856988033
3728.2073,0.4416025454411489,1700.9043307307081
3729.065,0.4413607659219497,1093.491824205418
3729.9229,0.44338768981405136,616.5757613281055
3730.783,0.447349100039605,410.3437171410576
3731.6414,0.4523226494127888,848.1133652624746
3732.5017,0.45688371069419953,364.5833619898212
3733.3604,0.45965719051059156,309.65082102997144
3734.2214,0.46025209664282785,413.3894068034824
3735.0803,0.45949695880319386,768.3195199890592
3735.9417,0.45878422070909997,615.9573021372663
3736.8013,0.459018884040615,304.55627348209913
3737.661,0.4600253982836173,466.8428291038434
3738.5227,0.4607360713673517,1277.3592921450938
3739.3828,0.4598816357657243,291.70229585080403
3740.245,0.4567920689520141,427.66749803917554
3741.1055,0.45181269096767956,496.3523222002634
3741.9683,0.4459689016071251,19473.84965822281
3742.829,0.44047633591190244,838.0888321376716
3743.69,0.43636323551552253,394.69408081466804
3744.5532,0.4345433061763431,381.7163593962445
3745.4148,0.4356218202807604,748.0579520744633
3746.2786,0.4393546883052685,987.7785015905572
3747.1404,0.44439886002052553,601.0385956617812
3748.0044,0.4489683940519348,239.06615193182043
3748.8667,0.45187607719907924,1776.4794120110018
3749.729,0.45332309339998994,1496.9819527137638
3750.5938,0.4545306202987174,1438.0703661957916
3751.4565,0.4566631711064905,528.3491742582099
3752.3215,0.459965470543595,310.69729009714166
3753.1848,0.4636831134535177,231.85992981955727
3754.0503,0.4667548716372255,539.467120738051
3754.9138,0.4684482157441504,310.8671794146854
3755.7776,0.4687616138263179,255.8338333165998
3756.6438,0.4683680811699941,283.2030102899663
3757.508,0.46828499850026617,657.8675797215412
3758.3745,0.46928728909064144,2586.125491900733
3759.239,0.4714139742881644,307.1950069724453
3760.106,0.4739891107596572,417.25060304092983
3760.971,0.47606904919204407,320.08234478081107
3761.8362,0.47699884577786555,427.675605780749
3762.7036,0.4765459830992043,385.5540460931022
3763.5693,0.4747900559549836,597.2133568470811
3764.437,0.4719734434414973,491.08042665395345
3765.3032,0.4684561099454261,336.5812103160202
3766.1714,0.4645819082518508,1057.708987329297
3767.0378,0.46065979199061713,422.38796258109016
3767.9043,0.45696489397991136,664.3895018291217
3768.7732,0.45382642294140624,788.3044399031453
3769.6401,0.45149887174540976,461.6767632825422
3770.5095,0.44982781497789015,408.10795200782394
3771.377,0.4483050366839618,363.0886176430877
3772.2466,0.44650509811900835,408.8319612442228
3773.1145,0.44465559748096883,350.7073308293218
3773.9824,0.4435855202049357,878.7719836032105
3774.8528,0.4440544533151142,310.4889799633267
3775.721,0.4459947633876629,893.1343590040169
3776.5918,0.44844344578619155,321.42563793549147
3777.4604,0.4501838988911563,420.9397383468152
3778.3315,0.45067881355841904,320.81582580267406
3779.201,0.45049987422533505,647.8078087044487
3780.0703,0.4510226021258601,234.74587106087523
3780.942,0.45342238418244224,944.9060917496092
3781.8118,0.45758295602182875,381.3022854700091
3782.6838,0.46186074305390556,303.1319026564194
3783.554,0.4639113912589384,444.18102479369486
3784.4265,0.46224036128092916,303.3159464186252
3785.297,0.4572138793339276,1296.5274981842294
3786.168,0.4508875929462761,425.70988284799085
3787.041,0.44579677378492266,454.56585471767545
3787.912,0.4436244532175702,645.9146942263799
3788.7856,0.44444023370211017,337.861858880245
3789.6572,0.44691951413101894,507.400277255333
3790.531,0.4490416411690107,379.0105710871692
3791.403,0.4489696777460082,436.5483756555202
3792.2754,0.44598100032032045,1133.691768090116
3793.15,0.4408971587953072,318.53557677450084
3794.0225,0.4357051772392392,451.07857066465715
3794.8972,0.4322279366044388,471.6881386298531
3795.7703,0.43104035642227534,546.006216052582
3796.6455,0.43125530327284334,1092.1469309857735
3797.519,0.4314767725557895,465.9640581855806
3798.3926,0.4309756965320793,320.72422637420476
3799.2686,0.43021285758117556,393.1164217065967
3800.1426,0.430423881112553,438.75002462730595
3801.0188,0.4326194417072384,557.3641808739677
3801.8933,0.4367016117914569,742.3078975828655
3802.77,0.4413201890701413,412.127174850262
3803.6448,0.4444785827709383,415.2338190076306
3804.522,0.4448041055667173,169.09646243705586
3805.3972,0.44252738448242734,217.56088224305236
3806.2727,0.43955307382187775,912.7281770973915
3807.1504,0.43829926294502236,228.2220886741831
3808.0261,0.4401456932382369,394.84716120619885
3808.9043,0.44474616447095694,328.7337623923946
3809.7805,0.45070343866931367,286.42806294916977
3810.659,0.4569242292119582,309.612925465706
3811.5356,0.4630995402985892,340.977416636414
3812.4126,0.46931825479652806,1024.2764846538876
3813.2917,0.4752570578429882,592.7024278120161
3814.169,0.4799945168412534,276.89386324441807
3815.0483,0.4826171065065064,498.8339064119372
3815.926,0.4826367990088835,313.5296664331035
3816.806,0.48009690761316653,577.8628524605309
3817.684,0.47546238703490284,204.35993416142196
3818.5623,0.469601311603474,488.23849586135066
3819.4429,0.46365643586095123,631.3533331908118
3820.3215,0.45852513873340794,469.4162013460619
3821.2024,0.45410089461050734,689.2016644062458
3822.0815,0.44947329654329415,323.3078314442832
3822.963,0.44384671807574766,483.2741063196894
3823.8423,0.43757668117374854,529.2751841897614
3824.722,0.4319493967399321,828.927011203891
3825.604,0.4281864365598881,623.8042950090633
3826.4841,0.42657559071456874,543.6840638768483
3827.3665,0.4263801838331816,234.56855382832504
3828.2468,0.4264542906851619,829.3043684062364
3829.1296,0.42579850673840886,724.2587768168336
3830.0105,0.4238551411434706,541.8263340547622
3830.8916,0.4205706778420454,593.8310290367319
3831.7751,0.41631290762234713,441.540991682168
3832.6565,0.4116793971439785,581.6604773330878
3833.5403,0.40711004151699565,840.4201231767249
3834.4224,0.40288362169938335,701.4415534107375
3835.3064,0.3993187059904254,456.0305335782685
3836.1887,0.3971849399354069,1930.2692361474828
3837.0713,0.3974810954199408,596.7095718501181
3837.956,0.4007538721138057,333.00134261965144
3838.839,0.40647867141145855,411.53307664344965
3839.7244,0.4133728830766879,425.3980229506788
3840.6077,0.4201310914720157,716.8417934829474
3841.4932,0.42607992304264874,483.82436699666073
3842.377,0.43094504059280586,354.21673423089
3843.261,0.4346547995354361,437.042400663909
3844.1472,0.4373354958413293,477.0829222191495
3845.0315,0.4395209004613989,380.9720823440854
3845.9182,0.44206721436349466,471.5720699454916
3846.803,0.4455557502909039,669.4962192944807
3847.69,0.4498912106412113,1031.7448058781808
3848.5752,0.45433272336007763,365.4691652712845
3849.4604,0.4581138579760143,754.7564590022351
3850.3481,0.4609569316263116,685.7249495664097
3851.234,0.46317783986462646,1108.7523838691727
3852.122,0.4653555582488397,616.0999550887351
3853.0083,0.4676533062940455,574.9564884841595
3853.8967,0.4695080530425968,431.0132706248284
3854.7832,0.4699595712433355,271.5922718096459
3855.6702,0.4685828238603978,266.9552135806836
3856.559,0.4660536705519123,242.17411016415676
3857.4463,0.46382279326592535,322.9862923205679
3858.336,0.46307113091696095,470.1614809819839
3859.2234,0.4639533097843324,835.5941472078277
3860.1135,0.4655767426332964,707.2837645774332
3861.0015,0.4666117193394253,355.9144283092277
3861.8896,0.46603212939192096,385.91584190861965
3862.7803,0.46348755722559054,843.1422668226629
3863.6687,0.45941411727339226,445.28931212095716
3864.5598,0.4549033189034915,479.1338079331475
3865.4487,0.4515090210232049,1012.7431424399847
3866.34,0.4505374311725544,367.77001228141967
3867.2297,0.452339343734477,390.6251288299951
3868.1213,0.45598746487109465,349.9727086025643
3869.0112,0.45973059473774197,645.2645857472119
3869.9014,0.46191315074589506,354.0496331379156
3870.7937,0.4616346819940717,874.22193168493
3871.684,0.4590161787624367,471.75947021608283
3872.577,0.45501062655781443,431.7585467010157
3873.4678,0.45093261191458506,1043.540627202436
3874.361,0.44770179354363754,441.2640675128459
3875.2524,0.44539105350470504,362.81861872977447
3876.1438,0.4431692136496469,932.4909658865383
3877.0376,0.43987121624884057,653.168407582176
3877.9297,0.4347410051262865,176.75087509767047
3878.8237,0.42779385274895343,1812.7843083980706
3879.716,0.4198165782713904,389.7270773390892
3880.6108,0.41180101509499495,234.74780004589408
3881.5037,0.40456125196564935,461.7147453991416
3882.3965,0.39831071246361843,517.8642445474674
3883.2917,0.3927803065360973,1283.2524265000343
3884.185,0.3874930314867854,654.1402580017518
3885.0808,0.38183409794912354,1673.2191908685156
3885.9746,0.3752151605316108,647.0528367003614
3886.8706,0.36707360895358593,1887.6698346265316
3887.765,0.3572933823543453,543.5188900316197
3888.6592,0.34645681748004165,987.3505854807693
3889.556,0.33603031192318816,932.747238802661
3890.4507,0.32809586843310395,933.2044934826182
3891.348,0.32432935781474753,795.8062414468346
3892.243,0.3252995356546668,865.0139232313835
3893.1406,0.3302124690477305,588.6682251814041
3894.0361,0.33745707132007774,708.3058132100099
3894.932,0.3454920088647055,1399.221029178165
3895.83,0.35336686335411277,925.3733431894069
3896.7263,0.3607860313970032,706.860922437859
3897.625,0.3680643903967973,928.3235496884738
3898.5215,0.3756122671858685,483.0686429814541
3899.4207,0.38369443795516983,427.26281768257894
3900.3176,0.39205606981953417,680.9095273187509
3901.2148,0.400184795853139,880.6805259468738
3902.1145,0.4076064453342846,774.1535683124632
3903.0122,0.4142534490089228,531.6686558279862
3903.912,0.42076002018114983,363.82974811622995
3904.8103,0.42800507362175266,1122.6171906516038
3905.7107,0.4365349743709191,978.2211192657551
3906.6094,0.44592240967553265,479.28382570862783
3907.508,0.45501092503935164,411.78846571133397
3908.409,0.46245207822284484,408.4907508597944
3909.308,0.46723180421715715,430.3743711253576
3910.2097,0.4691017038815394,328.15521457636737
3911.1091,0.46860341139105227,945.9936804799875
3912.011,0.46701916544972993,315.1931194220161
3912.9111,0.466037420376164,554.512033263547
3913.8113,0.46711267140325957,368.3218049049271
3914.7136,0.4707109014874805,748.4786912841366
3915.6143,0.47585786406429526,302.33092951333674
3916.517,0.4807218360267176,383.0161012355903
3917.4182,0.4837946869191249,383.7266952002567
3918.3215,0.4848657648083779,574.8846605195391
3919.223,0.48473259936861013,485.84788697579313
3920.1245,0.4842587221056299,339.03697478456047
3921.0286,0.483732804571679,304.6998122189742
3921.9307,0.48305129942490066,436.09010886449414
3922.835,0.48221692932792176,365.46874472035654
3923.7373,0.48156911547914394,313.7002414151997
3924.642,0.48160257505195103,360.02048011305703
3925.5452,0.48269671034982947,338.1382661176465
3926.448,0.48491673104033134,218.6842420919478
3927.3535,0.48795889265547354,368.3878299639311
3928.257,0.49121539167991884,342.05756519410477
3929.1628,0.4940887699254389,497.0864857275056
3930.0667,0.4961614554140814,383.8302323180503
