wavl,flux,ivar
3566.9744,0.7106244586017441,782.2241277207784
3567.795,0.7086976826832717,1330.649014772091
3568.6177,0.7070965833201063,965.9140195560055
3569.4385,0.7058008414423846,596.8570756831675
3570.2617,0.7045687206574395,1125.9042310527695
3571.083,0.7031688261353024,817.7218534135808
3571.9065,0.7015801150749273,1271.710612616213
3572.7283,0.7000460492371037,912.7621121046132
3573.55,0.6988995700922018,1230.2502793930967
3574.374,0.698439461227023,1261.727914712717
3575.1963,0.6988388526295494,653.8539191684072
3576.0208,0.7000139839275388,1279.6653042128316
3576.8435,0.7015377339716684,790.0318799170315
3577.6682,0.702824384427444,843.98461055752
3578.4915,0.703485110330019,949.7574161701208
3579.3145,0.7035987036936536,1141.7756611008524
3580.14,0.7035833233077557,1228.641998626316
3580.9636,0.7038680070793044,950.3102132818987
3581.7893,0.7046760404462703,1309.0966092806957
3582.6133,0.7060021193372981,1016.2644988181524
3583.4395,0.7076399787261167,1510.72843877929
3584.264,0.7091300674217615,735.2973919566813
3585.0884,0.7098922579132833,1162.4209537039576
3585.915,0.709551820636972,814.5127972529219
3586.74,0.7082736062245026,865.8425256394559
3587.5671,0.706690819772894,1029.0570219165752
3588.3923,0.705464647073562,985.296110672765
3589.22,0.7048309372118726,1063.1006815115143
3590.0457,0.7045965150739107,846.1883227294829
3590.8716,0.7044171187199963,1006.0182844921509
3591.6995,0.7040649391592153,1053.83953598994
3592.526,0.7034966887243326,938.7326815570424
3593.3542,0.7028272875786099,1095.8189513395503
3594.181,0.7023282555945551,1371.5972675091298
3595.0098,0.7023615700865411,807.4866941786944
3595.8367,0.7032061298262194,811.1820706317105
3596.6638,0.7048178065697746,1295.8038345148489
3597.4934,0.7067177801336765,1067.8185594639215
3598.3208,0.7081141783649862,1022.375312179131
3599.1506,0.7082612047174277,934.1854454090982
3599.9788,0.7066607256148499,1158.6782731766739
3600.8088,0.7030417458500261,616.6817823392129
3601.6372,0.6973546642171475,839.4136710350186
3602.4678,0.6899246567776677,802.428328578949
3603.2964,0.6818365675301731,1058.9568499738348
3604.1252,0.6746712414005579,1668.9265770184252
3604.9565,0.6699548926573473,1255.5367343011428
3605.786,0.6686283872948672,745.9276505141405
3606.6172,0.6708852320653571,1055.3456038261331
3607.447,0.6763227462360735,1232.1889843744439
3608.2788,0.6839009906008638,1066.8264047026146
3609.109,0.6917881052742623,941.498315375124
3609.9392,0.697912784738007,991.2949549374699
3610.7717,0.7008089522820723,966.1206626415417
3611.6023,0.700257729522003,1259.1626080010644
3612.435,0.6971683822030265,1297.208702979781
3613.266,0.6929358925430933,1153.9980871573046
3614.0994,0.6888865185185392,1225.3433920348643
3614.9307,0.6860907547753088,942.8153897963105
3615.7625,0.6850763729889787,927.9812235963642
3616.5962,0.6856967147455246,891.1629792260936
3617.4282,0.6871903520077318,1078.0635365251449
3618.2625,0.6885632634392791,1044.6361106366248
3619.0947,0.6889849175959826,1240.441796998572
3619.9292,0.6880793039922349,1024.9087209664438
3620.762,0.6860043337977135,895.0253437012777
3621.595,0.6833437949244727,890.5847561724424
3622.4302,0.6808550959732761,1107.5275961284703
3623.2634,0.6791823396207002,1244.4478361213405
3624.0989,0.678599732178311,1032.6795954521228
3624.9326,0.6790415569487538,1048.0322662502729
3625.7686,0.6802768306233541,1301.959618459641
3626.6028,0.6820543931290449,1189.1083008076632
3627.437,0.6840588861599055,988.0527470977063
3628.2734,0.6857720359068226,2283.766542550919
3629.1082,0.6865615615675281,844.2338804529774
3629.945,0.6861242617032753,1073.7112461349104
3630.78,0.6848655945992176,1241.2447722751253
3631.6174,0.6838118106405171,1047.2505123217225
3632.453,0.6840091686979445,1119.8228014427145
3633.2883,0.6858026905999909,1224.421782145587
3634.1262,0.6886256594380448,1880.3158317864568
3634.9622,0.6913399757407962,727.9853074643829
3635.8005,0.6929167544045542,1674.5024994123821
3636.637,0.6927823374860732,1073.9891048663444
3637.4756,0.6908546724450484,1163.5460798912238
3638.3123,0.6874128246484338,874.2215091961077
3639.1492,0.682992872072525,921.4877677396998
3639.9885,0.6782650247648655,1146.0666825785831
3640.826,0.6738163770465352,1033.7951821202225
3641.6653,0.6698697650521626,1475.4022008650377
3642.5032,0.6664623785299711,1078.1307539270003
3643.343,0.6636428423971594,2241.1550252182196
3644.1812,0.661626271267374,1104.6967708833627
3645.0195,0.6605957181408525,790.1683561690031
3645.86,0.6605410752798256,1129.7515761429222
3646.699,0.661224887189782,1193.5833896906074
3647.5398,0.662318443353314,1333.2883453868658
3648.379,0.6635595009366906,1170.1271497241119
3649.2202,0.6648560437751461,873.9228408408715
3650.0596,0.6662305600692143,944.0974199764886
3650.8994,0.667724609821782,1227.6107223149077
3651.7412,0.6692707615690475,1353.8052625024657
3652.5813,0.6706210312260009,1101.1652794531358
3653.4236,0.6713685328056587,1497.8194936768482
3654.2642,0.6710508378386582,1024.142814799468
3655.1067,0.6695005491511744,1190.5242483734617
3655.9475,0.6672556361723249,1222.2676394271625
3656.7886,0.6655331557962015,1000.8213292516159
3657.6318,0.6655597211064024,1105.5804987266506
3658.4734,0.6676817126490633,1105.8834605685536
3659.317,0.6711280428542745,1164.507803784077
3660.1587,0.6746134322870466,1227.846005287259
3661.003,0.6772763838172443,1580.1030366101206
3661.845,0.679015671840086,981.3328100272795
3662.6875,0.680269517823292,1066.6895556922334
3663.532,0.6814235927635383,1491.5194818371497
3664.3748,0.6824564593331117,1056.1848311647313
3665.2197,0.6830410236172522,900.3654135489852
3666.063,0.6828936291303385,1317.3817346284927
3666.9084,0.6820252180343825,996.8637797425515
3667.752,0.680644192322373,916.3569277432074
3668.5977,0.6788730846110043,1325.8696015626215
3669.4417,0.676646489759545,894.5700526642751
3670.286,0.6737695576003865,1382.4430685436516
3671.132,0.6700938192567066,1001.8624306574071
3671.9768,0.6657124910053002,930.0132179731213
3672.8235,0.6610217458511657,1231.5472749294372
3673.6685,0.6567326686141511,1208.8797037338663
3674.5156,0.6535341469202067,1253.19306281549
3675.3608,0.651895991260741,1034.0209540543142
3676.2063,0.6519537081243975,1018.0872965648584
3677.0542,0.6536272281443448,1089.3325876785882
3677.9,0.6565742432123636,1136.709089021107
3678.748,0.66015744606539,1253.7501961666526
3679.5945,0.6635389890525343,1105.0298812048793
3680.4429,0.666158022949739,1265.7909628105685
3681.2896,0.6679156221155454,1467.1241847846168
3682.1365,0.668894952321286,1170.2136975457083
3682.9856,0.6687978774288157,1151.6763696139708
3683.8328,0.6669585091042859,760.977248255228
3684.6824,0.6630127592919739,1063.1628587126609
3685.53,0.6575475274543673,1066.6973189031908
3686.38,0.6518199630060246,1117.8512597934994
3687.2278,0.647016112558417,1292.038955385654
3688.0762,0.6435407659335713,1062.2716179646882
3688.9265,0.6412298513710372,1627.3945452830922
3689.7751,0.6399738574590395,1124.988612991228
3690.626,0.6400372886188754,1261.427033966566
3691.475,0.6417450558784134,1346.5712084745146
3692.3264,0.6448578573274268,980.1654406806715
3693.1758,0.648347648761691,1136.4332170901146
3694.0254,0.6509616931157957,791.1591430151232
3694.8772,0.651978220392297,1628.2106563286573
3695.7273,0.651599867245975,894.1131370023987
3696.5793,0.6506789314976885,1219.4417356331705
3697.43,0.6500521073120785,1140.9416571633737
3698.2825,0.650056287812954,1295.7053273474253
3699.1333,0.6505607989908028,964.4228485850225
3699.9841,0.6513179134526268,962.3016323271195
3700.8374,0.6522157711292728,1333.887957061979
3701.6887,0.6531940931119811,1815.7132129342294
3702.5425,0.6540386861725186,996.5733799137638
3703.3943,0.654314445993831,996.5318650805945
3704.2483,0.6535997515581319,1036.7606014372702
3705.1003,0.6517651653538421,1126.5618465746156
3705.9526,0.6490418563910644,1659.1335470970591
3706.8074,0.645867945547105,1048.0666232934987
3707.66,0.6427394060930633,922.9411759698038
3708.515,0.6400748999791571,1107.8375505550398
3709.3682,0.6382895171050943,1236.4260838965654
3710.2234,0.637771446156681,1309.124133239432
3711.0771,0.6388841459835193,1490.1417507539109
3711.9307,0.6417848365279596,1174.386161784183
3712.7866,0.6461462502134704,1456.4751592011771
3713.6409,0.6509155338379533,993.1247287603088
3714.4973,0.6546616178661102,1153.3327560808755
3715.3518,0.6562218378770317,1429.9873224221762
3716.2085,0.6554135262811549,901.0628067935492
3717.0635,0.6530556741204319,1006.9819749262289
3717.9185,0.6504035110032886,1042.194000202555
3718.776,0.6484083496644426,1196.0266248756393
3719.6313,0.6472949595297751,1439.7864782174008
3720.489,0.6465853354998139,1297.802310790786
3721.345,0.6456090745356472,1144.7101507018565
3722.2031,0.6440815426862865,968.7218543616975
3723.0593,0.6424288684558398,885.2968552012429
3723.9158,0.6415312944254047,1206.448323286186
3724.7747,0.6421008824931221,992.4461012372743
3725.6316,0.6440544427547708,1273.9488991540536
3726.4905,0.6464018583198557,873.5100937028258
3727.348,0.6477379595807548,1097.3052030165504
3728.2073,0.6471060048715435,1000.7418061247494
3729.065,0.6445685101613232,1203.26194760444
3729.9229,0.6411176589028206,1462.1552710466638
3730.783,0.6380285965427542,1098.6133162998706
3731.6414,0.6362080371317366,1345.8782339795087
3732.5017,0.635874671068141,1371.0778226325117
3733.3604,0.6367202303005591,1575.653507215209
3734.2214,0.6381674258297586,1349.835430171504
3735.0803,0.6396005735913203,1316.9683734558625
3735.9417,0.6406150775103231,1141.1575999771314
3736.8013,0.6411442457024009,1172.6461618417973
3737.661,0.6414262122195746,1374.8801748734181
3738.5227,0.6417478548052212,1057.6141912162907
3739.3828,0.6422228298243045,999.1077014681903
3740.245,0.6427922511808282,1294.3617172834013
3741.1055,0.6433754209281773,1377.8414744607962
3741.9683,0.6439821517538235,957.6923173430914
3742.829,0.6446271439304945,1323.06879933429
3743.69,0.6452061272331707,877.4645335395354
3744.5532,0.6454880746740502,955.2114159594903
3745.4148,0.6452673334523391,1074.8662040308886
3746.2786,0.6445072616742129,1220.501121703637
3747.1404,0.6433361140754755,1842.5903436368026
3748.0044,0.6419411248369713,1037.2200403869924
3748.8667,0.6405586601736448,1500.587585469496
3749.729,0.6394759099385494,1093.6944527796043
3750.5938,0.6389702494354276,1193.3743420280666
3751.4565,0.6391222987425091,1523.6696192677152
3752.3215,0.6397001709525109,1073.1378669914582
3753.1848,0.64029724434227,1110.7414256733066
3754.0503,0.6406178900352797,1341.867369763312
3754.9138,0.6406618909847326,1284.7893695349821
3755.7776,0.6407491920765903,1061.9597168783835
3756.6438,0.6413843980979756,1345.6976573486522
3757.508,0.6429355045535814,1295.7989042718234
3758.3745,0.6452334629015675,1316.9352311179036
3759.239,0.6473946387467897,1241.90726226858
3760.106,0.6482907061908493,1153.0756377688333
3760.971,0.6472978585440458,1039.3838020056935
3761.8362,0.6447525552379472,1037.4650445415843
3762.7036,0.6416232186151111,1460.046254930676
3763.5693,0.6388270677263773,1433.5854396000461
3764.437,0.6367036690862609,1303.809093267551
3765.3032,0.6350973769181001,1290.9092897728524
3766.1714,0.6336480044064451,1028.9576131832046
3767.0378,0.6321040031249062,978.0321249100917
3767.9043,0.6304173780362765,1929.4245437513835
3768.7732,0.6287358508538374,1531.30968330327
3769.6401,0.6273409951851694,1156.6649545051177
3770.5095,0.6265264723393729,1222.8387880974428
3771.377,0.626516404328808,1388.1889613281278
3772.2466,0.6273352494040147,1131.5839207932247
3773.1145,0.6287655765442985,1595.974058689023
3773.9824,0.6304871257255,1246.3200917358383
3774.8528,0.6323185639001364,1184.258711324957
3775.721,0.6343172401856793,1347.8160841695637
3776.5918,0.6366789142680195,1374.2626986296148
3777.4604,0.6394586289666627,1094.157871843559
3778.3315,0.6425688093555859,1238.8379625583912
3779.201,0.6458668989183034,1403.082643829484
3780.0703,0.6492821430753488,893.3485237285607
3780.942,0.6526533698408339,1123.6333578371539
3781.8118,0.655568660166304,881.8991276599567
3782.6838,0.6575926116851329,1037.4581556572887
3783.554,0.6585877031693771,1190.9568501811466
3784.4265,0.6588767077391124,923.4882979599403
3785.297,0.658937863911084,985.094311085954
3786.168,0.6590433598572917,912.3137442203878
3787.041,0.6591565692588628,1280.2680367091114
3787.912,0.6590785098250584,936.2319896912753
3788.7856,0.6585780348305145,1449.2733714939043
3789.6572,0.6574253814682348,1196.8607447710108
3790.531,0.6554545213426901,923.8313384631658
3791.403,0.6527509464877324,1232.2033444949298
3792.2754,0.6496784169700079,1182.4550396556342
3793.15,0.6466613838679811,1300.3594563992858
3794.0225,0.6438404313640761,1906.974675865914
3794.8972,0.6408530059407346,1308.6901366535685
3795.7703,0.637131308030986,1396.5132219946909
3796.6455,0.6323735276575322,1271.8020630590554
3797.519,0.6270534110427145,1564.5707430717848
3798.3926,0.6223350421127402,1254.3214322590268
3799.2686,0.6195699911910911,1343.0295942886596
3800.1426,0.61956239991995,1307.570962864531
3801.0188,0.622024264274105,1413.423060900398
3801.8933,0.6256384740983633,1317.029981867313
3802.77,0.628704677883182,1204.7062904869317
3803.6448,0.6299476928724927,1267.0507183029158
3804.522,0.6291887914894426,1864.821985899786
3805.3972,0.6273722663836133,1543.6471131482206
3806.2727,0.6260408180759627,1177.8371046186412
3807.1504,0.6266109589490707,1237.7104795439616
3808.0261,0.6298127191132884,979.196955706835
3808.9043,0.6355364375370368,1132.9692194880367
3809.7805,0.6428989053870934,1247.7401136790033
3810.659,0.6506062009808712,1209.0395595692487
3811.5356,0.6571173083084484,1016.108444411328
3812.4126,0.6611379312683456,1011.0110279735189
3813.2917,0.6620349317318168,1143.101358685206
3814.169,0.6601919685827575,1467.7811540275627
3815.0483,0.6568566265686026,1209.5120505064326
3815.926,0.6535479486177631,1039.4879985066163
3816.806,0.6513567509068224,1478.1193948826601
3817.684,0.6506392110163023,1315.55695478298
3818.5623,0.6509851853371192,1306.577864170542
3819.4429,0.651542500326688,1118.1402950629943
3820.3215,0.6514718186497475,1257.6649780675614
3821.2024,0.6503527664296862,1077.173280146502
3822.0815,0.6482944300369925,1202.5691923302256
3822.963,0.6457330985396538,1120.1884541522193
3823.8423,0.6431582228065519,1684.293225751617
3824.722,0.6407805569395459,1190.3120503116647
3825.604,0.6383853600822248,1175.1172027230682
3826.4841,0.6354377395027663,1530.1490274869311
3827.3665,0.6313638490365957,1305.1185233342433
3828.2468,0.6259267921807946,983.7582869610264
3829.1296,0.6192034656483527,1141.3440581051095
3830.0105,0.6115208779373648,1628.7773925646593
3830.8916,0.6031795523954047,1592.6431849371688
3831.7751,0.5945085515817211,1057.8488875547396
3832.6565,0.586102587928858,1632.2169635133835
3833.5403,0.578775525812664,1672.5595775645058
3834.4224,0.5735671801757417,1237.2364973194708
3835.3064,0.5712089656969517,1529.9862439540843
3836.1887,0.5718531555609829,1332.647159965785
3837.0713,0.575001696739473,1630.00755904474
3837.956,0.5798393470588963,1419.7654200736986
3838.839,0.5855484813664312,1479.38334247008
3839.7244,0.5916207097532786,1057.7919566350276
3840.6077,0.5977702077475874,987.9424061685535
3841.4932,0.6038767948214968,1498.3458214146863
3842.377,0.6097191374594254,1331.3374163954545
3843.261,0.6151530395267412,1014.7618044168593
3844.1472,0.6203297615393664,1257.0650590545263
3845.0315,0.6256865853560792,1049.4019253960823
3845.9182,0.6315705207013245,1145.1616521246751
3846.803,0.637617337111403,1422.0295201711845
3847.69,0.6430040799509131,1169.7480463082034
3848.5752,0.647146140438573,1569.2598602551495
3849.4604,0.6504152466707528,1294.0200784647864
3850.3481,0.6538637411165853,1266.8363233074438
3851.234,0.6583357225461209,1062.903857485131
3852.122,0.6638861929030325,1234.8974730932364
3853.0083,0.6697748447201474,995.6228302270141
3853.8967,0.6751473065598368,1184.1363607507726
3854.7832,0.6794427597310321,1007.6443653484365
3855.6702,0.6825987649309848,1066.9276793325964
3856.559,0.6847910988842754,1118.1386165917918
3857.4463,0.6861964834649786,826.3348752872138
3858.336,0.6869636165346316,967.0316352351792
3859.2234,0.6872815761676995,1094.17010077543
3860.1135,0.6874206067785046,1182.3029049342272
3861.0015,0.6875735271619627,950.9723542580703
3861.8896,0.6876997267863172,837.7447215404353
3862.7803,0.6875359381334643,973.54721885136
3863.6687,0.6867541559249378,687.5991874486267
3864.5598,0.6851096232390852,1100.9521383346078
3865.4487,0.6825635881424934,867.5303241082001
3866.34,0.6792888976945402,994.9380357519559
3867.2297,0.675646156035931,1113.5815285536248
3868.1213,0.6719590753208414,1129.7394914882007
3869.0112,0.6684515714060048,1149.8947614953606
3869.9014,0.6652013716239703,1126.7588514115203
3870.7937,0.6622018277329952,1219.6489153190457
3871.684,0.6593637139682992,1109.5777847282698
3872.577,0.6564586229026164,1103.0289905181244
3873.4678,0.65323969510707,1250.3334621485824
3874.361,0.6494825013203569,1166.0962945400822
3875.2524,0.6451238946307135,955.1957569240302
3876.1438,0.6401853029041872,1561.2640987826592
3877.0376,0.6346685097953372,1417.4119776035373
3877.9297,0.6284975526719534,1280.7846968680494
3878.8237,0.6214789572952587,1069.7645503865783
3879.716,0.6135456705388695,1507.268741701419
3880.6108,0.6046614367406105,1218.3942736146494
3881.5037,0.5948723179197308,1568.5333866509118
3882.3965,0.584112149520992,1314.64065472154
3883.2917,0.5722968030609585,1962.9787205571606
3884.185,0.5595083466165555,1275.6189335226486
3885.0808,0.5458643782093868,2107.7395538353594
3885.9746,0.5318419387352867,1900.5328006117704
3886.8706,0.5180212906779585,2300.282620918517
3887.765,0.505276501435241,1895.095113302842
3888.6592,0.4945660676340329,1784.163633207748
3889.556,0.4870930751492554,2175.868046313457
3890.4507,0.4841948218367394,2148.137096811286
3891.348,0.48672582201719666,2923.149172358604
3892.243,0.4945571597922706,2073.237113315886
3893.1406,0.5065497193837786,1437.7362745424577
3894.0361,0.5208679873733538,1809.0227486401725
3894.932,0.535831164381016,1678.1028268821942
3895.83,0.5502755857189034,1473.6266151154598
3896.7263,0.5635921839059937,1416.4192548255983
3897.625,0.5758512563112685,1495.214195216794
3898.5215,0.5872250891207085,1503.6850802294343
3899.4207,0.5979125554037296,1414.0473983583968
3900.3176,0.607789240541631,1647.592052623239
3901.2148,0.616772751140129,1270.5258361298045
3902.1145,0.624911796515685,1187.8762669493876
3903.0122,0.6323583567440514,1046.0179902294426
3903.912,0.6394010586677865,1162.2927320017488
3904.8103,0.646270853862906,1085.6665342196777
3905.7107,0.6532902833446529,1181.7676018171355
3906.6094,0.6607094540254318,1433.5416985680429
3907.508,0.668655187517621,1293.8305089029411
3908.409,0.6770672400573604,1007.1879703147035
3909.308,0.6860170259056162,983.7324683430032
3910.2097,0.6964150564541158,1028.1880339595848
3911.1091,0.7097192523366213,984.5917479819585
3912.011,0.7267469810967849,1152.7904464044516
3912.9111,0.7455251287268195,939.8924758717375
3913.8113,0.7612899892963755,1150.8752908082274
3914.7136,0.7689144710172592,247.86364124654946
3915.6143,0.7665373768640742,804.3721557529327
3916.517,0.757053893322156,843.5181733332396
3917.4182,0.7459171957162666,1007.4751504024402
3918.3215,0.7373934252082719,1098.4087504422607
3919.223,0.7328399621160837,984.0399097447566
3920.1245,0.7312811293236701,917.7407062292615
3921.0286,0.7312604653674346,915.5573662093018
3921.9307,0.7319101691924007,986.024762685296
3922.835,0.7329609503670494,990.6985074163451
3923.7373,0.734248812438759,917.5227962912932
3924.642,0.735482639013843,1128.9331228216738
3925.5452,0.7363991243015501,978.1381447309236
3926.448,0.737033329645464,802.3139094936274
3927.3535,0.7376367856976612,891.6897379228706
3928.257,0.7383039047591843,1047.225135990576
3929.1628,0.738724770434823,875.4292170832296
3930.0667,0.7383371668910954,851.7668416906921
3930.9731,0.736757324300359,859.6395295372803
3931.8774,0.7340719866208729,935.8703774074638
