wavl,flux,ivar
3566.9744,2.7588271944684335,39.439866324198846
3567.795,2.7593369831135375,34.75659117564404
3568.6177,2.7612137594298587,37.763699781266325
3569.4385,2.761689155845874,37.22202555184372
3570.2617,2.760518545419364,51.03596106717997
3571.083,2.7592548307003675,36.08710873422949
3571.9065,2.759146393594182,34.5781480520333
3572.7283,2.759849865944343,38.15686356090468
3573.55,2.759812692173199,53.39780715402438
3574.374,2.7576378813625477,40.72624161661212
3575.1963,2.7533340995733138,64.87550268454606
3576.0208,2.748607732574807,34.29941624998243
3576.8435,2.7461504859844084,41.76849183221033
3577.6682,2.7480939748692887,34.13037566122131
3578.4915,2.7547363709581454,38.79594293167823
3579.3145,2.7641853284773066,41.45553140186312
3580.14,2.773129850526185,39.45328539321506
3580.9636,2.7781393956162237,37.259011631335525
3581.7893,2.777143524855131,43.76768587239722
3582.6133,2.769892147536118,37.23498922130103
3583.4395,2.7574418949208286,33.17969636868526
3584.264,2.741316021741334,41.28162059978977
3585.0884,2.7226911746882925,33.267461717185164
3585.915,2.7024853022243427,40.44522555830223
3586.74,2.6819929545735404,42.53340822240355
3587.5671,2.6629057580935456,42.36931063553119
3588.3923,2.647689308110491,56.960961779428544
3589.22,2.6388056362534678,51.949905854024685
3590.0457,2.638087114845456,39.28937707597526
3590.8716,2.645369632496353,52.40917200191696
3591.6995,2.658038424060646,40.52266979949461
3592.526,2.671705349518046,34.702559434020046
3593.3542,2.6824739746920727,44.54661506306424
3594.181,2.688667418808916,42.67787835690776
3595.0098,2.691304835461064,36.811163411247044
3595.8367,2.6924609047779318,50.657464932795556
3596.6638,2.6932015360017982,38.09715254130241
3597.4934,2.69253888021518,35.439875735422234
3598.3208,2.6884577749474294,35.482881931766904
3599.1506,2.680105266427733,34.532103907769645
3599.9788,2.6693199055948376,47.31117209912749
3600.8088,2.659718769506989,40.3025169191843
3601.6372,2.6544663234436445,34.39846739434318
3602.4678,2.654145048503214,35.88378852505861
3603.2964,2.6566577920777084,48.25918079225891
3604.1252,2.658482632831877,50.072448994962684
3604.9565,2.65622260947026,58.89847736704473
3605.786,2.647752393309062,39.604675448676815
3606.6172,2.6327572996418684,51.17951705877455
3607.447,2.612990416740548,43.50110796074824
3608.2788,2.591584975870113,47.153587335361614
3609.109,2.5723013467804448,45.112463097382566
3609.9392,2.5578185974262495,54.691073595330316
3610.7717,2.5489416837849723,42.406898648754435
3611.6023,2.5448024734311843,43.422737065223664
3612.435,2.543903172722479,50.10947835225269
3613.266,2.5451813014516675,52.114514481434234
3614.0994,2.5478973775680114,58.87216509591023
3614.9307,2.551080622090778,41.48580236005684
3615.7625,2.5537240699757318,43.1853683299846
3616.5962,2.555647215762165,36.07713390408652
3617.4282,2.55786820619093,38.311571628178235
3618.2625,2.5615645245241665,39.31816567087346
3619.0947,2.5662755563922097,41.710908604197414
3619.9292,2.569463935923752,56.54888494540785
3620.762,2.5681626176772725,39.12931897357503
3621.595,2.561642496942773,37.54354548694579
3622.4302,2.552253934097389,41.620875993659645
3623.2634,2.543607803213505,47.805858036034266
3624.0989,2.5374790583880276,48.0090049670007
3624.9326,2.532915194718258,40.75764768494757
3625.7686,2.5276984717488533,51.46835176111488
3626.6028,2.520686141310949,47.52944444153211
3627.437,2.512491984109301,67.60659241988571
3628.2734,2.5046572090924193,47.89989811489404
3629.1082,2.4984568941518766,44.6970101884411
3629.945,2.494011224057518,42.52080536639753
3630.78,2.4903890217622267,48.52884551034592
3631.6174,2.4862283699882637,67.03719051618937
3632.453,2.4809044816818826,43.63268942583864
3633.2883,2.4750453234115324,49.855519096950346
3634.1262,2.47003480554429,61.18619741335977
3634.9622,2.4668425080060263,48.7972566802576
3635.8005,2.465149116191644,40.73958091459562
3636.637,2.463753436574612,65.30272391818812
3637.4756,2.461632915438498,53.810823678898245
3638.3123,2.45885511413775,57.417103018654934
3639.1492,2.4564394239591816,47.35582108268441
3639.9885,2.4554815743837857,59.64691932036863
3640.826,2.4563077753801617,52.29764337810064
3641.6653,2.458295568699944,68.9042482482633
3642.5032,2.4603400202821915,49.08046868371733
3643.343,2.4615582616123497,60.66979131156061
3644.1812,2.461683742737059,46.96229308362005
3645.0195,2.4608928950214195,45.35338252362101
3645.86,2.4591320191018764,45.41977916320587
3646.699,2.4557918318181255,51.83637064011304
3647.5398,2.4501801743655642,43.53259850390455
3648.379,2.4424330447700267,44.01322420395841
3649.2202,2.4335620167814334,50.05212813686158
3650.0596,2.424810324441136,46.05920980937253
3650.8994,2.4166645752005853,54.25270616471863
3651.7412,2.4089591399881103,47.68150841151009
3652.5813,2.4017352873059834,52.09689869484829
3653.4236,2.395737382259832,64.82538071034188
3654.2642,2.392033579984033,61.30715859149523
3655.1067,2.3907096490342177,74.0590114314631
3655.9475,2.3904187083276303,52.55561060964334
3656.7886,2.389211865561424,62.56354281568353
3657.6318,2.385983769422644,60.32718812687982
3658.4734,2.3812313264249716,52.23015046458823
3659.317,2.3764184299066153,49.34215533917753
3660.1587,2.3725220408780086,47.75583392487666
3661.003,2.368627443030956,65.45450859391141
3661.845,2.3622430447154996,49.800585243365525
3662.6875,2.3512864750999825,49.824189205856165
3663.532,2.336300338255023,62.08224017549541
3664.3748,2.3206988498136796,61.33852143824505
3665.2197,2.3083424763637046,61.81578020212676
3666.063,2.301396057819033,50.165923659358675
3666.9084,2.2995526690737,42.00316132911025
3667.752,2.3012017002332663,63.22283428996882
3668.5977,2.304510552369343,62.76445983758632
3669.4417,2.307904089705637,63.98860918810238
3670.286,2.310338187831645,57.154239371159385
3671.132,2.3114420105657945,57.258125043291685
3671.9768,2.3113105968400363,58.41392892587994
3672.8235,2.309960086853379,52.155161175098414
3673.6685,2.3070347909511764,63.80095379866688
3674.5156,2.3020787450422593,47.87429944002719
3675.3608,2.295113712358862,56.492221424406715
3676.2063,2.286747878850517,58.69920862335966
3677.0542,2.277949080301608,58.14067316654076
3677.9,2.269701912025597,56.26566553533381
3678.748,2.2624657093998413,62.96401704028925
3679.5945,2.2561396142388435,57.65841407602494
3680.4429,2.250044111720334,43.442969910317416
3681.2896,2.243641975114763,74.80671240408047
3682.1365,2.2372669610222595,51.63775342125234
3682.9856,2.232475728035537,61.83864117850775
3683.8328,2.2312142426722263,53.99090607989698
3684.6824,2.2340810650874023,63.1719717548848
3685.53,2.239293340215885,64.74550381683282
3686.38,2.243548033218172,62.54740090157364
3687.2278,2.2442356764991285,53.91753367670706
3688.0762,2.2413745224203026,67.74155902254547
3688.9265,2.237436074962153,69.7301426418805
3689.7751,2.2354407426082963,69.63147061964546
3690.626,2.2366898993600466,59.103726695635075
3691.475,2.239973154033807,47.489934526752904
3692.3264,2.2426461927328907,59.32098575933375
3693.1758,2.242539170054736,64.60733958751773
3694.0254,2.2392088515575623,63.78639753144601
3694.8772,2.2336149763234823,65.00583526176663
3695.7273,2.2271090292972797,55.41836412886603
3696.5793,2.2206232802387094,66.47352141212362
3697.43,2.2148272342275455,59.00748321424578
3698.2825,2.210325952758727,52.315336193565734
3699.1333,2.207720745756925,69.2940677349694
3699.9841,2.207273564420276,48.409076455238576
3700.8374,2.208898255369334,55.97066528586424
3701.6887,2.212359108353689,79.33983159905465
3702.5425,2.217446073797616,60.910895602911864
3703.3943,2.223673691626298,67.04388360937081
3704.2483,2.2300210569344983,59.766480501754565
3705.1003,2.2348096513270312,55.687433802573935
3705.9526,2.236333945201791,69.33357562827163
3706.8074,2.233596561073737,53.687987439167586
3707.66,2.226975154726411,60.53237690783292
3708.515,2.218052277808186,85.57447933804298
3709.3682,2.208856570592422,54.60815203141242
3710.2234,2.2006822899803105,60.04253937665195
3711.0771,2.1939205803876365,68.16339526947179
3711.9307,2.1885061669960475,63.67167212402232
3712.7866,2.184569593291521,59.8805372932412
3713.6409,2.1822470816058734,57.25437420425834
3714.4973,2.1808035899680553,68.78548632960508
3715.3518,2.178390641856315,54.05298799921205
3716.2085,2.1729238812654654,58.798323269696645
3717.0635,2.163737236003641,60.76297425082059
3717.9185,2.1524143036384005,63.58909235739735
3718.776,2.142066538903402,69.24911141272447
3719.6313,2.135431185346108,70.11640301963669
3720.489,2.132947215788271,61.89229888667567
3721.345,2.1328392738821043,60.86443699179521
3722.2031,2.132710075294801,72.66800898531342
3723.0593,2.13138577486954,54.188679476008744
3723.9158,2.129345528948593,57.349824736762294
3724.7747,2.1277032843887613,60.74920229111532
3725.6316,2.1269958031956966,73.81491772390298
3726.4905,2.1267790335055925,58.6248172543582
3727.348,2.126081129069223,59.217297606435686
3728.2073,2.123970973698565,67.39813442032596
3729.065,2.1199736470907387,65.7046704793621
3729.9229,2.114304542395692,67.71928562940582
3730.783,2.107920372679038,81.20818294459504
3731.6414,2.10219348363348,60.9841102438907
3732.5017,2.0981085488883844,71.38456482276307
3733.3604,2.0958346302225084,90.4316654453552
3734.2214,2.0946791664447355,63.68661023341113
3735.0803,2.0935586244088844,70.83166066969083
3735.9417,2.091444999805157,67.83112979431557
3736.8013,2.0877941011559162,67.39731253808714
3737.661,2.0828278924290045,55.177168288686154
3738.5227,2.0775815935334463,70.82589395078439
3739.3828,2.07342948672916,75.33316561248279
3740.245,2.0710527763271585,79.13162228000752
3741.1055,2.0699046029116035,65.34948847676499
3741.9683,2.068548622654721,72.01874312067706
3742.829,2.065812943347538,61.77106603440005
3743.69,2.06168088227322,79.73898983615334
3744.5532,2.0572701485168614,79.34021213704139
3745.4148,2.053947187881607,92.60020475361816
3746.2786,2.0521499804356793,62.855145198794325
3747.1404,2.0511190882634467,67.63765968603253
3748.0044,2.049633850603233,71.48813663605983
3748.8667,2.04716146287176,64.6853170298062
3749.729,2.044182266390002,72.13363025003498
3750.5938,2.0415283367534593,73.61465838038343
3751.4565,2.0395426617005112,67.01035334716236
3752.3215,2.037788837099382,77.63330953021868
3753.1848,2.0355147085052336,71.04202342307823
3754.0503,2.032218984115051,62.225557275706564
3754.9138,2.028082553546667,84.69437589564725
3755.7776,2.0238764506588995,86.38102419730556
3756.6438,2.02050800053515,77.60744741994347
3757.508,2.0184070393612994,71.74386469643635
3758.3745,2.017154126860178,64.48388158539863
3759.239,2.0158098540711715,70.02939311614318
3760.106,2.0135192182718784,67.29375939069558
3760.971,2.009970101750768,81.68427501541088
3761.8362,2.0052326067267643,73.89535855625327
3762.7036,1.9993758846545577,88.40763038169813
3763.5693,1.9924280196383506,77.22383886769857
3764.437,1.9846421084652215,85.89114754916335
3765.3032,1.976958895956713,76.2426626483708
3766.1714,1.9706967883730524,106.99508801441533
3767.0378,1.9669568338570926,67.82840378303304
3767.9043,1.9658576115783417,84.23358343189925
3768.7732,1.9664799207199515,68.5432085653151
3769.6401,1.9673857924148561,61.82549489539378
3770.5095,1.9675028613692314,85.47647064082311
3771.377,1.9666917858961186,90.65541542071281
3772.2466,1.96552865313734,98.01306229033663
3773.1145,1.9645100974061684,82.8898478420427
3773.9824,1.963443903272941,86.65033139999255
3774.8528,1.9615827467190499,81.27321581316714
3775.721,1.958237567238143,80.97646529319695
3776.5918,1.9532633517380138,77.35183648989708
3777.4604,1.9473682337571254,61.26926713843555
3778.3315,1.9418868105691196,92.89114500236522
3779.201,1.938331272949756,79.72536401905019
3780.0703,1.9374834589020946,83.56876613021343
3780.942,1.9389240894683644,78.40269610039843
3781.8118,1.941217054959825,76.79778609302072
3782.6838,1.9428118067909403,80.32644766234824
3783.554,1.9429451350218863,75.57693911979305
3784.4265,1.941956536911974,80.0780580392109
3785.297,1.9407509744716618,88.52268685285001
3786.168,1.9398976675756026,75.51725273186538
3787.041,1.9391074415274625,69.22294572152504
3787.912,1.9374509244959561,75.53316511801233
3788.7856,1.9340978915231173,77.3039261722143
3789.6572,1.9290694002889426,89.39510628123475
3790.531,1.923266832136262,87.74449961136949
3791.403,1.9179378617486367,83.00177076512358
3792.2754,1.9137354805363802,80.20566698303028
3793.15,1.9103638718043525,81.26783521086628
3794.0225,1.906971617839915,92.45401504675371
3794.8972,1.9029244480661,89.72771585907866
3795.7703,1.8984299850651245,72.26336678566199
3796.6455,1.8943032010859226,80.04174451557141
3797.519,1.8913860962167228,84.50645923692328
3798.3926,1.88994432690088,93.6753295759031
3799.2686,1.8896736349373835,91.54056431143724
3800.1426,1.8900912585461733,95.5400510106508
3801.0188,1.8909630167812912,72.22410030313038
3801.8933,1.8923450813884388,76.05924351584872
3802.77,1.894229705598582,81.51922753660344
3803.6448,1.8961388239194268,86.04339770722004
3804.522,1.8971496968218275,83.05050902383611
3805.3972,1.896219647037598,76.5989489116067
3806.2727,1.892684317827214,83.70465640417817
3807.1504,1.8867081903498228,75.19079790996409
3808.0261,1.8796738085928861,81.22530931344275
3808.9043,1.8738267975811924,92.17064047394697
3809.7805,1.8713361770263695,73.90108589147526
3810.659,1.8728687321089657,90.21426264037862
3811.5356,1.877064410013591,93.05584039801136
3812.4126,1.8812829191673148,96.5051714104935
3813.2917,1.883137051077978,83.50966995325987
3814.169,1.8816708760889405,82.19005003014378
3815.0483,1.8774659038968,83.69926556110158
3815.926,1.8719207867934042,84.37894550139282
3816.806,1.8664302865167797,92.25383555577393
3817.684,1.862095716919451,79.9750521121959
3818.5623,1.8594393212218796,104.53767130169783
3819.4429,1.858240947392776,94.33399142385
3820.3215,1.8575379128404765,84.10061129019877
3821.2024,1.8560321348227784,96.72856122398275
3822.0815,1.8527438120437218,85.6810682847368
3822.963,1.8473749372835726,100.20408151268232
3823.8423,1.8403945519416725,90.4874760654165
3824.722,1.8327482053167563,111.7246881008588
3825.604,1.8255881777333827,95.53134262635169
3826.4841,1.8199152302138413,93.2725609107765
3827.3665,1.8159525889532782,91.09356194939318
3828.2468,1.8129316304774132,96.39061425142845
3829.1296,1.8092294625824261,103.07723706239983
3830.0105,1.8032182859741563,96.75741883223331
3830.8916,1.7940765523521638,95.8068545191943
3831.7751,1.7822322062071854,113.75337590008377
3832.6565,1.7693071171518273,92.35134371417965
3833.5403,1.7572773030450677,91.36805329445583
3834.4224,1.747951118974673,101.95725800244114
3835.3064,1.7421255629954788,119.44513523190506
3836.1887,1.739556968612509,99.34359577538451
3837.0713,1.7393473357482168,107.95719611365453
3837.956,1.7408942551525508,97.872437583044
3838.839,1.7443706966605848,93.66754210870735
3839.7244,1.7504073339566335,101.91640565449383
3840.6077,1.7592482934256866,93.88318989461051
3841.4932,1.7704868502356912,97.7326567567197
3842.377,1.7830361048220238,90.12457040686164
3843.261,1.7954523101330366,104.92277328311846
3844.1472,1.8060079175488866,86.95207825902425
3845.0315,1.8132400390192043,79.51359577497949
3845.9182,1.8170677283774386,111.98883578992184
3846.803,1.8189313067003594,105.75999463424999
3847.69,1.8208713350677037,93.06948565447402
3848.5752,1.8240257307694916,91.0040279079055
3849.4604,1.8281514305829851,111.67143594599892
3850.3481,1.832312755527171,86.88980926582143
3851.234,1.8358217866945266,101.99603880384953
3852.122,1.8386842871029698,100.3451865354518
3853.0083,1.8411954773710173,82.09831661556193
3853.8967,1.843443714678119,109.05696559792369
3854.7832,1.8450278350985247,96.73433918430716
3855.6702,1.8454052918613872,95.30911312078965
3856.559,1.8444694282728742,99.99245470512007
3857.4463,1.8428642920774554,82.4165243280127
3858.336,1.841516230705345,104.73144874611872
3859.2234,1.8407962943033842,84.14458032293673
3860.1135,1.8401576129966626,86.65935525832954
3861.0015,1.838743265778754,101.26683929293355
3861.8896,1.8361955349456516,101.52809115256035
3862.7803,1.8328236528415434,88.96627605507399
3863.6687,1.829169188722523,101.34372449333162
3864.5598,1.8254884647737077,93.5070308929524
3865.4487,1.8217659515020528,84.81940117534691
3866.34,1.8177933736573464,81.13686579241087
3867.2297,1.8133899825839668,89.38822060181745
3868.1213,1.80841185877747,82.37734597956404
3869.0112,1.802836353510859,86.37942573083117
3869.9014,1.7965491271088985,100.1636796898693
3870.7937,1.789165284369937,76.8935218886636
3871.684,1.7801192006849056,92.16619427206834
3872.577,1.7689063278851904,104.72830376683763
3873.4678,1.755699766935251,105.96814684715444
3874.361,1.7412476928050642,89.34192315913467
3875.2524,1.7267988163361718,101.9916458116903
3876.1438,1.7132732354824476,103.21953796236643
3877.0376,1.700855099762487,98.66536583247489
3877.9297,1.6889721064161882,101.78717257399379
3878.8237,1.6764183094381575,102.02119527231578
3879.716,1.6621158122660646,114.21001819716493
3880.6108,1.6454114881681225,111.33508626946436
3881.5037,1.6266537847183928,107.41819888492552
3882.3965,1.6068327474687674,105.66164029111775
3883.2917,1.5871287391802151,121.16188153688343
3884.185,1.5683718967203322,125.5313087894428
3885.0808,1.550398739523649,104.24339532757968
3885.9746,1.5329187295191267,128.83221825822685
3886.8706,1.5161120384767774,130.4519753517072
3887.765,1.5014483385291912,120.28510906309788
3888.6592,1.4909510223938307,154.46751858265552
3889.556,1.486321597028311,158.32140882497475
3890.4507,1.488154482911291,131.72491298655385
3891.348,1.4956442961429053,130.7050585331297
3892.243,1.5067501607712017,114.31235528690736
3893.1406,1.5189593336899472,132.690722812578
3894.0361,1.5301380326273801,123.6642321810424
3894.932,1.5397161264675736,111.34634126787026
3895.83,1.5485707206868458,145.99222213314872
3896.7263,1.557863553485173,135.81776807463788
3897.625,1.5680453232408285,125.55045279506557
3898.5215,1.5786932287858078,136.34021571277336
3899.4207,1.5897933140407923,132.57464145528564
3900.3176,1.602236858667722,143.13566163335528
3901.2148,1.6174197631395324,113.56931780052412
3902.1145,1.6358027686583982,109.94157519960908
3903.0122,1.655992461599298,113.8111899270288
3903.912,1.6756055790094246,106.95561861039425
3904.8103,1.6922728907636633,99.7977777160659
3905.7107,1.7050798801840577,122.10210460370672
3906.6094,1.7145378277268557,105.7181243890646
3907.508,1.7222414789519411,90.77965875295898
3908.409,1.729899104730589,121.79006982148368
3909.308,1.7385390334077224,87.21310349006112
3910.2097,1.7482896595588677,117.72750411329166
3911.1091,1.7584182711705265,97.77389801015566
3912.011,1.7681043698234997,91.85877922310951
3912.9111,1.776732375362299,96.21277775989064
3913.8113,1.7841399433874146,108.21290092947554
3914.7136,1.7904369765355024,89.85185125184529
3915.6143,1.7959486436469483,108.1365260637554
3916.517,1.8012857500097967,111.18551940283685
3917.4182,1.8069793299291244,99.63185920077244
3918.3215,1.8131958758333215,83.64451109532465
3919.223,1.8195019515444846,74.51783328561248
3920.1245,1.8251960622048204,78.31235705382532
3921.0286,1.8296457031609372,82.12538515342882
3921.9307,1.8325625957915481,82.72325699062488
3922.835,1.8341495428008765,85.40342280888859
3923.7373,1.8348165868687736,94.92926828977681
3924.642,1.83480121718531,98.92958424517337
3925.5452,1.83395730439057,80.3213933698619
3926.448,1.8320641663594743,84.8554775467327
3927.3535,1.8293328152238473,106.55869311541858
3928.257,1.8265678174515285,74.4650640869886
3929.1628,1.8245841007226127,109.79015182830157
3930.0667,1.8234490308698972,95.39135467521027
3930.9731,1.8221525680240305,96.27672624259723
3931.8774,1.8193038712506284,91.03240379111585
3932.782,1.8142755107880264,98.26475095151882
3933.6887,1.807797033670153,94.09032490638288
3934.5938,1.8014429371123264,86.21221610010984
3935.501,1.7963540441761612,97.57327629781906
3936.4062,1.7926017085569812,97.35256728578503
3937.3142,1.7892200417760555,114.28933110722656
