wavl,flux,ivar
3566.9744,0.3942489524100973,2431.7053794114713
3567.795,0.39049581375097164,1449.985591194833
3568.6177,0.3874839569059648,1883.8487680308085
3569.4385,0.38598957338153184,1413.6980395926957
3570.2617,0.385783672114348,1769.4396318801125
3571.083,0.38616394762620576,2370.015273303213
3571.9065,0.38677338533823935,1501.366992088667
3572.7283,0.3878688604430898,2197.2182366948014
3573.55,0.38977098046997005,1782.416645871385
3574.374,0.3921696116840678,1217.101094447048
3575.1963,0.39412062927326624,1442.2213756291906
3576.0208,0.39485839550590923,3518.431513775177
3576.8435,0.39446353425317193,2251.8345346443534
3577.6682,0.3937540016842631,2097.924975282096
3578.4915,0.3934821665124605,1473.6472541604082
3579.3145,0.39366165628900157,1771.7807403590186
3580.14,0.39366034493208724,1796.1547771800217
3580.9636,0.39287442697676395,1306.6875553943669
3581.7893,0.39127485861081307,2361.2575167666564
3582.6133,0.38933093165476007,2325.053588361498
3583.4395,0.38746263925998214,3372.201029066406
3584.264,0.3857287963146433,1480.8377241634641
3585.0884,0.38392222012459504,2168.386727046883
3585.915,0.38191013659248246,1822.4220738653619
3586.74,0.37979632650108613,2062.1328623057257
3587.5671,0.3777818960844698,4027.6574965390905
3588.3923,0.37604928355182105,2150.0105307437198
3589.22,0.37466823469903143,3128.6759434377277
3590.0457,0.3736400388983597,1354.8051129874646
3590.8716,0.37288463710330505,1499.044224997953
3591.6995,0.37230386852196595,1983.8277388432912
3592.526,0.3718834597376622,1125.0709697884417
3593.3542,0.3717536364196706,3211.092382839054
3594.181,0.37211821895654507,1434.4202419314274
3595.0098,0.37306688107520675,4612.677083477714
3595.8367,0.3744521680241823,1786.6041281659986
3596.6638,0.3760006205623505,2199.195316256116
3597.4934,0.37752607331470966,3475.0126436519563
3598.3208,0.3790189392976961,2412.866997106548
3599.1506,0.38055439465706725,3162.36266413393
3599.9788,0.38207421206970393,1294.7473989397558
3600.8088,0.383410540687776,2160.984881458652
3601.6372,0.3844251490104843,1503.6428420733148
3602.4678,0.38510356496184805,1469.9863845623997
3603.2964,0.38538299728277414,2538.0590927097255
3604.1252,0.38504744328992835,1870.6052821446456
3604.9565,0.3839404592503037,1483.371262689894
3605.786,0.38237180734345105,2313.2547692278845
3606.6172,0.3811181754353684,1260.3445567939436
3607.447,0.3809333940059374,3337.0200044786175
3608.2788,0.381975931917087,1442.4218767390178
3609.109,0.38375475724144403,2191.0341374248387
3609.9392,0.3855746954034073,1705.4618034012567
3610.7717,0.3869844748434921,1372.5904820437436
3611.6023,0.3878669989050389,2086.7187426134074
3612.435,0.3882550908325421,1750.3221656713831
3613.266,0.3881226655409091,1545.085968801587
3614.0994,0.38742833022666234,2653.1333261381196
3614.9307,0.3862785429868516,2437.609721841278
3615.7625,0.3849601132084696,1753.9201471034235
3616.5962,0.38379459524908155,1407.187845850719
3617.4282,0.38294782496597685,1628.1243939801418
3618.2625,0.3823506935881163,1935.3760916399524
3619.0947,0.3818302798839771,2153.122263447054
3619.9292,0.3812695777989344,2438.4133232441595
3620.762,0.3806788443795765,2273.639560828089
3621.595,0.38006572019130586,1650.0866602241697
3622.4302,0.37926103553384,2238.5126391945414
3623.2634,0.37791601475245695,1544.5612608065308
3624.0989,0.37573521688708944,1839.9768794686966
3624.9326,0.3728350734431502,2315.4704520803093
3625.7686,0.36981718640897104,2461.215574410934
3626.6028,0.3675945159872735,2554.3626712193654
3627.437,0.3669248780200649,1639.45436858275
3628.2734,0.3680459863870588,1834.7213416426564
3629.1082,0.3704560707509069,1785.5478139017587
3629.945,0.3730859035365976,1546.2898861045444
3630.78,0.37479634697453085,1180.4856038323287
3631.6174,0.37507331244717074,1706.0662083567763
3632.453,0.37431478423508097,2172.8661674555296
3633.2883,0.37354815252460305,2042.8304251316079
3634.1262,0.3737176763883173,1569.9052023855504
3634.9622,0.37508164914522807,1360.8707494223297
3635.8005,0.37715141789847595,2364.950998619226
3636.637,0.3791499223262726,1794.3848932664632
3637.4756,0.3806533143863601,2706.1534658835544
3638.3123,0.3817856712611295,1327.6435883603626
3639.1492,0.38297205103298815,2787.862119361401
3639.9885,0.3844794336006417,1624.890219221506
3640.826,0.3861912840063206,1739.2749944264187
3641.6653,0.3877702956406844,1141.1041730939792
3642.5032,0.3889247980497855,1367.1644596335907
3643.343,0.38963763476391966,1243.8078522782753
3644.1812,0.39013931475616126,2734.790898275952
3645.0195,0.3907227214941111,1863.329724398439
3645.86,0.39147258619142045,693.2363961681515
3646.699,0.3921090524483278,1520.2218565298513
3647.5398,0.39213565154767244,2214.76272704401
3648.379,0.3912456265734931,1408.8785099096663
3649.2202,0.3896779458627965,1575.6534323981268
3650.0596,0.3881400968830386,1918.7849678641414
3650.8994,0.3872743642579898,1662.1392382970914
3651.7412,0.38727438003055464,1478.8507815742428
3652.5813,0.3879596120360081,1429.4439519342861
3653.4236,0.3890944895047273,3037.6722657377245
3654.2642,0.39047044317253027,1509.7334746132924
3655.1067,0.39181304993000043,1850.351424808649
3655.9475,0.3928045366174837,3965.847655811741
3656.7886,0.39334476644103383,2086.612065162958
3657.6318,0.39363190776374457,1560.4942484626436
3658.4734,0.39393368007550306,1384.087582914159
3659.317,0.39428437176235304,3054.07983164364
3660.1587,0.3944202004163381,1466.7278053171917
3661.003,0.3940153994994247,2785.6125924892663
3661.845,0.3930094618106418,1840.2506421733651
3662.6875,0.39176609472276436,2114.719464620063
3663.532,0.39091197817726075,1893.4476056875073
3664.3748,0.39092205553852843,2036.195365363435
3665.2197,0.39178831019826704,1276.887458185414
3666.063,0.3930762407003768,1789.7960335670434
3666.9084,0.3942618663004558,2038.9927606648996
3667.752,0.39498499092786654,2801.690233366492
3668.5977,0.39514335728274025,1295.4406761287642
3669.4417,0.39480829676112794,1726.0843813651597
3670.286,0.39409240352739533,2969.288122228581
3671.132,0.39303554714023314,2482.1624754670283
3671.9768,0.3916494555129428,2713.018391296667
3672.8235,0.39007661707356817,2509.2725261813903
3673.6685,0.3887374189293721,1700.839728832933
3674.5156,0.38817033288468716,2254.834569839569
3675.3608,0.3886709774083611,1798.4224812315188
3676.2063,0.3899724948634144,1930.5475011024505
3677.0542,0.39135841453781445,1157.0059175675851
3677.9,0.3921237349121897,2134.784123975446
3678.748,0.3920415740373518,1680.6056033020318
3679.5945,0.39140659784288573,2254.383536996412
3680.4429,0.39078557947938247,1853.687205104746
3681.2896,0.39075682067292405,1636.726646592105
3682.1365,0.39177114000247754,1488.9408474953389
3682.9856,0.3942111549419425,2456.424354389017
3683.8328,0.3987466816099719,2097.5343874664877
3684.6824,0.4071563163133484,1370.020162283486
3685.53,0.4225877718143743,2119.825031407465
3686.38,0.448282922720426,3331.162326344848
3687.2278,0.48348194472548295,1829.6331899063284
3688.0762,0.5204069155926373,2681.120690561325
3688.9265,0.5454636467270167,1930.3432035420765
3689.7751,0.5468062630656678,1815.4561672055056
3690.626,0.522942877298138,3704.6280613272456
3691.475,0.4840689064109386,1285.638236859272
3692.3264,0.444739764263504,2057.396648820386
3693.1758,0.41580615269106136,1794.6204378894797
3694.0254,0.4001528727060124,2037.613012612428
3694.8772,0.3949888708105384,2472.4691735219685
3695.7273,0.39546667646079847,1573.9580995345254
3696.5793,0.39734205637785497,1583.9159257477427
3697.43,0.39814493043359156,2908.4540714266996
3698.2825,0.3971525977986916,2205.057092037566
3699.1333,0.39473888071983626,2214.573875059502
3699.9841,0.39165110604415904,2132.273449411474
3700.8374,0.38859899794269115,1542.5876175809353
3701.6887,0.38617373677850114,2908.73965992028
3702.5425,0.38474243163358746,4268.650375459272
3703.3943,0.38438827182150564,1361.6954809693977
3704.2483,0.38480819455405735,1575.311471531983
3705.1003,0.3854006767269157,1465.3533356419136
3705.9526,0.3855098097400486,1960.9039835584576
3706.8074,0.38473363797022747,1714.9174492774118
3707.66,0.38315964170331307,1383.265953796529
3708.515,0.38130479448680965,2329.9306787631112
3709.3682,0.37982347541513983,2443.348741233093
3710.2234,0.3791020213165777,1669.296563553154
3711.0771,0.3791137988298969,2018.819130333705
3711.9307,0.3795081087812254,1475.8514673555446
3712.7866,0.37985727832533583,1835.8096463243012
3713.6409,0.3798682133529899,1516.233787541279
3714.4973,0.37950718369807335,2313.758115494344
3715.3518,0.3790107373187952,1497.1341849923824
3716.2085,0.3788029796284082,2216.1244647974345
3717.0635,0.3793468079666732,1695.2759809996198
3717.9185,0.3809357265934923,2985.6548018354847
3718.776,0.3835632367177765,1350.8170620165752
3719.6313,0.3869169760796827,1250.641256514099
3720.489,0.39056556982409685,2548.248850498744
3721.345,0.39396367469687005,1466.5738179996883
3722.2031,0.39647713891646086,1601.3550145476847
3723.0593,0.3974078241941096,1575.3364636821605
3723.9158,0.396398301741581,2170.1133664223535
3724.7747,0.3938283643423795,1604.8347588052638
3725.6316,0.39090214815959584,1770.555154773573
3726.4905,0.3890443377694522,3593.855055390049
3727.348,0.38910943281212645,2240.361762639071
3728.2073,0.3908633562068224,2466.1179593864013
3729.065,0.3931465261711551,1787.0868729882761
3729.9229,0.3945448064559844,1722.222847383705
3730.783,0.39408812559196776,1766.732893552223
3731.6414,0.39167914744541305,1352.7121693999284
3732.5017,0.38804725791986955,2504.0205946363676
3733.3604,0.38438985955640437,2345.326046529162
3734.2214,0.38180253946139675,2089.413054155873
3735.0803,0.38090432719637896,2621.9991220608613
3735.9417,0.38157770048404116,3746.931940795056
3736.8013,0.3830755837590445,2220.1236850825226
3737.661,0.38439991918211563,1210.9499842776531
3738.5227,0.3848117186275789,1364.7676670589533
3739.3828,0.3841786582640013,1949.8311008793687
3740.245,0.3829110419092378,1592.768951184411
3741.1055,0.3815135189708626,1944.7749401318197
3741.9683,0.38012518362921205,2067.321945218937
3742.829,0.3785784931365693,1537.8163923858308
3743.69,0.3768512367405494,1535.6602166905955
3744.5532,0.37543044330245806,6114.5754281344725
3745.4148,0.37510850009689445,2694.745609156726
3746.2786,0.3763724349354265,3647.892411823126
3747.1404,0.3790041392761015,1725.547994213584
3748.0044,0.3821952197517474,1614.3093082382766
3748.8667,0.3849604433900124,2031.6078653521606
3749.729,0.38671301913013173,1362.7018973905892
3750.5938,0.38756303596069147,2163.668185073287
3751.4565,0.3881990418606198,1982.4449498316853
3752.3215,0.3893238874787845,2216.420470046514
3753.1848,0.3909973338852445,1839.771473066849
3754.0503,0.39253159503627694,1681.5755307048184
3754.9138,0.39301233245025347,1518.0579749437293
3755.7776,0.39207441798734344,1850.255767490171
3756.6438,0.39020144310176264,2304.5840542779847
3757.508,0.3884224395441642,1270.509577259162
3758.3745,0.3876007074947567,1946.7888909985172
3759.239,0.38794855599283623,2025.258156004412
3760.106,0.38901021383697904,1437.8161403467934
3760.971,0.3900977627653823,2156.665814307054
3761.8362,0.39079301623842033,1721.4464994018244
3762.7036,0.391069052682826,1311.5808446553292
3763.5693,0.39102296533613085,1793.5102421949846
3764.437,0.39055211754983854,1151.176180089399
3765.3032,0.38934221548259434,1200.617104046203
3766.1714,0.38717536999474755,1997.8178224370579
3767.0378,0.38426072883082735,2192.859444906449
3767.9043,0.38116776139448455,1875.9386595707176
3768.7732,0.37847533562009406,1520.0899131209744
3769.6401,0.3764731034234319,1922.3136789474015
3770.5095,0.37510500746344827,1839.6274785004134
3771.377,0.3742073925344461,2483.0462253101123
3772.2466,0.37361447729165204,1697.1743598842284
3773.1145,0.3732050603585746,2047.7610847596595
3773.9824,0.372960850624129,2534.392953614454
3774.8528,0.37308777134114207,1213.6778634636778
3775.721,0.37397991845200534,2123.5203800118134
3776.5918,0.37598459871841594,2683.072334463642
3777.4604,0.3791289388772844,1880.3712132439198
3778.3315,0.3831116550746841,2230.9265183234766
3779.201,0.3873428178294574,1626.775734360475
3780.0703,0.39111691510571045,1746.280860645826
3780.942,0.3937199663877169,1900.8355224182212
3781.8118,0.3946877075492447,1260.848501569606
3782.6838,0.3941833294362448,1513.4362224891331
3783.554,0.3930478561301776,1726.3954747022235
3784.4265,0.3923434913460303,1902.6719227606595
3785.297,0.3926362244548827,2336.0868564452303
3786.168,0.3936018217228908,2199.828045838948
3787.041,0.39435310355578745,1320.7553814692853
3787.912,0.394130921048135,2181.8711461416683
3788.7856,0.3927622889125119,1728.9770188396778
3789.6572,0.39057970722939084,2294.0595318620926
3790.531,0.3880293821603255,2320.867498570326
3791.403,0.3854697895005711,1486.64609743982
3792.2754,0.3831532334891135,1040.9939802092563
3793.15,0.3813208427353758,1874.5203701907883
3794.0225,0.38013201410234077,1934.2541267096733
3794.8972,0.3794632849801821,1802.7680031002233
3795.7703,0.37893762691075206,1557.5134644027721
3796.6455,0.3782077332869965,1643.1613904151213
3797.519,0.37731743012014657,2571.0837262853734
3798.3926,0.3767407106889555,2103.612773828608
3799.2686,0.37707259500546014,2586.4962182505146
3800.1426,0.3785944534248022,2025.858039510131
3801.0188,0.3810522180733248,2393.158290624587
3801.8933,0.38372157644147964,1816.3456334134746
3802.77,0.3857595314006989,1730.3918096101352
3803.6448,0.3865175193062674,2192.357906352387
3804.522,0.38581514754322616,2092.0307018749445
3805.3972,0.38399696871350925,1824.6585616888779
3806.2727,0.38179471695289735,2149.773348489199
3807.1504,0.3800070640761493,1123.948938751022
3808.0261,0.37914808109127995,2217.177136773207
3808.9043,0.3792715125434404,2538.5812917380194
3809.7805,0.3801978086498574,1381.7410294340036
3810.659,0.38185523184046544,1876.3237546488165
3811.5356,0.3842987228747762,2763.6607943524996
3812.4126,0.3873769100658196,1882.6427538684206
3813.2917,0.3904462369421012,1281.8213850304742
3814.169,0.39259569173105513,2536.842048374471
3815.0483,0.39330696342750726,1713.2157913189608
3815.926,0.39279474161647027,2220.116909261147
3816.806,0.39182961548072887,2143.4965444558297
3817.684,0.39122424964758,2116.116843514158
3818.5623,0.39143563177906365,1614.0124620246365
3819.4429,0.39249401311769655,1524.2898378158088
3820.3215,0.39407028897932517,1808.2840553176238
3821.2024,0.39559371524959624,1625.1541765510613
3822.0815,0.3963565566727783,1863.3882799111477
3822.963,0.3957532224555912,1639.355214419918
3823.8423,0.3935207375063963,1807.5893243437965
3824.722,0.3898456034217146,1820.2446923438495
3825.604,0.38524616081667323,1585.9143744409173
3826.4841,0.380380268841844,1844.2305094345902
3827.3665,0.37571470100782156,1951.3248852636184
3828.2468,0.3714322729893816,1942.0773794165168
3829.1296,0.36732796994914635,1831.7571357960153
3830.0105,0.3631340335981,2701.356518204918
3830.8916,0.35882043469475844,2564.49456926859
3831.7751,0.35476943583603693,3056.3822498653635
3832.6565,0.3515035049874639,2576.9408856194955
3833.5403,0.34913240911311305,2408.9538164104
3834.4224,0.3472815442028752,2132.4019941820384
3835.3064,0.34546044581349905,1670.625065776116
3836.1887,0.34369160269751403,1797.0779525924395
3837.0713,0.3426135218162457,3735.372231084224
3837.956,0.34296677018840993,2094.228382848661
3838.839,0.34489629862004983,2253.9764712161123
3839.7244,0.3478220559902313,2224.0829820804083
3840.6077,0.3509326386333218,2120.43331703455
3841.4932,0.3538678037665949,2429.1639058617548
3842.377,0.3568572969013956,2964.6927657022275
3843.261,0.3604679874085771,2151.2521124347213
3844.1472,0.36510980942184856,1831.5033784619245
3845.0315,0.37066419302224757,1930.6418671031738
3845.9182,0.37657248373813046,1269.5622065681875
3846.803,0.3820531604034725,2420.4889244620867
3847.69,0.38657177555826,1893.4100000253031
3848.5752,0.38989009514833384,2235.664064848365
3849.4604,0.39209992514851744,1847.1608616299093
3850.3481,0.39354432634699976,1521.865865786385
3851.234,0.3947863587420806,2033.548716913923
3852.122,0.39646297979219314,2372.6096425297687
3853.0083,0.3989198346274392,2128.7041505646444
3853.8967,0.4019827142068377,1191.4720208462625
3854.7832,0.40497374472216274,1585.5606258426574
3855.6702,0.4071464854977863,1559.860529236794
3856.559,0.4080972792684778,1693.9473723915492
3857.4463,0.40795355716600823,1364.9749875907125
3858.336,0.40720846731306926,1549.8635284069826
3859.2234,0.40637480515635094,1614.3026333215078
3860.1135,0.4057314247543097,1650.9879543632596
3861.0015,0.40532938618926806,1970.8161792338321
3861.8896,0.40510414792644295,1629.9127338743192
3862.7803,0.40495066129645546,1755.607823625242
3863.6687,0.40467660605396993,1969.4630005480892
3864.5598,0.40397252797976596,1973.7785860220592
3865.4487,0.4025440523513762,1774.4051624000567
3866.34,0.40029996047096356,1939.9616919543485
3867.2297,0.3974947977288219,1906.6030571714114
3868.1213,0.3946306966463733,1611.8487400793958
3869.0112,0.39232671853809675,2519.4852041102176
3869.9014,0.39107314065251525,2512.695647683736
3870.7937,0.39104824811480526,2120.972546197876
3871.684,0.39193594181614483,1557.6218919070432
3872.577,0.39292964052457635,1456.8719018435256
3873.4678,0.3930250092460491,1835.332604911491
3874.361,0.39153547935546357,2116.2772470979594
3875.2524,0.3884599083995817,1546.1157846532064
3876.1438,0.3843671689727258,2503.4193024196907
3877.0376,0.37990237791488835,2186.9725886761707
3877.9297,0.3753753556929334,3067.2067828959293
3878.8237,0.3706532374337194,1789.1767756616744
3879.716,0.36560243509596213,1964.7505947450923
3880.6108,0.3603526427857113,1627.6139618401255
3881.5037,0.355333678982933,2579.878467460238
3882.3965,0.350795167247596,3328.1931641230085
3883.2917,0.3465495607982822,2081.8717169627616
3884.185,0.34213589126332566,2728.3092212242414
3885.0808,0.3371700292057461,2799.1370479364864
3885.9746,0.3317452029138644,2266.0182877562333
3886.8706,0.32630761502113087,2491.8165518198184
3887.765,0.32151381005305013,3479.497395670596
3888.6592,0.31792235336886504,2755.171579732928
3889.556,0.3159088159879433,4212.899631950845
3890.4507,0.3156289372803774,3315.9585265346
3891.348,0.3170289576826413,2814.2652183135606
3892.243,0.319947917297638,2307.140424768743
3893.1406,0.3242067190998185,2664.1693347421183
3894.0361,0.3294875016948464,2930.616250204395
3894.932,0.33529790011150307,3361.7347000753016
3895.83,0.3409565088253655,1732.3861447849113
3896.7263,0.3457664492949061,2358.374081895091
3897.625,0.34940921218312815,2462.505039188388
3898.5215,0.3520448597865501,3290.1531261823793
3899.4207,0.35437439302562934,3360.3638577586453
3900.3176,0.3573467132289426,1394.9445263868802
3901.2148,0.36178230936748623,2983.303294952426
3902.1145,0.3678927547772609,2709.8041127425104
3903.0122,0.3750264755111246,1789.7645918864373
3903.912,0.3821100128353031,2046.5303109280921
3904.8103,0.3882108451519851,2056.7522015497866
3905.7107,0.3931413825950005,1618.2074167741096
3906.6094,0.397287089257408,2146.2594537111495
3907.508,0.40124190291325823,2126.1597140129456
3908.409,0.4054225788888845,1682.0522362723211
3909.308,0.40999657386719707,2035.5975592426514
3910.2097,0.4150360783208137,1946.4117663302359
3911.1091,0.42042475103276483,1212.7840483198668
3912.011,0.42590591213194756,1228.3295335325836
3912.9111,0.43104600830024076,1348.774898341194
3913.8113,0.43550550701382246,1132.9489433993103
3914.7136,0.43915042014963984,1440.5432697775664
3915.6143,0.44208076937339824,1089.303433825122
3916.517,0.4446391725965934,1449.1995389117928
3917.4182,0.44719992480783594,1486.7032812871337
3918.3215,0.4499863181807103,1654.4883461689649
3919.223,0.4528914007342035,1233.2184666667326
3920.1245,0.45561465575763166,1389.1493192304
3921.0286,0.45785670029508535,1526.4459912045572
3921.9307,0.4594676101174972,1310.7979686432545
3922.835,0.46054867258823096,1477.4185414586293
3923.7373,0.4614104489027057,1212.2460479217941
3924.642,0.4624454750337901,1787.4670733427415
3925.5452,0.4638094433076851,1085.1950191123835
3926.448,0.46520892815544035,1472.6712341239065
