wavl,flux,ivar
3566.9744,0.8373873118690105,1160.1126641880235
3567.795,0.833108853915314,820.707337080643
3568.6177,0.8300381848355112,1237.8743792006826
3569.4385,0.8283434131056984,707.1810782810176
3570.2617,0.8278695658313985,837.8050794645334
3571.083,0.8284904336368967,734.877153066219
3571.9065,0.8300969778213938,1069.9841491862348
3572.7283,0.8323101268526538,782.2335990447807
3573.55,0.8343361697304057,854.3641988409139
3574.374,0.8351954752788363,897.9829338118432
3575.1963,0.8342462992622266,697.8857858712777
3576.0208,0.831608318695759,759.3821680626415
3576.8435,0.8281135194136184,1220.7960230313977
3577.6682,0.824677616974708,951.202651213725
3578.4915,0.8216834217814037,883.721135742301
3579.3145,0.8188404761874889,829.4948373795796
3580.14,0.8158344503785524,647.4672919993021
3580.9636,0.8130064101823783,1228.2593997826493
3581.7893,0.8111243922306818,1381.5920734326312
3582.6133,0.810523578093173,689.8068255959756
3583.4395,0.8104790564089697,545.8235973127132
3584.264,0.8096619700901384,982.6531315545267
3585.0884,0.8071594791622636,1068.088784797517
3585.915,0.8030551861305905,871.248716336292
3586.74,0.7982539948254609,1233.0519461020474
3587.5671,0.7938643799845406,1227.3509142479375
3588.3923,0.7909493210198918,1090.492744701148
3589.22,0.7903174392576879,884.5873459318809
3590.0457,0.7923227532158134,1188.2788330691494
3590.8716,0.7965025268693015,931.671649555398
3591.6995,0.80157017979266,1150.2650063651004
3592.526,0.8058593241682093,1071.2357975789316
3593.3542,0.8081618359443715,769.0445458219622
3594.181,0.8081850531756465,882.3868678067016
3595.0098,0.8065164162018935,1532.5424600237825
3595.8367,0.8040826962218222,738.8976564334561
3596.6638,0.8015438409386262,904.4193657915248
3597.4934,0.7990253463624171,1196.8799032602885
3598.3208,0.7962804904455996,1040.2448035392579
3599.1506,0.793085912025085,701.3420528043277
3599.9788,0.7897511989859498,1546.232356381026
3600.8088,0.7871018691807163,1192.982514206974
3601.6372,0.7860327866982344,1032.4001370534982
3602.4678,0.78685096795222,1024.5041696435324
3603.2964,0.7891570617095858,858.390099646945
3604.1252,0.7922707242264561,1215.1862373506847
3604.9565,0.7956438766493927,795.8765085387078
3605.786,0.7988117287546692,1753.2183316715316
3606.6172,0.8012608515884844,595.7552638586876
3607.447,0.8024607029831755,880.4771227191677
3608.2788,0.8022452213335609,1402.5913350392525
3609.109,0.8009477669073848,775.2944509770788
3609.9392,0.7991490506435738,1427.745427941733
3610.7717,0.79731599580598,1158.1624164685277
3611.6023,0.7957486340948081,788.7362157231343
3612.435,0.7947266605960976,791.5643373529849
3613.266,0.7945965226028672,993.6948117552412
3614.0994,0.7955320886535242,927.0537270969058
3614.9307,0.797268153929829,1266.2766760875268
3615.7625,0.7991174918693704,1188.8205058376907
3616.5962,0.8002804462702554,803.0227631352855
3617.4282,0.8002318291432815,1100.525929439931
3618.2625,0.7988958153560292,926.6903101557205
3619.0947,0.7964960717965864,1005.3117767664863
3619.9292,0.79329580557542,1086.0938873288314
3620.762,0.7895856085998073,1221.115037583121
3621.595,0.7857036033130141,884.1618390206917
3622.4302,0.782033758084165,796.9665751694029
3623.2634,0.7789167026499746,1254.5401070767157
3624.0989,0.7765218491566963,1023.142904864261
3624.9326,0.7748844335421774,935.662949932804
3625.7686,0.7738242606537691,724.5241625263429
3626.6028,0.7730628486633118,944.1885072815867
3627.437,0.7724975096082143,1295.7055489187967
3628.2734,0.7724132887369052,911.7030781318174
3629.1082,0.7732017127474163,813.5609648038344
3629.945,0.774808539023308,1465.959312787743
3630.78,0.7766235790755919,1232.2318427384905
3631.6174,0.7781724581409794,1130.46104189741
3632.453,0.7798062743485656,886.4702301180356
3633.2883,0.7826136958007563,881.932493481395
3634.1262,0.7875506250916632,708.7803448132282
3634.9622,0.7946580176246791,818.5092212133017
3635.8005,0.8031076432097367,989.3321691456508
3636.637,0.8113817112760688,780.6647923160988
3637.4756,0.8177343975456893,910.8661135954114
3638.3123,0.8204637708947411,857.7754071665682
3639.1492,0.8187585666638567,675.8611595439065
3639.9885,0.8133017735452365,881.6943042960636
3640.826,0.8063547828998509,739.2567622461396
3641.6653,0.8007067757735633,1359.4347193431913
3642.5032,0.798428334019966,964.1690217528754
3643.343,0.7998951193442926,1321.1467382254414
3644.1812,0.8038591869673549,1155.095151967359
3645.0195,0.8083094138336588,799.0276201309847
3645.86,0.811569129278835,757.9637499730287
3646.699,0.8129707228596819,836.6962756379257
3647.5398,0.81281873436767,1026.7740180743917
3648.379,0.8116420162710329,1182.7324137802484
3649.2202,0.8094657963531023,867.8003935485027
3650.0596,0.8057426202209941,1043.8775649053662
3650.8994,0.7999720380911176,870.0082014619663
3651.7412,0.7925571067426198,847.6183370025619
3652.5813,0.7851614897910882,1090.959843248024
3653.4236,0.7799984679144378,1187.6621823752996
3654.2642,0.7787756387619903,1162.011281126827
3655.1067,0.7816460126307944,1095.8302516748959
3655.9475,0.787111672435284,876.9633551591384
3656.7886,0.7928478995181674,914.6825243687349
3657.6318,0.7968297193380345,1207.5824308309452
3658.4734,0.798094999733109,928.3715730985425
3659.317,0.7969331381516103,1003.5417301363641
3660.1587,0.7944756951425209,999.5707624395534
3661.003,0.7920406200583626,897.3871396104392
3661.845,0.7904887564431508,1185.2764756553768
3662.6875,0.7898158023910486,795.0029636549427
3663.532,0.7894619833276507,928.3600082705518
3664.3748,0.7890627867138506,1054.7854921667656
3665.2197,0.7889406931541224,1192.1457233994531
3666.063,0.7897627019323791,1245.6918251776071
3666.9084,0.7916790737098822,1164.3272633227216
3667.752,0.7938709660878575,1080.3349449224236
3668.5977,0.7950787503364445,885.019088211619
3669.4417,0.7945052953443644,847.1943740417632
3670.286,0.7923138775230942,813.071054291999
3671.132,0.7893000139209433,810.3480595783684
3671.9768,0.786259380063236,974.1072309317076
3672.8235,0.7835268304626184,940.6049540499823
3673.6685,0.7810908983661077,816.8795807738433
3674.5156,0.7789124348700456,1041.235730825223
3675.3608,0.7772607965530923,1345.9448084293226
3676.2063,0.7766331290107142,947.7823641700555
3677.0542,0.7774182828772528,885.4101304712722
3677.9,0.7794470409743527,1184.2880402737514
3678.748,0.7818550463965871,1009.3862073278168
3679.5945,0.7833578905521601,963.7710718634445
3680.4429,0.7829009372394182,1082.8842643082007
3681.2896,0.7801421318448399,1625.6560730932422
3682.1365,0.7755247594123138,878.9110870423106
3682.9856,0.7699903147508703,1434.2600677917897
3683.8328,0.7646908128076214,1052.6372542341612
3684.6824,0.7606037264791161,968.50854892395
3685.53,0.7583691751961389,876.536591260793
3686.38,0.7580706811556462,1020.3891778747643
3687.2278,0.759442431924843,841.4368311172758
3688.0762,0.762233571903944,987.7080712317947
3688.9265,0.7663778338591277,825.3198444709601
3689.7751,0.7716388002174136,1786.6499633775213
3690.626,0.7772826152153125,1169.502254820312
3691.475,0.7821325088463082,1091.7888701427448
3692.3264,0.7853392321492857,978.7184516518946
3693.1758,0.7868190974256596,966.7872537669206
3694.0254,0.7871600432739208,818.5431098412216
3694.8772,0.7870141254999831,896.790114754386
3695.7273,0.7867091773326288,933.1585595981905
3696.5793,0.7862202439248068,1052.287935220013
3697.43,0.7853279443620076,1202.0076647740375
3698.2825,0.7837725945075534,917.3040006306019
3699.1333,0.7814551375096702,1098.8214463183836
3699.9841,0.7785785875984357,801.3908187487506
3700.8374,0.7756363154054837,832.5279690506466
3701.6887,0.7731942301283156,1140.340610133096
3702.5425,0.7715099780306707,1036.3813936719462
3703.3943,0.7704100238673903,1230.7445134638047
3704.2483,0.769383459800171,1002.0460674502468
3705.1003,0.7679872728622426,915.9210522763344
3705.9526,0.7662035062363465,1235.0247154164572
3706.8074,0.7644964063820793,798.4914065716882
3707.66,0.7634180399473172,1101.45825978746
3708.515,0.762996566776262,1068.7978202924953
3709.3682,0.7625754499507391,1112.6155375909304
3710.2234,0.7612909820303274,1054.8918493996682
3711.0771,0.7588411144844157,1207.9172406604025
3711.9307,0.755745270291814,794.2595989011719
3712.7866,0.7528619860905346,1044.3174170043676
3713.6409,0.7506894054271904,1290.891053272056
3714.4973,0.7490403859095575,1330.1812467618859
3715.3518,0.7474495626534507,769.2641832830805
3716.2085,0.7456843686892832,1697.8189926158177
3717.0635,0.7439827262072407,750.6872611182743
3717.9185,0.7428185049263439,1595.5052685276985
3718.776,0.7425858507775941,1122.0975866294355
3719.6313,0.7433710095937075,1258.4256628590824
3720.489,0.7448802683872845,1204.116548347367
3721.345,0.7465177717641726,1036.6834494008062
3722.2031,0.7476608585303417,1092.6269292758814
3723.0593,0.7479465043516066,962.1037436622513
3723.9158,0.7474473310030899,1185.1472676804306
3724.7747,0.7465562057082573,939.0548447623883
3725.6316,0.7457593764421443,948.7952231910893
3726.4905,0.7454169236589103,913.7424558757799
3727.348,0.7456459180842877,1453.3589567952406
3728.2073,0.746211576125665,1672.129634997535
3729.065,0.7465247579257934,1079.0989860557283
3729.9229,0.7459319609636688,846.555747195724
3730.783,0.7442149837859103,1708.946485250602
3731.6414,0.7419340452622776,1004.9517655079463
3732.5017,0.7401587895575473,1352.5787461507584
3733.3604,0.7398156088399742,1370.434514127234
3734.2214,0.7410999102190018,1325.2725324556377
3735.0803,0.7434672796675207,1506.0299880550222
3735.9417,0.7461743167540749,797.4896871587608
3736.8013,0.7488480277833368,1154.0024577078323
3737.661,0.7517437659534664,1230.7016442275103
3738.5227,0.7553565711988808,1053.036808346062
3739.3828,0.7596887281041133,1150.816890130731
3740.245,0.7638529768188413,1312.4560555758087
3741.1055,0.7662306486246201,766.5079979759568
3741.9683,0.7653422220021548,1112.1809542774824
3742.829,0.760653375228844,1621.517555301532
3743.69,0.7529387265101039,945.5828127174265
3744.5532,0.7440238272836606,1156.9177470353868
3745.4148,0.7362263373500483,1145.451275955868
3746.2786,0.7313283989784877,1034.1951248003047
3747.1404,0.7299517741060086,915.7104885385666
3748.0044,0.7313191982485324,921.4293698737094
3748.8667,0.7338651141086476,1217.8480451297487
3749.729,0.7361017460001257,969.0868759986579
3750.5938,0.737184201502041,939.080522126096
3751.4565,0.7370251615472707,916.1235041657204
3752.3215,0.7361813003663934,861.6503518317791
3753.1848,0.7356224543742426,1195.6333013761273
3754.0503,0.736386183910669,1290.512142224967
3754.9138,0.7391135992520096,1753.9066733065386
3755.7776,0.7436345188459286,1008.7979384919162
3756.6438,0.748880970568209,1071.7269717492964
3757.508,0.7532168047584211,990.2543719876475
3758.3745,0.755172393161465,858.5400720812804
3759.239,0.7537660387737065,1371.4584949260675
3760.106,0.7482941580351165,1436.6289064303703
3760.971,0.7377765720227243,893.9924126832209
3761.8362,0.7208190354920858,1234.6681296500876
3762.7036,0.6969087994603153,1252.2386861302086
3763.5693,0.6689881378158756,972.7784901947028
3764.437,0.6441940198288784,1031.963529073597
3765.3032,0.6316180514404477,1255.0841634743815
3766.1714,0.6363215115337649,982.9435600667547
3767.0378,0.6555584506657082,1357.7404834276654
3767.9043,0.6806096390482523,991.5534270255193
3768.7732,0.7027189422438525,1058.4982713914653
3769.6401,0.717423611645556,1211.111057450465
3770.5095,0.725177542278874,1391.6123268531667
3771.377,0.7285560849932655,986.4815389092832
3772.2466,0.7301718320124788,1196.0342160513155
3773.1145,0.7316982663003629,1735.3856547179612
3773.9824,0.7338392253259133,1532.1586292334314
3774.8528,0.736411861391475,1154.8874453170372
3775.721,0.7385566495172109,1184.5523103121902
3776.5918,0.7393013851205867,1304.9949680053553
3777.4604,0.738153471937449,955.445979087877
3778.3315,0.7354595846058216,975.3261154769274
3779.201,0.7322695520084482,1284.87462815697
3780.0703,0.7297692332203518,916.9051651890239
3780.942,0.7287364631698311,1478.686092046496
3781.8118,0.7292554443025643,846.5461199261291
3782.6838,0.7307838066273538,894.112754905662
3783.554,0.7324669500202322,901.7132279782156
3784.4265,0.7334984030411588,1009.3411952399595
3785.297,0.7333223288928332,1123.257824158131
3786.168,0.7317849710940142,986.9070369235905
3787.041,0.7291912644317734,1112.8319435388926
3787.912,0.726279425631445,1055.851633236113
3788.7856,0.7238745866150442,1314.1728098172555
3789.6572,0.7224908315703044,1493.067860518995
3790.531,0.7220250929919432,1626.8646637813774
3791.403,0.721943184798107,1362.9025899530425
3792.2754,0.7217257942666245,1258.5230195344654
3793.15,0.7213597589577664,1095.2971586777799
3794.0225,0.7218008854443898,1223.4310816617146
3794.8972,0.7254487735126085,1381.2552837331916
3795.7703,0.7360762712808496,1176.3816786702027
3796.6455,0.7572270463610922,1514.8847384543578
3797.519,0.7883401628148214,1143.1521429344302
3798.3926,0.8219721313633473,1548.917655409975
3799.2686,0.8454522566357056,1358.7240904432215
3800.1426,0.8480573380377177,1168.3774190569832
3801.0188,0.828856152555096,1073.3502215812402
3801.8933,0.7972181835358334,1134.6995418765732
3802.77,0.765749972146233,1232.9052928300969
3803.6448,0.7430414869380898,1095.113450095685
3804.522,0.7304957842021622,1354.1581343662067
3805.3972,0.7251308732953792,1395.829636699912
3806.2727,0.7230840818703526,1377.5972644126075
3807.1504,0.7220983646146114,1250.7443534738338
3808.0261,0.7218097127864805,1214.611484204362
3808.9043,0.7227774414085596,1264.6987450736688
3809.7805,0.725321389434858,1191.5854208817211
3810.659,0.7290123165752485,1118.8884285980948
3811.5356,0.7328671070602133,977.9672483160929
3812.4126,0.7359201428484647,1136.2220184475366
3813.2917,0.7375046576243014,982.1564788279583
3814.169,0.7373237929393718,862.6244134286105
3815.0483,0.735518998959941,1195.340755245928
3815.926,0.7327166783211188,1305.0065123931201
3816.806,0.7298338111420622,1106.0318934600373
3817.684,0.7276967185528608,1424.017745676967
3818.5623,0.7266275849206713,1097.7339360198941
3819.4429,0.7264548590575816,1656.593177831241
3820.3215,0.7267797272685002,1207.2522820366803
3821.2024,0.7272005964772699,1108.6188888775412
3822.0815,0.7273052029617268,1105.659516781172
3822.963,0.7265885117230767,993.0925024171141
3823.8423,0.7245425406074258,1198.162333731997
3824.722,0.72091294687317,1476.5949510809467
3825.604,0.7158875532510102,1338.2616339685094
3826.4841,0.7100812909226063,1017.4050163691468
3827.3665,0.7041614092470059,1137.6715856826056
3828.2468,0.6986801386440049,1193.2049243995818
3829.1296,0.6938690947427465,1182.0849187603797
3830.0105,0.689762099019555,1553.027664731345
3830.8916,0.6861052681206193,1586.1038624913235
3831.7751,0.6823697478117104,1088.124773107914
3832.6565,0.6778854552068626,1705.3963305226955
3833.5403,0.6721025519403412,1230.675182767993
3834.4224,0.6650842311819791,1382.6182555848998
3835.3064,0.657573141231462,1260.3285778792947
3836.1887,0.6509146782206668,1811.1045363272826
3837.0713,0.6465141946140873,1302.414830917261
3837.956,0.6454282896180387,1851.4122636715726
3838.839,0.6480171925917488,1786.3673114995302
3839.7244,0.653881889350716,1287.8428322611587
3840.6077,0.6620384349069176,1158.9544792401375
3841.4932,0.6713715124986462,1463.4541618719597
3842.377,0.6807735413835391,1185.5337395188396
3843.261,0.689411852411808,1177.7092138939365
3844.1472,0.6967315014542517,1564.8533357197396
3845.0315,0.7025316370816089,1297.7559026613665
3845.9182,0.7071907478268736,1375.7313756463427
3846.803,0.7114449842346431,1631.6725148864898
3847.69,0.7160641149044912,1417.3258574229003
3848.5752,0.7212696716489114,1293.3261081194287
3849.4604,0.7266849185667126,1313.1652299936636
3850.3481,0.7317147887355021,1097.3176719061846
3851.234,0.7360538198702855,1151.2747566467572
3852.122,0.7399365946646119,1147.3483190859788
3853.0083,0.743721488477352,1159.5812487822413
3853.8967,0.7475824685949932,1131.163990395295
3854.7832,0.7514006520305088,1007.0138346988269
3855.6702,0.7550384633982767,1260.9984832328184
3856.559,0.7583896526314703,1242.445499075809
3857.4463,0.7612848476974464,967.4449534483102
3858.336,0.7635520945382157,1074.2168581830324
3859.2234,0.7651085551726192,1001.0966023355211
3860.1135,0.7659962784951988,1017.035239373434
3861.0015,0.7661242118796154,827.6966599178577
3861.8896,0.7651994092692022,980.0216285647014
3862.7803,0.7630058145162769,1000.7419680646585
3863.6687,0.759846650557289,1069.4920441358774
3864.5598,0.7565192767369581,1549.8413424635587
3865.4487,0.7538826920981587,1132.7638193453568
3866.34,0.7522130652010968,1680.690541987889
3867.2297,0.75108645631114,1041.6071903620116
3868.1213,0.7496835750920875,973.4678832580099
3869.0112,0.7473307323646128,927.5768649213891
3869.9014,0.7437536785791358,1056.0756122380103
3870.7937,0.7389909940312599,1100.71876354173
3871.684,0.7332089184485528,1237.5097633623684
3872.577,0.7265106234227374,1330.2664237643446
3873.4678,0.7191024296294641,1211.7832169265216
3874.361,0.7112087950263412,1287.0057771735076
3875.2524,0.7031578205036122,997.2093952543587
3876.1438,0.6952093236659007,1399.031540901525
3877.0376,0.6876712732753283,1113.9863333872872
3877.9297,0.6809524642070175,1497.7514249875064
3878.8237,0.6751516351817761,1264.356668582712
3879.716,0.6697484395634643,1512.8880121160046
3880.6108,0.6634489393352291,1306.0905359845394
3881.5037,0.6549344490180686,1076.6486956038373
3882.3965,0.6437577170696679,1837.2814785719552
3883.2917,0.6309158274079741,1805.6041099892857
3884.185,0.6185171645251455,1665.1732273544417
3885.0808,0.6083232428789233,2771.604524841956
3885.9746,0.6009011482665146,1996.0405087393904
3886.8706,0.5953815060422554,1804.4744860773462
3887.765,0.5905119593448448,2282.537990061622
3888.6592,0.5855792536022788,1755.0030343900783
3889.556,0.580865859080695,2436.6815699056206
3890.4507,0.5774581523809348,1867.7508305823885
3891.348,0.5766192811625864,2572.071290453817
3892.243,0.5792796946193014,1727.6742184601967
3893.1406,0.5856862106648928,1306.6585852138599
3894.0361,0.5952903242409507,1895.212827935395
3894.932,0.60702711380143,1552.9236500352877
3895.83,0.6195628316993124,1637.2688207665
3896.7263,0.6315167072794831,1969.2573609338065
3897.625,0.6420314296368749,1238.861060527846
3898.5215,0.6508005159117414,1739.5771659487616
3899.4207,0.6582909378412519,1482.287828848421
3900.3176,0.6652993500349343,1263.6400466682203
3901.2148,0.6727155908613847,1392.9297388930092
3902.1145,0.6811423595953126,1251.534379014775
3903.0122,0.6907410908184236,1626.8191507179345
3903.912,0.7014674338623385,1188.0849481961409
3904.8103,0.7129284940431138,1170.2424427759192
3905.7107,0.7244703078532032,1036.1987482875516
3906.6094,0.7350415208217015,1149.1084444188423
3907.508,0.7438422400073512,877.9098366437833
3908.409,0.7508694012366326,945.8564374210076
3909.308,0.7570059630495095,1101.5040816915273
3910.2097,0.7634690705825237,1203.511976274899
3911.1091,0.7707258761032614,1298.3754699791853
3912.011,0.7782170787877328,1071.8806584576785
3912.9111,0.7847092872626633,888.3655444917691
3913.8113,0.7893583256428949,1018.1576603364301
3914.7136,0.7922405327165393,926.4576451491937
3915.6143,0.794196659024229,971.3016733567185
3916.517,0.7962558872503817,897.2365113386941
3917.4182,0.7990381404964861,986.2577753670602
3918.3215,0.8026028651144629,902.0683832981542
3919.223,0.8065445719925837,832.1254654176344
3920.1245,0.8103520513915138,1008.3966935246606
3921.0286,0.8136501992722437,781.3059887454141
3921.9307,0.8162989218715667,877.9232082173935
3922.835,0.8184466641434355,1013.5983364262225
3923.7373,0.8204127806453568,853.0421621791148
3924.642,0.8225786245339551,900.4876432398478
3925.5452,0.8251203947614649,889.6814486962669
3926.448,0.8278942679177185,843.7708583834009
3927.3535,0.8305164526865045,770.7766185812723
3928.257,0.832588459975476,722.9006659153328
3929.1628,0.8339126644977768,878.6354365624994
3930.0667,0.8343937088162179,824.9304087602424
3930.9731,0.8338845160625853,984.924292266055
3931.8774,0.8321255751489852,693.3905704415632
3932.782,0.8289158581415939,971.308327289772
