wavl,flux,ivar
3566.9744,1.0078879768979796,7.307724486974353
3567.795,1.0103027744764996,12.453241957245272
3568.6177,1.010432155021025,8.251873400494338
3569.4385,1.0078462725877282,7.66573712537047
3570.2617,1.0022973854740864,4.613887257938591
3571.083,0.994133456290569,10.152956628293623
3571.9065,0.9843194019927037,4.5289343307950585
3572.7283,0.9742213187603082,36.40236150849636
3573.55,0.9649380121591714,15.58602254173541
3574.374,0.9571528757908144,10.454522382447472
3575.1963,0.9513366102988653,15.618337475510996
3576.0208,0.947862690052203,10.637584500598363
3576.8435,0.9471010339309035,7.225502413918178
3577.6682,0.9489740628685294,10.240088972952204
3578.4915,0.9526275292010412,9.19254786505846
3579.3145,0.9567952150249848,20.79719991184342
3580.14,0.9608045621256491,6.316522543356027
3580.9636,0.9650331387520289,5.237440544318219
3581.7893,0.9701267430784897,6.714166027278377
3582.6133,0.9755505450483677,13.95859674736459
3583.4395,0.979533175153979,7.970497131894414
3584.264,0.9804262924992373,29.778166223484376
3585.0884,0.9782593117234681,11.5190430494548
3585.915,0.9746393597627646,7.4070417749515975
3586.74,0.9714004403457392,9.030069731354205
3587.5671,0.9691814458070495,10.458033434435084
3588.3923,0.9672085161941029,11.735638895086232
3589.22,0.9640411140611369,8.651701846316982
3590.0457,0.9588136105575894,8.415018133426651
3590.8716,0.9519236916449565,13.672186125739884
3591.6995,0.9448030642023978,22.928646018043153
3592.526,0.9389451811012647,10.615740175822596
3593.3542,0.9348924125687215,24.017531956537162
3594.181,0.9322512207679514,13.096125879447747
3595.0098,0.9302617632299091,11.071514251754866
3595.8367,0.9286002789420262,16.15775516567835
3596.6638,0.9277335555430792,9.449254904898757
3597.4934,0.9287523272007376,8.27811573221551
3598.3208,0.9324954467006883,7.561717745909847
3599.1506,0.9385606384369596,4.49214554999227
3599.9788,0.9450436318706884,7.373333901609769
3600.8088,0.9496717607905817,36.25295653709336
3601.6372,0.9509668899620264,19.72100141765835
3602.4678,0.9485330098693892,9.47784246312807
3603.2964,0.9424111056728003,9.229737057664208
3604.1252,0.9329096057328792,21.893903052067706
3604.9565,0.9213402518649008,17.381587906768857
3605.786,0.9105059204053453,14.117188808621686
3606.6172,0.9032631278357711,6.942982223572016
3607.447,0.9005873311708855,20.142910771782198
3608.2788,0.9005302457340255,6.80087569443347
3609.109,0.8997292888944233,7.55447616159295
3609.9392,0.8962135356139087,13.369755602955268
3610.7717,0.8912205210048076,7.656519701879564
3611.6023,0.8884283970127023,7.433759704692838
3612.435,0.8908305216519476,11.259380880122265
3613.266,0.897920109584661,11.060846142158287
3614.0994,0.9057805838853439,10.597074134290585
3614.9307,0.9102988285888027,8.490746199137646
3615.7625,0.9109091268550755,10.87801802341791
3616.5962,0.9108219894136126,12.292698322583455
3617.4282,0.9137142899476889,24.565229239143644
3618.2625,0.9202259522509578,25.88866270913168
3619.0947,0.927820762584898,7.048818971533631
3619.9292,0.9340404676450381,7.805684311423176
3620.762,0.9390377142832196,11.944661749592793
3621.595,0.9449097694607006,13.984698344606311
3622.4302,0.9526000443976878,14.731885771540744
3623.2634,0.9601974897205151,5.628594749674709
3624.0989,0.9647236084119704,5.207715847722673
3624.9326,0.9650799330615265,12.017149183442712
3625.7686,0.9634036562536277,15.78914027768772
3626.6028,0.9634031174126171,29.231979219885087
3627.437,0.967328486564618,41.719596948352276
3628.2734,0.9740673655855767,6.970601647350026
3629.1082,0.9795148199766636,12.115692638364612
3629.945,0.9789557107331346,15.846343599996455
3630.78,0.9694571557751229,7.254108632752503
3631.6174,0.9511263302223051,10.43515763830362
3632.453,0.9272303777351872,8.387002048118408
3633.2883,0.9026277409367089,11.306925689992706
3634.1262,0.8817961184804733,8.297896626764489
3634.9622,0.8670835114786649,15.80832251839344
3635.8005,0.8577483639433835,7.000855609446036
3636.637,0.8514096417487893,17.366785987543082
3637.4756,0.8457731205647327,9.699066180176942
3638.3123,0.8401362387511218,18.559874562810574
3639.1492,0.8353118859358692,15.543398321283128
3639.9885,0.8327528624277608,16.511664873495196
3640.826,0.8335502171331837,42.264124358184276
3641.6653,0.8379639314097046,6.338358944346237
3642.5032,0.8455496386139839,7.864611353512425
3643.343,0.8555054280940552,11.57871481295036
3644.1812,0.8666469985158758,9.303831763510118
3645.0195,0.8774958700542842,6.835108943438872
3645.86,0.8862916183119379,10.974223584484378
3646.699,0.8913885261822362,28.072632075894216
3647.5398,0.8920648657024575,7.565728623932532
3648.379,0.8887843373998887,9.423349626284805
3649.2202,0.8828360960826842,17.952956480402133
3650.0596,0.8756877439232481,9.03625637722419
3650.8994,0.8686044389180604,23.955104079275216
3651.7412,0.8628182174515969,8.298898041310716
3652.5813,0.8593061673066985,22.036898816161326
3653.4236,0.8579015731502561,5.147177052304707
3654.2642,0.8569516466408944,67.35038689072819
3655.1067,0.8542023514667132,21.65809648726387
3655.9475,0.8485908251001526,17.769408813367434
3656.7886,0.8412992518181458,5.340570305690842
3657.6318,0.8352666710022696,6.6651755962554615
3658.4734,0.8334235462974873,37.08936970854868
3659.317,0.8365884983721658,16.80838912604591
3660.1587,0.8426770648180154,15.053869965961722
3661.003,0.8480175908295156,12.252388516667533
3661.845,0.8498978054055103,6.616740135676262
3662.6875,0.8483870138662613,9.486646557705836
3663.532,0.845361289003649,37.842492207887496
3664.3748,0.8419359845931168,10.204009356968854
3665.2197,0.83690021133161,12.955240026651643
3666.063,0.8280940406717903,6.109466633941015
3666.9084,0.8150738895445955,13.319765540735265
3667.752,0.800692141236666,22.860684344899518
3668.5977,0.7894859531535272,9.567860888351763
3669.4417,0.7848812885411551,16.357655426092535
3670.286,0.7868174152329668,10.925528956460775
3671.132,0.7923576846600767,13.610195269315568
3671.9768,0.7982893265817907,18.508110612704886
3672.8235,0.8036539948452142,30.769057262665928
3673.6685,0.8096953685981472,19.20030749343239
3674.5156,0.8179337146371852,14.91513721402708
3675.3608,0.8282199454915522,10.582817280086699
3676.2063,0.8388369494554081,17.542603116283793
3677.0542,0.8476915294624117,22.502492615333672
3677.9,0.8533199327358064,30.15734482680965
3678.748,0.8551458011692231,14.615975672968668
3679.5945,0.852896175378229,9.90989403277733
3680.4429,0.8465464613825043,7.250252356258331
3681.2896,0.8370130573798222,14.886043427140539
3682.1365,0.8267003410729196,7.9617209463555305
3682.9856,0.8189047970782942,38.22976156525512
3683.8328,0.8159609255661933,18.198826020240894
3684.6824,0.8175680959173133,13.901003943459271
3685.53,0.8211532430933574,12.020108404402745
3686.38,0.823721069716799,21.81169360035821
3687.2278,0.8235176949147706,16.78563293933411
3688.0762,0.8204701635357711,10.406293384907832
3688.9265,0.8153794430742912,15.33603590931804
3689.7751,0.8089041957196791,11.560991566545832
3690.626,0.8009559946093314,13.944145754676246
3691.475,0.7912701996459686,15.646897737580723
3692.3264,0.7802654679863803,12.556621301186995
3693.1758,0.7697645739681785,60.73259948173929
3694.0254,0.7622257667977768,23.706967111250357
3694.8772,0.7595292591486501,19.33006297611272
3695.7273,0.7619537435131293,11.580791950994037
3696.5793,0.7682027630171647,24.21032668850148
3697.43,0.7762296284234259,14.135084651685515
3698.2825,0.7841209123605482,17.056876265402703
3699.1333,0.7903207859302868,42.18931399508136
3699.9841,0.793909381101195,33.97863877016066
3700.8374,0.7947438236569553,11.581313172577243
3701.6887,0.7934286502223978,12.637865651112465
3702.5425,0.7908925009455176,10.891916793534502
3703.3943,0.7880435184796416,15.504780537549237
3704.2483,0.7856875273636638,9.609198818382977
3705.1003,0.7844145783045866,29.5060438377369
3705.9526,0.7840540465672388,57.57209626045892
3706.8074,0.7835414292389626,11.416921083202476
3707.66,0.7817283520484605,9.784218813325477
3708.515,0.7785296667197041,20.470853379203568
3709.3682,0.7752020992871871,7.60337020217979
3710.2234,0.7732706524000659,16.15932837683275
3711.0771,0.7732083086990039,11.091754180353854
3711.9307,0.7738230610631945,22.368726535264038
3712.7866,0.7728662714660914,8.817823385434556
3713.6409,0.7684446288568932,88.06053901009412
3714.4973,0.7603796208452306,30.55724753412221
3715.3518,0.7506678793851833,25.381040331769682
3716.2085,0.7423054411306969,27.200437861705247
3717.0635,0.7377880919336669,19.13472326471839
3717.9185,0.7380420186747216,13.450210724313955
3718.776,0.7427507466125133,21.226098913474218
3719.6313,0.7508942426722919,10.522596514062295
3720.489,0.7611356050273663,15.82155671700153
3721.345,0.7718185786959124,17.768627458624017
3722.2031,0.7815342804445754,15.63958598164692
3723.0593,0.7893488573089721,8.012681583837871
3723.9158,0.7948747375414754,16.69346612413751
3724.7747,0.7976885452816368,15.957595423631908
3725.6316,0.7971037394558831,13.99072990530341
3726.4905,0.7925010678173652,30.414100334490758
3727.348,0.783829953591841,10.509408989561397
3728.2073,0.7718760514877624,11.515202925826797
3729.065,0.7584746747800235,12.489688316537062
3729.9229,0.7460306612218844,40.8667518059852
3730.783,0.7368107302951319,15.546522391732887
3731.6414,0.7320702101674186,13.41094273700885
3732.5017,0.7315013752511114,23.665191759076293
3733.3604,0.7336300905555692,15.960802186179485
3734.2214,0.7365443106885892,15.733398159242316
3735.0803,0.738695523044559,21.93448013376542
3735.9417,0.7395576506630973,14.435988643259536
3736.8013,0.7396504064879409,13.719561946022246
3737.661,0.7399222250089653,20.437321329859543
3738.5227,0.740819149944428,14.34534879299338
3739.3828,0.7418588230667967,26.18453509244564
3740.245,0.7421636779418489,20.744574926391095
3741.1055,0.7414749058129362,11.21363035019221
3741.9683,0.7406530780264953,26.042530942630822
3742.829,0.7410298217624635,11.942551416893574
3743.69,0.7431752783435591,9.262527372488087
3744.5532,0.7464208190817179,16.32563797589795
3745.4148,0.7495263247621784,25.79879317270631
3746.2786,0.7517650267906096,16.357593785334004
3747.1404,0.7531370142242921,15.571791226440359
3748.0044,0.7538911296993815,17.16681901134454
3748.8667,0.7540222761348434,23.128227643645342
3749.729,0.7533557829360416,13.611116347829906
3750.5938,0.7518433961088357,17.473179053297645
3751.4565,0.7496099121398158,33.03643573465172
3752.3215,0.7466057659859049,14.390602237868942
3753.1848,0.7424413764104895,34.96735489469004
3754.0503,0.7366375874200061,32.41463646484612
3754.9138,0.7293810807270946,8.360744489258872
3755.7776,0.721830249161613,13.494913332683758
3756.6438,0.7157253670101416,25.524191323930804
3757.508,0.7123038129921762,22.760857725813736
3758.3745,0.7113040769573112,13.787335383804633
3759.239,0.711339281072797,14.24134159718584
3760.106,0.7111953766590023,13.18761706878771
3760.971,0.7108639881212333,14.227920004262185
3761.8362,0.7112530557802571,14.392014839324117
3762.7036,0.7130862761643117,13.212436452897961
3763.5693,0.7161347774528919,8.98675900503303
3764.437,0.7193266263873195,19.067351589896184
3765.3032,0.7212000968553339,21.175718944444416
3766.1714,0.7204191942382616,14.482105220866579
3767.0378,0.7161545639115025,20.766349813921973
3767.9043,0.7083640592917841,24.301697458806462
3768.7732,0.6977418018273216,20.089678959430202
3769.6401,0.6855136992379972,12.62810043371882
3770.5095,0.6729119140326906,20.884953701584685
3771.377,0.6613603171970299,14.392538739278066
3772.2466,0.6523180332969389,15.596788380808697
3773.1145,0.6472041349358096,194.45407987918983
3773.9824,0.6464389120554653,23.586699179810488
3774.8528,0.6488978109527744,21.743687567180523
3775.721,0.6523136291961082,19.064253782519657
3776.5918,0.6548588117934001,33.66898081592271
3777.4604,0.6563138278829711,18.232755778082044
3778.3315,0.6577870935463835,12.35506505000086
3779.201,0.6602374170826256,39.40878766753285
3780.0703,0.6635569460378845,32.906966002851675
3780.942,0.6668583259602787,290.7712308143324
3781.8118,0.6692157874624876,15.681884229084423
3782.6838,0.670061169873549,13.51383281666181
3783.554,0.6691205106439061,24.087207822480774
3784.4265,0.6665119055594464,24.906449652070407
3785.297,0.6629734956028683,16.201946247584125
3786.168,0.659764570840948,24.744621657931745
3787.041,0.6582231158405183,35.81230604574394
3787.912,0.6592099916347657,32.018859081371694
3788.7856,0.6627836748696763,17.164928788330016
3789.6572,0.6681672563482332,30.829064444869154
3790.531,0.6739959197503955,17.739652654481628
3791.403,0.6785770660696403,16.801736697008597
3792.2754,0.6804615358848487,19.980733727604335
3793.15,0.6788246212863345,44.880731703043864
3794.0225,0.6737199477052944,16.146934472127832
3794.8972,0.6659847196951806,16.362346324186113
3795.7703,0.657086578406561,16.294428663763075
3796.6455,0.6486386500745633,12.678688955105368
3797.519,0.6420834881649558,11.843639196462298
3798.3926,0.6380626061456274,24.64320041879824
3799.2686,0.6361492975192625,26.00263468751167
3800.1426,0.6350012160206728,31.393880521618154
3801.0188,0.6330930596941964,12.22651526845655
3801.8933,0.629699989770514,14.40719707340595
3802.77,0.6253465580283163,59.673088018184096
3803.6448,0.6216571316688358,13.704770217731655
3804.522,0.6205816901336302,15.111439345649396
3805.3972,0.6235060810039126,30.647076652967236
3806.2727,0.6303993089429584,29.778707783574166
3807.1504,0.6397004176511168,40.914681992018345
3808.0261,0.6490232228817269,14.066560532545473
3808.9043,0.6565154875502633,44.055659235185985
3809.7805,0.6612382890920019,19.53561996149643
3810.659,0.6628350542637192,36.670930556771566
3811.5356,0.6607968273573052,23.88211092019989
3812.4126,0.6547123694031765,14.448275483983
3813.2917,0.6451897578013901,18.2563839398627
3814.169,0.6345436779055316,31.490177149095242
3815.0483,0.6259561207573217,21.183238681115792
3815.926,0.6220393661055863,19.241618545907567
3816.806,0.6233651263897307,35.72238251019822
3817.684,0.628403278178654,34.96664141397176
3818.5623,0.6346660493427095,28.82660738764288
3819.4429,0.6403139925358122,28.920431123064233
3820.3215,0.6449659502452585,22.53176679096475
3821.2024,0.6493626261976033,27.332155397728144
3822.0815,0.6540480339081507,15.356262304176685
3822.963,0.6586113546062777,27.212012322187174
3823.8423,0.6618534886026758,16.529332482600346
3824.722,0.6628248663539982,19.298275263409906
3825.604,0.6614564273201097,26.43851325319246
3826.4841,0.6584577877936133,25.438569957065102
3827.3665,0.6547424747270444,25.45504100436642
3828.2468,0.6511926734280784,19.06853743327606
3829.1296,0.6485014836812306,22.080417455683136
3830.0105,0.6467919980946091,34.61817078241802
3830.8916,0.6450267950808269,12.983775405698148
3831.7751,0.6414255299990727,13.186867482501185
3832.6565,0.6350779125976612,23.877358429484996
3833.5403,0.62724410200695,35.89871526204417
3834.4224,0.6210576941430337,37.03822284797936
3835.3064,0.6193072300988447,25.614533393956144
3836.1887,0.6225207424370327,24.217170288345482
3837.0713,0.6287178099165242,16.723795742846868
3837.956,0.6350157567043925,23.313040333907225
3838.839,0.6393677453619466,30.357892574389943
3839.7244,0.6412642417578854,26.387801267198853
3840.6077,0.6410607287385781,24.54926268911372
3841.4932,0.6392787085875746,22.777844669021363
3842.377,0.6364830163636129,19.265681738605803
3843.261,0.6334931936740887,22.304934709574656
3844.1472,0.631367160332829,15.306964547316694
3845.0315,0.6310203930357369,25.01591100750738
3845.9182,0.6327696731914747,36.40098485562439
3846.803,0.6361245819454217,30.879281738463668
3847.69,0.6398959147168448,14.92435794642342
3848.5752,0.6425764302106682,28.04086880166456
3849.4604,0.6431428820950552,16.6238503928632
3850.3481,0.6417422473962805,20.093360421538993
3851.234,0.639827225123337,35.541980435062754
3852.122,0.6392716707888247,30.257339968343175
3853.0083,0.6410109025235794,28.89540953049432
3853.8967,0.6442770107894152,20.691461981033008
3854.7832,0.647155866832092,24.457897792068152
3855.6702,0.6480659142000319,27.21601913709182
3856.559,0.6467929685686274,18.850475650994493
3857.4463,0.6444800852423176,23.87840625170619
3858.336,0.6426776333936913,18.552555136807317
3859.2234,0.6423797378778974,32.475524006606086
3860.1135,0.6436674857996946,15.285605770118764
3861.0015,0.6461204978105592,15.838391073985363
3861.8896,0.6494195748095799,28.95138765401171
3862.7803,0.6534956626410487,18.892656312149036
3863.6687,0.6581390234602188,19.761308618458497
3864.5598,0.6627016587082324,16.56343854950503
3865.4487,0.6660377673339248,21.867353441296835
3866.34,0.6670142922273153,36.063727170209795
3867.2297,0.6649502216645191,33.095611540120274
3868.1213,0.6599491972426033,29.62425270434275
3869.0112,0.6528844118589162,18.46554786123775
3869.9014,0.6448409060234495,99.83296100542051
3870.7937,0.6364875629054092,22.25323101579604
3871.684,0.6280021904995338,14.795674789999417
3872.577,0.6195408890591388,25.656042027918463
3873.4678,0.6120579472268133,24.397495298420914
3874.361,0.606974104973973,45.536769880096145
3875.2524,0.6053565701888077,26.101388298645936
3876.1438,0.606992759832483,37.005252049471395
3877.0376,0.6104550884444824,24.98663064571228
3877.9297,0.6137442015418285,28.79612128653439
3878.8237,0.6151018780417423,32.79559998477968
3879.716,0.6133395194362148,27.215894944782757
3880.6108,0.6079206219074861,28.415700171763365
3881.5037,0.5991234750227958,43.23369230421156
3882.3965,0.5880624380363102,37.7804020747116
3883.2917,0.576399926973293,30.843803435976515
3884.185,0.565807775181465,29.005286047989586
3885.0808,0.5572188678080425,42.00584194278593
3885.9746,0.5508745027395221,31.636376032248343
3886.8706,0.5463100928384417,41.02347016494988
3887.765,0.5427958257252559,51.63980544030318
3888.6592,0.5396876551822256,28.974839170962337
3889.556,0.5367993911241028,37.93347056838783
3890.4507,0.5343889880468953,33.74454679107023
3891.348,0.5327580639389267,34.5164078805893
3892.243,0.5320488823443427,26.939100198737968
3893.1406,0.5323474396410539,43.738051282773
3894.0361,0.5339468368885264,28.827980068771954
3894.932,0.5372659166860178,52.24195410738214
3895.83,0.5424490416497263,26.77214909082939
3896.7263,0.5489925910957054,30.89477820197404
3897.625,0.5559495413853017,23.26405238952186
3898.5215,0.5622789097284405,19.072686784421
3899.4207,0.5674901798105337,66.83946832930174
3900.3176,0.5717466346434685,27.104314752207696
3901.2148,0.5757556985610033,24.639516249374296
3902.1145,0.5801649497687491,21.92839542197674
3903.0122,0.5850034835721363,28.106879732147224
3903.912,0.5896644298109663,32.035369692880735
3904.8103,0.5933019235385499,22.84863818365247
3905.7107,0.5955978538573033,20.732133125462493
3906.6094,0.59696441588867,25.91982822302908
3907.508,0.5981121789131335,19.24397999364469
3908.409,0.5993037936157588,27.181490324397544
3909.308,0.6001732012997832,19.70758642080882
3910.2097,0.6002744230464783,28.91213563967425
3911.1091,0.5995836637063358,20.87844896899486
3912.011,0.59838349226582,19.0717687385195
3912.9111,0.596908861545564,26.801433456132788
3913.8113,0.5954573547884847,12.192543567122826
3914.7136,0.5948563011376311,22.390021699144135
3915.6143,0.5963189298836045,64.53851872079728
3916.517,0.6004219518246963,24.124044898656276
3917.4182,0.6062113142124808,38.30221366088911
3918.3215,0.61167813247723,17.529200522166484
3919.223,0.6151227815224828,12.018416445609645
3920.1245,0.6163795105784676,27.756296113649665
3921.0286,0.6165926759839694,21.608930613352147
3921.9307,0.6169970206893618,19.360997900107915
3922.835,0.6177448342984657,25.3614055989106
3923.7373,0.6177966508152075,29.17407213825647
3924.642,0.6159575322039437,19.60374795253662
3925.5452,0.612174303680305,24.513772248427106
3926.448,0.6079920745735968,63.70402979745407
3927.3535,0.6057976227041564,23.158568315224766
3928.257,0.6073942888570382,19.33673948430328
3929.1628,0.6129192109586223,20.325359174586474
3930.0667,0.6209018557033152,17.728651653222858
3930.9731,0.6293242853189696,22.609593392253455
3931.8774,0.6364192127290424,22.832441507713025
