wavl,flux,ivar
3566.9744,0.8191323055033933,922.1079302821105
3567.795,0.8185805863669747,682.2354455332625
3568.6177,0.8196262573710125,851.3762729387056
3569.4385,0.8217057689350666,687.074383810718
3570.2617,0.823844329939521,870.2417158106067
3571.083,0.8247703673606345,756.2928455116321
3571.9065,0.8233080846374193,858.2647063715388
3572.7283,0.8189436355495341,1064.3094827827574
3573.55,0.812306553529919,553.5532697800987
3574.374,0.8050758231152517,1789.0573331286791
3575.1963,0.7992502805562113,1225.633371973925
3576.0208,0.7959948509546736,729.7917479351288
3576.8435,0.7952563309311854,922.2005621342571
3577.6682,0.7961215471968891,950.6468864862767
3578.4915,0.797755660958193,645.7225910117421
3579.3145,0.8000384098703697,1831.550242835964
3580.14,0.8034298974090064,1011.9408614357749
3580.9636,0.8081532302474637,717.3835891977374
3581.7893,0.8135156579845854,929.4212651702169
3582.6133,0.8178209649546079,1285.601345928913
3583.4395,0.8192946979197492,988.3528202428472
3584.264,0.8171029261253665,1199.1440072172588
3585.0884,0.8118449034286446,1249.9107304761799
3585.915,0.8050444575366046,1743.8681948237308
3586.74,0.7983719986953942,838.1525412445095
3587.5671,0.793019838259641,897.032857010571
3588.3923,0.7898102937202712,1144.1950318944978
3589.22,0.7891779297173289,1011.1752684164057
3590.0457,0.7910747953680991,1136.1780458978706
3590.8716,0.7947817169971328,890.4704647196849
3591.6995,0.7991280705230308,873.4649640878591
3592.526,0.8029294635348696,1077.425619012958
3593.3542,0.8054126789624104,1400.4138342702795
3594.181,0.8062256721670099,1003.9363446028706
3595.0098,0.8054093195363217,1566.8667544885911
3595.8367,0.8033411500211833,1571.763349114621
3596.6638,0.800660548519249,714.8082705922005
3597.4934,0.798109178533671,1630.3557603260658
3598.3208,0.7963260062295063,1183.6472313059303
3599.1506,0.7955318697131102,888.3734159909013
3599.9788,0.7953457401927833,976.2959288774528
3600.8088,0.7948320520228828,875.9356470316369
3601.6372,0.793085485756211,1871.8732492410547
3602.4678,0.7900317600066855,1068.1168113556555
3603.2964,0.7868074062371351,1149.8482300277385
3604.1252,0.7851053219703304,966.3026916426369
3604.9565,0.786102719955543,927.285115235366
3605.786,0.7897812432176103,979.7490164100132
3606.6172,0.7951918369826769,772.1690507067087
3607.447,0.8010655957700471,1015.8173964833297
3608.2788,0.8063596758175943,937.0224758223974
3609.109,0.8103510793104209,1072.5808392060305
3609.9392,0.8128103457534204,1082.2904411144077
3610.7717,0.813939002763864,867.4840375024802
3611.6023,0.8141092615634039,877.6324885876812
3612.435,0.8134824244931773,1267.8886602631558
3613.266,0.8118528545147272,719.3763543556639
3614.0994,0.808900423532806,983.4133195398547
3614.9307,0.804656604511749,615.3866097922244
3615.7625,0.7996394687085939,954.2233665761341
3616.5962,0.7946472439752985,1009.641528424377
3617.4282,0.7903740238324898,1069.318053126187
3618.2625,0.787082016701165,1329.999851230026
3619.0947,0.7847271081961137,1238.7646037535296
3619.9292,0.7831365098198709,866.5478301710077
3620.762,0.7823064520651732,1372.1704344364848
3621.595,0.7824877386365974,946.1494361516601
3622.4302,0.7841243306046579,1486.8051807908867
3623.2634,0.7875888267166282,1282.0874629565249
3624.0989,0.792975148827933,926.9584855050596
3624.9326,0.7998747590272077,1014.7909794324946
3625.7686,0.8073663393373451,810.5942393554647
3626.6028,0.8138428308278707,766.8493467108947
3627.437,0.8173459898984731,987.4368755808538
3628.2734,0.8161690676629786,837.2227891082035
3629.1082,0.8097660052630891,780.2275373418175
3629.945,0.7991337824324808,1770.253235642913
3630.78,0.7865661142886022,962.5688588950692
3631.6174,0.7746729917939379,1139.3703685455162
3632.453,0.7659218491787326,1332.6028469491232
3633.2883,0.7619025757441188,963.532942130183
3634.1262,0.7629755129843659,924.2966785290698
3634.9622,0.7679441177024843,791.836822117339
3635.8005,0.7744668530017665,1156.0947692188013
3636.637,0.7800466867869161,850.0169400110409
3637.4756,0.7832661431768675,762.3849432315166
3638.3123,0.7841082459130041,885.4677418531953
3639.1492,0.783487944616867,1374.4026334889902
3639.9885,0.7822259794292316,1075.4199675754862
3640.826,0.7804497100350161,1006.7186280517113
3641.6653,0.7777324595979644,1015.3429151854533
3642.5032,0.7737914865082052,941.6148082201819
3643.343,0.7689193531264689,1246.3794561059472
3644.1812,0.7639686077082701,1253.4238705079156
3645.0195,0.75984872477135,1139.7104229247675
3645.86,0.7571722820599727,1141.107765623769
3646.699,0.756071117248022,928.2583185497078
3647.5398,0.7561351912001844,985.1699488406076
3648.379,0.7565865761306415,1057.2747725561073
3649.2202,0.7565994977222273,987.3317006274257
3650.0596,0.7556518787083486,848.6087080154228
3650.8994,0.7536844190687505,855.9511059819067
3651.7412,0.7509971661268133,1110.324982852092
3652.5813,0.7480534849851538,1057.9502678345223
3653.4236,0.7452728692809365,1694.4493918771718
3654.2642,0.743043980968553,789.2582149995701
3655.1067,0.741670676123003,1169.3973867605841
3655.9475,0.741289738913951,1165.9655973366955
3656.7886,0.7416982086041245,1423.884013218482
3657.6318,0.742494138575504,832.6139354852438
3658.4734,0.7435164032736179,931.231420638096
3659.317,0.7451643174805347,1304.675109489308
3660.1587,0.7480350299452653,1658.1709070848174
3661.003,0.7521993551689602,1088.2100506068025
3661.845,0.7567697910072854,1085.8890964378738
3662.6875,0.7604437028537931,1203.013975369671
3663.532,0.7623184439728639,895.1903174612303
3664.3748,0.7623573649519256,1091.5983423831858
3665.2197,0.7611871944474629,973.4938214777546
3666.063,0.7595805763925086,1050.6491898068475
3666.9084,0.7580862787564521,884.6141894958777
3667.752,0.7569173158719813,999.58864555384
3668.5977,0.7558988026255716,1268.3100180120819
3669.4417,0.7546382448714798,1046.5920245721331
3670.286,0.7529123707790644,1138.6837455698635
3671.132,0.751085652571725,824.6401958035219
3671.9768,0.7500787657410123,1076.754953155591
3672.8235,0.7507589915821647,888.4374021101419
3673.6685,0.7533195288029736,1107.6270862662275
3674.5156,0.7571356405082923,1174.2122709127912
3675.3608,0.7610000794694156,1196.2854550550521
3676.2063,0.763603442321944,683.8007463594936
3677.0542,0.7639686792805235,915.1871214222452
3677.9,0.7619500023112857,987.6846713231332
3678.748,0.7583946927276878,1211.2891860701702
3679.5945,0.75471875551265,1130.428954896629
3680.4429,0.7520703153913455,1073.832188592442
3681.2896,0.7509902710940701,935.4202646750327
3682.1365,0.7516567209092593,847.1722514543355
3682.9856,0.7543249548352002,1647.7671995352719
3683.8328,0.7590650593813101,1393.7307176815348
3684.6824,0.7650665999381073,900.544316692087
3685.53,0.7702609044379191,1011.2216429247211
3686.38,0.7723184931818371,903.700099711352
3687.2278,0.7701045698690255,1012.9849530619715
3688.0762,0.7645670037347917,853.0810132349402
3688.9265,0.7581608673527066,687.8862053287861
3689.7751,0.753468425982963,1077.5583270007426
3690.626,0.751740924137776,865.6471368668824
3691.475,0.7523607495998569,696.128847964686
3692.3264,0.7532063193184024,1054.294725498645
3693.1758,0.7519709459929261,820.9105560851691
3694.0254,0.7477843858827322,1005.3594073815386
3694.8772,0.7420445753166593,1213.7094919543918
3695.7273,0.7377633636347178,1162.7888029329922
3696.5793,0.737497217460342,872.1209676378305
3697.43,0.7416155519709302,895.1556287307043
3698.2825,0.748104245575416,1359.026003770986
3699.1333,0.7539318418796832,1111.238547531923
3699.9841,0.7569665424756877,988.0009403485814
3700.8374,0.7569158815183672,869.2170412650253
3701.6887,0.7550833930829967,892.5460589537066
3702.5425,0.7532326623899176,1309.4239443898377
3703.3943,0.752448498491131,1008.4553252215577
3704.2483,0.7526129077525106,1142.2653255050568
3705.1003,0.7526908063306124,1368.5016762882228
3705.9526,0.7514106967413929,1021.539877900606
3706.8074,0.747934048594653,1418.5185354625548
3707.66,0.7423101381186351,1144.4920472180024
3708.515,0.7353870549945486,1047.2162555376817
3709.3682,0.7285266487568351,898.1299320389638
3710.2234,0.7229566346610496,1157.125360923927
3711.0771,0.719489802478428,1470.5379092900203
3711.9307,0.7183183778499568,1283.0313405468858
3712.7866,0.7191841061785206,950.5603821933339
3713.6409,0.721587354583986,1197.3591124261516
3714.4973,0.7249592865776596,1311.67287627081
3715.3518,0.7286134088594914,1025.3037826430768
3716.2085,0.731790307347748,1062.824563153727
3717.0635,0.7338052998770044,1033.6969713416145
3717.9185,0.7344339062166355,962.0345421989788
3718.776,0.7339557913970176,1324.48650920299
3719.6313,0.7328879908101045,1047.2784796216704
3720.489,0.731673733778351,1122.1493322159106
3721.345,0.7306422629934333,880.3908294456128
3722.2031,0.7300024287493498,1916.9519337297438
3723.0593,0.7297494929675726,891.7879600755533
3723.9158,0.7296369078319511,1146.467060702606
3724.7747,0.7294896103388432,940.1870962846843
3725.6316,0.7295519658076358,1248.625348100248
3726.4905,0.7303736580363522,1010.1053059788563
3727.348,0.7322361585708466,1059.8488710243757
3728.2073,0.73474304776792,814.2047653898817
3729.065,0.7369865843413858,1151.312010000924
3729.9229,0.7382043938792622,1273.4286335767506
3730.783,0.7382427351412125,956.4739037779901
3731.6414,0.7375843227979245,1098.0774523522289
3732.5017,0.7369703776313706,1232.842005980053
3733.3604,0.7369133797795135,1247.9402085910128
3734.2214,0.7374138911030287,1199.0283754833495
3735.0803,0.7380940674176627,1565.288500965435
3735.9417,0.7385931319715192,943.0836677480455
3736.8013,0.7387651389428832,1026.2943692434494
3737.661,0.738517532362496,1137.5676521912947
3738.5227,0.737561507067133,1477.5230361537172
3739.3828,0.7355103693933094,1397.9180324657273
3740.245,0.7322203879211735,838.4151992572096
3741.1055,0.7280522548763277,1786.7973015339003
3741.9683,0.7236711756262194,967.5338706715119
3742.829,0.7198187407419229,958.0506465282331
3743.69,0.717023756954861,1550.562708998664
3744.5532,0.7155367506735478,1167.9390107795984
3745.4148,0.715243633726919,1161.6135432851834
3746.2786,0.7156402173902257,751.6304850303692
3747.1404,0.7160589874557967,980.6551482418665
3748.0044,0.7160337432448801,1137.8970952077968
3748.8667,0.7155749648333748,856.7402853326723
3749.729,0.7152325653712827,1417.2194342388223
3750.5938,0.7159496322684559,1032.8499622088025
3751.4565,0.7186846920936824,1526.1170460233006
3752.3215,0.7238831054611017,1273.8483153660345
3753.1848,0.7309637744207701,1186.1305131644685
3754.0503,0.7384220483799185,1112.723005131327
3754.9138,0.7443153701707681,1115.7538415931488
3755.7776,0.7472499987669494,1881.8291921058049
3756.6438,0.7469359954597478,991.0120892395252
3757.508,0.7443073313491295,1293.208587489753
3758.3745,0.7410470601200227,1071.8719404707224
3759.239,0.7388484666602649,843.3613091429038
3760.106,0.7386277352338424,1191.619018542469
3760.971,0.7401722312051043,1304.490401664569
3761.8362,0.7423242927048338,1207.4429133178396
3762.7036,0.7436904298623578,896.9559192487172
3763.5693,0.7433852291203406,1144.5765193778748
3764.437,0.7413507094665027,978.2028594555658
3765.3032,0.7380830453096204,1140.5206442441443
3766.1714,0.7341038832765607,1217.3902735631361
3767.0378,0.7297144291505522,1108.0253788329408
3767.9043,0.7249796206119153,1247.5287634778626
3768.7732,0.7199580834857005,1130.6548319404685
3769.6401,0.7149541554296549,1111.7526683178683
3770.5095,0.7105088792556205,1424.9673927436183
3771.377,0.7073531259100154,1084.1056884579896
3772.2466,0.7059649663691191,1216.3597198734328
3773.1145,0.7062893060748003,1265.1949008454076
3773.9824,0.707729633980804,1517.7533087249337
3774.8528,0.7096112257164581,947.0031009015566
3775.721,0.7116381962624571,1124.1686136976093
3776.5918,0.7140248762307326,1078.719435402765
3777.4604,0.7171324955494972,1327.7779114171867
3778.3315,0.7211592345639154,1392.4258415857255
3779.201,0.7259168495157222,1389.9609500154331
3780.0703,0.7308993954048945,1143.4321581552563
3780.942,0.7353627052436901,972.2890804043853
3781.8118,0.7385469472932149,751.9845809232913
3782.6838,0.7401085454155157,1181.3667862024013
3783.554,0.7402400462467278,970.4930948202979
3784.4265,0.739461841713379,1519.886163513045
3785.297,0.738164541550257,1086.0465414534594
3786.168,0.7363695475629116,1141.9652997844742
3787.041,0.7338981307573662,950.0908402896982
3787.912,0.7307288957751674,931.0230861618174
3788.7856,0.7270957341065387,983.2398383204595
3789.6572,0.7233863581805596,956.5742179408843
3790.531,0.7197880945941113,1241.4874382172472
3791.403,0.7162336899472359,1110.0154280469028
3792.2754,0.7125370400524217,1158.817485201102
3793.15,0.7087689608021631,1291.8417024946598
3794.0225,0.705387739739953,1095.1056893995378
3794.8972,0.702802809751876,1145.917140726173
3795.7703,0.7009231658329681,1201.750590451554
3796.6455,0.6991163630544648,1045.807384118335
3797.519,0.6969261785545903,1099.2171517529669
3798.3926,0.6947338963929354,1212.3755505501297
3799.2686,0.6936911315258687,1194.8036321710058
3800.1426,0.6948568792146824,1410.518257548208
3801.0188,0.6982930404417235,1151.3698893661458
3801.8933,0.7028965291951383,1006.8349679113553
3802.77,0.7071304093641152,1107.0750622715032
3803.6448,0.7099186393168739,1099.833686240271
3804.522,0.7112951095437999,851.6779676520163
3805.3972,0.7122245126181502,1618.432791073385
3806.2727,0.7139751762840386,1294.3987249631411
3807.1504,0.7174018695774659,994.4363486932913
3808.0261,0.7225011101696435,1142.571968487028
3808.9043,0.7283946761814079,1274.075319539759
3809.7805,0.7334792407683716,811.5677273309889
3810.659,0.7362116011825959,982.8611941549136
3811.5356,0.736001784543059,775.1772919052164
3812.4126,0.7337885444740327,1028.5756182489645
3813.2917,0.7314321328811239,949.2413050533911
3814.169,0.7304725759713205,1148.0287377357863
3815.0483,0.7312893967379022,942.9387712010005
3815.926,0.7333722890678457,1045.068853713774
3816.806,0.7360497266121603,1087.8722856012096
3817.684,0.7387667026948936,1003.4474017027217
3818.5623,0.7409414658966436,1093.659237986599
3819.4429,0.7418484687945538,1428.6851427028953
3820.3215,0.7409261983853993,1214.7847903234897
3821.2024,0.7382129453130049,1189.5944571173768
3822.0815,0.7344227032987628,1104.4391678505197
3822.963,0.7304665421690053,1110.8713729287686
3823.8423,0.7269159054455715,1221.3512507834073
3824.722,0.7236686905926759,1334.1025121045093
3825.604,0.7202443445897337,1126.6146150345771
3826.4841,0.7164391137278056,1351.9891700185162
3827.3665,0.7129413630281234,1162.501127502461
3828.2468,0.7117623900591927,1152.6547751676121
3829.1296,0.7157210252530032,1238.3629049611193
3830.0105,0.7265613905026439,1208.9139932152123
3830.8916,0.7422838199691066,1342.1173789030104
3831.7751,0.7560514545506972,1462.2937699630734
3832.6565,0.7590239114850205,902.8142966123328
3833.5403,0.74640097736166,1359.1686101201476
3834.4224,0.7211588060545244,1299.389444315123
3835.3064,0.6919528762727212,1515.530471071555
3836.1887,0.6678182697188906,1586.3612299217993
3837.0713,0.6534946545271806,1360.597285749642
3837.956,0.6492168516051409,1331.3250384056523
3838.839,0.6525867818950443,1356.8887207423943
3839.7244,0.6605387296427161,1142.803471145892
3840.6077,0.6704735791286891,1179.8835320037904
3841.4932,0.680905476596077,1089.0412101676334
3842.377,0.6913366013137956,1274.1521883648893
3843.261,0.7019370898528056,1288.3741890203157
3844.1472,0.7127166633344495,906.5725406724093
3845.0315,0.7230233213780398,964.2640179252483
3845.9182,0.7320004395393097,919.8950651849764
3846.803,0.7390107314487554,1335.0613422352287
3847.69,0.7440880853501932,873.2520548258728
3848.5752,0.7476338978452519,1026.0973429335763
3849.4604,0.7503028972925732,731.6617947863817
3850.3481,0.7529394901103188,1140.4911414038502
3851.234,0.7564548457878105,960.1455182933086
3852.122,0.7614700698526031,1114.1791941003967
3853.0083,0.7677848842194062,950.0589904673496
3853.8967,0.7744395782906147,1095.8612517524707
3854.7832,0.78012080378232,989.5641818761375
3855.6702,0.783945674692314,969.7931307467953
3856.559,0.7857378035191922,1146.013617526782
3857.4463,0.7858898263834219,832.8808731417809
3858.336,0.7849631946926102,1095.3790924468726
3859.2234,0.7833528113071786,934.6371458499647
3860.1135,0.7812339274985242,897.2397190360006
3861.0015,0.7787977371669813,978.8633120061487
3861.8896,0.7763722101917027,918.1019298733215
3862.7803,0.7743120038434568,1006.3837039950971
3863.6687,0.7727102971460001,1092.7297487213941
3864.5598,0.7712628331520154,967.7188649784842
3865.4487,0.7695729615724717,1127.1451409860258
3866.34,0.7674543775852781,1256.5252707551695
3867.2297,0.7649950440436749,1066.52670972746
3868.1213,0.7622530275426432,1036.453212388169
3869.0112,0.7591099231986608,1002.8056268225719
3869.9014,0.7553615652751333,1048.426989088446
3870.7937,0.7509954915534356,1026.6077461871726
3871.684,0.7462964033230047,1558.8900691335539
3872.577,0.7415846957558946,1027.1270904836886
3873.4678,0.7370859038108358,797.8139074339623
3874.361,0.7327714673028562,1202.1475617346211
3875.2524,0.7284994327579402,922.7682938568614
3876.1438,0.7240323064227343,1107.2989005495263
3877.0376,0.7191529305804338,1056.0175376948284
3877.9297,0.7137232849201731,2087.478147228874
3878.8237,0.7075089946975456,1539.8115462844758
3879.716,0.7001880943308266,1263.203848451337
3880.6108,0.691345158434517,1391.6269017697707
3881.5037,0.6808661356567826,1076.665355007337
3882.3965,0.6689379862438466,1109.555166476849
3883.2917,0.655920722356943,1181.2356184491318
3884.185,0.6421178848218282,1380.9996502636707
3885.0808,0.6273748530207598,1553.2627310718615
3885.9746,0.6116247076210863,1456.45593399426
3886.8706,0.595196122343226,1641.6857254018694
3887.765,0.579535715437637,1933.7597311352429
3888.6592,0.5667814473310387,1617.0501758128132
3889.556,0.5590819015237598,3023.8319207497357
3890.4507,0.5576896211560394,2234.9544844789707
3891.348,0.5623864886427427,1972.0392079596925
3892.243,0.5718179660884677,1652.470825730946
3893.1406,0.5843838665758708,1729.661794065611
3894.0361,0.5987346397818692,1465.7038006671528
3894.932,0.6141489581727717,1741.7589333673238
3895.83,0.6301803791474468,1503.7327533905009
3896.7263,0.6462247019441995,1274.7942673177054
3897.625,0.6616838737766163,1659.1660706589653
3898.5215,0.6757513141026735,1171.3954738934929
3899.4207,0.6879506034840521,963.3857499962085
3900.3176,0.6980830398362279,1126.959645671599
3901.2148,0.7065550292849242,1201.398843441415
3902.1145,0.7140826449964861,1064.698902477777
3903.0122,0.7213064131520891,1235.1755727744123
3903.912,0.7286027694275851,1394.624357751317
3904.8103,0.7358643153129153,1018.8964820278846
3905.7107,0.7428334381800837,924.5373845180613
3906.6094,0.749306032057191,1133.7561683823292
3907.508,0.7554056593420042,1094.1353015700552
3908.409,0.7614480785946331,1056.858480276473
3909.308,0.767727410438502,838.4344079731792
3910.2097,0.774551666862434,1019.9048224851313
3911.1091,0.7821215773012667,1043.1687208071528
3912.011,0.7905528312814574,1041.898050708076
3912.9111,0.79947620193324,995.8813480709887
3913.8113,0.8080382156441277,836.8186085946818
3914.7136,0.815093277395523,682.2645717942994
3915.6143,0.8197355529562472,816.2333364668968
3916.517,0.8219191702658972,898.992763958565
3917.4182,0.8224283707025616,995.2393384453595
3918.3215,0.8224486708302232,788.0937362828004
3919.223,0.8229142175063131,1261.8239982770704
3920.1245,0.8241764804830758,1022.7647423862279
3921.0286,0.8260989372241463,946.1242278291465
3921.9307,0.8283007930079903,799.837545867522
3922.835,0.8303436878549835,721.4082534286828
3923.7373,0.8317306285933989,870.4165469215117
3924.642,0.8320425271112403,824.0943392536002
3925.5452,0.8311372772483426,820.5172582286857
3926.448,0.829281757316335,861.4227461831564
3927.3535,0.8269497942186931,874.8340984675735
3928.257,0.8245118754741017,1034.8779206626043
3929.1628,0.8220696940273047,929.6651507000888
3930.0667,0.8196876350742885,726.6794030516639
3930.9731,0.8175094033450273,1225.1654948586906
3931.8774,0.8156762109880434,898.8826012904943
3932.782,0.8140825433554704,884.720268872517
