wavl,flux,ivar
3566.9744,1.927011279628577,118.09851457391223
3567.795,1.9144313449763624,107.84600117614112
3568.6177,1.9008715101387605,122.92266878809107
3569.4385,1.8879421707576265,120.58082407980694
3570.2617,1.8777422396290153,133.13790425296384
3571.083,1.8720792616726722,136.32100410186922
3571.9065,1.8708905763187962,131.6563820505793
3572.7283,1.8722787643479137,112.83150082690072
3573.55,1.874005424344835,99.35072279464582
3574.374,1.875148418093273,129.03352493482294
3575.1963,1.876189574446124,108.71618940005638
3576.0208,1.8777181428818217,108.99455023236433
3576.8435,1.8792518600905086,108.95946165397658
3577.6682,1.8794833945534126,115.34562129176766
3578.4915,1.8774908590961443,127.65462447810927
3579.3145,1.8736873647009198,99.70406449903244
3580.14,1.869664633296666,110.92269219189824
3580.9636,1.8672557111787906,139.91708723324203
3581.7893,1.8673361948049025,130.5182335275742
3582.6133,1.8692761335528572,115.32842472766794
3583.4395,1.8712880842437245,142.06195328569754
3584.264,1.8714998602625457,149.23711950516673
3585.0884,1.8690481118393345,113.16328860703679
3585.915,1.8643097397611021,141.91366003687233
3586.74,1.8583285544883947,189.05380097588676
3587.5671,1.8518241082457048,146.67135568649454
3588.3923,1.8449311902177365,131.28828705109365
3589.22,1.837539457599822,126.8051393024933
3590.0457,1.8302137351438488,145.18057614540135
3590.8716,1.8242377752449481,112.57180477678784
3591.6995,1.8209059989652703,123.6069698923848
3592.526,1.8204089527800675,124.3064304511207
3593.3542,1.8214167120349631,124.08714529966828
3594.181,1.8218658721856058,112.24387166542476
3595.0098,1.8201612042278505,111.61450059384754
3595.8367,1.8158549818912806,138.30085399153245
3596.6638,1.8095095917300004,142.08281159069182
3597.4934,1.8021681180336817,109.94006475314156
3598.3208,1.7947879205935489,121.47996573765893
3599.1506,1.787503763109875,142.2038087329933
3599.9788,1.779791483332423,145.74814429024462
3600.8088,1.7713360996540177,126.31532876844433
3601.6372,1.763431620787855,119.12240271590036
3602.4678,1.7587530682520893,173.6340998360153
3603.2964,1.759606066365205,167.55616299343242
3604.1252,1.7658555298722893,133.2543424888319
3604.9565,1.7749395069840583,98.41657330733513
3605.786,1.7836701862557471,118.4423073428867
3606.6172,1.7904601665335422,137.26772096924617
3607.447,1.795554365753761,157.50763726475307
3608.2788,1.7998520789270245,140.10107848996947
3609.109,1.8034008964486488,142.69091621873957
3609.9392,1.8053394501313942,129.72078539150786
3610.7717,1.804896651675497,131.6084474794746
3611.6023,1.8023754109917176,131.089539524272
3612.435,1.7990870099842105,132.81557199721257
3613.266,1.7965224934201034,163.2231364432302
3614.0994,1.795424507854123,164.98211862087533
3614.9307,1.7954915537884304,123.8416712437773
3615.7625,1.7956624598325859,126.16070416186773
3616.5962,1.7948533525240482,161.74338117374307
3617.4282,1.7926574125367527,123.59995789260412
3618.2625,1.7894864711476794,148.9181981365124
3619.0947,1.7860915308600689,118.79279194550841
3619.9292,1.7827919857412204,149.43937004735898
3620.762,1.7793208081125094,131.91101680417847
3621.595,1.775188257481886,110.42860281198048
3622.4302,1.7702031124759823,150.61235657450285
3623.2634,1.7646588711444877,190.36544620221466
3624.0989,1.7592338051206555,153.74460416755088
3624.9326,1.7552070710572167,161.63157356211772
3625.7686,1.7542385737025439,141.52274594275548
3626.6028,1.757529156530142,140.29823839420877
3627.437,1.7645148605586023,103.92461638408291
3628.2734,1.7724468875973651,139.64944690446794
3629.1082,1.7773566249840047,146.82272742182073
3629.945,1.7761753706798693,165.17265366345444
3630.78,1.768332347189198,119.65310876281995
3631.6174,1.7559920626995213,147.05841335122426
3632.453,1.7430208025225473,118.93851825279857
3633.2883,1.7329136527048787,145.36548932621352
3634.1262,1.7274131326260154,165.05620251669282
3634.9622,1.726210626581855,132.63545658682753
3635.8005,1.7276747860691248,111.78613854448221
3636.637,1.7299743666768028,125.2947274950036
3637.4756,1.73147060275802,156.07109388801956
3638.3123,1.730443654377419,148.16765718421132
3639.1492,1.7252665200122264,134.39583894303553
3639.9885,1.7154021316122432,184.5171572737631
3640.826,1.7024870789105144,170.841397396557
3641.6653,1.689585542940866,135.63344692799205
3642.5032,1.6794356748338775,183.80185943948248
3643.343,1.672697183539524,163.05698410419518
3644.1812,1.6683805445430222,156.35072010553083
3645.0195,1.6652527790510834,146.8467151405971
3645.86,1.6629250635380726,145.87288977689545
3646.699,1.6615952515629255,155.77103484633227
3647.5398,1.661226523857791,165.93626914309314
3648.379,1.6612577778426652,152.31028463714543
3649.2202,1.6608440905824298,157.21694625364353
3650.0596,1.6591861020977554,127.18986411105038
3650.8994,1.6556760135985429,148.36557437768823
3651.7412,1.6500234179113733,163.88909250175678
3652.5813,1.6425531558075948,148.77987652583792
3653.4236,1.634286394456721,159.96782088894975
3654.2642,1.6268072265185867,126.2421305737801
3655.1067,1.621297212698089,181.99171261093724
3655.9475,1.6177094475496814,164.75731158834233
3656.7886,1.6144590969874104,151.36870917479774
3657.6318,1.6094301184829687,168.6421798088667
3658.4734,1.6016525666191612,161.04596139159673
3659.317,1.5923031554943994,154.97310215688256
3660.1587,1.5844392188135712,134.12998809328695
3661.003,1.581183335826759,181.8049929150173
3661.845,1.5840004892955637,171.79443499115746
3662.6875,1.5918257280310562,149.68245623697635
3663.532,1.6017772438376265,125.46846224033877
3664.3748,1.6106190911282074,139.0267405006262
3665.2197,1.616369869690175,176.99101347377746
3666.063,1.6187423584454657,146.43403669279735
3666.9084,1.6188282216668064,180.3671957564281
3667.752,1.6180893056477617,160.7780950824618
3668.5977,1.617492021655412,160.3030937818468
3669.4417,1.6171151741901593,168.23470981488825
3670.286,1.6163086367917145,153.08849982252679
3671.132,1.614228312778502,169.50199916175083
3671.9768,1.6104083285713287,165.47439139996845
3672.8235,1.6049435931796674,164.05585027793143
3673.6685,1.5983380718862887,169.35157782869
3674.5156,1.5910722726341122,144.53814989539788
3675.3608,1.5836640930028827,146.7110512474319
3676.2063,1.5767573821945378,134.09973654777156
3677.0542,1.5712051844764459,182.02954020432298
3677.9,1.5676571518968645,206.89439757801043
3678.748,1.565892872084559,206.4554281673372
3679.5945,1.5648732642981995,212.72552625212376
3680.4429,1.5633904324120818,189.1500721581306
3681.2896,1.560948781300123,174.88876420943723
3682.1365,1.558008444948309,161.97809216361148
3682.9856,1.5555432476878535,183.49761472756427
3683.8328,1.5543961774249067,190.2103445746639
3684.6824,1.5548955248320169,169.78785127871612
3685.53,1.5568931659821181,213.44593544811661
3686.38,1.559846746756734,206.362143293225
3687.2278,1.5627686455655898,168.62650451397963
3688.0762,1.5643951583258433,135.15793337819025
3688.9265,1.563644600798878,156.74652666454233
3689.7751,1.5602782231504082,166.14077953299844
3690.626,1.5551188977674102,190.72600444010297
3691.475,1.549698150624084,221.19099080937184
3692.3264,1.5454295744809337,170.72860419638903
3693.1758,1.543166305187607,163.96958253359085
3694.0254,1.5430699887486454,174.03053481317133
3694.8772,1.544869460193087,189.0434927223448
3695.7273,1.5479444448243076,175.72293389077123
3696.5793,1.5513299994699123,165.87943694017198
3697.43,1.553781444334801,145.96872361078212
3698.2825,1.5542943920666747,159.95540029275008
3699.1333,1.5526946651607099,193.31263487243191
3699.9841,1.5498313473102283,184.16792954267345
3700.8374,1.5470008463167058,165.5594342393594
3701.6887,1.5451015665556704,159.77223802164963
3702.5425,1.5441346405031542,154.15218620068225
3703.3943,1.543524478384701,192.19332094477687
3704.2483,1.5426820117102382,169.69474392172313
3705.1003,1.5413128956481423,172.82808455286843
3705.9526,1.539247647278959,167.13281626721147
3706.8074,1.5361831949259201,237.71150044716947
3707.66,1.5317235752960048,147.56217780277595
3708.515,1.5255971689199253,170.99128911925914
3709.3682,1.518033307045477,177.38015255047964
3710.2234,1.50969781666507,207.83897729755498
3711.0771,1.5016712327428274,151.37466063273712
3711.9307,1.495168855019193,175.26098981302275
3712.7866,1.491428918742059,231.12876969934624
3713.6409,1.4914370769293284,174.43818739008793
3714.4973,1.49532826192099,152.57958312166818
3715.3518,1.501885790909491,188.31337612527562
3716.2085,1.5087352215353846,160.63354395922772
3717.0635,1.5132563967238606,180.62287048022597
3717.9185,1.514023143843564,186.9046688576287
3718.776,1.5113854029231788,175.88124699008034
3719.6313,1.507016139742842,164.1983600902944
3720.489,1.5026101643699594,181.88568063855604
3721.345,1.498930494027799,266.0597841943534
3722.2031,1.4956815698455521,204.78807774504676
3723.0593,1.4923722903724461,189.83429924449467
3723.9158,1.4890242108722465,229.44783507093973
3724.7747,1.4862102943338398,164.18869970624212
3725.6316,1.4844938279918374,191.46249204404612
3726.4905,1.4838896686878393,233.30533095144452
3727.348,1.4838574271304383,189.78376702711788
3728.2073,1.48358475190818,226.12593599567023
3729.065,1.4824038652659022,193.72803552270972
3729.9229,1.4800761672569827,250.3291739536765
3730.783,1.4767469900855166,198.67730117384573
3731.6414,1.4726915990308296,174.78425410614312
3732.5017,1.4681002296231938,186.40800906993366
3733.3604,1.4632986536452623,197.97723682452192
3734.2214,1.4588458526505395,184.42283804219096
3735.0803,1.4554623153325632,182.5218254500162
3735.9417,1.4535208340114807,193.09206815857888
3736.8013,1.4528068493182626,218.16856423527094
3737.661,1.452519722064895,207.44861657168445
3738.5227,1.4516216663825334,170.46835045709994
3739.3828,1.4492852952584732,213.20832347297429
3740.245,1.4452831682442557,196.25697170016898
3741.1055,1.440198486068036,239.546504276622
3741.9683,1.4350687073155142,210.87930392184288
3742.829,1.4308775722105078,190.1542933226632
3743.69,1.428022470585305,194.86502232262654
3744.5532,1.4263956141600918,229.18977435227163
3745.4148,1.4257183057919547,240.6941716699413
3746.2786,1.4257773296911997,199.96863117287504
3747.1404,1.4264656003093221,241.8904659289602
3748.0044,1.4276375527070098,197.39508140087506
3748.8667,1.4289056254729169,180.51808415190408
3749.729,1.429568657137382,183.41736596939023
3750.5938,1.4287975373082347,204.58380436176887
3751.4565,1.4261670098485653,160.1757430696937
3752.3215,1.4221483273629385,224.56305567012888
3753.1848,1.4181016070112642,215.2694622285965
3754.0503,1.4153626039897758,235.72088156678498
3754.9138,1.4142076033295694,214.59458309437733
3755.7776,1.4134996806524853,241.32877083208916
3756.6438,1.411628057254619,164.43550015888258
3757.508,1.4078705794187796,210.28336891315627
3758.3745,1.402870926503968,230.00656585733822
3759.239,1.3980009407126281,201.42359383507642
3760.106,1.3942017202117094,249.86007245448127
3760.971,1.3916237009575945,238.47745602950906
3761.8362,1.389854636953243,243.56911375758804
3762.7036,1.3884013470426377,231.0804916920333
3763.5693,1.3868230691465346,206.70580296982928
3764.437,1.3846678878959495,197.8782515741073
3765.3032,1.3816444260083312,218.0175340496542
3766.1714,1.3778719370763943,198.53486520453018
3767.0378,1.3739197558544243,238.4158363188514
3767.9043,1.3702734701445822,218.68157054191516
3768.7732,1.366884905476519,211.76693286773545
3769.6401,1.3633491555897352,230.21175429003048
3770.5095,1.359551747105727,241.04283776004667
3771.377,1.3562704483154955,238.24989825589216
3772.2466,1.3548132688249948,256.5932440444701
3773.1145,1.356070951300481,212.26381906540186
3773.9824,1.3595757388752363,192.4925599194841
3774.8528,1.3635060171450557,238.5277577479897
3775.721,1.3656130836987188,275.9774793774804
3776.5918,1.3646142929641354,238.36105123373144
3777.4604,1.360945772313188,242.93127324204585
3778.3315,1.3564763411515204,243.27249634116384
3779.201,1.3534347369267568,233.4689253740328
3780.0703,1.3530883061912995,284.22591240511497
3780.942,1.3552349053343458,279.53071817560607
3781.8118,1.3585991639478034,223.6395478580262
3782.6838,1.3617922743650346,251.52501510110318
3783.554,1.3638659378514002,282.3603943527815
3784.4265,1.3643688898921238,222.40134213303688
3785.297,1.3631479226857572,203.54616899732395
3786.168,1.3604135529209747,226.89773896447534
3787.041,1.3568192987391,195.63313723024783
3787.912,1.3533005154819668,283.2686971125128
3788.7856,1.3505808179175518,217.65887462646523
3789.6572,1.3489849173567825,213.20002680590656
3790.531,1.348507669480142,260.81071934183507
3791.403,1.3490167811651979,240.29790449446227
3792.2754,1.3500908184070073,229.57914632934973
3793.15,1.350742886267845,222.2804031842552
3794.0225,1.349605323463686,246.6470122370074
3794.8972,1.3457807318446648,218.4872428011415
3795.7703,1.3396516896814836,283.04166209243357
3796.6455,1.332655091245619,236.54366751055582
3797.519,1.3264128047273296,258.4579484444272
3798.3926,1.3218600360901773,249.2462919060129
3799.2686,1.3193030751601937,216.14909151606466
3800.1426,1.3187656203821312,281.63633412154144
3801.0188,1.3200187000863137,272.0555917715197
3801.8933,1.3224659681482362,271.7681375975019
3802.77,1.3252923843148317,213.27368171923132
3803.6448,1.3278717664800683,238.762359390022
3804.522,1.330103902886315,192.06953272762382
3805.3972,1.332167757969685,220.97877965901057
3806.2727,1.3340934732149528,259.06730754145167
3807.1504,1.3354882459720443,261.07255978243126
3808.0261,1.3357375190513991,236.8360300242078
3808.9043,1.3344996506968532,271.8247641229426
3809.7805,1.3320357353526324,303.8043033823851
3810.659,1.329089412833967,236.85823982015043
3811.5356,1.3264814780647947,239.6332846375479
3812.4126,1.3246729593706332,215.5680433239018
3813.2917,1.3237920537373877,290.2648917022781
3814.169,1.323926957163126,264.6355974771168
3815.0483,1.3252016053056939,247.44907238287598
3815.926,1.3273908429785437,225.46643099942176
3816.806,1.3295806146504765,245.26884264073513
3817.684,1.330475094978934,257.41643723573577
3818.5623,1.329308255470114,250.4315028129271
3819.4429,1.326318569190863,242.73055524581872
3820.3215,1.3224083012560766,283.1172280566385
3821.2024,1.31830652367165,238.8293501267472
3822.0815,1.3142357979374784,249.82048963491363
3822.963,1.310006047778916,230.95965155938333
3823.8423,1.3054190677006225,259.45289921470817
3824.722,1.3003372273150118,240.43265020174036
3825.604,1.2946332648680179,188.775803846211
3826.4841,1.2881147688311936,287.3826727938921
3827.3665,1.2804176233354616,228.16507362019487
3828.2468,1.2713298631700518,250.6338435769459
3829.1296,1.260928934117948,266.2541372486621
3830.0105,1.2498807480260479,283.64543286019995
3830.8916,1.2390921495042604,318.31349543541324
3831.7751,1.229500906155609,250.53512110861897
3832.6565,1.221957921732242,247.49626229958392
3833.5403,1.2169540050176109,320.8362307343487
3834.4224,1.2146022690678833,305.34758875722633
3835.3064,1.2144094553837828,283.8271077387615
3836.1887,1.215498027577963,286.993305557641
3837.0713,1.2170559180312643,326.4958808927106
3837.956,1.2187412459621243,297.0099427678128
3838.839,1.2206934665533151,286.488727276163
3839.7244,1.2232787387473505,285.9331975868876
3840.6077,1.22674292232903,272.2863415644629
3841.4932,1.2311395393386562,259.43185956242314
3842.377,1.2363256797656612,290.7664494939881
3843.261,1.242103242731947,287.19090672717886
3844.1472,1.2481220690528074,266.6122073355373
3845.0315,1.2536835032543532,287.88255460768033
3845.9182,1.2579717188109762,253.7304899377616
3846.803,1.2605563127305943,336.55318385780885
3847.69,1.2620646378801055,263.6948008533004
3848.5752,1.2639458377562875,275.72807106191
3849.4604,1.267488261954607,292.6173129157374
3850.3481,1.2728800668294282,251.34361046378075
3851.234,1.2791658289972059,253.55023295529472
3852.122,1.2852124195345394,243.73236318697406
3853.0083,1.290363631685706,261.47338114777267
3853.8967,1.2945119714789963,234.3133149710876
3854.7832,1.297425956724107,259.4057478187671
3855.6702,1.2985082695973391,242.72047342811166
3856.559,1.297045257413217,261.84671202041073
3857.4463,1.2927862278112734,248.4225764076139
3858.336,1.2861956237491414,253.3292162037882
3859.2234,1.2784368658790632,268.3577707298843
3860.1135,1.2708863723896084,336.7572215689238
3861.0015,1.2647927028875647,289.57256340606665
3861.8896,1.2606891905838902,244.87618780444254
3862.7803,1.258394694102267,274.3427477210123
3863.6687,1.2573853229985559,252.95046014041375
3864.5598,1.2572386297814901,304.627800672541
3865.4487,1.2577572015924274,258.43310847309107
3866.34,1.2586216928374645,240.5704561467042
3867.2297,1.2590347321858728,298.437800191925
3868.1213,1.257843294640496,255.91192858317842
3869.0112,1.2541802929991714,288.18378247852667
3869.9014,1.2481340114799988,286.35386494527404
3870.7937,1.2408216375082657,282.55372227029846
3871.684,1.23379244710975,238.44472608086807
3872.577,1.22800045286181,261.8895337607089
3873.4678,1.2234509369361344,314.65996177045486
3874.361,1.2192731083996902,287.30272859124517
3875.2524,1.2144085803673983,253.937548209917
3876.1438,1.2080863046448655,313.6654506876594
3877.0376,1.2000516063068902,308.28873520101746
3877.9297,1.1905734936516155,326.028180947794
3878.8237,1.1801744850202551,268.08497278751094
3879.716,1.169626926325434,263.3892694951316
3880.6108,1.1594713955042528,310.8995414603624
3881.5037,1.1498155685713152,329.2884564100891
3882.3965,1.1400964354959595,320.707701529586
3883.2917,1.1295905999828086,350.20865063761346
3884.185,1.1180677017885596,340.21128685194105
3885.0808,1.1057435629336725,314.3591381255104
3885.9746,1.0931899080173473,365.44091115663616
3886.8706,1.0808232795312895,348.34235232121097
3887.765,1.0692507294675007,395.1579621276791
3888.6592,1.0593651525623364,404.8318746457681
3889.556,1.0523649627677527,408.87905930550437
3890.4507,1.0492054056370395,362.64642887969825
3891.348,1.0498322559151598,367.38857100284497
3892.243,1.0531874192206112,387.96661033110166
3893.1406,1.0579399790512105,335.2560615048094
3894.0361,1.063347471315091,341.4319259919321
3894.932,1.0696420264173303,422.6675519206208
3895.83,1.0774928774168855,403.56527786776115
3896.7263,1.0871840100351762,375.233794259543
3897.625,1.0984362973658226,472.54290823926743
3898.5215,1.1104157312173282,337.73315952978174
3899.4207,1.1222844225275566,317.73869069054757
3900.3176,1.133158387727195,305.37390256925215
3901.2148,1.1425017205944012,337.5118648015399
3902.1145,1.1501963928524819,284.1337188977406
3903.0122,1.1565668621413574,377.5473493123191
3903.912,1.1624018504477167,314.42473349050215
3904.8103,1.1686807729548943,298.5288640748368
3905.7107,1.176484734213975,339.2535391610358
3906.6094,1.1864728924034447,332.7207738478867
3907.508,1.1984997727380646,299.3489604664589
3908.409,1.2114624572128776,323.5596463947457
3909.308,1.2236981679265106,298.61020857958994
3910.2097,1.2340206517117984,240.6574686136316
3911.1091,1.2420440978438256,299.035802370786
3912.011,1.2482779725412327,275.76939728421854
3912.9111,1.253463061065035,279.90416866762104
3913.8113,1.2583058611545175,247.9762318062842
3914.7136,1.263366435258217,249.57839884252385
3915.6143,1.269006049336231,244.38718433278046
3916.517,1.2752489344763658,265.44243572464165
3917.4182,1.2814775173946635,236.02830555941327
3918.3215,1.286747525849175,244.55582509661608
3919.223,1.2902939266588274,266.6109001915661
3920.1245,1.2920974158640317,260.6355016674826
3921.0286,1.2927918544151722,257.8253798971154
3921.9307,1.2932241278746417,235.5230149525391
3922.835,1.29396565874188,260.63040694175476
3923.7373,1.2950114501157945,271.6663210704674
3924.642,1.2958176833873258,204.09569931142508
3925.5452,1.2956097386621264,259.26629697556297
3926.448,1.2938616480964593,242.78335397198268
3927.3535,1.290599867425202,248.40256933597544
3928.257,1.2864346820269426,239.32727217012425
3929.1628,1.282167384409546,267.07837032295924
3930.0667,1.2783940544311607,229.0253270572838
3930.9731,1.275120959111956,229.7937964280259
3931.8774,1.2719084463831472,245.64599545566588
