wavl,flux,ivar
3566.9744,3.3199145269869437,72.74668542162603
3567.795,3.307561290198973,74.86844251840648
3568.6177,3.2966894225957866,71.00642833136327
3569.4385,3.287987883727696,65.27573339012486
3570.2617,3.281167638433054,79.76607142896717
3571.083,3.2755425714993613,66.093678538388
3571.9065,3.270250834955805,63.15128198280734
3572.7283,3.264521850826698,61.342788233921524
3573.55,3.2576286039683526,71.15209633902711
3574.374,3.2490924902544474,65.89136528662328
3575.1963,3.239220575494295,65.05659432435208
3576.0208,3.2294356403148234,64.57128844428777
3576.8435,3.222222831010197,79.8801761830186
3577.6682,3.219632720489271,76.70194022428734
3578.4915,3.221829765884457,80.65040689374081
3579.3145,3.226818950426392,68.70405919470663
3580.14,3.2320086062453184,76.03506145968048
3580.9636,3.2358433001951745,76.8805040630359
3581.7893,3.2381164810478062,77.38650942983806
3582.6133,3.238743191216172,69.2540675109901
3583.4395,3.236817192345276,73.07492507694658
3584.264,3.2309266984483367,68.38095644044004
3585.0884,3.2203711368386068,70.07596169731423
3585.915,3.206110149035097,75.8416584218515
3586.74,3.1909519195894838,62.88416591104929
3587.5671,3.178439695714578,89.34157336825483
3588.3923,3.1717319515441025,71.7356819761684
3589.22,3.172097249517544,82.6554941561995
3590.0457,3.178393986492002,90.3536192304943
3590.8716,3.1873741280031567,77.17745679855071
3591.6995,3.1948317924523373,70.02598364996659
3592.526,3.1969428320780433,68.12745362050542
3593.3542,3.191473345957305,69.10959016887527
3594.181,3.178276436821219,90.43657939590057
3595.0098,3.159152064837893,85.17732791466284
3595.8367,3.1377587975637633,78.23628273548404
3596.6638,3.1186162920066005,82.2798651377716
3597.4934,3.105956153804846,73.91167770106401
3598.3208,3.1021636544195523,93.98536006925939
3599.1506,3.1065733693888062,78.12681245012398
3599.9788,3.11579638520106,67.1380237299747
3600.8088,3.1250727681756945,79.63412422799102
3601.6372,3.130056973858095,70.3812465063368
3602.4678,3.1287924967179603,71.0501603952494
3603.2964,3.1225204493607994,80.11592811617226
3604.1252,3.1148248530422116,76.59966602801804
3604.9565,3.1094044918506887,80.12140492459136
3605.786,3.1079742324622335,63.63036332613903
3606.6172,3.1094975701036525,80.74064030418222
3607.447,3.1113812509099215,76.6457963249968
3608.2788,3.1115421743604332,87.86315465398748
3609.109,3.109797041859013,74.37897813146735
3609.9392,3.1075625463957186,78.08438650312313
3610.7717,3.1062897563174676,86.96298441495087
3611.6023,3.1061640245032303,83.95401900664383
3612.435,3.1060802416233106,80.42976304890382
3613.266,3.1046659599350415,85.54693679199757
3614.0994,3.1011986170602706,73.39248928219257
3614.9307,3.095854745705258,77.65067413452928
3615.7625,3.0893905736813867,84.7352781122319
3616.5962,3.0828948403761203,88.2499723227155
3617.4282,3.0775285087833177,86.61438305148033
3618.2625,3.0738537236134316,70.64029642160236
3619.0947,3.071347668983688,88.58972173698763
3619.9292,3.068445354300783,77.39371929911358
3620.762,3.0636105890710215,93.71650161660578
3621.595,3.056384163868462,82.25583635568752
3622.4302,3.047602607011707,96.14936838415288
3623.2634,3.038752377383911,61.21021609875187
3624.0989,3.0309551210351766,90.18511629370153
3624.9326,3.024791438801067,75.24702149796272
3625.7686,3.0202418789424224,71.86460159316272
3626.6028,3.0169300099706375,84.96733724500642
3627.437,3.01422184683462,85.57906535896254
3628.2734,3.011705471704455,67.97819160865689
3629.1082,3.009683844701188,70.99321064182737
3629.945,3.0090515062940146,101.9769346743899
3630.78,3.0105116576892113,93.70769756413162
3631.6174,3.0137247926925625,92.09264690579045
3632.453,3.017202782092151,96.96987949082342
3633.2883,3.0191273391292803,88.63309205931257
3634.1262,3.01831194996496,106.9774144068146
3634.9622,3.0147615870125275,91.79808149901429
3635.8005,3.0094013435845763,87.61947008336496
3636.637,3.0033650464077444,71.4129289025421
3637.4756,2.9972673570809683,88.80705679032948
3638.3123,2.9913848450194696,90.81195401906005
3639.1492,2.98616634887749,79.83392452856584
3639.9885,2.9826098908651724,74.54571938708382
3640.826,2.9816153241976684,107.30865122864647
3641.6653,2.9827440102177203,99.18706957307552
3642.5032,2.9839441058000817,75.83915940103725
3643.343,2.98277872160928,76.18749631939717
3644.1812,2.978053256400552,85.13920995422099
3645.0195,2.9702375748168133,82.2015403791458
3645.86,2.9606658515564526,79.88559047333132
3646.699,2.950979982784487,79.76897311832512
3647.5398,2.9431077927437705,81.96806284273228
3648.379,2.9394107385354182,92.34956692013097
3649.2202,2.9414490198109076,85.03979721744226
3650.0596,2.948426444020637,90.52139205711632
3650.8994,2.9568715589320167,65.43618623883366
3651.7412,2.9622813835436554,88.46948272610896
3652.5813,2.9615717469746947,93.05074849237019
3653.4236,2.954618142601062,85.14511780598038
3654.2642,2.9440226261653564,90.12932567658292
3655.1067,2.933509388487266,84.55233761428103
3655.9475,2.926201856339039,99.87109231142689
3656.7886,2.9231424329786138,85.83724381989106
3657.6318,2.9233343715523588,76.12040468429525
3658.4734,2.924792865216074,82.75413389919572
3659.317,2.9257189546466082,90.89405354802527
3660.1587,2.9248745059590195,76.0706854847933
3661.003,2.9214491330987786,75.51871906479352
3661.845,2.9151711171128913,85.22610419433957
3662.6875,2.9066055036055474,83.62672965069598
3663.532,2.8971998433926243,112.21613938547385
3664.3748,2.888654430543937,95.40348575938643
3665.2197,2.8817577786310538,89.0089734120607
3666.063,2.8760517779094066,79.57003199319749
3666.9084,2.8701841351724036,92.08752367938042
3667.752,2.8630474894872173,84.83494184996846
3668.5977,2.85442647448988,98.46115663966324
3669.4417,2.8451916406424393,89.45249044236877
3670.286,2.836556276050624,85.19052749673419
3671.132,2.829355456764915,95.56229254834807
3671.9768,2.823682922826309,85.91255294420077
3672.8235,2.818941576242548,98.57185582664758
3673.6685,2.814365599165659,94.20433452035337
3674.5156,2.809353221228496,114.58096653476065
3675.3608,2.803837011328382,91.19796993132773
3676.2063,2.798168684969762,97.98041858609375
3677.0542,2.792779636289985,99.41202024133351
3677.9,2.787860090469311,101.66722785105897
3678.748,2.78332597034585,91.5658572454289
3679.5945,2.7793217652954785,81.55249392774867
3680.4429,2.776311395896808,90.42287553200137
3681.2896,2.7748105939221612,93.48451674907072
3682.1365,2.7747646405103064,104.11148043570778
3682.9856,2.7752136396423417,104.50610054487875
3683.8328,2.774336917102257,91.86037049907158
3684.6824,2.770010026160412,107.69798521561283
3685.53,2.760893670779328,83.65604839165307
3686.38,2.74739253432888,101.05100657435221
3687.2278,2.732033534142959,100.33112135406641
3688.0762,2.718222982106065,114.09560387245634
3688.9265,2.7087755116238625,88.45886984575081
3689.7751,2.704805673749455,107.41845319113595
3690.626,2.7054766445338987,89.47712987677457
3691.475,2.708790352347075,109.74635012470695
3692.3264,2.7126954732190973,108.50766336854194
3693.1758,2.7159652487814516,85.20916438824278
3694.0254,2.71841848940292,102.92742406295316
3694.8772,2.7202668736849995,85.35756342056732
3695.7273,2.7214071247000273,114.42247213329534
3696.5793,2.7213668966328473,98.13852131017838
3697.43,2.7197506367839446,108.4633544482932
3698.2825,2.7165521298486293,111.50554409323713
3699.1333,2.712055241535783,108.71129603536653
3699.9841,2.706600015693701,92.06346097371801
3700.8374,2.7005669307721116,110.84752982010403
3701.6887,2.6943220789708167,106.6999069756967
3702.5425,2.6878331248456493,98.85566985699197
3703.3943,2.6808600990574982,114.69015851191094
3704.2483,2.6734071969962723,121.57891348329858
3705.1003,2.66630580450109,104.5848207610714
3705.9526,2.6607309923124767,98.01840725282221
3706.8074,2.657408425414992,108.7523478895073
3707.66,2.6561272446571027,111.13034964614123
3708.515,2.655919952093978,96.67041732946456
3709.3682,2.655601622049288,106.9888913477728
3710.2234,2.6539960885841047,109.82207262819296
3711.0771,2.650088742124288,109.82616778157934
3711.9307,2.643520746759356,97.76241129380269
3712.7866,2.6352809743453656,100.26971471021177
3713.6409,2.6277751200216053,113.65656469490825
3714.4973,2.623348589436196,115.2203898251735
3715.3518,2.6226332413190185,99.76845674891935
3716.2085,2.6239320701487587,118.66260728582216
3717.0635,2.6245292670411184,95.65992839796104
3717.9185,2.6226499117560533,123.66743852547472
3718.776,2.618453574972096,109.84462681060708
3719.6313,2.613626339721777,112.47174452699632
3720.489,2.610039147199396,106.41619782742234
3721.345,2.608752382563883,117.28863470553485
3722.2031,2.609633465467473,107.77718944453915
3723.0593,2.611735705111287,103.0072492782405
3723.9158,2.613884891631246,100.95441059963156
3724.7747,2.6149644000154573,104.02114647659108
3725.6316,2.61382073871134,96.957428602537
3726.4905,2.6093292010716467,109.73126525921424
3727.348,2.6010671267993044,113.19517505346623
3728.2073,2.5900460457214467,106.58289954088613
3729.065,2.57880767996525,99.50964171830553
3729.9229,2.570062649153539,131.40782631359644
3730.783,2.5652449531086052,135.04684065658128
3731.6414,2.5638608925384005,111.1680062059381
3732.5017,2.5640647258360727,127.12660466803298
3733.3604,2.5639641348055098,125.04182614876456
3734.2214,2.562497527681213,129.15630707467105
3735.0803,2.5595941383997145,114.99730151356266
3735.9417,2.555817488586116,110.60112967423608
3736.8013,2.5519643906608365,114.77883903621519
3737.661,2.548547225842473,114.87584795594064
3738.5227,2.545568880744702,122.64901542847586
3739.3828,2.542766937840399,95.79049577197591
3740.245,2.540048695940037,113.24906941287023
3741.1055,2.5376225119280598,128.92620305776978
3741.9683,2.535416560529764,117.07833611404257
3742.829,2.532683548203202,121.77559663788654
3743.69,2.528361687855691,119.93283345876053
3744.5532,2.52209809782184,110.14811934231464
3745.4148,2.5148996879241103,106.92013425896793
3746.2786,2.508446280049755,125.88885755047589
3747.1404,2.5039457068595774,144.40906350573096
3748.0044,2.501325061243723,110.97822363692035
3748.8667,2.4997608943079257,104.71544803431148
3749.729,2.4985172225087005,129.4514219671659
3750.5938,2.497317282303845,118.99995869114882
3751.4565,2.496047255543316,118.66020421565912
3752.3215,2.4943836724279342,99.19070032590048
3753.1848,2.4917932100272155,119.30026730083411
3754.0503,2.487673810304305,131.4964729411219
3754.9138,2.4816646519957546,132.3837662017654
3755.7776,2.4739180228384785,124.59509389179955
3756.6438,2.465335500605364,128.52886962293536
3757.508,2.4574294731201833,125.81664945306181
3758.3745,2.451528181054662,125.90037304760608
3759.239,2.4482934986388747,114.67663471929876
3760.106,2.4473977859883336,143.8460291788277
3760.971,2.4477729514559585,127.70629987197361
3761.8362,2.44801868480026,126.32085228996085
3762.7036,2.447010076953198,122.28841947915399
3763.5693,2.4444468158468404,113.45887641959246
3764.437,2.4408989084673838,126.53945053261243
3765.3032,2.437257247817628,131.44231625097564
3766.1714,2.433895014870173,121.43270727852172
3767.0378,2.4304505153894387,110.91551428863455
3767.9043,2.426254076705468,143.04047170387332
3768.7732,2.4210984632952397,140.46439024094528
3769.6401,2.4156972376049057,131.7940813086607
3770.5095,2.4113260258730693,125.70380459213989
3771.377,2.4090784050947724,143.6798100711744
3772.2466,2.408932570672917,126.9287617821519
3773.1145,2.4096807694439852,143.03460672268176
3773.9824,2.409799457342453,137.25291376713852
3774.8528,2.408619468056599,125.90519527639188
3775.721,2.40671324522615,114.72457521185633
3776.5918,2.4050814540193755,156.2663523348701
3777.4604,2.4039479186590516,120.88229643124521
3778.3315,2.402157237863109,130.3996796702002
3779.201,2.3978804156406825,139.3005897583584
3780.0703,2.3900361894671063,122.22446500042814
3780.942,2.379307111712102,140.79559283788223
3781.8118,2.367981862282872,145.30548154816913
3782.6838,2.3584641118165424,130.97900164344546
3783.554,2.352176687087833,137.8163877912672
3784.4265,2.348997336410259,139.65963128484208
3785.297,2.3478061625158757,121.81575800007879
3786.168,2.34717386471341,124.04206096141066
3787.041,2.346110976576484,135.38637433998375
3787.912,2.3444215006054585,123.88586196419942
3788.7856,2.3424152042000266,138.63906951809992
3789.6572,2.34022179795063,151.3520311845205
3790.531,2.3372654674445528,138.89474290275191
3791.403,2.33258094603051,149.48534455464014
3792.2754,2.3255536895909046,131.62247621437152
3793.15,2.3164811411151005,138.93984090149578
3794.0225,2.3065662337598605,128.87271914912657
3794.8972,2.297213408968854,136.5191984982782
3795.7703,2.289657761642632,151.76593790364487
3796.6455,2.2845352632534164,136.92286890207055
3797.519,2.2819576390060905,150.8285119516928
3798.3926,2.2814409127788573,144.43466466977046
3799.2686,2.282052642031037,137.08399454807943
3800.1426,2.2827087456452575,123.87983971809831
3801.0188,2.2827203842366774,151.50592823338425
3801.8933,2.2821795748728175,143.38293363423452
3802.77,2.2818261100943986,149.52151240829056
3803.6448,2.2824805527841248,130.14933988285156
3804.522,2.284504805929268,147.56667548135655
3805.3972,2.287565435882201,132.68062144961664
3806.2727,2.29072122733636,141.68273628389784
3807.1504,2.2926829440206897,148.9560466876907
3808.0261,2.2923625587866434,136.21377783146085
3808.9043,2.2896018603153383,153.68252231859586
3809.7805,2.285509958073268,137.30242577244942
3810.659,2.2818953295483206,145.36830023889874
3811.5356,2.2801880807845514,146.15135004013666
3812.4126,2.280535791782017,139.2717735907399
3813.2917,2.28193204735431,129.76291708082397
3814.169,2.2829328609091353,163.29589471416185
3815.0483,2.2822976855247674,166.1310273950021
3815.926,2.2791675617542526,136.0012841434097
3816.806,2.2730939610192626,166.60449600509665
3817.684,2.2642531729341338,163.75969695545626
3818.5623,2.2534457166265476,134.21500221763984
3819.4429,2.2418635109016654,157.27848629232585
3820.3215,2.2307166749239626,162.22539933217428
3821.2024,2.220586800162286,144.27488639509008
3822.0815,2.2115121120682835,160.79209481325717
3822.963,2.2031138357178577,154.7847775552826
3823.8423,2.1953143472801933,160.65827317695218
3824.722,2.188574082910051,167.6077259322514
3825.604,2.1838276530996565,158.9903695613762
3826.4841,2.181872800640559,165.65938725448288
3827.3665,2.1825830335749687,169.53178780555987
3828.2468,2.184680307031967,171.41624745704584
3829.1296,2.186205340559834,145.9952990579095
3830.0105,2.1854776862329666,163.75737667558076
3830.8916,2.1819808568298553,177.19295587421195
3831.7751,2.1764660080082607,173.32664271736107
3832.6565,2.1703423119312997,159.50833837739276
3833.5403,2.1645859810437402,161.3599364217616
3834.4224,2.1593139794390637,159.75347825484008
3835.3064,2.153942086386138,157.09417139303505
3836.1887,2.1479953796343594,137.6912956767624
3837.0713,2.1415074491114394,154.23994703863494
3837.956,2.1349872070634324,147.42860328518285
3838.839,2.1291491490719006,181.81735441438641
3839.7244,2.124650116395205,183.36028189542543
3840.6077,2.12216745228094,161.1396375753409
3841.4932,2.1221364028120306,171.60648944080148
3842.377,2.124363534106901,172.65164172790548
3843.261,2.1277541050528934,172.25594572887348
3844.1472,2.130706822882182,173.9602550994034
3845.0315,2.1320644483957705,175.7639199512752
3845.9182,2.1320310303468863,170.1039938867522
3846.803,2.132092143641649,188.01117135300308
3847.69,2.133903830766453,177.1629988566162
3848.5752,2.1379527405305327,165.6290842550841
3849.4604,2.143238753460531,165.15523593156058
3850.3481,2.1482153801261155,151.07420852585872
3851.234,2.1520015859205572,168.89071775706432
3852.122,2.1548628613888123,180.05760729551235
3853.0083,2.157441308584222,168.71179862827574
3853.8967,2.15989705573408,143.90664962439462
3854.7832,2.161642716662446,161.97935968807624
3855.6702,2.1619460415194838,175.17107026104796
3856.559,2.160553718064394,142.6423801075279
3857.4463,2.1578748914015313,157.59964705008318
3858.336,2.154639442674464,149.86195409909766
3859.2234,2.151542459688557,174.6028851426314
3860.1135,2.14893844154099,166.88668524286524
3861.0015,2.1467943883324505,164.90778749524802
3861.8896,2.1446368871836814,151.57561081186753
3862.7803,2.141748068580375,158.88805030673922
3863.6687,2.137526502653207,147.77458043620948
3864.5598,2.1316955614592143,167.14496302228483
3865.4487,2.1243758231927155,204.70908599162846
3866.34,2.115743755220659,167.6065145721244
3867.2297,2.10608304758028,153.9515159819935
3868.1213,2.0957445383442974,165.46451121125205
3869.0112,2.0854164801133237,174.1202620362469
3869.9014,2.075948676763547,186.61300922724172
3870.7937,2.0682621719702654,210.23911638203433
3871.684,2.062996843043089,168.3999674429385
3872.577,2.059797300762446,183.9951238544811
3873.4678,2.057157877511731,179.92358563253475
3874.361,2.053046428270294,152.6392315046367
3875.2524,2.046315037042904,184.28640289297664
3876.1438,2.037376090774674,184.15213946258484
3877.0376,2.0276054481889485,200.49847095941175
3877.9297,2.018143415434826,190.36278841358288
3878.8237,2.0089719668885677,164.43583222632796
3879.716,1.9993000171705941,241.96237179793803
3880.6108,1.9881418030967233,190.7661473832457
3881.5037,1.9751854477339443,166.00489919209835
3882.3965,1.960967795399995,188.08198144939533
3883.2917,1.9467841583144783,171.55224374360586
3884.185,1.9341378841521677,220.31229671728502
3885.0808,1.9237242671866874,198.97188198606798
3885.9746,1.9154174108614557,198.17200821034146
3886.8706,1.9084591991901592,204.21727144330148
3887.765,1.9022198255316238,229.31830962130257
3888.6592,1.8964436961175408,210.96732640812561
3889.556,1.8913102920665366,210.9844580426924
3890.4507,1.8872382513647847,224.02427603594822
3891.348,1.884514728453475,189.92857590536778
3892.243,1.883252387862868,214.771799671768
3893.1406,1.8834325926604676,193.24551168401018
3894.0361,1.8850778645659187,228.1010169693259
3894.932,1.8882946095250526,207.13953014846314
3895.83,1.893240699105876,219.38880916003401
3896.7263,1.8999551947172648,211.04870135783685
3897.625,1.9083139176359951,190.0744684600334
3898.5215,1.9178725201202131,213.1545940518975
3899.4207,1.9282164421245211,196.3810088882798
3900.3176,1.9389990494242155,224.52223299166332
3901.2148,1.9502016151829613,172.94675653797552
3902.1145,1.9619398661327643,191.44925520910203
3903.0122,1.9742787383561207,200.37334739103213
3903.912,1.9874281478023479,215.01291577209466
3904.8103,2.0014077800030945,203.83103459430757
3905.7107,2.015928356687609,211.10359068339824
3906.6094,2.029851405364323,187.8117741095353
3907.508,2.041671865789162,185.94276795319163
3908.409,2.050274795857169,178.2047521974116
3909.308,2.0556211728304388,173.59839916085613
3910.2097,2.058744843618575,191.72622987367308
3911.1091,2.06083470066421,225.45851019183965
3912.011,2.062671175710552,165.16730613727978
3912.9111,2.0645810210965174,170.84097116447674
3913.8113,2.0667368464441926,192.7675936688341
3914.7136,2.069173857729127,166.82868879315814
3915.6143,2.0715951946878373,183.7540136526244
3916.517,2.073364141323792,186.39224034757095
3917.4182,2.0737224393258322,183.16695173835572
3918.3215,2.072306660256676,160.77793651250977
3919.223,2.069643104471555,171.6061371313757
3920.1245,2.067202751768681,189.4765606104054
3921.0286,2.0667446344285123,185.29910545245377
3921.9307,2.0692137617358455,187.08115176885738
3922.835,2.0740617506023713,160.28421875052834
3923.7373,2.0794978368104906,209.43612533778992
3924.642,2.083491042917557,176.68541841044976
3925.5452,2.0845451018196117,160.30194581889586
3926.448,2.0821963276274773,154.26072500682764
3927.3535,2.0769554354568136,176.58677757756314
3928.257,2.07002037236768,170.8668517426601
3929.1628,2.0625837684773884,169.40272934135237
3930.0667,2.0554757333903018,183.45856695499836
3930.9731,2.048942707910248,186.82055322644777
3931.8774,2.0429416310488695,185.93814325174972
3932.782,2.037180651090156,214.98097505373798
3933.6887,2.031408926413858,186.49743313721254
3934.5938,2.0258177395524326,159.66063349198978
3935.501,2.021138655989695,197.53110680116058
