wavl,flux,ivar
3566.9744,0.6965655064372325,846.220335248895
3567.795,0.6921616568470742,1252.9492909046453
3568.6177,0.6887839217928216,1120.641250746052
3569.4385,0.6871419185415194,788.4513311652829
3570.2617,0.6870674231440573,1423.9268763342761
3571.083,0.6877720719193067,1004.5730466762784
3571.9065,0.6883318365247905,1155.792227727302
3572.7283,0.6880815617017871,789.7566147921866
3573.55,0.686765255647843,851.0178008631862
3574.374,0.6844726833274684,1547.1416518838737
3575.1963,0.6815429588059804,1285.6567466477863
3576.0208,0.6783814803666586,1240.3476088542725
3576.8435,0.6753973501268501,1176.1094059852796
3577.6682,0.6729236948929417,1103.664857609232
3578.4915,0.6713057442935597,968.5793680727453
3579.3145,0.6708132690777803,1204.9617917830692
3580.14,0.6714625587158312,1474.1296054425825
3580.9636,0.6728615720844968,1066.0337102813492
3581.7893,0.6743942081425339,1110.92231560804
3582.6133,0.6755387870333376,1714.832102165258
3583.4395,0.6759723212040666,1396.7136230664214
3584.264,0.6753525738527196,1466.6206668306938
3585.0884,0.6733300549189076,1117.3668067839342
3585.915,0.6699746172878049,1078.7144975604772
3586.74,0.6662049955399607,1561.9517093687202
3587.5671,0.6634301619424174,1285.404234861343
3588.3923,0.6627000430442931,1060.199171637003
3589.22,0.6639529804505543,1539.5523821421248
3590.0457,0.6661333685481033,1061.7508419367596
3590.8716,0.6679803744483156,1129.8348827289751
3591.6995,0.6688006867767436,983.0430678999725
3592.526,0.668665998896024,1840.6167443517804
3593.3542,0.6679727455597702,1427.6972576009798
3594.181,0.6668476798380163,1262.644345354732
3595.0098,0.6650212473906311,973.6211965268521
3595.8367,0.662318131870292,1380.7414248217492
3596.6638,0.65914289456437,1090.6661808916
3597.4934,0.6564734727595803,1126.0237966709421
3598.3208,0.6552960931667515,1218.535415803389
3599.1506,0.6558976132780182,1274.7136709142312
3599.9788,0.6576895262190002,1264.887557332849
3600.8088,0.659598369791151,1056.2186753362982
3601.6372,0.6606772518220837,1325.5758912045164
3602.4678,0.6605327706140354,1076.334842595242
3603.2964,0.6593173560335233,1231.890652785917
3604.1252,0.6575119406169606,949.3317998994596
3604.9565,0.6556612006771507,1183.28254667017
3605.786,0.654129076274186,1366.272269873845
3606.6172,0.6528770644539301,1151.0210299442836
3607.447,0.6515911515143972,1199.5230271423895
3608.2788,0.6500821214952668,1165.7512027470266
3609.109,0.6487097810510376,1523.0324527569117
3609.9392,0.648260799891117,1016.7250265823004
3610.7717,0.649307859532346,1173.5197170564472
3611.6023,0.651531448214623,1050.8778712073051
3612.435,0.6537896829364758,1003.816879840597
3613.266,0.6549340910690272,1621.708286761641
3614.0994,0.6547578859141365,1423.7083949512055
3614.9307,0.6541049116702199,1488.6434079058292
3615.7625,0.6540856989050386,1381.4663903803855
3616.5962,0.655111412476032,1222.343918549066
3617.4282,0.6565976029537572,1106.7327279484373
3618.2625,0.6575883724657913,1242.6053836993033
3619.0947,0.6576151173908258,1384.6080084272144
3619.9292,0.6570697318159782,1420.1253648847123
3620.762,0.6568430322853849,1587.7044290091847
3621.595,0.6576682111868506,1221.7912915222987
3622.4302,0.6596856341252025,1207.799634645903
3623.2634,0.6623706083306113,1136.9103657815695
3624.0989,0.6648732955398814,1191.9116393813715
3624.9326,0.6664387962505016,1047.851649603318
3625.7686,0.6668043050108102,1151.4531138452535
3626.6028,0.6662283494143929,1282.7764300260476
3627.437,0.6652944917322334,1243.0505030344036
3628.2734,0.6645989218729935,925.4300606952902
3629.1082,0.6644697056043161,1157.3374355128246
3629.945,0.6647776049178314,934.435001527149
3630.78,0.6650224664163805,1279.103552915508
3631.6174,0.6647158656317794,1351.240495041667
3632.453,0.6638041485516898,1229.4326300798812
3633.2883,0.6627722955501254,1218.8830555086822
3634.1262,0.6623476330775605,1495.9420740747055
3634.9622,0.6630620766571264,833.5695020502809
3635.8005,0.6649743428643266,1345.6207712687499
3636.637,0.6676532831082733,1128.330459215338
3637.4756,0.6704213677664758,1075.8717198958902
3638.3123,0.6726376145442275,1085.1975072356663
3639.1492,0.6740516699987223,855.1964430053843
3639.9885,0.6748574092308942,1153.4988566509435
3640.826,0.6754749460175634,1500.0748978873103
3641.6653,0.6762293208404244,931.2971604829117
3642.5032,0.677148023254152,1032.1497627774759
3643.343,0.6780089021026837,1036.6151825194845
3644.1812,0.678505573176487,1354.5955604698593
3645.0195,0.6784884963909535,1194.3403266224382
3645.86,0.6780976388795691,1196.1775810528447
3646.699,0.6776647823794492,1204.5566443672215
3647.5398,0.6774087860398834,999.8659392707084
3648.379,0.6772838777657899,1121.5006981792428
3649.2202,0.6771728611772758,1330.931406899809
3650.0596,0.6771859742649642,1113.2673072019923
3650.8994,0.6776240130947956,1445.4895741073522
3651.7412,0.67860521250035,965.8535302062171
3652.5813,0.6797863365739056,1036.3044690039433
3653.4236,0.6805593224674823,1081.8158224359513
3654.2642,0.680472149914508,1590.8964217258483
3655.1067,0.6794697736142913,1062.9393592872661
3655.9475,0.6777619737460961,1318.7634890370841
3656.7886,0.6755667909498224,1648.2517982626496
3657.6318,0.6730496262448107,1458.2877363400087
3658.4734,0.6704928109629054,1126.9932815546981
3659.317,0.6684082041181355,1022.6942828109646
3660.1587,0.6675087815465752,995.0650265156106
3661.003,0.6683573540979038,1380.9524362257766
3661.845,0.6710433816933749,1150.0476929111674
3662.6875,0.6751671632502015,1149.0644833100778
3663.532,0.680122446109526,868.3080493307043
3664.3748,0.6853014145049432,1023.6260490326132
3665.2197,0.6901251589659085,1079.2746485951825
3666.063,0.6937881398380347,952.1511912254955
3666.9084,0.695414725860466,1121.9202064916235
3667.752,0.6944201959632709,1164.452538173689
3668.5977,0.6910071648774798,926.8944380579746
3669.4417,0.6862646992019463,1141.1883371466465
3670.286,0.6816350775640174,1209.4601016554766
3671.132,0.6781925466608412,1031.7645264712448
3671.9768,0.6762647326332741,1141.7185604875492
3672.8235,0.6756056093627635,1260.308119131254
3673.6685,0.6759208727556323,1151.5473928016213
3674.5156,0.6771041284009683,1131.7691053718968
3675.3608,0.6790665093804609,1259.7173111690056
3676.2063,0.6814380690027964,1247.9846073398196
3677.0542,0.6834809531138574,966.3172402796282
3677.9,0.6843752630297187,1006.1662087756346
3678.748,0.6837262058350017,1034.5730240062787
3679.5945,0.681793933322205,1338.1755850961008
3680.4429,0.6792837795630029,1107.7601471856838
3681.2896,0.6768586830927084,1056.8564709176328
3682.1365,0.6746661073789201,1172.7612290319391
3682.9856,0.6723435483834688,1113.0395030858106
3683.8328,0.6694957001784428,1038.756645817207
3684.6824,0.6662123895866214,931.1332326969975
3685.53,0.6632489730574093,1205.7583840159039
3686.38,0.6614923440700738,1271.9035946408007
3687.2278,0.661381843520889,1641.4468179718397
3688.0762,0.6626579565232201,999.1295275703561
3688.9265,0.6646265097512651,1017.8533265563866
3689.7751,0.6664497223164649,1063.802175262347
3690.626,0.6673724008473032,1185.6718362013798
3691.475,0.6669447457624762,1112.2886902137627
3692.3264,0.6653651088260069,1080.653522899028
3693.1758,0.6635286845560658,1405.473824777196
3694.0254,0.6624848798723584,1059.0985197611506
3694.8772,0.6627185226664755,1026.6897585042625
3695.7273,0.6638686014504106,853.7253825671717
3696.5793,0.6651707636457264,781.1523891777067
3697.43,0.6661366827418936,1725.803596702746
3698.2825,0.6668941253155883,1013.410335633586
3699.1333,0.6679384155243192,1197.6807080343865
3699.9841,0.6696386437723241,1115.4450016992125
3700.8374,0.6718894984615181,1190.8624284394862
3701.6887,0.6741657047901916,1066.3147652380878
3702.5425,0.6759929279298091,1004.9360721049223
3703.3943,0.6772538511000683,1075.8609003594188
3704.2483,0.6781050546407535,1345.620778914709
3705.1003,0.6785193039129934,1169.1522464912946
3705.9526,0.6781413961411307,1114.841408792886
3706.8074,0.6766823299793534,885.0713833319072
3707.66,0.6745113301248746,1433.65500437061
3708.515,0.6726562896245435,1290.484501974721
3709.3682,0.6721340251516307,1315.0116220210664
3710.2234,0.6730629426791835,1095.2457850587598
3711.0771,0.6744544660898177,1367.5654678908659
3711.9307,0.6748686321206503,1071.1268679913592
3712.7866,0.6733798890821352,1149.4808989397643
3713.6409,0.6701319187612902,1185.9678539555841
3714.4973,0.6660991627654336,1269.2860668840387
3715.3518,0.6624803133328503,1433.2017754897079
3716.2085,0.660047967082142,1268.7851337372028
3717.0635,0.6589838870045339,1556.5999037670065
3717.9185,0.6589467373197999,1281.9294509527265
3718.776,0.6593811004671022,1278.5996782956663
3719.6313,0.6597701514004205,1134.6863827125937
3720.489,0.6597713423906999,1157.953771017032
3721.345,0.659209600868146,1257.8054130636779
3722.2031,0.6580519247456247,959.8106450195746
3723.0593,0.6564540097820988,1376.779068102873
3723.9158,0.6548077804040647,1075.2182414493361
3724.7747,0.6537511810674492,1200.5163539183159
3725.6316,0.6540174379574935,1477.2314648590038
3726.4905,0.6560659986660777,1324.9826596905502
3727.348,0.6596497461075022,1052.6148036206773
3728.2073,0.6636752314272472,1119.014571210518
3729.065,0.6665378981844718,1283.2140165031403
3729.9229,0.6670210118092893,950.0509427680381
3730.783,0.6650049073767462,1514.2786493808644
3731.6414,0.661568169290576,1126.8574614092029
3732.5017,0.6582341623959729,1082.633105071167
3733.3604,0.6560830158009102,1182.139643960512
3734.2214,0.6552745896507927,1026.6313737233354
3735.0803,0.6553319317283841,1482.1508784248936
3735.9417,0.6556500983400072,1427.0262192675534
3736.8013,0.6558566593484896,1105.6674632603572
3737.661,0.6558684469967445,1108.6717299941781
3738.5227,0.6557835544455355,1413.136106111774
3739.3828,0.6557724566301989,1252.7676369484125
3740.245,0.6559787684476774,1067.7712978329346
3741.1055,0.6563741519092721,1204.593123560608
3741.9683,0.6566309035802401,1241.560541846515
3742.829,0.6562040326378858,1134.6880095742333
3743.69,0.6547044398768606,1174.5921174672696
3744.5532,0.652236360812141,1158.6190776824144
3745.4148,0.6494088128918223,1369.4083156501702
3746.2786,0.6469351065499315,1333.8066239659863
3747.1404,0.6453043967440572,1460.4517260234998
3748.0044,0.6445668029804574,1385.377417126408
3748.8667,0.644399573876947,1521.4988016039654
3749.729,0.6443171734044338,1077.026471359362
3750.5938,0.6440306146079019,1064.4380818696031
3751.4565,0.643693614700856,1471.106346699488
3752.3215,0.6437899563166102,1467.5517944529884
3753.1848,0.6447231231791778,1132.7591101025594
3754.0503,0.6464652357472155,1323.6140886012345
3754.9138,0.6485518736822513,1233.7711964393432
3755.7776,0.6504475026150007,1185.8938590292898
3756.6438,0.6519186975258147,1271.6474760431413
3757.508,0.6533216382321224,1442.454477456069
3758.3745,0.6559909229094828,1032.3771796811038
3759.239,0.6626959191172243,1094.0260848026824
3760.106,0.6778310354904704,1232.9771239034376
3760.971,0.70574934771195,1116.7217889345043
3761.8362,0.7472287471149373,1342.777941403497
3762.7036,0.7952351926107845,1244.6592006764613
3763.5693,0.8343115468873971,1084.528327249557
3764.437,0.848349635998562,13.973046677696688
3765.3032,0.8306254001745466,1174.211694029612
3766.1714,0.7888812903459089,1143.1903919624474
3767.0378,0.7399432264677328,1276.23341591109
3767.9043,0.6984753321293938,1335.2885146683266
3768.7732,0.670675713063144,1293.9004224989408
3769.6401,0.6553514724454046,1284.0349689854024
3770.5095,0.6480544863274007,1000.4608377213141
3771.377,0.6449904811673939,1284.7188442313588
3772.2466,0.6438510669724751,1217.595137789822
3773.1145,0.6434530676972429,1323.7494751863455
3773.9824,0.6430926718618504,1314.9420196287863
3774.8528,0.6423269290593797,1227.8966231790434
3775.721,0.6410465992988257,1307.4522285531116
3776.5918,0.6395061718111162,1216.1115115622524
3777.4604,0.6381862959862028,1478.4085239058106
3778.3315,0.6375175386330455,1558.2346432710822
3779.201,0.637819678250186,1155.5389622074197
3780.0703,0.639355028351578,1229.04981860688
3780.942,0.6423080206122607,1446.8693260274838
3781.8118,0.6465115137326383,1505.6739759126845
3782.6838,0.6513407247333386,1257.904183704593
3783.554,0.6558628910420685,1064.9394928425725
3784.4265,0.6593806296892631,1117.3528483023129
3785.297,0.6616381841632847,1405.3259242967438
3786.168,0.6628176622710006,1020.2025973289745
3787.041,0.6632546437684232,922.0613463066484
3787.912,0.6632388142133058,1208.14291031948
3788.7856,0.6628833470391429,1122.8345408287673
3789.6572,0.6620682385967153,1168.1666743266483
3790.531,0.6605345482957221,1003.3343096486775
3791.403,0.6581500177142288,1035.6266753359007
3792.2754,0.6550679822329639,1072.1809929401486
3793.15,0.6516417937832665,1497.5268081737174
3794.0225,0.6481865614107044,1055.3970768729482
3794.8972,0.6447711109400067,1171.3097768122097
3795.7703,0.6413787233448371,1274.217756750014
3796.6455,0.6380171514448175,1219.285223543776
3797.519,0.6348324530091356,1139.7010427493103
3798.3926,0.6320204899998556,1416.7762696016214
3799.2686,0.629834271466148,1414.9249245642347
3800.1426,0.6285817449225068,1628.2417730398142
3801.0188,0.6284925072883418,1266.6878901169896
3801.8933,0.6295895478350656,1371.7435346382645
3802.77,0.6316054548231388,1258.673730001193
3803.6448,0.6340486820950442,1169.2935870549863
3804.522,0.6364754418596156,1214.289175941164
3805.3972,0.6386811672363151,1512.9891111777638
3806.2727,0.6407622657882475,1272.0429641215467
3807.1504,0.6428547341880175,1167.3664487339593
3808.0261,0.6448502548135401,1162.0063496883147
3808.9043,0.646424031617363,1163.7944805433467
3809.7805,0.6472950905743566,1368.6455108474324
3810.659,0.6475688985258823,1315.6357101641024
3811.5356,0.6477254961732251,1474.3242189716282
3812.4126,0.6482930563799789,1272.384492898502
3813.2917,0.6494728012519703,1118.4983296214791
3814.169,0.651036003787401,1512.6417165625
3815.0483,0.652581826746198,1435.4837773560362
3815.926,0.6538155777379263,1063.9310852123006
3816.806,0.6546541312107412,981.5029266587062
3817.684,0.6550481677669557,1187.9086781993963
3818.5623,0.6548807417259989,1433.0681722486072
3819.4429,0.6540935890161723,1284.5727532053897
3820.3215,0.65291968262513,1022.1317523201925
3821.2024,0.6518139267902717,1261.209218963173
3822.0815,0.6510877743176035,1277.3925813728179
3822.963,0.6505459141224156,1053.8191355017914
3823.8423,0.6495384696400321,1172.2724925908717
3824.722,0.6473389950847707,1252.2788173692718
3825.604,0.6435625781549495,1243.1108705258741
3826.4841,0.6383988856618026,1157.8935217007588
3827.3665,0.6324199253951631,1384.8760037382406
3828.2468,0.6263376056628053,1394.5749512888688
3829.1296,0.62056159722739,1477.101219134621
3830.0105,0.6151547276006187,1378.4240478012218
3830.8916,0.6097894283894795,1429.6163271864239
3831.7751,0.6039951211012898,1640.433163847482
3832.6565,0.5974660415706469,1199.260831125595
3833.5403,0.5901795239060323,1604.0418898633513
3834.4224,0.5826301569251787,2017.7833295743
3835.3064,0.5756491563350231,1786.9332092432956
3836.1887,0.5703656941551111,1505.8169207949873
3837.0713,0.5678398012192029,1534.165899584705
3837.956,0.5687517057736612,1485.178255651923
3838.839,0.5730295250355132,1672.466140954245
3839.7244,0.5798682116765025,1296.431799910246
3840.6077,0.5880643681941657,1429.4055092574786
3841.4932,0.5966445794966874,1359.955654145811
3842.377,0.604941739138078,1421.3726084627324
3843.261,0.6125960084616441,1385.955352506293
3844.1472,0.6193047510546217,1295.112143844346
3845.0315,0.6248123825862655,1280.898975355681
3845.9182,0.6292489033340978,1332.4740156518342
3846.803,0.6331995589548601,1134.2695913539335
3847.69,0.6376443645136776,1606.0437503677642
3848.5752,0.6433613190958949,1226.8913248073404
3849.4604,0.6504650607506155,1261.911378215824
3850.3481,0.6583064264799557,1179.5493848218057
3851.234,0.6658329140009468,1271.767147844945
3852.122,0.672292284200932,1022.3406765324835
3853.0083,0.6773440919631604,1246.5220813549006
3853.8967,0.6810774435083968,1190.4136729729983
3854.7832,0.6837193497256625,1142.7863002797671
3855.6702,0.6856056581753422,1174.1855982415352
3856.559,0.6870954440998543,1118.150510523479
3857.4463,0.6884694645478958,1060.9642190038717
3858.336,0.6897880379910922,1316.334120575412
3859.2234,0.6907350065636308,1216.3892822570008
3860.1135,0.6906765955462739,1009.1215790385359
3861.0015,0.6889382245130315,1103.9486022697622
3861.8896,0.6852707131477564,975.8303439965784
3862.7803,0.6801819917464398,1029.8929917384278
3863.6687,0.6749242869869534,1014.409843684796
3864.5598,0.6708288070042054,971.1351995296403
3865.4487,0.6686368718392388,1191.3466144067665
3866.34,0.6679981120673306,1172.7205183665833
3867.2297,0.6677853501862675,1081.7225522753097
3868.1213,0.6668132394302534,1055.3002392834899
3869.0112,0.6644869265213856,1341.69591052052
3869.9014,0.6608968944406822,1285.1555805756443
3870.7937,0.6564970047075043,1198.8042338369708
3871.684,0.6517840789639808,1329.1127752510815
3872.577,0.6470310794422891,1248.3353289042584
3873.4678,0.6423130973842461,1300.244427811802
3874.361,0.6374347595838444,1112.4154050164097
3875.2524,0.632182728495318,1444.5652545648745
3876.1438,0.6264918686053508,1297.1682148154036
3877.0376,0.6205637327713236,1412.533835441845
3877.9297,0.6146968814008426,1534.0103094192364
3878.8237,0.6088833299313751,1134.6369917520067
3879.716,0.6028833623414638,1199.4002325452777
3880.6108,0.596403003293941,1345.1664757808392
3881.5037,0.5894263119125914,1573.5031869203049
3882.3965,0.5820176127301709,1318.519157625665
3883.2917,0.5741165969105939,1621.3665437598743
3884.185,0.5655394871593378,1726.1526090319587
3885.0808,0.5560345450157277,1634.262736823747
3885.9746,0.5457188477192476,1538.028004018753
3886.8706,0.5350021651246152,1909.9712817163622
3887.765,0.5247054411784208,1945.8819536585906
3888.6592,0.5157904887308603,2022.7033327467457
3889.556,0.5093200037737449,1855.6736112647873
3890.4507,0.5062719531783807,2264.7069271326004
3891.348,0.5071044965207133,2676.855448711604
3892.243,0.5116041959159606,2128.8072694903444
3893.1406,0.5190347750289588,2095.610336350164
3894.0361,0.5283775329076622,1811.6474704282705
3894.932,0.5387059487576942,1667.0796167957992
3895.83,0.549232706809626,1662.2736191477563
3896.7263,0.5593050530109759,1983.8103065757525
3897.625,0.5687132585166285,1965.2225541256385
3898.5215,0.5775536094103034,1726.6139840752664
3899.4207,0.5862953154974418,1571.4767979370386
3900.3176,0.5953128671762388,1628.4713492039436
3901.2148,0.6048162842664366,1416.6299028585865
3902.1145,0.6147373100230127,1152.950510700624
3903.0122,0.6247897329892187,1452.6067587206892
3903.912,0.63479032159652,1283.6385989007945
3904.8103,0.6445402645330844,1362.598241116797
3905.7107,0.6540141584089172,1120.756778256657
3906.6094,0.6631912778771801,984.3596232025801
3907.508,0.6721379347122433,1129.2451131353428
3908.409,0.6808486152523835,1154.4488624992325
3909.308,0.6891859057576573,1169.1944070937427
3910.2097,0.6971637602156445,1134.9082337869372
3911.1091,0.7048737189577626,1138.2001416851344
3912.011,0.7124559607350213,1155.3001924884188
3912.9111,0.7196499188437011,847.2979912620652
3913.8113,0.7259278156879718,855.2106959607029
3914.7136,0.7308554828806899,1107.795812304033
3915.6143,0.7344964050496727,987.012017381669
3916.517,0.737485182178976,902.2510670415268
3917.4182,0.7405286277153286,1018.2995606958789
3918.3215,0.7440100085459501,949.4960015932586
3919.223,0.7478129738762472,867.2637386702945
3920.1245,0.7515893914682581,1105.8004158869408
3921.0286,0.7550153448374988,881.4332770456523
3921.9307,0.7579147406455227,956.518082340133
3922.835,0.7603437274584847,897.1904790422753
3923.7373,0.7625297937872679,882.3277256459447
3924.642,0.7648493042969637,907.5080963268599
3925.5452,0.7675719516932983,852.2749928611814
3926.448,0.7706216310925224,768.4841983895758
3927.3535,0.7734699339312193,1007.6116315095658
3928.257,0.775336991562293,735.6011663030584
3929.1628,0.7756682495060055,881.3301659222342
3930.0667,0.7744020911065757,686.848249080397
3930.9731,0.7719245239262515,889.7318202378456
