wavl,flux,ivar
3566.9744,0.7520598305866516,407.42185776034773
3567.795,0.7518089519333747,417.976986534246
3568.6177,0.7527639978460502,488.4465693415531
3569.4385,0.754391498777821,400.53122771937893
3570.2617,0.7554003708492862,394.08901397052125
3571.083,0.754460931822894,333.26744472742786
3571.9065,0.7512430947109255,458.6436910660847
3572.7283,0.746782743618925,399.361317841651
3573.55,0.7426693685046932,546.9316338664688
3574.374,0.7398171339129621,318.5943031551777
3575.1963,0.7378724867608709,340.44068974960146
3576.0208,0.7356976213569213,459.484782838381
3576.8435,0.7325933142597283,278.82553514908193
3577.6682,0.7290504861156921,340.4214664594466
3578.4915,0.7265674013061754,427.753922337512
3579.3145,0.7265562414712139,460.2721174061573
3580.14,0.7294090116291053,476.43396514682786
3580.9636,0.7342843925667771,390.99012556405233
3581.7893,0.7398032109300597,463.9280240218112
3582.6133,0.7448219474289347,388.21571764588725
3583.4395,0.7489572025230897,385.271077813796
3584.264,0.7523793868638907,350.5810692861832
3585.0884,0.755498776001729,333.7662211435209
3585.915,0.7586142737524156,366.26383115019263
3586.74,0.76171188582654,367.4224823749916
3587.5671,0.7644031544335499,391.16314266969437
3588.3923,0.7658999184970899,314.62840847959717
3589.22,0.7654167396266349,433.07973913215903
3590.0457,0.762745987240932,388.4729100572894
3590.8716,0.7586093629430862,457.4555081012584
3591.6995,0.7543382779984598,448.7787030679317
3592.526,0.7511021496800039,401.5748233340205
3593.3542,0.7491573442442819,363.0821164239271
3594.181,0.747844328838945,383.46116121434824
3595.0098,0.7461435849105289,445.38942586512115
3595.8367,0.7434767728939777,454.13404704166527
3596.6638,0.7400142760630264,549.1114240660227
3597.4934,0.7363773802381819,576.8711106149763
3598.3208,0.7331222318309193,450.3815094689344
3599.1506,0.7304371125475068,414.21319743281714
3599.9788,0.7283762993810294,399.1489416918002
3600.8088,0.7269249262411188,450.1566540306736
3601.6372,0.7258742998234072,479.85366840710105
3602.4678,0.7247239449258399,326.4782316021762
3603.2964,0.7231161894235045,443.23311575911595
3604.1252,0.7213625639513019,471.7246764731463
3604.9565,0.7204190131803184,424.0798073167024
3605.786,0.7211590105547644,400.10820579876696
3606.6172,0.723606430588381,732.052796009919
3607.447,0.7268371454794008,399.62419012810193
3608.2788,0.7296266075797927,459.8134805631002
3609.109,0.7311997879922024,554.2991503372383
3609.9392,0.731636572603547,434.1724217298518
3610.7717,0.7315840086184818,543.1257897521658
3611.6023,0.7317281600837775,308.39134054728225
3612.435,0.7324590507282702,393.5376867156635
3613.266,0.7338194070023949,543.8897039910914
3614.0994,0.7355319791259617,413.9307918845611
3614.9307,0.7369875960703566,578.2703687829235
3615.7625,0.7374359794404848,437.8646995493146
3616.5962,0.7362587859223583,361.0289468971035
3617.4282,0.7332209955515144,392.769172585806
3618.2625,0.7285549401335176,628.0096791826204
3619.0947,0.7230954488234007,350.1798310900047
3619.9292,0.7181601724590929,535.5122954858672
3620.762,0.7152728920431133,334.9463753043561
3621.595,0.7154078227966147,326.8550794436718
3622.4302,0.7185096715345018,417.26473905553814
3623.2634,0.7234639042329675,299.50131134563344
3624.0989,0.7286856725555133,315.8458058111417
3624.9326,0.7325363652931813,391.0767583423277
3625.7686,0.7335821166963913,542.2003534955629
3626.6028,0.7307593693694057,340.35353475064306
3627.437,0.7240460228087832,246.05662335814358
3628.2734,0.7150309887453377,436.9397708186377
3629.1082,0.7067378821596487,396.08025136004943
3629.945,0.7021742387128876,634.4689844343035
3630.78,0.7030015972565294,1021.6403286704559
3631.6174,0.7088824303534027,314.2443134489522
3632.453,0.7179202179657296,483.6814765023427
3633.2883,0.7276746273138806,445.8306217962865
3634.1262,0.735995879904689,422.26555684945396
3634.9622,0.7415616622246113,411.71495808900926
3635.8005,0.7443689672991242,295.8224076597682
3636.637,0.7454763314132863,678.786158757162
3637.4756,0.7463376771455896,361.51371882024455
3638.3123,0.7478554897006235,462.96273891975187
3639.1492,0.7499650422644721,406.8649202534219
3639.9885,0.7518212118291787,475.7787642429935
3640.826,0.7522464273475212,403.8231064979112
3641.6653,0.7502640240217799,576.4293628856906
3642.5032,0.745658381281431,398.23635487680144
3643.343,0.7393478498890619,398.2927244706884
3644.1812,0.7332209311990671,480.3183851625306
3645.0195,0.7291542964080735,248.5296829485572
3645.86,0.728183824163386,379.31246759680295
3646.699,0.7302049243472893,295.68068414597184
3647.5398,0.7342128740080832,443.49814625196757
3648.379,0.7386880300390652,476.9636678202675
3649.2202,0.7421458608892092,314.20998989958895
3650.0596,0.743698215185724,279.3301000427655
3650.8994,0.7435828503600072,366.5335707816121
3651.7412,0.7429340765880035,488.28079143939425
3652.5813,0.742921343430174,321.9194814797699
3653.4236,0.7438095732878235,302.16586828679107
3654.2642,0.7447211636937131,380.3137398804467
3655.1067,0.7442665593352805,363.43281501252017
3655.9475,0.7415114354484367,365.0065443056956
3656.7886,0.7365843065587878,391.7026443213389
3657.6318,0.7305747253080656,434.5658749592835
3658.4734,0.7250103427378183,356.85472405418
3659.317,0.7211220710722119,455.3651958663601
3660.1587,0.719556759354137,703.3534564879421
3661.003,0.7202973311919142,418.8038450718722
3661.845,0.7229111038248065,426.41489687744854
3662.6875,0.7267913297242538,406.2517075391569
3663.532,0.7312632492979283,566.0423925947682
3664.3748,0.7356222621657325,391.4781523762936
3665.2197,0.7393856065134561,322.46446150174097
3666.063,0.7423848833266541,367.71508411307633
3666.9084,0.7447287083439545,521.3910451252996
3667.752,0.7464106302913381,307.84940783384525
3668.5977,0.7471536163864811,559.3958156354323
3669.4417,0.7465466996168942,368.6823445293787
3670.286,0.7444038157152985,397.4735986106284
3671.132,0.7409050601483615,306.1816016253345
3671.9768,0.7365077884222171,401.17149489240137
3672.8235,0.7317009405933224,449.3146579647162
3673.6685,0.7270435927465297,395.95488454453323
3674.5156,0.7231800494332892,419.1772479244419
3675.3608,0.7208554534579176,508.55432053638555
3676.2063,0.7204783741788339,418.3659176847257
3677.0542,0.7217529519826446,307.01848779358414
3677.9,0.7236316628159442,387.3724090590906
3678.748,0.7248605001052605,419.98755592512725
3679.5945,0.7246527907453528,424.188712412983
3680.4429,0.7230703904351703,338.31814582501715
3681.2896,0.7208071571395895,325.990261120944
3682.1365,0.7185781296131057,316.02133838992586
3682.9856,0.7166503652201917,555.4349200686901
3683.8328,0.7148393924824343,425.8963451489939
3684.6824,0.7128183933132282,328.36191262962063
3685.53,0.7104877969822424,414.6255437122994
3686.38,0.708055106570396,625.2699820087083
3687.2278,0.7060675939774723,620.9505069313533
3688.0762,0.7052282823539472,433.4291182579231
3688.9265,0.7059935889891711,513.0254816282613
3689.7751,0.7079453933865031,414.1270287442347
3690.626,0.7096417689273515,558.1701349634673
3691.475,0.7093999125284196,276.7747875879843
3692.3264,0.7066756345605474,372.1202558214601
3693.1758,0.7027599363040338,348.5012924563029
3694.0254,0.6999545458653443,330.11646249704
3694.8772,0.6999866087870528,603.6033682754793
3695.7273,0.7029948873254451,583.846482692534
3696.5793,0.7078292558293865,459.7617502051831
3697.43,0.7129731318393207,449.67492679013407
3698.2825,0.7172917137785713,351.7588248405941
3699.1333,0.7201034696758537,280.02080060674103
3699.9841,0.7211413580430005,434.81344799638623
3700.8374,0.7203948011881114,398.3429026651369
3701.6887,0.7180387796658272,332.278943618134
3702.5425,0.7143511781999828,353.2292769834028
3703.3943,0.7097954571369146,426.66214498904475
3704.2483,0.7050589383971487,540.9982756937087
3705.1003,0.7011174021132275,582.0146912556891
3705.9526,0.6988698531154003,375.0402119457017
3706.8074,0.6987880036356758,480.3131313694871
3707.66,0.7006988697826925,477.10036893327407
3708.515,0.7038898498547159,434.26923304211226
3709.3682,0.7072558495806099,546.9156789835256
3710.2234,0.7095090031191414,488.75538641591896
3711.0771,0.709456063375297,456.0393039089983
3711.9307,0.706542936393335,426.38602641942816
3712.7866,0.701079923304227,484.742757110766
3713.6409,0.6940019144925605,661.963424965418
3714.4973,0.6861899708995673,395.87817334064755
3715.3518,0.6783622119760364,433.06289779951953
3716.2085,0.671195008071724,535.1890703727403
3717.0635,0.6657276060084855,501.5760750738453
3717.9185,0.6630186928080877,757.3316846529934
3718.776,0.6636240492186225,587.4521837105111
3719.6313,0.6671614803303191,436.6938260027547
3720.489,0.6724896470219279,575.869812681365
3721.345,0.678170403296701,352.78342709910146
3722.2031,0.6829649296966889,675.6671584829211
3723.0593,0.685937606372411,391.81480816640476
3723.9158,0.6867419005086817,391.7474429838343
3724.7747,0.6858000297410948,492.661630235461
3725.6316,0.6842381794720707,586.5106483682013
3726.4905,0.683265080941708,588.2304156483856
3727.348,0.6835102151978957,675.1963502836968
3728.2073,0.6848384103789412,455.79237119641715
3729.065,0.686690926768954,420.9580112145944
3729.9229,0.6884974265908709,545.4090174241595
3730.783,0.6898147141231831,413.42685873485306
3731.6414,0.6903379087485123,398.846015796455
3732.5017,0.6900176340889945,571.4503056495829
3733.3604,0.6891931795383309,432.3081772352132
3734.2214,0.6885371907405106,361.43710028926
3735.0803,0.688675853775194,325.3924079403606
3735.9417,0.6896721855986577,517.2046425522961
3736.8013,0.6908698575810062,579.0327384562715
3737.661,0.6913332397097747,492.8027319920943
3738.5227,0.6904886790881619,441.1803001672469
3739.3828,0.6884414783134528,427.0171876097004
3740.245,0.6857771090291332,515.0145876460738
3741.1055,0.6832550071132489,498.43672627904795
3741.9683,0.6815407032269805,537.2877631644266
3742.829,0.6810767687827347,402.0336352120675
3743.69,0.6818383208369271,400.9584284767683
3744.5532,0.683270849942021,478.3779459051324
3745.4148,0.684512522049398,363.74379027943513
3746.2786,0.684918376818501,616.6388593480862
3747.1404,0.6844333189091779,419.1608585269877
3748.0044,0.6835759825405635,506.5057043151359
3748.8667,0.6830606776921059,637.0634292854961
3749.729,0.6833430861827618,456.83569578328655
3750.5938,0.684399658422872,442.48256088778544
3751.4565,0.6858041587429348,552.0879361449148
3752.3215,0.687093515478825,632.766806259781
3753.1848,0.6880847300440212,408.43863042562816
3754.0503,0.6889268559432882,592.7021006666846
3754.9138,0.6897703562357805,656.2674512571243
3755.7776,0.6904601082353576,557.599528667231
3756.6438,0.6905515146924985,350.12974514676034
3757.508,0.6896741653610887,445.2534074314082
3758.3745,0.6878729381958092,433.31193729519055
3759.239,0.6856334868144899,421.96741365226916
3760.106,0.6835330771612368,487.7775204881306
3760.971,0.6819130166066641,505.4472868241279
3761.8362,0.6807189097488772,437.36023323381664
3762.7036,0.6796858276879516,447.321207296133
3763.5693,0.6785734235959836,427.17287127920764
3764.437,0.6772482908585057,398.7077193596532
3765.3032,0.6757071289849084,630.2112863807977
3766.1714,0.6740857482253324,558.6810392087878
3767.0378,0.6726661191989274,386.28072296434135
3767.9043,0.6716215485520532,588.8848352675973
3768.7732,0.6706915267725725,600.8645205222136
3769.6401,0.6691648813843883,517.4361492044886
3770.5095,0.6663749728257178,489.8491907316593
3771.377,0.6624097076228064,357.30471208963246
3772.2466,0.6582030423642388,646.1875542309739
3773.1145,0.6550221768555305,564.5233907349573
3773.9824,0.6536661117976905,470.4345373688428
3774.8528,0.6542834002803463,508.72732564539973
3775.721,0.6566464565736605,492.9544886026613
3776.5918,0.6604414160486088,467.24392490064815
3777.4604,0.6651532691315244,383.82922833011537
3778.3315,0.6700167022036876,418.3733129035762
3779.201,0.6740874941520928,584.1796554796133
3780.0703,0.6767045565610648,421.21944405318084
3780.942,0.6777182379383845,426.66783291623886
3781.8118,0.6774554271388797,460.19070390374384
3782.6838,0.6764199382144431,723.868518245798
3783.554,0.6749470878143602,451.46705299233224
3784.4265,0.6731276323296064,392.3151234554866
3785.297,0.6711332835953394,590.4700204231382
3786.168,0.6694471235716598,1001.2999550717616
3787.041,0.6686576833465807,531.182533641287
3787.912,0.6688878691439375,336.9745205552256
3788.7856,0.6695233128838469,573.8293421108139
3789.6572,0.6696493894564572,357.6740298104311
3790.531,0.6688104707345239,506.9175562563398
3791.403,0.6673473634506574,547.320997764788
3792.2754,0.6660162382299633,538.7232512337819
3793.15,0.665338300458135,654.8379350698506
3794.0225,0.66527977667964,502.7479770005908
3794.8972,0.6654130311764012,466.9923754116812
3795.7703,0.6652436111416773,494.1795118921632
3796.6455,0.6643461373916919,520.9091331616276
3797.519,0.6623728284135522,521.1682557067213
3798.3926,0.6591519804745468,454.1705518773632
3799.2686,0.6549462893871217,457.3846799909531
3800.1426,0.650679255546159,404.74698953610726
3801.0188,0.6476418208396315,551.8101056495422
3801.8933,0.6469182606960562,937.064659495449
3802.77,0.6487236473750304,422.237949070649
3803.6448,0.6523805849780077,439.86038908563233
3804.522,0.656914576807332,466.91857739597117
3805.3972,0.6615227790305875,445.9160011703559
3806.2727,0.6656906877204838,424.91309909616155
3807.1504,0.6689955010417273,547.6760251292213
3808.0261,0.6711912836218664,682.9585342386262
3808.9043,0.6724869494969,424.5174063123338
3809.7805,0.6733902785890442,642.377509822645
3810.659,0.6742630680281121,530.7133847931657
3811.5356,0.6749429537751778,377.5585502446138
3812.4126,0.674898319888184,427.3123900988303
3813.2917,0.6737250522191717,315.69975674751873
3814.169,0.671604848161422,476.3998795336637
3815.0483,0.669316242172603,438.4989829254691
3815.926,0.6678659842169028,592.1202018199922
3816.806,0.6678763840022935,496.29223180565106
3817.684,0.669220751870989,403.2620845757578
3818.5623,0.6711097588648167,555.4819503379777
3819.4429,0.6726195594608064,329.6386209408542
3820.3215,0.6732130094560758,517.8758668662406
3821.2024,0.6728748093414757,442.1543441383559
3822.0815,0.6717474432593109,388.338206573062
3822.963,0.6697518814592438,433.4749945044972
3823.8423,0.6666679110489367,355.3533011066386
3824.722,0.6625309636117936,602.5871683210488
3825.604,0.6578965387800774,595.0466046117931
3826.4841,0.6536197118692477,579.1865265484972
3827.3665,0.6502301153297773,507.46495304655224
3828.2468,0.6477173967934302,423.3744224143687
3829.1296,0.6456340677327418,485.1321311945035
3830.0105,0.6434996299384708,465.32090700701326
3830.8916,0.6409656919316636,461.87768255409213
3831.7751,0.637858373762122,833.5137916736472
3832.6565,0.6342329280285964,526.2767523171125
3833.5403,0.6303734350995068,576.4175675466349
3834.4224,0.6268043491156374,551.2061004358295
3835.3064,0.6239977127206559,536.7476849814465
3836.1887,0.622248670289374,605.8285228249337
3837.0713,0.6216741369788329,520.9345793882958
3837.956,0.6223787564160763,482.202564460938
3838.839,0.6244270429991869,550.7676386206294
3839.7244,0.6276913847334061,428.43939182079026
3840.6077,0.6317113680794546,854.0314856032354
3841.4932,0.6358703715868386,588.5085200023326
3842.377,0.6395922628709182,467.13995095903095
3843.261,0.6426061999769777,492.7188454494023
3844.1472,0.6449170788724062,687.8804591478107
3845.0315,0.6466412670080578,479.484037741116
3845.9182,0.6478957053846357,477.56127619891123
3846.803,0.6487967293912928,365.1413740354418
3847.69,0.6496703950588786,637.8521064507537
3848.5752,0.6510843695412649,466.42683133449844
3849.4604,0.6535675861881569,567.2355703509029
3850.3481,0.6571866002460156,453.78173522878757
3851.234,0.6613955789009506,572.0624135704488
3852.122,0.6654500808942161,507.3323680165577
3853.0083,0.6687827198913913,463.7089934767141
3853.8967,0.6712166394286582,515.5001009881566
3854.7832,0.6727319940086854,495.6046338307609
3855.6702,0.6733602764603644,476.7748362542343
3856.559,0.6732318625431387,536.1543732523344
3857.4463,0.6727091341565442,478.1045744013097
3858.336,0.6722426062930975,429.1187683844557
3859.2234,0.6719815222037199,615.7712726504051
3860.1135,0.6715272085284222,412.9864219489682
3861.0015,0.6702118826689268,516.2856341862522
3861.8896,0.6676956864197897,546.4907272767449
3862.7803,0.6643648676514508,548.2106309856996
3863.6687,0.6612313933865255,468.6830732511769
3864.5598,0.6593070875572457,493.30970693113085
3865.4487,0.6590600618059044,606.2879287896462
3866.34,0.6601322940145807,374.8764914860239
3867.2297,0.6616097987015297,625.9262642059853
3868.1213,0.6625951238291415,477.7669971281354
3869.0112,0.6626266837477256,552.0395531401944
3869.9014,0.6617014059819766,409.8862628704847
3870.7937,0.659954237888442,444.66434197037756
3871.684,0.6574429871121557,498.4022199112342
3872.577,0.654158275413185,477.0576372976053
3873.4678,0.6502262387046641,527.6163002389486
3874.361,0.6458286252096537,396.82824868487774
3875.2524,0.6411063598135729,527.2486176305821
3876.1438,0.6360510860661895,751.1664202764623
3877.0376,0.6307459557934828,563.6571586166202
3877.9297,0.625587949178216,480.5720354392266
3878.8237,0.6210109983909489,687.833678182547
3879.716,0.6171399143953491,642.9581118604048
3880.6108,0.6135476225982276,474.42331348559946
3881.5037,0.6096623326307962,546.6115122923756
3882.3965,0.605190729180242,713.1247841575429
3883.2917,0.6002675653459435,519.7751451661962
3884.185,0.5952195527343839,837.6594549309787
3885.0808,0.590179571867615,463.42594001883265
3885.9746,0.585181439311447,439.07267632495456
3886.8706,0.5802593140615873,613.143868046128
3887.765,0.5756548945969779,549.2815387862762
3888.6592,0.571713951432821,845.012118039974
3889.556,0.5689121083103663,607.8196267981293
3890.4507,0.5679047533320499,667.5766236231235
3891.348,0.5693317099946918,669.6129616425159
3892.243,0.5733687436317855,940.9437068005848
3893.1406,0.5793256208579144,732.6563013314343
3894.0361,0.5856730334187146,598.0116240094507
3894.932,0.5909057162038548,461.2746018402251
3895.83,0.594369988639545,713.7446821144201
3896.7263,0.596556445391146,704.2793765877524
3897.625,0.5986708616147284,544.1004542529154
3898.5215,0.6017821061734517,498.8926097746728
3899.4207,0.6064187971205518,471.8536379859684
3900.3176,0.6125428003090669,585.4705239000164
3901.2148,0.6198322632759365,682.7646804922402
3902.1145,0.6276982523191654,564.4475002483723
3903.0122,0.6352168616183772,437.1284471116073
3903.912,0.6415117562644184,650.7112237255831
3904.8103,0.6461191191431854,556.205242709905
3905.7107,0.6494390531585977,588.5131747203646
3906.6094,0.6524514370297109,484.9236151792793
3907.508,0.6560541076874334,485.7895284131537
3908.409,0.6603637247241219,537.4212404376592
3909.308,0.6646714485808971,387.59822260306544
3910.2097,0.6682022947547365,436.4116096986962
3911.1091,0.6707484197968087,559.5512914199445
3912.011,0.6728111307619374,497.6254375966559
3912.9111,0.6751104254859649,680.9961731534385
3913.8113,0.6782392070500903,475.7520991131377
3914.7136,0.6825290667872884,517.0363649072442
3915.6143,0.6879067045506936,606.0120883647571
3916.517,0.6938227018013172,460.27409684022433
3917.4182,0.6992932492536358,466.6582941554995
3918.3215,0.7035259239578763,438.6393803719872
3919.223,0.7063423679048481,537.6499707194489
3920.1245,0.7082019986655963,483.5487482839327
3921.0286,0.7096028344047439,417.31409793365776
3921.9307,0.7106154299750452,353.44101067183055
3922.835,0.7109831362292873,586.9554936139751
3923.7373,0.7105180286187237,463.620850309643
3924.642,0.7092991507113247,606.7408639618737
3925.5452,0.7074793700142448,391.9794766009794
3926.448,0.7050393784528854,500.9471695997132
3927.3535,0.7018813688198682,372.3173955013801
3928.257,0.6981714831124205,592.3424351576012
3929.1628,0.6943808025939783,520.8586380138161
3930.0667,0.6910706465057894,343.77904762441057
3930.9731,0.6884402246297677,481.6156037146486
3931.8774,0.6862688609404697,456.26727724998557
3932.782,0.6841041876361941,443.6509891205886
3933.6887,0.6816521839507808,586.0787049173251
3934.5938,0.6789763660641205,523.6222732832481
