wavl,flux,ivar
3566.9744,2.5413455388837223,81.5233353689584
3567.795,2.537129322774845,88.52744010431378
3568.6177,2.5339306679787117,97.13798301041169
3569.4385,2.5312559355839523,100.5500617995983
3570.2617,2.52897530912153,101.4237343747144
3571.083,2.526296304112197,83.38249799376474
3571.9065,2.5214352357035885,85.62214757969937
3572.7283,2.5130001519476783,87.26700502184161
3573.55,2.5016632037531883,76.42953697933424
3574.374,2.4903698790188984,108.57096401650496
3575.1963,2.482626659515686,124.18128377699844
3576.0208,2.4801878322500763,78.84081622130131
3576.8435,2.4827323494835256,87.42569707859641
3577.6682,2.4890546699632767,86.67870562812348
3578.4915,2.498162322091871,80.50834072887642
3579.3145,2.5090612619018344,75.49010464962001
3580.14,2.51972365266791,96.06315166393567
3580.9636,2.526800568100944,74.75651449313295
3581.7893,2.5272196086963192,68.16080382436785
3582.6133,2.520087917791409,78.50346884609505
3583.4395,2.5074560483049555,107.82226869667306
3584.264,2.4932438915841253,87.79335670441036
3585.0884,2.4809882722356504,96.14684560283983
3585.915,2.4726102211179564,99.74032623554875
3586.74,2.468397506265285,93.63018408876847
3587.5671,2.4673995549391354,87.60481204190353
3588.3923,2.4681027935133533,94.86761122081285
3589.22,2.469133538193306,76.13956172189924
3590.0457,2.470046250636035,88.51372247027207
3590.8716,2.471522625600037,85.60653682009834
3591.6995,2.474629115270199,90.83277972219787
3592.526,2.4797541956582023,80.96169884722697
3593.3542,2.486204526868633,92.00265011082516
3594.181,2.492454840148198,118.17250866194317
3595.0098,2.4969207416486663,77.64646358937559
3595.8367,2.4983226886994654,96.79155510997131
3596.6638,2.49581695497445,88.93566547872041
3597.4934,2.488934455163644,112.31872701089645
3598.3208,2.4782271474753426,83.09281206979404
3599.1506,2.4658579269922227,75.34449269919764
3599.9788,2.455496780391384,117.14187322116499
3600.8088,2.450245675266016,88.20433554181537
3601.6372,2.45070459720416,88.90751379368419
3602.4678,2.4543593311371494,91.01490664387543
3603.2964,2.4569917096251217,111.50440208050597
3604.1252,2.454958140119072,98.62345970823047
3604.9565,2.4469109063738115,101.55052177007194
3605.786,2.4344259187497506,112.10323898184816
3606.6172,2.4208006143545933,112.58989951540838
3607.447,2.409259760162102,84.93617677727268
3608.2788,2.4011955344267526,95.17430134187735
3609.109,2.3961488040772503,116.96744851346759
3609.9392,2.392561520995297,97.55207119481295
3610.7717,2.3889501156432473,99.10118468939947
3611.6023,2.3847557820617613,98.51719743551152
3612.435,2.380704717755936,96.7808032691728
3613.266,2.378594827008599,82.33806244357419
3614.0994,2.380103792957063,103.37477239825124
3614.9307,2.3854556169470835,113.64411081567323
3615.7625,2.392950826600822,98.08572842886412
3616.5962,2.39980743061093,81.16164279007334
3617.4282,2.403669849850023,89.34473375831809
3618.2625,2.403873606147924,99.27404071415076
3619.0947,2.4014701041159805,76.58804151772038
3619.9292,2.3983129532864687,94.2935462391756
3620.762,2.3957955220108738,100.6573343864742
3621.595,2.393947645316871,84.63034697487534
3622.4302,2.39160851446862,103.23585494945632
3623.2634,2.3876462565326664,98.94194501849074
3624.0989,2.3823369039137154,90.38576206683838
3624.9326,2.377645049501743,104.13161462110978
3625.7686,2.3754935823068495,93.36520512741177
3626.6028,2.375711921417717,102.46977779283087
3627.437,2.3757211532177354,103.59126056949741
3628.2734,2.372683590238857,82.85434698526126
3629.1082,2.3660001882695205,86.00687228408053
3629.945,2.357692541724268,105.4480058665638
3630.78,2.3507579152934177,109.93222341612514
3631.6174,2.346884027461501,84.03689175899132
3632.453,2.34559075193998,98.53718631656835
3633.2883,2.3445673260636397,98.66668297374578
3634.1262,2.3409327786824803,107.84930657650047
3634.9622,2.3326045644228626,105.39412229731043
3635.8005,2.319091009396113,100.16965888857897
3636.637,2.301869640221761,116.01051539324749
3637.4756,2.2837263900084026,121.26617126270847
3638.3123,2.2681192417694316,110.66106812766223
3639.1492,2.2574646879230733,120.35563720870155
3639.9885,2.2521226190415806,145.60530752268374
3640.826,2.250412917144165,102.16715045819562
3641.6653,2.2498907513050233,103.4206482692718
3642.5032,2.248885743201857,98.8161850957352
3643.343,2.2468662878161774,108.7349508838422
3644.1812,2.243867064499199,99.43986936045717
3645.0195,2.2398339744784153,101.24483697720251
3645.86,2.234552510278873,102.94484186668168
3646.699,2.2280084517121512,111.03008883323228
3647.5398,2.2205764198753757,137.26748007729367
3648.379,2.2131623169027335,105.76981211688754
3649.2202,2.206881306290835,126.41412909680984
3650.0596,2.202830571543059,96.31341979652294
3650.8994,2.2015908976202,119.5397181782663
3651.7412,2.203035891846006,118.29666719207002
3652.5813,2.2062666067927825,96.90198982534706
3653.4236,2.209913286352403,108.44603267273942
3654.2642,2.2125637037949253,113.86509006768698
3655.1067,2.2132399106481637,113.70067147915573
3655.9475,2.211459141027403,106.5757199489578
3656.7886,2.207061452313488,102.00140145403796
3657.6318,2.2000447080012195,79.98521919636393
3658.4734,2.1908220281125224,116.13288103585138
3659.317,2.1804885477841327,113.22198311695976
3660.1587,2.1710961760797742,99.41596615270797
3661.003,2.1648872246432065,120.82481115188199
3661.845,2.1632265619356374,157.30230479509603
3662.6875,2.1655494480500286,118.96372707122305
3663.532,2.16976202730785,114.44024467543086
3664.3748,2.1735265960975925,133.868125954935
3665.2197,2.175504606029677,95.932079067112
3666.063,2.175441434159165,119.5354299521156
3666.9084,2.1736232169990948,93.33150165920485
3667.752,2.170384881539973,120.03669832753286
3668.5977,2.1659182085350683,163.73049941439996
3669.4417,2.160277439046429,138.460286721402
3670.286,2.15332713423111,123.5690836221393
3671.132,2.1450254772776813,111.4935686649048
3671.9768,2.1359107121340846,101.45541839332856
3672.8235,2.1271870918373725,95.16985958939792
3673.6685,2.120590951499246,140.85574158990687
3674.5156,2.117544702498004,154.87424199109842
3675.3608,2.118348172132728,91.10015610011774
3676.2063,2.1215217435470834,104.52028130096744
3677.0542,2.124204748704355,154.6647822970851
3677.9,2.123543080307889,101.68381614385568
3678.748,2.118361695824923,125.77440529461532
3679.5945,2.1097468136658755,136.75604539806463
3680.4429,2.1000125261535296,104.02950563522482
3681.2896,2.0912384083313236,110.76124676351692
3682.1365,2.084110704239802,159.62119614232662
3682.9856,2.077956999523064,135.85195613554959
3683.8328,2.0714784436517504,136.89218215227382
3684.6824,2.0637444578484527,83.43245421754867
3685.53,2.055308870440576,146.61212162716302
3686.38,2.0480814708650037,141.53313054575207
3687.2278,2.044234048405795,126.36733599743772
3688.0762,2.0444590545975854,126.83119031944938
3688.9265,2.0474959845494323,128.63998839750982
3689.7751,2.0511057178756684,133.13911213995237
3690.626,2.053868710485296,124.15482550855629
3691.475,2.056038259592673,111.14363655636892
3692.3264,2.0588299637990133,159.97233884767664
3693.1758,2.062701339304504,137.3546250664519
3694.0254,2.066543539776209,137.07996659914258
3694.8772,2.0684990644453767,148.4465740638813
3695.7273,2.067581066496032,137.61148808714498
3696.5793,2.064435851214742,131.89435474012848
3697.43,2.0606020772076086,128.08102211657112
3698.2825,2.0571711339883403,149.12498367477818
3699.1333,2.0542229840288666,126.47659401187656
3699.9841,2.0511556965246656,154.07593613139318
3700.8374,2.047473044567999,130.10501735491343
3701.6887,2.0433006027212404,116.93130384191983
3702.5425,2.0393025002979464,149.32660118132554
3703.3943,2.036414456282716,166.14270673503106
3704.2483,2.035329737633713,130.13588561823593
3705.1003,2.036175289978999,150.04091395228056
3705.9526,2.038330403833661,148.75661832135862
3706.8074,2.0406118573712932,124.78166697250444
3707.66,2.041648574918022,124.96126636768074
3708.515,2.040408703946108,129.79239247157608
3709.3682,2.036728380159177,112.40681887436502
3710.2234,2.0317617064862734,113.83890993125544
3711.0771,2.027898612716429,154.54264329286227
3711.9307,2.0275001859871664,140.83952425264576
3712.7866,2.0312260334648435,120.99269894927222
3713.6409,2.037145629463202,116.9133646453043
3714.4973,2.041773025499095,160.388755570991
3715.3518,2.0421662536754916,120.58895322079348
3716.2085,2.0377393462840385,169.02705892421312
3717.0635,2.03032572184047,128.85670379890763
3717.9185,2.022589384884784,138.2280384159414
3718.776,2.0162569285252285,140.1528336168424
3719.6313,2.0116330240086047,118.41261784343834
3720.489,2.0082631685649077,131.37652048190066
3721.345,2.005798831086426,182.37178538255412
3722.2031,2.0037687390819254,170.8136060723938
3723.0593,2.001233452527189,119.63717154067348
3723.9158,1.997221394031041,122.85294904056374
3724.7747,1.9917275745676017,134.41954849625012
3725.6316,1.985911321504733,136.8441692544978
3726.4905,1.980881410544882,98.09393504418688
3727.348,1.9766146983662316,156.63440510888123
3728.2073,1.9719819247843555,144.0513604530425
3729.065,1.9661908722077392,127.49808052407084
3729.9229,1.9599826241801552,134.61035480195517
3730.783,1.955479054837666,160.51167472653975
3731.6414,1.9545786694293972,190.67346615031903
3732.5017,1.9572808888652644,141.65377952797672
3733.3604,1.9616061326866367,176.3183987565296
3734.2214,1.9650312906061096,122.23213252634623
3735.0803,1.9659450165093066,127.08623895109346
3735.9417,1.9641276810623485,159.1891650084902
3736.8013,1.9601840749197228,113.44749104326846
3737.661,1.9549427959294639,154.11383393378563
3738.5227,1.9493569332067333,150.60629829635263
3739.3828,1.9446366535212227,153.8056777432138
3740.245,1.9419013867973132,144.79011986817
3741.1055,1.9417265272583741,161.43737735256582
3741.9683,1.9438084319134374,108.73844515580011
3742.829,1.9471211875374868,147.366174212892
3743.69,1.950302689867066,135.47996050032918
3744.5532,1.9520238430132129,125.73911525199391
3745.4148,1.9513804858611676,123.20599006023932
3746.2786,1.9482247196119487,136.00631354208164
3747.1404,1.9431683593462221,142.38319787392288
3748.0044,1.9372596595258205,155.81289738769556
3748.8667,1.9318469003002068,130.62340515598396
3749.729,1.9283298550431134,150.3546075798585
3750.5938,1.927803379470096,180.30477587437548
3751.4565,1.9303762990816598,192.60332632877598
3752.3215,1.9348110740179585,123.6920651857947
3753.1848,1.9389854975719814,125.7858155189196
3754.0503,1.9410708892200426,142.74131182116628
3754.9138,1.9403618966996008,160.07046376892723
3755.7776,1.9373721097936782,131.8886864646433
3756.6438,1.9332150707481857,159.048094602995
3757.508,1.9290258394045423,148.67936985371227
3758.3745,1.925533260510931,122.00070744678293
3759.239,1.9230507900121976,167.64063409197792
3760.106,1.9214576841192932,135.27966221457683
3760.971,1.920262644674544,191.74643015413017
3761.8362,1.9185571203808303,109.66287998216444
3762.7036,1.9152795365229645,131.90544584526398
3763.5693,1.9099439698176415,196.95530968335817
3764.437,1.903217865371167,148.26438088746016
3765.3032,1.8967626299920417,168.26433353056368
3766.1714,1.8919685016784118,143.31308681034272
3767.0378,1.8889179804044458,133.93341211701235
3767.9043,1.8862640629966987,163.83330919173224
3768.7732,1.882316443979678,154.07858365105778
3769.6401,1.8762678002371451,145.63633216219324
3770.5095,1.8685127474516687,124.47708466796253
3771.377,1.8603623579449287,153.2433610640921
3772.2466,1.8533800140895034,166.4296426475371
3773.1145,1.8492287918383592,157.89136163335507
3773.9824,1.849192792797603,145.71080926770267
3774.8528,1.853628896677566,191.76814192294728
3775.721,1.8614042420872348,146.54965356153207
3776.5918,1.8702475485945267,134.81033906899455
3777.4604,1.8775837998658367,136.60600358585475
3778.3315,1.8817512954856546,169.09103979437396
3779.201,1.8823081753634385,184.6947965334481
3780.0703,1.8798525340623429,149.25639474505647
3780.942,1.8753759770720453,150.16943064225188
3781.8118,1.869832571922068,159.08219621758113
3782.6838,1.8637652427092533,168.50868282272606
3783.554,1.857238932237783,157.09314112096084
3784.4265,1.8497693325272777,170.09910521431758
3785.297,1.8408568029220076,172.77579670119758
3786.168,1.8304761873164448,155.1240229851746
3787.041,1.8194461764692564,159.17912248098867
3787.912,1.8091656246682595,134.14740433397898
3788.7856,1.800694003485801,235.38956374238663
3789.6572,1.7945015574948262,171.57573259318818
3790.531,1.7904224603989352,154.66323978509672
3791.403,1.7880147575049214,251.72348977563044
3792.2754,1.7864360502752827,144.10629541776524
3793.15,1.7844203474047666,178.71977403167034
3794.0225,1.7807258325958704,156.53492478433756
3794.8972,1.7749090139213315,162.4277685186607
3795.7703,1.767855046013395,191.54804157152105
3796.6455,1.7613144291228944,196.68223198115805
3797.519,1.7571182988991942,184.2645212777362
3798.3926,1.7563572091407096,210.62040797921836
3799.2686,1.7592882680777922,213.05725023002373
3800.1426,1.7654263390576803,179.8812592925398
3801.0188,1.7736487274656145,152.6847007809096
3801.8933,1.782102246614749,171.08477708992808
3802.77,1.7888401647230476,208.36498678432963
3803.6448,1.792812538730482,150.04357455564582
3804.522,1.7948641414152238,180.99314385575792
3805.3972,1.797236533080905,206.92435886630284
3806.2727,1.8019770017820786,186.5034369330068
3807.1504,1.8094172538770255,185.37263967953416
3808.0261,1.8179307703776013,150.26012523569798
3808.9043,1.825182507466191,161.17097638369398
3809.7805,1.829392777549276,163.12524028421404
3810.659,1.8303385245191577,153.6105830945986
3811.5356,1.8293460589250665,153.97221907380722
3812.4126,1.8285764158369961,179.5160835206595
3813.2917,1.8297269629963187,149.28211910605526
3814.169,1.8329831625398332,147.37962216766147
3815.0483,1.8370304273571811,154.96900774821404
3815.926,1.83992630022166,169.6427633946941
3816.806,1.8401871505981167,161.6670260714213
3817.684,1.8372568859871063,157.0262580988219
3818.5623,1.831485879860393,166.2730821294798
3819.4429,1.823778373548053,173.4794041921492
3820.3215,1.8152547351800405,184.77861089653277
3821.2024,1.8066667908410596,172.25195296329576
3822.0815,1.79827205720836,175.1020677651564
3822.963,1.7897561379984213,163.06957871230986
3823.8423,1.780787498308658,181.3549489265325
3824.722,1.7713460915838581,187.94717177691524
3825.604,1.7619390102818095,163.19007408972712
3826.4841,1.7532467559587075,203.80581999017025
3827.3665,1.7451676746508409,207.24002939169804
3828.2468,1.7366008766486791,195.41222686333424
3829.1296,1.7258623399075705,181.7115594328518
3830.0105,1.711938418706025,252.34822270762623
3830.8916,1.6948593585438867,180.88336950159072
3831.7751,1.6755184795283697,182.610282970676
3832.6565,1.6554338316960682,170.9019487738102
3833.5403,1.6361943180932628,273.51869595193244
3834.4224,1.619651614922579,242.87459277779868
3835.3064,1.607173797421568,188.92045471743614
3836.1887,1.599610948561406,223.81443074810159
3837.0713,1.597158124148045,232.47403942771066
3837.956,1.599713258752467,195.92991685505316
3838.839,1.6068560181597096,211.21037832056822
3839.7244,1.6178344846972204,194.7873962015248
3840.6077,1.6315637656829958,219.96131214501133
3841.4932,1.6471452790982029,201.29263086157098
3842.377,1.6637936279056165,188.15966343139607
3843.261,1.680890741620587,292.93476826262736
3844.1472,1.6976689177146327,216.83157115678912
3845.0315,1.713278905621681,171.23931832515632
3845.9182,1.7275984811700054,183.5447417684178
3846.803,1.741194992099787,178.069280100008
3847.69,1.7550997128251016,186.93433506854933
3848.5752,1.7695865067604646,159.8863325718604
3849.4604,1.7839681817004769,152.0699470658867
3850.3481,1.7971532945282487,176.09203710685512
3851.234,1.8085456430662956,159.3638219340178
3852.122,1.8184751024369639,161.19701171553103
3853.0083,1.8271210545674876,188.0869036547539
3853.8967,1.8338722773497647,148.75566173273546
3854.7832,1.8374814617664263,235.04173644800449
3855.6702,1.8374223079176515,151.6425996293597
3856.559,1.8345870958892507,169.0982786535119
3857.4463,1.8307917107855443,161.91611659602233
3858.336,1.8275159507402847,162.5829687759075
3859.2234,1.8253773111163412,152.30821984923136
3860.1135,1.8244069146148654,172.0982343864023
3861.0015,1.8244574312197346,173.39262028488957
3861.8896,1.8249289206993669,176.78319154290097
3862.7803,1.8244640426926817,169.40481594209376
3863.6687,1.8214762482011484,179.6623198622529
3864.5598,1.8153435714368389,198.92142885230203
3865.4487,1.807149839314061,163.1925395665864
3866.34,1.7987825444844598,181.64445119659374
3867.2297,1.7914397739952297,191.56117718028003
3868.1213,1.78452594281533,167.68911422607334
3869.0112,1.7763719641999953,175.34712426089834
3869.9014,1.7656103032309767,146.88053204978794
3870.7937,1.7521493340130572,147.09964921257284
3871.684,1.7370269645797876,146.29021751058454
3872.577,1.7212696340131748,189.2116011709062
3873.4678,1.7056310698371873,193.50258366121824
3874.361,1.6904224147029892,195.39773244416426
3875.2524,1.6760896795499167,168.91251196051948
3876.1438,1.6628310867092255,274.6306633695611
3877.0376,1.6503265900100075,193.77432416880265
3877.9297,1.6377331340882681,195.77625263878642
3878.8237,1.6239129124242928,192.61858428988126
3879.716,1.6082651871387708,187.27285935170784
3880.6108,1.590696604378143,251.0457658617446
3881.5037,1.5715908421198548,205.36917107316597
3882.3965,1.5510911789800534,188.20731967043022
3883.2917,1.5290668217660128,209.1322949804391
3884.185,1.5054369555728104,258.19600141569714
3885.0808,1.4799293993191704,207.7199347614958
3885.9746,1.452743748126138,248.27231620372737
3886.8706,1.4244442220302038,290.35184498622255
3887.765,1.3968758667756285,259.67387577677357
3888.6592,1.3727626473505126,307.92338676705685
3889.556,1.355245727107354,361.91668612697885
3890.4507,1.346861974156564,324.5249648504225
3891.348,1.3483659558266583,295.05737851513936
3892.243,1.3588120830427715,308.4933659362904
3893.1406,1.3762835138853122,293.52585567991616
3894.0361,1.398408376700529,373.1832321016428
3894.932,1.4228818982947724,236.98506550326863
3895.83,1.4474449451924136,246.17318837347491
3896.7263,1.4702721018788871,234.636005745734
3897.625,1.4913067659370753,214.65825438497566
3898.5215,1.512028436656545,254.44570938756348
3899.4207,1.534722698820241,269.99619101060307
3900.3176,1.5601792431027515,287.10516618076383
3901.2148,1.5872558205620206,197.78768544505925
3902.1145,1.6135769314340895,240.77894259867088
3903.0122,1.6370005397527154,197.1986268142817
3903.912,1.6569777138212554,215.84626323412664
3904.8103,1.6738301143630065,199.7365975413489
3905.7107,1.6883676395747438,241.53095324490977
3906.6094,1.7012512800746995,193.23151505082572
3907.508,1.7133606679134932,176.12330285691854
3908.409,1.7258505096912562,229.1283723551465
3909.308,1.739859616459716,184.0746558488494
3910.2097,1.75618987280342,175.6140356760385
3911.1091,1.7745151043606533,153.0599847907447
3912.011,1.7935709757234164,156.75174389666557
3912.9111,1.8112246555822447,143.30554546694177
3913.8113,1.8256090481938774,193.36174987577667
3914.7136,1.8358048567114698,191.68051867086308
3915.6143,1.84220561228329,171.05265301581028
3916.517,1.8464819979930371,135.80523933601495
3917.4182,1.8506994227446754,150.42403815208982
3918.3215,1.856324549024627,181.34607297984323
3919.223,1.8632787535101094,147.5925049573268
3920.1245,1.8700414747255691,170.88883395705577
3921.0286,1.8746407243569414,126.06014386704928
3921.9307,1.8760146779727598,167.03528705405827
3922.835,1.874796760197816,164.51486232987997
3923.7373,1.8727936033230312,141.01409956573488
3924.642,1.8717474841317325,168.37973476531644
3925.5452,1.8724007855313878,143.95639798430648
3926.448,1.8744155401828249,158.2552594031012
3927.3535,1.8769894593015075,152.09889365437584
3928.257,1.8794061037379426,157.11786225490047
3929.1628,1.8812850291988554,163.95365408749862
3930.0667,1.8824358465156585,152.7912647772045
3930.9731,1.882741986993849,153.64815312351132
3931.8774,1.8821307261269942,156.92957405739745
3932.782,1.8806616138003451,156.01093273459614
3933.6887,1.878463041278325,178.88311484972022
