wavl,flux,ivar
3566.9744,1.2744141378991076,234.4955566970086
3567.795,1.2692447314325779,301.0772003540282
3568.6177,1.2663894583589115,169.4761555485454
3569.4385,1.266324443628863,266.4220218446996
3570.2617,1.2687693425257298,196.44452134016223
3571.083,1.27286549038842,206.1427654162206
3571.9065,1.2774425389590884,150.09736946518058
3572.7283,1.2813001311753547,209.2681533119032
3573.55,1.2837215177002161,221.4894491746528
3574.374,1.2846106667325923,213.6532962169126
3575.1963,1.2841369728662893,189.85455957185752
3576.0208,1.2822145224351276,223.456028356218
3576.8435,1.2785829166304572,167.28930947451485
3577.6682,1.2735181900924142,137.75392797611292
3578.4915,1.2682853854045393,206.3597036610991
3579.3145,1.264239654783845,243.61870391592552
3580.14,1.2614912138067358,263.04474406264916
3580.9636,1.2586866259694083,152.73595564356447
3581.7893,1.2543756562643436,179.42871441557196
3582.6133,1.2487517392716216,235.204994319024
3583.4395,1.2437282846226445,306.10856269457247
3584.264,1.241510494539176,159.42460621102717
3585.0884,1.2428032485036873,255.72308703279347
3585.915,1.2463945279897668,213.1592513590633
3586.74,1.250040646465874,179.53148283836953
3587.5671,1.2520670870782826,181.24265374370677
3588.3923,1.2523942321746282,183.23999205535762
3589.22,1.2524355783487535,242.8228537584384
3590.0457,1.2537727225259723,161.32542836976145
3590.8716,1.256685088180268,231.1896435607558
3591.6995,1.259795009592085,184.97025852662892
3592.526,1.2611332144216574,236.3284789148285
3593.3542,1.2596997086463877,187.99973394713595
3594.181,1.2560062327816552,216.73464462555535
3595.0098,1.2513216323016472,150.89308940840456
3595.8367,1.2466418942237905,161.98533105016833
3596.6638,1.2421753787260907,225.43602133358243
3597.4934,1.2377208959696888,173.0418817694914
3598.3208,1.2332315965251615,192.68404727009033
3599.1506,1.2288583776507997,176.1489283415624
3599.9788,1.224729158433049,188.5403818084315
3600.8088,1.2205879008625962,262.80097392010344
3601.6372,1.2161501509905857,181.08202898764688
3602.4678,1.211730281440138,171.4511433988919
3603.2964,1.208659448297795,231.5505525711161
3604.1252,1.2085626351890515,172.8623943419504
3604.9565,1.2121619980319114,291.24137305961546
3605.786,1.2183909391835457,213.63297869225184
3606.6172,1.2247954918490132,229.90680574141422
3607.447,1.2287022628209474,232.49633406745204
3608.2788,1.2286764133560664,193.44126510749544
3609.109,1.2252068243277474,224.58622896716008
3609.9392,1.2204385899764711,174.41376481049872
3610.7717,1.216968162789748,137.52559518099568
3611.6023,1.2163669973126807,245.1937968574126
3612.435,1.2182295791124207,187.7063010941442
3613.266,1.2205431653660952,203.6913642014614
3614.0994,1.2210885119653931,179.40233431267328
3614.9307,1.218815376514044,196.96780375612755
3615.7625,1.2142779757348696,338.9655490141391
3616.5962,1.2089369932493286,254.8294548450263
3617.4282,1.2041494628066862,217.0167981441279
3618.2625,1.2004890510798358,211.96778408308032
3619.0947,1.1979333945981174,230.18303125599945
3619.9292,1.19616036621579,354.66833423564356
3620.762,1.1947386585580022,293.7062123201244
3621.595,1.1930343764384979,274.1481661946117
3622.4302,1.1903445370725774,187.42507659768899
3623.2634,1.186354838666965,294.6344335209463
3624.0989,1.1815045699274498,278.86695923424986
3624.9326,1.177027555673312,371.30621575892144
3625.7686,1.1742753402286676,245.30105352723317
3626.6028,1.1739857975036176,278.72963691011824
3627.437,1.1757999964840957,237.19761488163093
3628.2734,1.1784648134023652,333.4673254195211
3629.1082,1.180250048623766,199.12547738941913
3629.945,1.1794143896914138,259.76764866778166
3630.78,1.1747158914228322,194.1571461739485
3631.6174,1.1661389146275543,237.78826277833068
3632.453,1.1555401663539582,276.02609059088695
3633.2883,1.1460199229969283,200.81540359466393
3634.1262,1.1403059561685391,326.86565676639975
3634.9622,1.1389989598054522,214.9850740967296
3635.8005,1.1400567406657056,239.4420553303883
3636.637,1.140290006338248,236.51074284693746
3637.4756,1.13760399142171,324.88934537254835
3638.3123,1.1323842009878702,276.514861601533
3639.1492,1.1270075450535466,400.3944517882704
3639.9885,1.124104371570753,260.92174287087295
3640.826,1.1248959499293765,220.44972585097364
3641.6653,1.128637254809481,291.67683052070873
3642.5032,1.1332595625388593,239.41932729143494
3643.343,1.1364328161070258,310.8861107784917
3644.1812,1.1363334342172162,334.89226286774334
3645.0195,1.1322411716744112,279.84115064131305
3645.86,1.12474942222506,296.5753238860127
3646.699,1.115658413231052,263.81289881691
3647.5398,1.1071653373001147,321.5078282423851
3648.379,1.1011359372004113,266.12345046040286
3649.2202,1.0983484194920738,308.63176592860793
3650.0596,1.098464461777132,253.5523420273264
3650.8994,1.1003217143341273,275.15364157302895
3651.7412,1.10251655882097,316.63577297490315
3652.5813,1.1037590602856744,287.08096522505826
3653.4236,1.1030712699797214,288.7808548712286
3654.2642,1.099986724187895,234.28067863121225
3655.1067,1.0948464757269543,271.63090226352244
3655.9475,1.0888425133201924,266.8613636931261
3656.7886,1.0832953193419619,250.59764706275536
3657.6318,1.0787975537425836,218.84166176848018
3658.4734,1.0749203952390571,231.0051722629376
3659.317,1.0707218280639192,304.0471522730429
3660.1587,1.0657936925988465,262.81610863269424
3661.003,1.0607065366639368,281.57537183321284
3661.845,1.0567698205780651,292.59944890769304
3662.6875,1.0550805429690608,283.08675274944545
3663.532,1.0559414348160456,374.6425030859267
3664.3748,1.058848919769896,284.6568314914121
3665.2197,1.0630427000117064,278.40640824685136
3666.063,1.0679381695630639,332.750636850215
3666.9084,1.0732782346285015,434.5975573202003
3667.752,1.0788500357648465,396.3566470580031
3668.5977,1.0844543657649228,312.2543315236605
3669.4417,1.089814104647243,248.99168670315646
3670.286,1.0946262754707023,264.74201149506877
3671.132,1.0983382602393341,321.0243356490954
3671.9768,1.1000400728586703,278.33183778827146
3672.8235,1.0987481021506187,283.2870563334751
3673.6685,1.0939261582689228,345.6954687312739
3674.5156,1.0859586997359227,316.2563061806536
3675.3608,1.0763368071791597,268.2875827553724
3676.2063,1.0670575931382191,263.43847097995007
3677.0542,1.05985024928164,380.79159858663866
3677.9,1.055559797338353,222.40065036551584
3678.748,1.053942738733515,231.32350440796748
3679.5945,1.0541849294223162,287.95465644568253
3680.4429,1.0553139894025059,276.78123095529986
3681.2896,1.0563956375795738,345.26562173022603
3682.1365,1.0565747255682703,379.62233992428315
3682.9856,1.0551896004590486,336.88565146029754
3683.8328,1.0520598980200335,290.3325342517122
3684.6824,1.0476302519856848,308.9287549287391
3685.53,1.0428869887991719,298.37115521497043
3686.38,1.0388155703561026,259.34580814651486
3687.2278,1.0359515726027198,287.3360166740413
3688.0762,1.0340424454123733,338.93855307698345
3688.9265,1.0322955167057866,349.757921134437
3689.7751,1.029972548177086,251.54872486400174
3690.626,1.0269194079537955,339.0476289758297
3691.475,1.0236885364827253,353.78838186414833
3692.3264,1.0211026847319804,305.1197155983922
3693.1758,1.0199036351805768,266.19006976790627
3694.0254,1.0205973706756435,355.78489253699655
3694.8772,1.023524230987881,334.24136025597403
3695.7273,1.0286593963293245,331.32017646578413
3696.5793,1.0352781007688305,338.8869816388201
3697.43,1.0416669452956122,338.7676851839901
3698.2825,1.0456965009534327,322.2444455042956
3699.1333,1.0459099763129889,246.74426536542504
3699.9841,1.042651268310298,259.72723201047864
3700.8374,1.0379489355779412,324.50525960557576
3701.6887,1.034257050098724,404.44404705390264
3702.5425,1.0328096701874008,342.9622325236689
3703.3943,1.0331892513981253,367.3819221543984
3704.2483,1.0341211182043537,235.70182211071426
3705.1003,1.0346185124993204,344.01470766916043
3705.9526,1.0343290747121796,339.4669005959942
3706.8074,1.0330392329362512,306.08816581619476
3707.66,1.0303375196462248,253.66600099411937
3708.515,1.025997970805215,312.10631752866135
3709.3682,1.0207258986345866,300.2377718194423
3710.2234,1.0160160694417757,445.73392072085176
3711.0771,1.0132246721450422,289.94900344596164
3711.9307,1.0125385201285604,290.57720889968266
3712.7866,1.01305242210776,241.5729666617706
3713.6409,1.0135958988383422,378.45765135866145
3714.4973,1.0134115026747812,357.5573123288472
3715.3518,1.01212863063374,244.82381913180797
3716.2085,1.0094484586396335,275.47334784301256
3717.0635,1.0051892123624746,274.95701298830926
3717.9185,0.9995799670393418,351.24222743440845
3718.776,0.9934240169880842,496.1437308360928
3719.6313,0.9879022196056911,299.83291604522566
3720.489,0.983969793025944,320.5819951117601
3721.345,0.9820788923594834,275.87722134527166
3722.2031,0.9820335770152817,432.06978574508696
3723.0593,0.9832125744199368,377.96891521866627
3723.9158,0.9849000926214426,270.510248138149
3724.7747,0.9866343626083751,331.98274514708896
3725.6316,0.9883157605797266,578.3506213172922
3726.4905,0.9900452002940283,341.5669126176233
3727.348,0.9917983223663082,311.22046721023713
3728.2073,0.9933828028576478,358.80176409098726
3729.065,0.9945726357141262,310.91233870899913
3729.9229,0.9952638432978597,425.07289355889515
3730.783,0.9954529696965994,306.6083712371412
3731.6414,0.9952171471236851,295.5021949831476
3732.5017,0.9947292497013733,299.742739499867
3733.3604,0.9942135360891795,405.8578196186919
3734.2214,0.9938171658413345,409.9388934031228
3735.0803,0.9935609386594209,319.8954470776735
3735.9417,0.9934092872809402,340.57599616420595
3736.8013,0.9933656199124361,329.64072632948296
3737.661,0.9934278435456831,292.90175780061327
3738.5227,0.9934405266005425,323.5586016796737
3739.3828,0.9929783642832317,382.83933473424753
3740.245,0.9913975317913579,341.3154232691018
3741.1055,0.9881200156278461,338.3696425118242
3741.9683,0.9829474868541411,329.6969671771562
3742.829,0.9763193910957445,314.80552447672085
3743.69,0.9691059621260824,385.1139734930884
3744.5532,0.9622771516997224,407.00550813262066
3745.4148,0.9566008205049574,405.3515024697108
3746.2786,0.952336568716279,406.2041327895489
3747.1404,0.9493857566086285,324.1977007261016
3748.0044,0.9474690203140888,403.2421032630912
3748.8667,0.9464989094570947,293.22120978252144
3749.729,0.946640930760333,377.04721329066643
3750.5938,0.9480605941418093,294.74095075999435
3751.4565,0.9504716505188201,358.7319697360076
3752.3215,0.953072998188282,451.1092896507323
3753.1848,0.95496114949799,276.46555157317266
3754.0503,0.9557808329190717,358.1795904133471
3754.9138,0.9559014399342685,353.5072272470215
3755.7776,0.9560706625318687,340.16615205710343
3756.6438,0.9568193398621365,398.7808259919625
3757.508,0.9581249732901195,354.4888387064921
3758.3745,0.9595530025085531,350.9352075895037
3759.239,0.9606020999608074,353.2046548998422
3760.106,0.9609533492517036,275.6728208563027
3760.971,0.9604159615461438,305.9378041480608
3761.8362,0.9588589919898609,346.62155327172064
3762.7036,0.9563193232229689,329.2499483729052
3763.5693,0.953261625266078,297.573332065048
3764.437,0.9505378154140829,350.6090442622245
3765.3032,0.9490281796813074,331.4094483652734
3766.1714,0.9490632114591153,318.08790110949354
3767.0378,0.9502073527550695,287.22151422521335
3767.9043,0.951506504450842,398.97238586540954
3768.7732,0.9520033308181738,343.34462685544764
3769.6401,0.9511403185662783,512.3932698493409
3770.5095,0.9488948157594315,395.4715892462203
3771.377,0.9457310669897117,367.298195418374
3772.2466,0.9423932786955991,354.29669485333
3773.1145,0.9396580459579252,420.7405217155223
3773.9824,0.9378766893168033,386.04719583410497
3774.8528,0.9367487704829154,300.7630804809655
3775.721,0.9355281851862243,360.62103582061326
3776.5918,0.9336020836233544,311.63543530338706
3777.4604,0.9310426079764893,365.4526044167649
3778.3315,0.9285274775782555,349.51450664377734
3779.201,0.9268531172603309,463.30959208312254
3780.0703,0.9263817244771287,473.8387670756442
3780.942,0.9269588453375186,458.42257247490903
3781.8118,0.9280721808678686,331.8242923724908
3782.6838,0.9290224334198092,328.66461094716055
3783.554,0.9290249037965169,393.8900618924937
3784.4265,0.9274642252551701,454.1869642161122
3785.297,0.9243250247929922,315.88823658935246
3786.168,0.920502288821289,406.3001491294856
3787.041,0.9176357456353367,356.40671607754797
3787.912,0.9173174393057049,330.2310891022955
3788.7856,0.9200614501050959,338.29051408672433
3789.6572,0.924904676276219,338.66092116371766
3790.531,0.9300066028010044,377.3743727538837
3791.403,0.9336505832324826,306.24959149291743
3792.2754,0.9351075263748145,442.06601239416403
3793.15,0.9346119731156758,354.8145842483268
3794.0225,0.9327687031094052,407.81877813140187
3794.8972,0.9298557809470781,418.4201486812758
3795.7703,0.9257321076243936,371.21747757066765
3796.6455,0.920293474361994,488.99886749365544
3797.519,0.9140477934621429,381.9256473604615
3798.3926,0.9078828479413293,460.32863711795153
3799.2686,0.9024500506352884,362.2698778538592
3800.1426,0.8978189622324065,395.55882488731675
3801.0188,0.8936024575182819,327.07024403572433
3801.8933,0.8895389968942857,409.11642061587577
3802.77,0.8857042974327336,351.5951189522529
3803.6448,0.882554450948805,407.951282632487
3804.522,0.8806293395193032,389.9498788017387
3805.3972,0.8803311756947991,428.026137232244
3806.2727,0.8817070428932291,350.992485348259
3807.1504,0.8844999258369342,369.00549971989244
3808.0261,0.8882609584777602,488.3068765649187
3808.9043,0.8925147865536238,311.1869748556672
3809.7805,0.8967095401001572,344.67850520431597
3810.659,0.9003358694399004,400.8110643206812
3811.5356,0.9030185946444048,394.7401573805756
3812.4126,0.9047658327054776,401.16881376661786
3813.2917,0.9059391734866274,312.44356791344387
3814.169,0.9070180109561236,404.9492371189932
3815.0483,0.9083331171117547,444.3972087953528
3815.926,0.9099075986384942,472.5670402248367
3816.806,0.9114763862804497,322.9253419270092
3817.684,0.9124835476112642,387.53606962654095
3818.5623,0.9122232231051509,473.2547910777228
3819.4429,0.9101688426307911,365.42119907151215
3820.3215,0.9064327056432551,404.41438148265763
3821.2024,0.9017938988885134,406.9943332072538
3822.0815,0.8972711081985725,378.4535639273736
3822.963,0.8933880912326545,484.1783713858722
3823.8423,0.8899719927228408,459.17721717282893
3824.722,0.8863462957953844,340.72356629613915
3825.604,0.8818808807894103,431.0725241874678
3826.4841,0.8764754774423272,452.53044096479493
3827.3665,0.8705983878649772,521.9547830332809
3828.2468,0.8650607315886708,415.1449345580804
3829.1296,0.8603392512857115,442.7377310272115
3830.0105,0.8563167523610319,460.876679324514
3830.8916,0.8523565464640738,370.04566454042043
3831.7751,0.8478220164067306,429.6300596952266
3832.6565,0.842444913269522,478.2767959076243
3833.5403,0.8362339278946744,447.7350063533569
3834.4224,0.829512480747321,397.8457725435637
3835.3064,0.8229245491705925,472.35037199705687
3836.1887,0.8176357786344547,576.9677476220508
3837.0713,0.8148887265980764,620.3840975539594
3837.956,0.8153064436755932,435.72586336232513
3838.839,0.8183227803218607,605.063882835809
3839.7244,0.8224838386067153,381.2026108627925
3840.6077,0.8264202968278499,348.36487442749564
3841.4932,0.8298298071871613,461.25345909375994
3842.377,0.8334514415700952,485.9271668287142
3843.261,0.8383266450417852,355.1823795949646
3844.1472,0.8449135249228016,441.9961422210666
3845.0315,0.852751749077431,373.635917873879
3845.9182,0.8609130392971412,451.5586044563419
3846.803,0.868375825672163,521.8890053485728
3847.69,0.8745219700323222,363.8561184635212
3848.5752,0.8791069767363119,429.62267130018097
3849.4604,0.8822696234538315,403.09812721195726
3850.3481,0.8842682790940269,407.31189082220203
3851.234,0.8853207406094274,489.45422074232994
3852.122,0.8857091474632973,344.8367566542891
3853.0083,0.885935425133967,357.90537796519993
3853.8967,0.8866552074891403,494.71608432215544
3854.7832,0.8882636904563931,382.4399522153012
3855.6702,0.8906041881157495,431.5998938835486
3856.559,0.8931097520465536,409.79078227560177
3857.4463,0.895196126418221,520.6641209379668
3858.336,0.8965732052813595,411.87713318609076
3859.2234,0.8972223510165921,341.8880397205015
3860.1135,0.8972868440952845,407.56620017340515
3861.0015,0.8968957531760247,310.00129038557606
3861.8896,0.8960618027431816,494.02055053988437
3862.7803,0.8946778930542953,467.82482683503935
3863.6687,0.8926206015120205,414.1935251558475
3864.5598,0.889789515537708,393.4486796740115
3865.4487,0.8861563755657871,437.06575665426016
3866.34,0.8817115130411685,475.94395983051834
3867.2297,0.8766299780185026,331.67104478600675
3868.1213,0.8712999762869581,315.4324631231738
3869.0112,0.8663260521704825,608.3664165011472
3869.9014,0.8621010128152004,301.5115983864083
3870.7937,0.8584457667809546,390.9134583266505
3871.684,0.854587902923189,363.7014016561706
3872.577,0.8495948722977118,426.8978835783856
3873.4678,0.8431755460266245,384.75529354378784
3874.361,0.8359208960428894,479.8266289489705
3875.2524,0.8290670339076519,466.8480118495545
3876.1438,0.8235773563858645,537.9948361626405
3877.0376,0.8195492327868097,385.32074169547565
3877.9297,0.8161375397237578,514.3315643026192
3878.8237,0.81195735873227,541.8511991267069
3879.716,0.8058929241645161,568.046032962001
3880.6108,0.7976094117285428,412.30171144678656
3881.5037,0.7877946079765594,668.4157392112044
3882.3965,0.7776059767737792,615.3659012040267
3883.2917,0.7679996556778057,505.92494494797006
3884.185,0.7592610341942253,570.9803682819644
3885.0808,0.7508184770509463,525.8814430786667
3885.9746,0.7419391358991597,602.2850711158098
3886.8706,0.7322436836697805,725.863575564507
3887.765,0.7222602101548528,727.1525284841553
3888.6592,0.7131633619685387,686.4999836792811
3889.556,0.7063550015167989,570.901520350467
3890.4507,0.7029299574349465,672.856448329607
3891.348,0.7031100821987328,902.2259965964329
3892.243,0.7061649457314788,644.6138068677851
3893.1406,0.7107285251086491,800.8428725377718
3894.0361,0.7154261387252835,618.8890037457738
3894.932,0.7196133055948769,631.7568549620024
3895.83,0.7235695489838646,704.6516200726144
3896.7263,0.7281413939406103,606.489938605825
3897.625,0.7341634167246126,556.8930040515629
3898.5215,0.7418361908258265,562.1286223027646
3899.4207,0.7507483809554947,531.4544694997212
3900.3176,0.7599596996504613,772.2156393255138
3901.2148,0.7685392028826243,490.4796222442088
3902.1145,0.7758550817193395,567.8868240566683
3903.0122,0.7817888345945048,541.5964473407813
3903.912,0.7868780583288273,449.2177878154848
3904.8103,0.7919893947345578,434.63232411411633
3905.7107,0.7981204701830312,518.1564403889687
3906.6094,0.806034406373624,487.11795774867807
3907.508,0.8161181384628448,505.8665427183857
3908.409,0.8282074651211875,493.5468739900281
3909.308,0.8414752348398966,382.4159720311886
3910.2097,0.8548235175624073,424.5549596291614
3911.1091,0.8669740809048366,351.8961480829378
3912.011,0.8769967362994446,334.9024723806271
3912.9111,0.8841786470447651,326.9701990666805
3913.8113,0.8882253940957644,400.44682673300497
3914.7136,0.8892845823471802,450.6511385572783
3915.6143,0.8881517102575419,368.7121532587171
3916.517,0.8862326379177465,449.9163358536162
3917.4182,0.8850568688648751,442.93361448956676
3918.3215,0.8855587363453498,438.7550654504275
3919.223,0.8877007514381854,417.038991048944
3920.1245,0.8906977819753736,325.7031472565578
3921.0286,0.8936487621103728,395.32570035143516
3921.9307,0.8960469833844941,427.4614938549793
3922.835,0.8979104001785886,426.0281295146125
3923.7373,0.8994105069429178,417.27079501846276
3924.642,0.9005658208993855,328.6182520744568
3925.5452,0.9011868414661278,376.5437283580847
3926.448,0.9011393296925382,353.71891691270196
3927.3535,0.9005195464584712,413.74264060866585
3928.257,0.8995874865106532,441.5878411957714
3929.1628,0.8985071931209401,407.57116397324035
3930.0667,0.8972019740492165,465.0315078444376
3930.9731,0.8954229318153625,328.41250258678275
3931.8774,0.8930486483079751,351.0051806187989
3932.782,0.8902530894682257,390.3879571129256
