wavl,flux,ivar
3566.9744,1.406009802392463,140.9442811256493
3567.795,1.4037515084562748,142.97069741358004
3568.6177,1.4040268102329323,193.16907099576105
3569.4385,1.407553960996878,176.28017407719042
3570.2617,1.4133688309648906,131.1849450993739
3571.083,1.4191015204923456,168.82776304101148
3571.9065,1.4223763358118788,107.54236231665334
3572.7283,1.4221616191729987,140.73915379242928
3573.55,1.4192460814503731,147.3582335880495
3574.374,1.4152423913106111,175.07896915580216
3575.1963,1.4113223067966785,140.3457093763776
3576.0208,1.407641079836736,155.6647574490575
3576.8435,1.403864486575259,121.82031567430181
3577.6682,1.3997224386461038,186.22462771640397
3578.4915,1.395265006469202,138.33779073428207
3579.3145,1.390693995047957,212.16757577583994
3580.14,1.3863562773373885,139.89115685667977
3580.9636,1.3828583601871645,196.20606362094998
3581.7893,1.3808575738808755,138.1662637461324
3582.6133,1.380718121773511,166.57777628574738
3583.4395,1.382152115097682,142.73536064001118
3584.264,1.3843150943834128,142.27212470153185
3585.0884,1.3862898886810195,241.53172844928906
3585.915,1.3875977987832235,144.20118519351396
3586.74,1.388434668343813,170.16089829014257
3587.5671,1.3894894813958318,161.44439651529035
3588.3923,1.3913145695654936,159.29845491911158
3589.22,1.3937390874983189,123.2848185704943
3590.0457,1.395759737341574,139.69874434892228
3590.8716,1.3962186117553301,155.89012143808048
3591.6995,1.3946576790617897,139.71312049169143
3592.526,1.3917889526667722,141.62504343481027
3593.3542,1.389084124608859,157.46608986902507
3594.181,1.387811812268058,145.45154063370285
3595.0098,1.388113383964188,185.47578677256183
3595.8367,1.3888914570605189,143.34848726253455
3596.6638,1.388497313515252,181.8016072361218
3597.4934,1.3857537226653,151.7343547104965
3598.3208,1.380782290111653,144.9264863949976
3599.1506,1.3749973715018906,145.2076720949005
3599.9788,1.3704225154843368,169.04950009055867
3600.8088,1.3684829551046875,206.64003415204309
3601.6372,1.3693799911390143,230.30774905895316
3602.4678,1.3721119694749877,166.36486303154743
3603.2964,1.3750620404831526,163.1783356700799
3604.1252,1.3768525606403184,175.03025510459523
3604.9565,1.3770159644472373,160.946086651411
3605.786,1.3761518708568157,116.09404099978174
3606.6172,1.375266610100077,173.22113862855352
3607.447,1.3747989307637551,182.06955461150292
3608.2788,1.374304771214105,140.18280607404597
3609.109,1.373216539355829,145.14129029190784
3609.9392,1.3717595424636984,242.6974277396131
3610.7717,1.3708804580704061,206.6352211802562
3611.6023,1.3711976615637569,148.68031729038447
3612.435,1.3721925831071864,138.92951520191755
3613.266,1.372581498517704,174.3893303745784
3614.0994,1.3713755130658005,137.92937976144367
3614.9307,1.3684953963884734,140.11951145489505
3615.7625,1.3645354969019083,158.6326930292186
3616.5962,1.3602322686125907,225.15644622651786
3617.4282,1.3561950547090011,191.29190009526428
3618.2625,1.3528380008639531,219.43826340599497
3619.0947,1.3505443984219987,128.42910162673942
3619.9292,1.349596268461838,163.71785466551228
3620.762,1.3499929490400158,158.32494750003065
3621.595,1.3510674566480083,142.13544750564242
3622.4302,1.3513179472367982,174.32768765870588
3623.2634,1.3488062075790643,173.65500100946366
3624.0989,1.3422329771579105,133.93538653769164
3624.9326,1.3321840172856692,122.17952800944576
3625.7686,1.3211861254231796,196.03079495387877
3626.6028,1.3124453792957191,189.18478443986635
3627.437,1.3076040940906517,132.6863334592209
3628.2734,1.3059001768078542,180.21431140018842
3629.1082,1.3051041248029087,153.42438055837027
3629.945,1.3033382995035563,172.87187525098045
3630.78,1.3003070702876376,161.41145453066534
3631.6174,1.297119194879773,249.64024819347958
3632.453,1.2952716459631088,161.1431755380919
3633.2883,1.295443328166047,133.72058391844814
3634.1262,1.2970246362952058,186.56374941309272
3634.9622,1.298385038989074,150.89930764320826
3635.8005,1.2976140057414878,161.79199188912864
3636.637,1.2932071892265788,157.15559548951416
3637.4756,1.2846416982416837,135.11354760271828
3638.3123,1.2729826256863503,175.38261929534707
3639.1492,1.260741075186549,196.76683567159344
3639.9885,1.2509879179307501,203.71681873570913
3640.826,1.2459381133939202,149.99076975010766
3641.6653,1.2457902049939398,181.13101632288422
3642.5032,1.2489510082254467,140.8667671935083
3643.343,1.2529581941861316,192.87530873936046
3644.1812,1.2555268379638334,198.3947397615146
3645.0195,1.2553696009528887,137.33190244459323
3645.86,1.2524810396048762,165.12685251542678
3646.699,1.247990434076844,165.12351259856487
3647.5398,1.2434331407210883,224.25442704524338
3648.379,1.2400592605652119,162.2192097461257
3649.2202,1.2384050893192513,222.196536706151
3650.0596,1.238409644725611,196.10540992020768
3650.8994,1.239688760442349,191.2404705938652
3651.7412,1.2422191948667332,204.76731525707845
3652.5813,1.2472874393309141,221.02694887916553
3653.4236,1.2579312426342462,189.5469949170734
3654.2642,1.2772069329326456,229.1883765243902
3655.1067,1.3047516650514008,212.13729857810978
3655.9475,1.3334620182213948,162.27071029880014
3656.7886,1.351563956426573,280.23071549730025
3657.6318,1.3493079283884735,247.79632601655246
3658.4734,1.326107704420045,223.20665094228372
3659.317,1.2907738914196198,187.16782791620406
3660.1587,1.255209047599554,159.4513407164948
3661.003,1.2268101575342931,201.01458068253092
3661.845,1.2071156639738396,232.35345121830431
3662.6875,1.1938914685427073,183.6554992012306
3663.532,1.184779100530743,219.07255887770842
3664.3748,1.1787441908580525,220.86522878244963
3665.2197,1.1756602775159672,270.5160368959176
3666.063,1.1754207442219184,280.76015944856795
3666.9084,1.1772258648865501,212.20612891016881
3667.752,1.1797985507368591,279.47123899002014
3668.5977,1.1822159373795673,176.63643959038632
3669.4417,1.1844197084526338,220.25464949721874
3670.286,1.1868822612711414,224.66345941481305
3671.132,1.1895896247287971,235.26677135668214
3671.9768,1.1914602576090292,197.53484909245233
3672.8235,1.191001501777033,177.5698235545892
3673.6685,1.1876310189471764,202.92980767431823
3674.5156,1.1823549667597637,152.39810779272463
3675.3608,1.17711331836748,263.2637292138451
3676.2063,1.1732867075687654,183.07993986075456
3677.0542,1.170935847009599,214.27479823152163
3677.9,1.1690846440948575,218.76258681109445
3678.748,1.166516781292579,189.61629020063683
3679.5945,1.1625715565214323,215.7082668687486
3680.4429,1.157447474172442,191.51259363855445
3681.2896,1.15214767871507,260.9450538701563
3682.1365,1.1478330732671327,238.65450476873178
3682.9856,1.145187810248242,286.65031669920495
3683.8328,1.1441520166099468,200.10531478103158
3684.6824,1.1441639299675588,218.97313829212314
3685.53,1.144638445006964,214.7541574766857
3686.38,1.145136015340077,242.70181892353472
3687.2278,1.145265186497744,218.93875620091347
3688.0762,1.1447077080812664,196.80419642248177
3688.9265,1.143513702942283,219.2974719410046
3689.7751,1.1423528474495657,239.86121537565847
3690.626,1.1421951642599577,308.48962725224476
3691.475,1.1435552658258823,221.59370204037842
3692.3264,1.1459364774992788,197.7901707858506
3693.1758,1.1480054392794192,193.34752598587693
3694.0254,1.148410841446088,279.1102284493826
3694.8772,1.1465340723492676,162.08742036223492
3695.7273,1.1429082339486392,236.71635569596776
3696.5793,1.139093167149136,211.30426561090977
3697.43,1.1371396612260039,235.89886679405464
3698.2825,1.1385911144224925,243.74103418864252
3699.1333,1.1436080857658526,223.8195555457774
3699.9841,1.1507299454968538,265.913037429996
3700.8374,1.1574825064526526,226.99549892961073
3701.6887,1.1613509488245586,225.2212889750996
3702.5425,1.160791151660787,234.02310112087363
3703.3943,1.1555735449155424,208.8233933331391
3704.2483,1.146718899413278,169.1924969167759
3705.1003,1.1362625658303718,294.81061831461585
3705.9526,1.1266251469541204,280.7258956328035
3706.8074,1.1200133039282631,248.24989001297092
3707.66,1.117669156349467,236.96673797649296
3708.515,1.1191649704743083,308.3319158253489
3709.3682,1.122515995637563,197.7654224144352
3710.2234,1.1250923326838211,256.10990487176673
3711.0771,1.124886717672223,208.39601795063814
3711.9307,1.1214177690253373,224.06117533377702
3712.7866,1.1156503172949657,282.99130038466535
3713.6409,1.1093118179195982,196.76629499286975
3714.4973,1.1038141120202287,296.93799610597057
3715.3518,1.099673588008208,236.24553897912753
3716.2085,1.096393772585864,186.8308620194377
3717.0635,1.0931843560024794,175.7592553192267
3717.9185,1.089740509449811,265.03451328577967
3718.776,1.086713818189626,332.75928033890204
3719.6313,1.0854801716067868,206.4144286952414
3720.489,1.087224613345257,268.0050213151286
3721.345,1.0920070443607095,230.07708328707346
3722.2031,1.0985201739793378,173.42560949773008
3723.0593,1.104718901296079,220.6366114028247
3723.9158,1.1089945720557524,321.959049759131
3724.7747,1.1106606726425736,259.97580874861706
3725.6316,1.1097755728866694,212.39018008884813
3726.4905,1.1067064185808027,239.12658042378786
3727.348,1.1018885138344143,166.78108895545427
3728.2073,1.0958567256420408,244.12236638739466
3729.065,1.089514926102298,222.14376590404143
3729.9229,1.0840268394220127,254.49201142587054
3730.783,1.0804474901301488,372.4087872319973
3731.6414,1.0792107141615812,270.9860928496566
3732.5017,1.0799256434962328,258.91780471247966
3733.3604,1.0817183133253054,252.7091104789891
3734.2214,1.083628787850787,224.84190346377252
3735.0803,1.0847475876831447,270.1605546710432
3735.9417,1.0843624883599565,268.03282459840824
3736.8013,1.0823137274641699,209.80875837766652
3737.661,1.0794507696070474,233.76051409353136
3738.5227,1.0775377348307935,239.95244846149185
3739.3828,1.0783064166264886,252.12930319088494
3740.245,1.0821418569698487,228.9791280516881
3741.1055,1.0875376352166093,215.6230356475834
3741.9683,1.0919558141994865,219.50145594834655
3742.829,1.0932416131077896,198.14784449932893
3743.69,1.0907575915287382,248.89111568580896
3744.5532,1.08536656944931,319.44321389763786
3745.4148,1.0788656395286713,271.05409306597574
3746.2786,1.0730444016365144,278.81294207915505
3747.1404,1.0690496172218291,239.0993452709541
3748.0044,1.0669820787308097,252.48153233600135
3748.8667,1.0663267240153653,228.74334596239862
3749.729,1.0666362558152935,273.8815531074497
3750.5938,1.067955793395153,185.39450542794597
3751.4565,1.0705146146515825,325.3168153780694
3752.3215,1.0741823841990288,255.10218879618336
3753.1848,1.0782413597898126,238.70897729740147
3754.0503,1.0818559372914138,218.50768025942298
3754.9138,1.0845276468593557,340.44829800834
3755.7776,1.0861753745870821,283.1829522894128
3756.6438,1.0866131530658587,318.0560442406042
3757.508,1.0852506408626856,231.01236491929654
3758.3745,1.081523865097822,249.84752358813014
3759.239,1.0757471774812393,217.4016549307434
3760.106,1.0692619183172538,338.9755732687992
3760.971,1.063728344892369,225.457545050099
3761.8362,1.0598970695181813,235.41695549212014
3762.7036,1.0572986477951591,248.18639803206776
3763.5693,1.0548370883670841,272.4896122360578
3764.437,1.0516390253469046,255.06792995388327
3765.3032,1.0475652255019516,232.8115743064343
3766.1714,1.043024601111412,235.92758348272855
3767.0378,1.0386056984066512,331.261511403505
3767.9043,1.034672387029265,223.5401314328025
3768.7732,1.0313425609705247,266.3752135384718
3769.6401,1.0286912414030422,236.08757857081133
3770.5095,1.0268920898337226,250.1556942175238
3771.377,1.0263162586579928,292.0939262246182
3772.2466,1.0273432933693778,283.78091850464034
3773.1145,1.0300522800354814,242.8048401449295
3773.9824,1.0339146277185869,277.68604021323864
3774.8528,1.0377842972405689,244.3949059542626
3775.721,1.0403022045006247,217.5001883089762
3776.5918,1.0406333640847152,234.9962772112325
3777.4604,1.0388576411561783,279.83650515237525
3778.3315,1.0359585188298988,211.66001944540014
3779.201,1.0334690769442485,202.17550726161735
3780.0703,1.0327474273236985,385.5082477132507
3780.942,1.0340963749502594,297.85454910834926
3781.8118,1.0361899240350247,247.32845673333927
3782.6838,1.0367450662638513,259.2247110428548
3783.554,1.0342564689626859,238.49250867201755
3784.4265,1.029355963506466,300.35678098866765
3785.297,1.0244424191289243,357.0523266162342
3786.168,1.0217329735947982,290.6829233598956
3787.041,1.0217224694893339,262.98804704007705
3787.912,1.023136076457909,322.2643889150148
3788.7856,1.02416108528671,272.53363614873547
3789.6572,1.023612985939932,352.31291500307816
3790.531,1.0212206459540458,265.9770055517146
3791.403,1.0172667885330926,262.16084963606363
3792.2754,1.0122523679205826,342.8811343971234
3793.15,1.0068627022593581,316.6395919132498
3794.0225,1.0018905467258543,227.4211280061202
3794.8972,0.9977491170910973,354.80048990776754
3795.7703,0.9942148367360697,275.0453963038905
3796.6455,0.9904943291092444,225.38240764379535
3797.519,0.9859271029883592,208.46184698370783
3798.3926,0.9805651092290903,296.1102885118185
3799.2686,0.9752933307607085,299.75222223469666
3800.1426,0.9713589718924247,359.5085763669884
3801.0188,0.9695632620966202,277.05032268729076
3801.8933,0.9699672988744874,334.3774563447913
3802.77,0.9720364673193976,282.3286269573375
3803.6448,0.9750815803878494,295.258787173106
3804.522,0.9786243982612451,273.7532110839597
3805.3972,0.9823776125405869,385.4324257422368
3806.2727,0.9861228947463561,302.1494931402
3807.1504,0.9895341864398781,335.03692629908767
3808.0261,0.9922602156000795,288.3793965970356
3808.9043,0.9942955946036434,262.4621811579496
3809.7805,0.9961376608414745,296.1896390144966
3810.659,0.9986696735681613,255.11510186619122
3811.5356,1.0026699998663329,380.1005050494569
3812.4126,1.008433142798566,265.868079482311
3813.2917,1.015568890522824,229.39781897285522
3814.169,1.0229444278261397,372.8010169765544
3815.0483,1.0290342557651888,335.36024539375165
3815.926,1.032354489996656,216.4035925566447
3816.806,1.0323060287008183,300.1142568082396
3817.684,1.0294991473199535,256.042194120247
3818.5623,1.0253022570117842,266.1524697843528
3819.4429,1.0207967090744663,277.25559489664585
3820.3215,1.0161395565232247,288.495546935441
3821.2024,1.0106961510449488,297.50181647837934
3822.0815,1.0039498461034053,267.24428337834985
3822.963,0.9960518744380068,297.6338692211359
3823.8423,0.9879166750772516,363.93999070326845
3824.722,0.9804724698236866,296.5608191473718
3825.604,0.974053910985162,280.36147791637563
3826.4841,0.9682914656510551,350.72843590400555
3827.3665,0.9624297995296205,327.61643515503897
3828.2468,0.9559996274233467,335.50759114566745
3829.1296,0.9489422472336194,304.82728182296216
3830.0105,0.9416479596277236,382.96675169760744
3830.8916,0.9346347519008449,354.3464115726082
3831.7751,0.9284251546835517,524.5957451577033
3832.6565,0.923442026352458,396.298870319861
3833.5403,0.9197913032043395,336.00684600919476
3834.4224,0.91731467193892,377.78575316401435
3835.3064,0.9155754743652509,388.278199538821
3836.1887,0.9141590300432941,281.09578969474484
3837.0713,0.9130462669493788,472.00581152167103
3837.956,0.9128551435059516,418.1003030990393
3838.839,0.9145289691131839,367.0827412819447
3839.7244,0.9186516346025075,352.7829715991487
3840.6077,0.9249544715493272,355.4331694061373
3841.4932,0.9325706681919697,287.0973953504611
3842.377,0.9404885319355032,230.3372201035656
3843.261,0.9480966150541683,312.07651751507717
3844.1472,0.9551987919563755,307.99534017906916
3845.0315,0.9617496300594426,318.2746578589984
3845.9182,0.9676928990978618,399.22574589071576
3846.803,0.9727600252229379,206.57086767948698
3847.69,0.9768351188417549,275.91664519961364
3848.5752,0.9802240908473931,320.5284040122071
3849.4604,0.9837799480072106,334.79140515982914
3850.3481,0.9884554834031644,302.15841399306566
3851.234,0.9946318117564331,283.63039586322526
3852.122,1.0018578863870349,272.25172141993016
3853.0083,1.0089475707559004,294.61680390665134
3853.8967,1.014763786030468,309.98969101135646
3854.7832,1.0187380996192024,300.54233978682225
3855.6702,1.02112812335647,280.2877569145327
3856.559,1.022530542656661,273.72090679390794
3857.4463,1.0232640019744688,262.8611417835276
3858.336,1.0230947008749856,225.26991908011553
3859.2234,1.0214886928023974,213.85323988046346
3860.1135,1.0181596601004095,274.4194427759734
3861.0015,1.013528673317073,329.7463132153523
3861.8896,1.0086397802360387,264.904623785009
3862.7803,1.0046634394315088,323.28561096940274
3863.6687,1.0022113834448243,258.9339028297982
3864.5598,1.000890300167669,289.678285468647
3865.4487,0.9996609144564423,233.94863231578393
3866.34,0.9975277390596446,342.8527356270619
3867.2297,0.9940802603213504,290.4107832373605
3868.1213,0.9893879505997876,297.93770259954044
3869.0112,0.9837105932867204,364.430559157903
3869.9014,0.9772574327237431,304.31776885293425
3870.7937,0.970243490616738,272.4907401187628
3871.684,0.9629096899652165,343.57788538312633
3872.577,0.9552066610353946,408.64194695106437
3873.4678,0.9468774589605151,385.973211000432
3874.361,0.9376525642745612,255.23713179293242
3875.2524,0.9279089342561148,440.2802698428254
3876.1438,0.9185284508647489,400.18078992958004
3877.0376,0.9103096531040995,323.3944129239498
3877.9297,0.903318712917941,269.63566556699885
3878.8237,0.8967005810050213,377.6265506103621
3879.716,0.8893882577748209,402.8249496061093
3880.6108,0.8805757184685176,369.2846863149545
3881.5037,0.8700596695194943,338.7314300394747
3882.3965,0.8580148258943214,340.1919992711132
3883.2917,0.8448856920849581,499.7415935734562
3884.185,0.8313207738638162,369.22871801456455
3885.0808,0.8177364596544822,381.26513176944957
3885.9746,0.8045004289003128,542.6092223624502
3886.8706,0.7917838215384689,459.5078302003352
3887.765,0.7799779900540154,543.2017107253818
3888.6592,0.7696078176074148,458.1340397076841
3889.556,0.7614665398844872,564.1358583321689
3890.4507,0.7566108320644274,482.8778468593321
3891.348,0.7559197235480769,430.80828613825224
3892.243,0.7596306851619838,548.422481304593
3893.1406,0.766955885006735,402.83182223018144
3894.0361,0.7762551039151019,442.9764851286391
3894.932,0.7859768085298228,335.63457647513707
3895.83,0.7953795526970125,458.7398533566147
3896.7263,0.804577768556981,404.8224699558567
3897.625,0.8141901378907983,467.6787603315945
3898.5215,0.8245687151427112,584.6882978348805
3899.4207,0.8358193310673936,319.9231377520654
3900.3176,0.8477356120112798,431.85995665662176
3901.2148,0.8601619013838492,386.7250117316973
3902.1145,0.8728721011957622,430.2831527732569
3903.0122,0.8853656096206634,322.3270024765524
3903.912,0.8971097329905495,390.09317100476727
3904.8103,0.9075849793864578,280.1709482910405
3905.7107,0.9168486995210732,399.6613462678278
3906.6094,0.9254632004694461,357.9317262212069
3907.508,0.934290789986378,300.85238885916004
3908.409,0.9438276993161486,389.84334800921243
3909.308,0.9537338022697552,334.6552790646027
3910.2097,0.9631415678951195,347.6390092210513
3911.1091,0.971117837079179,294.45347891467253
3912.011,0.9774791312486645,312.7887872203325
3912.9111,0.9827845901453518,294.0671633428528
3913.8113,0.9880518448821669,225.08806199164493
3914.7136,0.9941291728872156,320.1313471059869
3915.6143,1.0012424654243668,389.9865961532628
3916.517,1.00894732757592,300.9508584856342
3917.4182,1.0161209416057364,301.8128304989695
3918.3215,1.0215285415765805,289.2826949561892
3919.223,1.0244218049956593,271.24546202200946
3920.1245,1.025150205463752,270.1262436950138
3921.0286,1.024941284277076,274.44823243065764
3921.9307,1.0251419532701982,274.9027224991155
3922.835,1.0264288882480208,268.6209923357971
3923.7373,1.0285492116064503,268.9411978865179
3924.642,1.0306930434893589,261.831772599103
3925.5452,1.0320896227083292,269.8954430831566
3926.448,1.0325265318849242,261.74475586072526
3927.3535,1.03236075427555,233.35050765299954
3928.257,1.0321206988301754,251.02837467146497
3929.1628,1.0320554837548168,264.55925141168836
3930.0667,1.0320572121930864,256.2033281602263
3930.9731,1.0318979023802217,232.4488465521337
3931.8774,1.031363657439571,311.15325212475864
3932.782,1.0301276806136066,267.41991216441966
