wavl,flux,ivar
3566.9744,5.185193268706491,7.969883910957576
3567.795,5.166058523504606,7.022334090222731
3568.6177,5.132875208145183,5.39623686493868
3569.4385,5.097195400293145,9.433384791018467
3570.2617,5.06940816838668,6.9319268487057
3571.083,5.0537516129119915,6.38993801891699
3571.9065,5.045861597926122,4.976900382325292
3572.7283,5.036720014392203,7.226287217175353
3573.55,5.01851504354265,22.6261891732124
3574.374,4.9890603681265455,5.2227662053508155
3575.1963,4.953142553450115,5.401099771084526
3576.0208,4.9196438617082805,6.622574124470438
3576.8435,4.8973555619474265,7.537529803008354
3577.6682,4.8896611930239855,7.446197329699835
3578.4915,4.892796424411783,7.273189843622038
3579.3145,4.896895656125047,10.173014445908631
3580.14,4.889683435304066,7.103847752233914
3580.9636,4.861715490229315,6.312334750836792
3581.7893,4.811976218462886,8.520337679895928
3582.6133,4.751759711270315,8.43624271012246
3583.4395,4.701034809947471,9.317608243350438
3584.264,4.679898182689248,5.171714895077012
3585.0884,4.696955464410663,6.773803908765119
3585.915,4.745796576389494,7.86760547479016
3586.74,4.809567526037756,8.09569217444911
3587.5671,4.87173340433023,5.961809548119744
3588.3923,4.921495181416089,5.409354175350177
3589.22,4.954829107280869,6.11577965883818
3590.0457,4.970588056841324,6.638201682235043
3590.8716,4.969895451233237,7.927952179680356
3591.6995,4.956075127419429,5.377462480290892
3592.526,4.9343571010695495,8.908889255959286
3593.3542,4.909525191954958,5.695326473628318
3594.181,4.884816882182886,7.230889240673053
3595.0098,4.862375865692233,4.935869905388846
3595.8367,4.845207882611921,8.06957472018767
3596.6638,4.836469368096649,6.9114224238482205
3597.4934,4.8377887075447905,6.86668710785371
3598.3208,4.8476777065161105,6.908066533809288
3599.1506,4.861366263072746,5.659974868144643
3599.9788,4.8711754249112404,5.8884545095991365
3600.8088,4.868824339185123,5.265692837884874
3601.6372,4.850260362148816,6.367510745083922
3602.4678,4.820679495112259,6.880177247589597
3603.2964,4.79402122110427,19.543787301313888
3604.1252,4.783772716901832,7.972417860191265
3604.9565,4.793440256733023,7.73155262903158
3605.786,4.814368432291321,4.789243676743446
3606.6172,4.833374823207443,6.9695963753422365
3607.447,4.841959088878356,8.153001375115828
3608.2788,4.840173498604491,7.352625632800617
3609.109,4.832947879864497,7.020916938361088
3609.9392,4.8239232233770535,9.248462789893697
3610.7717,4.812213770298755,7.5406628284387605
3611.6023,4.794479256853434,9.210793293240402
3612.435,4.769288322584926,7.744140757789387
3613.266,4.740221741770302,6.845014594048466
3614.0994,4.71418915663544,5.701827274069817
3614.9307,4.698296540230604,12.959333957734248
3615.7625,4.6964018710464694,7.618588969682475
3616.5962,4.70835884501762,6.623739991628394
3617.4282,4.729852097356248,5.1478156405144695
3618.2625,4.753382084748152,8.959835467504929
3619.0947,4.770370237701711,6.55982860657887
3619.9292,4.775948841125275,7.903247766818489
3620.762,4.772102418465952,8.402354322145221
3621.595,4.766429024189884,5.151273540441051
3622.4302,4.766128881268398,8.990813921887376
3623.2634,4.772558778261624,5.592049614221835
3624.0989,4.781116169486948,6.509967578946295
3624.9326,4.786013091002219,5.551620718274406
3625.7686,4.7850827753723255,10.33744895688422
3626.6028,4.779610072672142,6.181578075904506
3627.437,4.770117557542614,7.603906886378302
3628.2734,4.753406921899495,8.978806175621568
3629.1082,4.725417502890337,7.244363915542776
3629.945,4.686962291881023,10.277516775396604
3630.78,4.647028492685771,7.80464687090041
3631.6174,4.618188486663516,8.725478169992995
3632.453,4.6103370973404205,6.691580534164697
3633.2883,4.626101043566251,8.542712424875534
3634.1262,4.662075335854037,6.165428197863538
3634.9622,4.7113193294353355,6.365013026445609
3635.8005,4.766747400821587,8.180894868974528
3636.637,4.821510583665947,9.162249961124061
3637.4756,4.870135938411873,9.656679848445826
3638.3123,4.906959799349451,6.4412888713630325
3639.1492,4.927082653069781,5.619376031507452
3639.9885,4.927296537870424,4.274924099121768
3640.826,4.908538900968724,4.842604824451029
3641.6653,4.877176647060965,8.292132364845049
3642.5032,4.843953948143619,7.378072521359252
3643.343,4.8193894553776735,5.928517628965837
3644.1812,4.809458252390059,6.260487150517006
3645.0195,4.813411169528182,6.545947169917979
3645.86,4.826446123978623,6.124228548404874
3646.699,4.843419626762693,11.548695952377662
3647.5398,4.861216306946773,6.155428359246821
3648.379,4.878125375085034,10.29261876270586
3649.2202,4.892954441464154,5.404465970587981
3650.0596,4.9041308216119575,7.306003805504393
3650.8994,4.909816512633019,8.4488983912681
3651.7412,4.907451324215562,7.378036650668305
3652.5813,4.893828822331186,8.659038409168566
3653.4236,4.866207906449183,5.458300826574947
3654.2642,4.824924518229087,4.518642315882596
3655.1067,4.7746506960570585,5.230454695851647
3655.9475,4.724799617648181,11.337404548159492
3656.7886,4.686622251937771,7.175594613727086
3657.6318,4.670202928609549,10.338718138247648
3658.4734,4.680310324004528,7.739163677598299
3659.317,4.713047984264116,15.758273626770304
3660.1587,4.756264226996304,8.875446491957259
3661.003,4.795434727499496,10.244162234568948
3661.845,4.820397271315382,5.280861211199082
3662.6875,4.8304969273857195,15.696095366051384
3663.532,4.8325472049442535,5.627044060563291
3664.3748,4.835179079699071,6.292581505947168
3665.2197,4.843145195132562,6.384047651071939
3666.063,4.854962805203187,6.257716460461388
3666.9084,4.8646841210578975,5.45904455799517
3667.752,4.865587479980314,7.548227394911348
3668.5977,4.854046910579815,8.993885566172812
3669.4417,4.831335493697322,12.199465979364682
3670.286,4.802576208801381,8.450293661099622
3671.132,4.7737869123982195,5.981407391777955
3671.9768,4.749077890880775,7.254930053986968
3672.8235,4.729341227877909,5.440477420978098
3673.6685,4.714199871011844,6.101790650378631
3674.5156,4.703682279650442,8.218767003892856
3675.3608,4.698791335493195,10.898895955616585
3676.2063,4.6998374216754835,7.773680325876396
3677.0542,4.704968332723452,7.020936228358057
3677.9,4.709814249325431,7.979486022848098
3678.748,4.709142879508735,4.099921454540166
3679.5945,4.699318555281322,8.026926805890483
3680.4429,4.679903455390828,8.356930760435116
3681.2896,4.653643870946435,10.667665483864711
3682.1365,4.6254769811009355,5.531079467348148
3682.9856,4.602513127187273,8.10253520012094
3683.8328,4.593038794409352,8.104632878981485
3684.6824,4.601901775478327,9.471494937396784
3685.53,4.625370880343022,8.179634594890143
3686.38,4.650827504390484,9.236142249098116
3687.2278,4.663243346489943,6.112149808488377
3688.0762,4.654810310152211,6.3282123112807
3688.9265,4.628968630563404,8.089292418457594
3689.7751,4.597701093106429,8.045737554974062
3690.626,4.573670857991563,5.9240937328336845
3691.475,4.563622795196563,10.675505453743568
3692.3264,4.564853059352982,10.868996406839994
3693.1758,4.567684858399031,6.6943786424401335
3694.0254,4.561939518116805,6.527633462983597
3694.8772,4.543252838419649,7.108520742726065
3695.7273,4.515135372270904,10.356535326204913
3696.5793,4.485286993211189,8.914060993482956
3697.43,4.460802689467754,18.726639147204118
3698.2825,4.444607937652681,7.507979438090923
3699.1333,4.436256096921947,6.492349201427038
3699.9841,4.4343246183291605,14.405963135345491
3700.8374,4.438503705694764,8.172341931859158
3701.6887,4.448623745349838,8.778294171761031
3702.5425,4.462205601687217,6.631797277741604
3703.3943,4.4732866986197,7.555073437906923
3704.2483,4.474970110226273,8.279672823669486
3705.1003,4.463546865321097,7.54960166883164
3705.9526,4.441734494595155,7.061803484333054
3706.8074,4.418134369747424,7.583412193059809
3707.66,4.402928643121727,7.078552221372761
3708.515,4.401104596855613,9.000747472232195
3709.3682,4.409031928022106,8.71954691930934
3710.2234,4.416506412490984,6.818484172629056
3711.0771,4.413727285508617,7.057759517475473
3711.9307,4.398543086729682,9.28251318294552
3712.7866,4.3782676971171135,8.071322389902994
3713.6409,4.364600392921888,11.025219559033605
3714.4973,4.3640911586572635,9.503011282987114
3715.3518,4.372843728030985,8.161344455441848
3716.2085,4.379742187004394,7.618735338278217
3717.0635,4.375072303434304,7.5017766549212075
3717.9185,4.356558115145111,10.907686830461461
3718.776,4.328672067424923,8.475837014616747
3719.6313,4.299612215682085,6.210984903345918
3720.489,4.278752668959444,12.087567838440652
3721.345,4.275345094047444,10.066513270413974
3722.2031,4.293986859196133,14.683735109622226
3723.0593,4.329764930959368,6.316279133538284
3723.9158,4.368591818517224,8.54189970196155
3724.7747,4.394210272105933,5.548210126018384
3725.6316,4.397242199305184,9.511244967843425
3726.4905,4.380024883073887,6.682297139555055
3727.348,4.35354023893187,7.1878340751949645
3728.2073,4.329893258658891,8.13617159666791
3729.065,4.315761898177244,9.329224396465081
3729.9229,4.309538470021605,7.777647111410893
3730.783,4.304567827538001,7.47163730705922
3731.6414,4.29541871153532,5.638778855135827
3732.5017,4.282571045129024,8.888790262605909
3733.3604,4.271970002663611,8.31299074940002
3734.2214,4.2696568290265615,8.711508500382948
3735.0803,4.277012155308272,7.822617915146895
3735.9417,4.290357857234299,8.036205767176927
3736.8013,4.304240199731964,9.891021514075627
3737.661,4.314697030848655,8.965705086116838
3738.5227,4.319698184124048,9.69116421885666
3739.3828,4.318552923981682,7.75252096191131
3740.245,4.312091909791843,6.887677937611907
3741.1055,4.303095108756686,8.959677555270714
3741.9683,4.295474567718452,6.281357053111311
3742.829,4.2924040945670425,10.39376184032027
3743.69,4.294024661594157,10.61996462039772
3744.5532,4.296617525669879,8.916109098523293
3745.4148,4.29390507538479,7.528645855904876
3746.2786,4.280630338734493,6.9830662036611395
3747.1404,4.2564333785552115,9.089055736539994
3748.0044,4.226540251478357,7.796954485039032
3748.8667,4.199065662192708,8.481937245883417
3749.729,4.179547066160317,10.406306095567844
3750.5938,4.168211963275301,8.899182928197924
3751.4565,4.1614891270404115,13.414652624783528
3752.3215,4.156327868861985,10.284653328461097
3753.1848,4.153846796412654,7.478925378427272
3754.0503,4.1584293760160636,12.57101057349811
3754.9138,4.173088216045014,8.29999424572101
3755.7776,4.195278381981737,7.6029068829515385
3756.6438,4.217304470777448,9.192408669366598
3757.508,4.231037526162121,6.763750813247363
3758.3745,4.233342880049357,9.054441873801617
3759.239,4.226789263000509,8.462076151026858
3760.106,4.2166013560352065,8.077481919374723
3760.971,4.206978857182605,10.177264351051262
3761.8362,4.199293787740058,7.264407296928556
3762.7036,4.192641607735199,7.944541085524551
3763.5693,4.184998315961599,8.47913265451584
3764.437,4.174112403185819,12.878817711276383
3765.3032,4.158738149774273,9.045673386541123
3766.1714,4.13951846772021,9.151912800751658
3767.0378,4.11930829445859,11.114103056216676
3767.9043,4.101621624848129,16.787488758695325
3768.7732,4.089354781231106,7.260443278816999
3769.6401,4.084549310616958,13.160923909400312
3770.5095,4.088164440750672,9.658853669038557
3771.377,4.099106835561396,9.931377736496758
3772.2466,4.113247241396088,15.312418428214727
3773.1145,4.1247346065584045,8.86058204640455
3773.9824,4.130167940046543,9.455875700089459
3774.8528,4.131193305238324,10.50886211292522
3775.721,4.132560850709489,9.042781147533441
3776.5918,4.136834565097132,13.348996553579674
3777.4604,4.141222589314231,8.724669844067476
3778.3315,4.140497999576069,8.132515790860415
3779.201,4.133074261697886,10.274895279702067
3780.0703,4.123791386920299,16.233913183185027
3780.942,4.120257733705484,11.205550661982361
3781.8118,4.126689512565122,11.189669412123385
3782.6838,4.141241814764217,7.219961147567531
3783.554,4.158500440874431,15.361212037789661
3784.4265,4.173975856455118,7.062442901542734
3785.297,4.185529721870307,9.882742580328626
3786.168,4.192134606263795,10.955411594287781
3787.041,4.1915300844033,9.408083902099644
3787.912,4.180315874914536,7.064115145129544
3788.7856,4.156578473484764,11.09163158399797
3789.6572,4.1231901263159765,8.448536206783672
3790.531,4.087457025644878,14.303175039081532
3791.403,4.057672979654519,9.309794154759768
3792.2754,4.037486895007142,11.265545844927189
3793.15,4.024798624490014,9.282536552303336
3794.0225,4.0153483304608955,11.590636570255631
3794.8972,4.007274725991474,8.457987849694598
3795.7703,4.002542826534273,12.382589224536924
3796.6455,4.004078748337889,10.457583377499367
3797.519,4.0123867987189055,8.819264147663455
3798.3926,4.024301378619486,10.933331353592735
3799.2686,4.034492880995785,8.365304147881359
3800.1426,4.0384082989232555,12.058430480898672
3801.0188,4.0350516666144385,10.729964294898046
3801.8933,4.02710374807883,15.617198162520484
3802.77,4.018449572430993,9.780504200628481
3803.6448,4.011420062420361,8.165588994496668
3804.522,4.005679890489586,20.633468005553993
3805.3972,3.999447899032972,9.973256672719094
3806.2727,3.991021408208938,12.501834346503331
3807.1504,3.9796129034772947,8.408120441022033
3808.0261,3.965060596004038,9.509522880162635
3808.9043,3.94685257461648,11.08459693395449
3809.7805,3.9248746361381466,10.453139323390022
3810.659,3.9010411959992553,8.51654065214852
3811.5356,3.880796447586546,10.04923357005575
3812.4126,3.870420808550003,18.858478399852565
3813.2917,3.8727674665967315,12.520938773907112
3814.169,3.884654205332378,8.728648137932524
3815.0483,3.898621450237519,8.294009525642059
3815.926,3.9068657617852325,10.515884094532424
3816.806,3.905064275529549,9.472446364775415
3817.684,3.8941406977908066,9.502225562301268
3818.5623,3.879736941897826,8.900952864953025
3819.4429,3.8688385232035816,10.574439254616944
3820.3215,3.8652272947863375,10.096201697163204
3821.2024,3.8668551136767246,9.964434877068264
3822.0815,3.867975007771922,9.50603043113769
3822.963,3.8636234438070374,10.649913215106867
3823.8423,3.8524817278386636,11.960747072646324
3824.722,3.836273078454901,11.50195908814858
3825.604,3.8176738397406957,11.537986648912574
3826.4841,3.7992348890464536,7.508698300611605
3827.3665,3.7830034156980665,11.442115427769055
3828.2468,3.7709337762842816,13.394198182149601
3829.1296,3.763862957673998,13.072488523984221
3830.0105,3.7603844552634653,14.741327655731945
3830.8916,3.756238106084874,11.466885225447918
3831.7751,3.746323397951934,10.919583435880131
3832.6565,3.7285160988462547,11.717944653396076
3833.5403,3.70565064700327,13.657200582214818
3834.4224,3.6839145556151247,10.04492324364304
3835.3064,3.667936507453112,10.801793397830913
3836.1887,3.6582772876375755,14.358230810080322
3837.0713,3.6523447173796852,10.982545527435189
3837.956,3.6477332126545616,9.952380505225026
3838.839,3.644084230800566,16.374630846561374
3839.7244,3.642491445399694,12.850414696218461
3840.6077,3.6439999168389337,22.004232721513066
3841.4932,3.6484060297728367,16.428821092709743
3842.377,3.6537526035892163,10.67093249089612
3843.261,3.656809245198201,10.614094583399979
3844.1472,3.654638012506575,9.308964823667738
3845.0315,3.646691892682863,10.390762188996904
3845.9182,3.6354951940349185,9.323713954676071
3846.803,3.625415609470951,12.630338672100088
3847.69,3.6203745397843283,14.533334368640128
3848.5752,3.6230410707165324,8.409385494544097
3849.4604,3.6349631507961346,10.018525825472414
3850.3481,3.6565296168052455,12.329494050486137
3851.234,3.68553848263528,13.462840231690103
3852.122,3.717061664668078,9.98787018466082
3853.0083,3.7447079263313836,11.445547928975756
3853.8967,3.7643705015335263,8.540334506103983
3854.7832,3.7755676444745103,14.4569670290494
3855.6702,3.7808482523817184,10.809443841475135
3856.559,3.7833078150245307,12.031731632297411
3857.4463,3.7851818988333616,12.41669499713944
3858.336,3.7874599247245673,14.387094085087517
3859.2234,3.7894135465887673,11.394479287756344
3860.1135,3.7882879734377646,12.311296611790706
3861.0015,3.780468525541078,10.968344948573725
3861.8896,3.764374193436598,9.206856973264696
3862.7803,3.742711587570149,12.610708388895612
3863.6687,3.7218868310121267,12.436168123200543
3864.5598,3.7078013799743057,9.89900836669033
3865.4487,3.7025528873885416,11.576295578925432
3866.34,3.7037512671615866,9.151514735611627
3867.2297,3.707540944782381,10.340160191379166
3868.1213,3.7115251220418193,10.311969589570506
3869.0112,3.714952815887402,12.286020607526071
3869.9014,3.716958090580304,9.923608944527857
3870.7937,3.7155633216951465,11.987901630495017
3871.684,3.7087870310268305,10.96231024394307
3872.577,3.6959175216152143,11.437138279111117
3873.4678,3.6772738665992235,12.260404447347362
3874.361,3.65245611865545,8.277549561201543
3875.2524,3.6204199942139565,11.40485542526964
3876.1438,3.5809369750537137,12.928605194571366
3877.0376,3.5369414880877605,13.596995023802997
3877.9297,3.4951962903741935,14.05415948133639
3878.8237,3.4630509480779237,13.771054127042959
3879.716,3.445098259074136,15.534363386830023
3880.6108,3.4399430882804345,8.696847585141011
3881.5037,3.441121252374722,9.856056557095448
3882.3965,3.440645526114658,14.153485531337822
3883.2917,3.432998699662771,12.251015142371205
3884.185,3.41665502897319,10.195182545421867
3885.0808,3.3928118242613046,16.386704563103155
3885.9746,3.3641557813384555,12.111076037180487
3886.8706,3.3339786157558873,8.387997899224235
3887.765,3.306752746975252,17.82978366516354
3888.6592,3.2870424657854413,16.0106113199559
3889.556,3.278324344263056,16.299564937867817
3890.4507,3.281781495530382,12.355326706499964
3891.348,3.295837297988883,13.926583374779597
3892.243,3.3164545314246383,12.639608080222489
3893.1406,3.338415940945742,15.186564573388992
3894.0361,3.35664717194256,12.313411428996112
3894.932,3.368360323851453,23.09575228298952
3895.83,3.3736671586350804,18.57403976205396
3896.7263,3.3753356460469788,13.831623723190656
3897.625,3.377629619342229,11.700984642362512
3898.5215,3.3840496613629814,16.691794808641546
3899.4207,3.3952762135240326,15.29725912741877
3900.3176,3.40904326572557,15.223913559687354
3901.2148,3.4230173322900024,12.73482587172168
3902.1145,3.4372549740013647,14.588700987795573
3903.0122,3.4536851485411395,12.900963922238915
3903.912,3.47400910001744,13.297760775052872
3904.8103,3.4981251782586535,16.041825433182062
3905.7107,3.525080493328611,9.198691981711084
3906.6094,3.553353362815412,10.813408267799087
3907.508,3.5810111627454355,12.261825199148351
3908.409,3.6052270382918326,13.94946615567317
3909.308,3.6225396952515982,16.429779486368144
3910.2097,3.6302664815329653,12.453099575990638
3911.1091,3.62767229628502,17.025108982207385
3912.011,3.6175336869346326,7.618080087824418
3912.9111,3.6062898496038907,9.332782296363442
3913.8113,3.6015152128806855,10.353009066645916
3914.7136,3.607827458997701,9.79299423545527
3915.6143,3.6239508846193895,14.004023957955058
3916.517,3.644062831833348,12.950029754679568
3917.4182,3.6620793018735864,10.70516058088668
3918.3215,3.6757522620124954,15.423095878088015
3919.223,3.6863669854081116,17.76628811531113
3920.1245,3.6960428754241033,13.573621592779757
3921.0286,3.7050632622082573,6.927650025192389
3921.9307,3.7116879311873614,13.70320162905629
3922.835,3.71416609024959,15.85122863786361
3923.7373,3.7127615147637827,11.192858754542065
3924.642,3.7103228561949644,10.91915312940427
3925.5452,3.7104487302103486,17.27552936601846
3926.448,3.7146814175394054,8.846467111699797
3927.3535,3.7214173177518926,13.580714662870967
3928.257,3.727153377136387,11.971216334475832
3929.1628,3.728684198236232,11.625764731294884
3930.0667,3.7239985381896097,11.750946473583538
3930.9731,3.7123310914759284,9.100646614628582
3931.8774,3.694575496613965,9.531739726467224
3932.782,3.6735266025451274,13.161275022585103
3933.6887,3.6532130568855354,11.455818302218184
3934.5938,3.6368706445245675,10.866549216755589
3935.501,3.62465992482731,14.988640403634701
3936.4062,3.6139847091191286,14.100578769205327
3937.3142,3.601336015424116,11.409283466571699
3938.22,3.5849979678176496,12.50272950367847
3939.128,3.5658349530131663,9.770317190876504
