wavl,flux,ivar
3566.9744,0.4835332205256975,369.5177245207232
3567.795,0.47942167426337723,240.029966955758
3568.6177,0.47444733857543586,214.69111905240715
3569.4385,0.46842871703940686,306.9492639418681
3570.2617,0.46187013149891026,410.4654987369994
3571.083,0.4562644944053392,397.81462966651213
3571.9065,0.453171931850291,384.0034253838696
3572.7283,0.4531284439202708,555.7650594225053
3573.55,0.4551626421891413,264.44683621385013
3574.374,0.45769712015902236,295.4515213744798
3575.1963,0.4597669303242246,269.52052359446424
3576.0208,0.4614311225629869,376.62578472088217
3576.8435,0.4630372584899444,260.1100997415717
3577.6682,0.4645292591912958,1065854.2204915842
3578.4915,0.4655177444959613,236.31525027159626
3579.3145,0.4659488833979178,1103.5286097291955
3580.14,0.46641496200275323,377.2970690253834
3580.9636,0.4677545638791342,218.2779868201168
3581.7893,0.4703626237610673,459.6868687061499
3582.6133,0.47385013587577185,299.953705026023
3583.4395,0.47740045139169757,366.57447591218084
3584.264,0.48023240466404454,711.2794772671576
3585.0884,0.4818589285754151,249.60669380977143
3585.915,0.48194878499631166,261.83216192489067
3586.74,0.4803770362575035,626.9694834398613
3587.5671,0.47754147574549516,508.63155081472195
3588.3923,0.4745133814740655,672.3669229685868
3589.22,0.47250695854547425,318.6176813855998
3590.0457,0.47217772920618906,1359.49661057809
3590.8716,0.47329670309479016,299.9759035387418
3591.6995,0.4751866464142733,217.44424764372687
3592.526,0.4772742672886046,466.2070939354907
3593.3542,0.4792782516025233,674.8406496951334
3594.181,0.48089457588989926,226.5143152350278
3595.0098,0.48159439592631464,601.1736967168788
3595.8367,0.4808388360846273,262.9088524140206
3596.6638,0.4786588458272073,248.42095478222186
3597.4934,0.47590937083024065,1354.7798852428648
3598.3208,0.47387902648252267,262.4022382807881
3599.1506,0.47344546864514325,550.1001245149166
3599.9788,0.474652083701424,536.8075810907533
3600.8088,0.4768365517011377,381.9333089970773
3601.6372,0.4790349418534508,377.06442360869755
3602.4678,0.4803823545811,281.88738886732915
3603.2964,0.48040963673983234,424.5223978879652
3604.1252,0.47930744942517023,429.24500546958217
3604.9565,0.47776285723254575,562.368787087174
3605.786,0.47641517756748014,387.7906532873747
3606.6172,0.4753828960827028,427.98454426360854
3607.447,0.47448711136721344,289.48192793948647
3608.2788,0.4737726955104763,668.0932921905475
3609.109,0.47361146906315227,386.82043015694626
3609.9392,0.4741432822704324,545.7118339120365
3610.7717,0.4748087606132169,410.2655845834968
3611.6023,0.47459539136263285,371.534662698464
3612.435,0.47281259464013653,268.3023774378005
3613.266,0.469626255917834,340.9486266888557
3614.0994,0.4659074900482543,511.9482786649727
3614.9307,0.462764286001081,491.4303015204793
3615.7625,0.46098422493517377,309.6806314665874
3616.5962,0.46082432582768146,1054.6704549791602
3617.4282,0.46201551246702033,356.6114671602044
3618.2625,0.46402008247815907,371.30345956331905
3619.0947,0.46633110000225614,430.755983137416
3619.9292,0.46863021073479505,357.4895072554562
3620.762,0.4705950471404452,383.0985479795802
3621.595,0.4717953907768133,268.189342876758
3622.4302,0.471878102547837,443.30728159475814
3623.2634,0.4709867771359791,310.43829327707215
3624.0989,0.4697688616177909,542.5929795855488
3624.9326,0.46875345882334263,283.5324444221519
3625.7686,0.4677156231817009,316.408168175113
3626.6028,0.46598353700719186,268.5732627500114
3627.437,0.46353161968051215,250.3486256983794
3628.2734,0.46169342472590674,417.8695439467253
3629.1082,0.4624057457243109,318.7237492979812
3629.945,0.4664118104242973,374.6715020454542
3630.78,0.4722678892034518,201.2257418506307
3631.6174,0.4774047993722602,269.56998650460855
3632.453,0.4800182660510632,406.9688471895089
3633.2883,0.4802211871871262,756.8269156123828
3634.1262,0.4794598031587635,288.4459281363541
3634.9622,0.4793677348922624,389.9548043934313
3635.8005,0.4808796421439072,310.3195846508037
3636.637,0.4838174334118152,1854.343860234475
3637.4756,0.48697858979963204,305.16178190569525
3638.3123,0.48877524542905426,210.32591137882432
3639.1492,0.48835647856784514,509.17998490125956
3639.9885,0.4862041443262764,415.5888350422682
3640.826,0.48377990073249705,308.81441571959556
3641.6653,0.4823452710397502,625.8501767553115
3642.5032,0.4820166712485266,266.6628945483678
3643.343,0.48167784473175446,293.03887691527905
3644.1812,0.47988601982212303,672.7410756346153
3645.0195,0.47599564271850386,345.93603532432905
3645.86,0.47060716266650876,582.2945057480216
3646.699,0.4650999684413365,628.3577956419501
3647.5398,0.46058897725358666,612.2920917413553
3648.379,0.4574463685935347,413.2631589789128
3649.2202,0.45535634427176663,398.7139680616925
3650.0596,0.4538099816157502,426.09628722381046
3650.8994,0.45232562564620055,390.9760091154726
3651.7412,0.4505439264518374,281.97374302466557
3652.5813,0.4484092916729961,358.28203007187324
3653.4236,0.44636324461790894,781.2923353901251
3654.2642,0.4451813091721953,685.9980501407613
3655.1067,0.44522215172124824,503.14757292222373
3655.9475,0.4459216797102043,141.3523984609929
3656.7886,0.4461709325790571,448.1558444293819
3657.6318,0.4452548703211574,699.6973620298191
3658.4734,0.4433746583877152,556.6552677912678
3659.317,0.44131455404762293,314.715786963014
3660.1587,0.43983728003329703,489.0349322382614
3661.003,0.43931802552452,649.8028231664746
3661.845,0.43981547269231264,363.9904784072371
3662.6875,0.44124537876211783,655.6641591610675
3663.532,0.4435055097528522,699.386182334779
3664.3748,0.44645899266161954,499.2573446152024
3665.2197,0.4499699231540232,595.9079440905585
3666.063,0.45392405490284404,489.4177623941308
3666.9084,0.4583785833959385,767.6554281056957
3667.752,0.46340065191821245,287.62008125004854
3668.5977,0.46885878597236735,589.6591480595052
3669.4417,0.47411094765601325,436.78960818643543
3670.286,0.47830314149488573,609.0500744589133
3671.132,0.4808960942960316,262.1832442532875
3671.9768,0.48205810757176965,514.8309472200832
3672.8235,0.48244906079626465,311.47842553834664
3673.6685,0.48248180849685723,263.0513640201481
3674.5156,0.48186613357964286,655.6942511405462
3675.3608,0.47988029970150253,537.1726076661138
3676.2063,0.47610049857796016,306.8360548746547
3677.0542,0.47091504457580363,444.8361502289573
3677.9,0.4654790779688133,260.7489694668849
3678.748,0.46096602233502837,716.5993671362327
3679.5945,0.4579656794100588,642.1149131089151
3680.4429,0.45623876689893594,504.7641879731744
3681.2896,0.4553501419488295,589.6717310813145
3682.1365,0.45536599635022545,776.5824122909008
3682.9856,0.45690880953492824,343.1958019336901
3683.8328,0.46036521368770994,687.7041283548047
3684.6824,0.46518705502799207,246.0067153917737
3685.53,0.46991150019984634,398.3693786846144
3686.38,0.47302312867499463,497.76284311542014
3687.2278,0.4735821380761871,568.6571594795496
3688.0762,0.47143985867940075,287.54719331062824
3688.9265,0.4670258961850624,367.71715999230133
3689.7751,0.4613451867894277,611.1046846212053
3690.626,0.455976499866821,353.1440514362289
3691.475,0.4529269533520634,1076.4793214342528
3692.3264,0.4537571359492667,591.1814719938711
3693.1758,0.45868378977864777,280.78421856610925
3694.0254,0.46630161526884606,294.67702342733224
3694.8772,0.47430418728363216,559.3450691496217
3695.7273,0.4805598883645695,313.48039845337166
3696.5793,0.48402524724029194,572.1146028267108
3697.43,0.48473575281563996,398.4520318020636
3698.2825,0.4834985708189548,258.82570558220056
3699.1333,0.4813972583142853,428.21953540120063
3699.9841,0.4793504702213624,238.21093214887415
3700.8374,0.4778418358716734,435.42394206126136
3701.6887,0.47692978081533205,698.4977873678963
3702.5425,0.4764390355217783,310.42054012598817
3703.3943,0.4761906112948264,772.2208786661784
3704.2483,0.4760592213925692,812.5991840460897
3705.1003,0.47598524472135634,272.9490495611577
3705.9526,0.47597590013311264,296.77156618933986
3706.8074,0.47607413241230706,297.7142195657305
3707.66,0.4763203533109933,245.72510312824016
3708.515,0.47677853558410477,519.9136602486959
3709.3682,0.4774977802411045,385.2928921807184
3710.2234,0.47833570471198966,538.8461742456756
3711.0771,0.47887807107577907,256.2038843429252
3711.9307,0.4787993095014062,368.06567290499675
3712.7866,0.47832146440064843,350.12128353381553
3713.6409,0.4781508907651264,320.282513057481
3714.4973,0.47878823218061534,331.727116667528
3715.3518,0.4799396036241523,382.93654545418036
3716.2085,0.48063843748843116,292.6691630393979
3717.0635,0.4798507946705672,282.03030346927517
3717.9185,0.4770477118342613,253.67884599595666
3718.776,0.4724317454706761,275.39452454699614
3719.6313,0.46700798519954606,468.02538519235287
3720.489,0.46225855977619834,341.82746353761524
3721.345,0.4596375293201261,597.7543641962061
3722.2031,0.4597105446147312,502.7981935863763
3723.0593,0.46174068135198426,669.0128206666008
3723.9158,0.4640251060307149,521.5248401195976
3724.7747,0.4649090912162582,434.7706478987551
3725.6316,0.4637299473581253,337.61114664556345
3726.4905,0.46104331465913423,267.9281300673985
3727.348,0.4580882399165674,679.3202127844547
3728.2073,0.4559834156437158,417.48006351697296
3729.065,0.4553118119636329,296.59765587995855
3729.9229,0.45608278427157695,351.33174079913147
3730.783,0.4579484505032241,464.42408998022836
3731.6414,0.46030983839576256,431.32708642645014
3732.5017,0.46245374952415036,474.665954920982
3733.3604,0.46374972664000247,291.63726906895454
3734.2214,0.46396824831784145,314.7422428541544
3735.0803,0.4633636892439304,356.12598666998986
3735.9417,0.46250643845307077,377.5163316254657
3736.8013,0.4619721202841201,541.4440349267413
3737.661,0.4620101129704205,385.1458041673375
3738.5227,0.46233926171896444,640.4571443003213
3739.3828,0.4622076588223354,344.25907487352146
3740.245,0.46080801567367113,518.0382612712665
3741.1055,0.4577893272064899,711.0683618232277
3741.9683,0.4534616666391216,386.2150460854764
3742.829,0.44878094901283333,1367.6201703105294
3743.69,0.4450064371275198,597.3895240050327
3744.5532,0.4432518929993202,342.44048219978316
3745.4148,0.44386060554233886,465.0638686654588
3746.2786,0.44605018091284565,730.9439211606064
3747.1404,0.44829461730720727,404.91319496969015
3748.0044,0.44921438769164557,380.70409351783564
3748.8667,0.4482012667380325,557.3129497543636
3749.729,0.4455346073484436,541.8173285367524
3750.5938,0.4420920517438904,451.02498254761105
3751.4565,0.43900652587043226,516.6377582491216
3752.3215,0.4371587082805586,591.1386425900357
3753.1848,0.43688475676251165,456.74436304635543
3754.0503,0.43800892074525616,358.1415499178127
3754.9138,0.4402510169960547,289.77629774544863
3755.7776,0.4434358170822514,925.9996087157236
3756.6438,0.4472076036448104,751.986085469184
3757.508,0.4507242098014176,678.6765152202125
3758.3745,0.45309378582186277,264.6345480829841
3759.239,0.45406479222185536,452.8127800912849
3760.106,0.45427526965941656,481.2962725830897
3760.971,0.4545690375882733,684.5080409324403
3761.8362,0.45521785123445596,281.802815564995
3762.7036,0.4558748010022869,534.785702464162
3763.5693,0.4562337485232895,1159.4667938944933
3764.437,0.4565836182340464,475.3082060927365
3765.3032,0.45752598071589634,368.7186108912615
3766.1714,0.45912161430734005,345.34815436850437
3767.0378,0.46042554779695277,252.55756717306426
3767.9043,0.46017071086465017,99.81036563440917
3768.7732,0.4579710824582373,645.3036288961031
3769.6401,0.4548517235019463,420.6042072630167
3770.5095,0.4524388933327442,514.7104071081261
3771.377,0.45178302932739034,501.9763042865262
3772.2466,0.45279320065848494,431.25643521764357
3773.1145,0.4546662001577932,765.4967316412761
3773.9824,0.45662655181422673,1040.0510688100899
3774.8528,0.4583512053998211,303.28183972949273
3775.721,0.45991138894637085,329.30822473808365
3776.5918,0.4614884603037911,662.2429833675681
3777.4604,0.4630415611498766,449.4146528373863
3778.3315,0.4642885309087622,358.8776281347712
3779.201,0.46484595281844443,411.2973354491549
3780.0703,0.46441679713551176,840.227598321546
3780.942,0.46277338031922655,384.8410743567415
3781.8118,0.4597385466553706,638.378508666977
3782.6838,0.4553005288740337,468.1975762039154
3783.554,0.4499911982506132,269.356095009973
3784.4265,0.4449472933452088,580.9284710994834
3785.297,0.44161637511140933,821.6424520472007
3786.168,0.44090776105707247,349.36426923860677
3787.041,0.4427382023297016,608.0859215300682
3787.912,0.44613363435354864,670.5701905802583
3788.7856,0.4498494230948109,718.1693199362218
3789.6572,0.4528557182524388,558.4281563500456
3790.531,0.45468739392856267,534.5956171265835
3791.403,0.45543101023007004,813.8637764234949
3792.2754,0.45553526179004294,1232.4132540024166
3793.15,0.45537862498742787,651.6513310627967
3794.0225,0.4549962233980658,346.51177767683913
3794.8972,0.45420291337792973,521.0434508891915
3795.7703,0.4530011956734438,719.2054430965363
3796.6455,0.4518052811625903,406.06284547265
3797.519,0.4512608739252066,353.2143108698488
3798.3926,0.4517345795185774,851.4464535217774
3799.2686,0.4529658598203724,343.63741516178817
3800.1426,0.4541393159832964,392.14688276839655
3801.0188,0.45438744150513516,498.2361515988034
3801.8933,0.45325951526320685,475.55910866662117
3802.77,0.45090984208282753,500.9806422548739
3803.6448,0.4481197941947578,527.131811587701
3804.522,0.44635686611345815,507.6631611638514
3805.3972,0.4478930186878401,584.24438104466
3806.2727,0.45517041245105,602.3536981639223
3807.1504,0.46916103753326965,463.38173080741194
3808.0261,0.48729300585699026,491.1214064467732
3808.9043,0.5036775633386481,236.99015769459996
3809.7805,0.5117965145023365,399.9131150630497
3810.659,0.5088453829576828,663.4470613344228
3811.5356,0.4972618416378644,317.9745893303999
3812.4126,0.4826564154563701,424.5246492227793
3813.2917,0.4702044150839694,343.3019971237592
3814.169,0.46258982125349807,314.3200215562875
3815.0483,0.4598564889312065,515.9804149593475
3815.926,0.4606206688440171,369.73494507877115
3816.806,0.462991954745326,349.71692070320364
3817.684,0.46528604931792167,466.36658317019106
3818.5623,0.46659959663809325,436.19368790093256
3819.4429,0.4670264211865535,608.6054579431972
3820.3215,0.4673098331047061,354.8310291956956
3821.2024,0.46803309049670333,465.1398176986195
3822.0815,0.4689404949423415,408.02559023147444
3822.963,0.4690339049010811,578.2414343737868
3823.8423,0.46734744824233315,278.85346968397334
3824.722,0.4636959064669358,559.5584939827061
3825.604,0.4587082824671826,467.0566824016075
3826.4841,0.45334079079451267,500.8212728370122
3827.3665,0.44826483481448887,382.55585626859084
3828.2468,0.4438431219447142,286.1462079516183
3829.1296,0.4401842671775926,500.8085366447404
3830.0105,0.43734921343598104,558.7812263668765
3830.8916,0.43528590703113174,371.2341463959828
3831.7751,0.43381623314248274,513.4677017369604
3832.6565,0.4326316514032369,408.0817851994258
3833.5403,0.431354121476335,598.5605238083175
3834.4224,0.42971267941483193,531.655003973347
3835.3064,0.42763412520582916,498.2066112960025
3836.1887,0.42530015954850514,493.5806480114371
3837.0713,0.423076087663459,492.67204094688447
3837.956,0.42144161742371167,466.94385621879786
3838.839,0.4208898973491944,749.5541262760031
3839.7244,0.42178371242337037,463.8896630327483
3840.6077,0.42421720709497046,813.9423217164517
3841.4932,0.4278915887502345,451.44400354250837
3842.377,0.4320672715968641,564.9900829621537
3843.261,0.43590275427820396,354.97578793955984
3844.1472,0.43888943565280325,322.5139186252298
3845.0315,0.44103900068657165,400.8604547320231
3845.9182,0.44264428675713485,627.6787867468615
3846.803,0.44382224864970815,639.7955012607113
3847.69,0.44453590668770443,511.5863434310281
3848.5752,0.4449005766507711,546.0544781344338
3849.4604,0.4452976459268144,612.2767498470644
3850.3481,0.4460323100452275,418.02833258819817
3851.234,0.44702802975661005,670.2347193807273
3852.122,0.4480486900554628,598.3349060728776
3853.0083,0.449170455133678,601.9482483475279
3853.8967,0.4509223189688155,453.81319972708144
3854.7832,0.45377828351478006,793.2772080949355
3855.6702,0.4575963321445626,336.3355456268154
3856.559,0.46154143439053397,522.7393278649172
3857.4463,0.46458641475432577,452.9077766249925
3858.336,0.4661890548562474,292.78612758234283
3859.2234,0.466470643200116,408.4235792958142
3860.1135,0.46601034044856443,676.3619071087974
3861.0015,0.4654325423404869,483.6979990645
3861.8896,0.4651417552902233,368.36858602520283
3862.7803,0.4652711854475012,639.0469788789536
3863.6687,0.4657062044528169,517.4208067888878
3864.5598,0.46609925999974433,316.89237832136945
3865.4487,0.46588702127552584,383.6039448776498
3866.34,0.4644076824107487,285.4458203279571
3867.2297,0.46114753537129843,231.99022004132658
3868.1213,0.4560047753650601,320.284773773403
3869.0112,0.4495407475632009,486.08007127791154
3869.9014,0.44284579714288463,496.6844221770373
3870.7937,0.4372097338532952,537.9611387692339
3871.684,0.4336961873046592,408.9160914474853
3872.577,0.43273422262009587,329.0326095793447
3873.4678,0.4340714674075926,587.7766021915149
3874.361,0.43681258536432493,429.72421958602604
3875.2524,0.4396467562755315,471.7293450097594
3876.1438,0.44134348102801063,276.98446311706556
3877.0376,0.44120823276137217,506.0414655132288
3877.9297,0.43926297468786335,308.4041100081132
3878.8237,0.435991106061123,447.65091695886997
3879.716,0.43198412372071804,495.29601065855525
3880.6108,0.4277112024466131,453.53510289825283
3881.5037,0.4236088272063957,288.47303044457567
3882.3965,0.4200171106367069,438.8470950025001
3883.2917,0.41712974651045986,528.4660580901966
3884.185,0.41496223681214645,469.6838355385309
3885.0808,0.41334210168843294,400.79966959894927
3885.9746,0.4119858023950382,508.4111340769156
3886.8706,0.41047326998481454,633.9610846451576
3887.765,0.4084154839285051,409.27202590208816
3888.6592,0.40574273353665274,499.86917774936865
3889.556,0.4029156353520356,682.5437061440351
3890.4507,0.400754553287916,454.29667927059126
3891.348,0.3998833123463796,723.9506972193894
3892.243,0.4003840021774418,782.7554489160672
3893.1406,0.4018233397257956,783.3008986287127
3894.0361,0.4035829674549698,404.6619542657329
3894.932,0.405238522749564,426.90486185692293
3895.83,0.40679528861884895,678.8810913790362
3896.7263,0.40874766351484715,612.1862382598536
3897.625,0.41189138703962125,493.59236189604576
3898.5215,0.4167817563137058,470.99060570480196
3899.4207,0.42331819797279274,455.94382563083116
3900.3176,0.43051874462062883,1128.177832850575
3901.2148,0.4370332503771713,453.8925769699539
3902.1145,0.4418339510735702,688.1862842200826
3903.0122,0.444843234021289,663.7774414410203
3903.912,0.44706825083241764,399.2185151519115
3904.8103,0.44987405007563935,449.90944617564594
3905.7107,0.4541253812453201,309.4796420737732
3906.6094,0.4596513108851689,399.5136996497489
3907.508,0.4655328985509441,312.06108840603673
3908.409,0.4707232158649311,479.36597198758636
3909.308,0.47456090488061003,379.8180296422087
3910.2097,0.47704113840230383,460.15211859165885
3911.1091,0.4785951979496146,345.5175834509817
3912.011,0.4798359148825222,364.5689509933927
3912.9111,0.4812684231576319,388.1448785921368
3913.8113,0.4832098945943459,493.7709895091869
3914.7136,0.48576590459710156,360.5936493443883
3915.6143,0.4887786471765842,523.2391182613375
3916.517,0.49186352641826686,374.0999440015668
3917.4182,0.49450047632657024,403.44409323999
3918.3215,0.49636436941223855,327.98581523952714
3919.223,0.4974842751004603,438.3949865636958
3920.1245,0.49816740822705274,517.5206516907388
3921.0286,0.4986282943506327,316.32400850505877
3921.9307,0.4987450184270623,466.72151542847575
3922.835,0.4982007493006533,428.8345492756947
3923.7373,0.4968790539957645,274.6141880375537
3924.642,0.4950923579992577,335.2655232948983
3925.5452,0.4934432834167324,487.3942580883879
3926.448,0.4924296565801943,379.6910458971424
3927.3535,0.4922611070892679,378.5766926299817
3928.257,0.49292884685062327,431.7096051624204
3929.1628,0.49431130913503873,339.6778098540129
3930.0667,0.4961314744126384,443.3545296354514
