wavl,flux,ivar
3566.9744,5.227271976137213,11.129761738734658
3567.795,5.211432096170763,11.405963738349756
3568.6177,5.188441885288965,13.487308751693872
3569.4385,5.160989309933722,8.601447488176868
3570.2617,5.126848068287803,12.83242763313802
3571.083,5.083598224426986,7.698354636847183
3571.9065,5.033637808222415,9.871413466223942
3572.7283,4.986437632827935,10.073134978856688
3573.55,4.953654944854724,19.327017259073852
3574.374,4.943714803653289,9.945698639589382
3575.1963,4.958330858748261,12.605903650081192
3576.0208,4.992508062894743,11.352719448080428
3576.8435,5.036467701612513,12.425931332563861
3577.6682,5.079286257432444,7.003439852790278
3578.4915,5.111640596468897,9.927046190099182
3579.3145,5.128531851559669,10.576557874034298
3580.14,5.128642059507948,6.9182346896062255
3580.9636,5.1137426119451765,5.747596933401469
3581.7893,5.090058360264548,8.983013353985509
3582.6133,5.069760500427403,8.645815668383914
3583.4395,5.067186020129424,12.001809904258417
3584.264,5.090849123332589,11.235166898941634
3585.0884,5.136829830223371,12.976609629669253
3585.915,5.190312333508934,7.659471727549271
3586.74,5.233265746265769,9.347466365415693
3587.5671,5.254454387651726,8.442516450112809
3588.3923,5.252871971066853,10.766821005043814
3589.22,5.235503234838512,11.596547105586795
3590.0457,5.210734349124373,10.868195031105765
3590.8716,5.182669781894825,9.17824707866585
3591.6995,5.150560089773322,8.548082113308975
3592.526,5.112643728560285,8.332852801041442
3593.3542,5.069578071702297,11.927334749450916
3594.181,5.026020171431693,8.724810513412814
3595.0098,4.987968709173057,11.938620998479163
3595.8367,4.960831845945959,10.04417483335691
3596.6638,4.946989809240739,12.35366630363545
3597.4934,4.945902743551077,13.431944447971047
3598.3208,4.9546820423107905,10.824152210241241
3599.1506,4.968776546591226,12.284307038887022
3599.9788,4.9815508637843875,10.018557264445976
3600.8088,4.984246060158252,7.510682957595339
3601.6372,4.968380661884058,10.482835856152441
3602.4678,4.931992527289535,11.49632869911381
3603.2964,4.885838191333987,12.437715558973533
3604.1252,4.851514799881599,9.462829479578335
3604.9565,4.851281911659662,9.566272530889982
3605.786,4.894309109086033,15.665379333035734
3606.6172,4.970178556215349,7.7633608683003805
3607.447,5.05379175933841,11.976839085315682
3608.2788,5.1200040174955515,6.482163217086267
3609.109,5.154452355539567,8.677026013631567
3609.9392,5.1577037084346,8.391489630458443
3610.7717,5.139512986486473,6.951764620911723
3611.6023,5.11231751349244,12.334924358344745
3612.435,5.086426578018043,8.801220926717964
3613.266,5.068436631400673,10.468324303771656
3614.0994,5.059722132045636,8.316148653789195
3614.9307,5.056878114687457,7.257171929372339
3615.7625,5.05384527839868,6.408946727360973
3616.5962,5.0455120042693835,9.022674267174112
3617.4282,5.030267340336706,7.781810255785711
3618.2625,5.010361529170595,9.527368646699143
3619.0947,4.991253030757578,8.600018807930272
3619.9292,4.979039735376047,12.288694067906523
3620.762,4.977252564321169,16.231190781593188
3621.595,4.9836660262786765,12.722693343858142
3622.4302,4.99103486705013,9.927715153401667
3623.2634,4.99168314320618,7.564172171910035
3624.0989,4.982857758030003,11.20923376027855
3624.9326,4.9677582573242205,10.487326883055475
3625.7686,4.95119579436051,7.340407399960937
3626.6028,4.934781130593972,10.519143936574732
3627.437,4.916140630491384,10.804277750768772
3628.2734,4.893451060658419,9.286851632888883
3629.1082,4.870093569883227,12.879707483165246
3629.945,4.853673987947965,10.80479154775195
3630.78,4.8509174891698015,11.842868911559094
3631.6174,4.862262200255883,9.923539445471853
3632.453,4.881509747161454,8.201114829004274
3633.2883,4.899968281714895,10.937580180021534
3634.1262,4.910949381145481,11.156543556931009
3634.9622,4.911748386856516,5.313109054736126
3635.8005,4.903187854210646,10.366416355614955
3636.637,4.887775623188175,14.567774871328828
3637.4756,4.867916991480014,9.503906577613828
3638.3123,4.845461075990942,9.298884423370655
3639.1492,4.821885990336216,10.89473633207368
3639.9885,4.799791917987548,7.676268807581286
3640.826,4.783701281336259,12.710051479464285
3641.6653,4.777699574005388,11.548229885209608
3642.5032,4.781560050116272,9.824506303436957
3643.343,4.788242379769755,12.615579738197008
3644.1812,4.78710633471564,9.24080262191434
3645.0195,4.771589057868082,11.104751547259092
3645.86,4.744946463363492,10.064477563127314
3646.699,4.719589693322907,8.401566879509671
3647.5398,4.709076554193961,9.701169353858411
3648.379,4.719535868793681,19.416553953943772
3649.2202,4.745824687969072,6.436273465720931
3650.0596,4.7754165869253935,8.829791573271438
3650.8994,4.796823135911045,11.926338886257026
3651.7412,4.804360389605915,13.374933110637155
3652.5813,4.7974662372527845,13.118778009872946
3653.4236,4.777751082992179,9.542594163831145
3654.2642,4.748340157899596,10.547352970398844
3655.1067,4.714550785622258,9.634908222668637
3655.9475,4.683745815217264,20.880079571619795
3656.7886,4.661719304442059,14.813808903157756
3657.6318,4.649917538678728,17.54862980212543
3658.4734,4.645175632320793,10.716494455359598
3659.317,4.642231389324114,10.716696475117043
3660.1587,4.637165960356456,20.841646393003792
3661.003,4.628717073471022,12.178097031422144
3661.845,4.617511587209593,10.544550325735582
3662.6875,4.604371763902876,12.849520155260203
3663.532,4.58981940770944,9.826348127401863
3664.3748,4.574841433785001,27.195599182468033
3665.2197,4.561672969768914,11.350186483157147
3666.063,4.55385290666797,11.5058547407579
3666.9084,4.553471430228866,12.222184965808495
3667.752,4.557656147650257,8.874967313408868
3668.5977,4.557962020254546,12.628388204156275
3669.4417,4.545749684203619,15.647800383177671
3670.286,4.519984827023955,17.045452635390806
3671.132,4.489263231236797,17.179692852309614
3671.9768,4.465297588470687,8.23471760867676
3672.8235,4.45324665894378,10.136405748940163
3673.6685,4.4496154179584515,9.931955324376666
3674.5156,4.448018810317178,12.931357202303454
3675.3608,4.446740479399917,13.117301689496179
3676.2063,4.450326428505535,10.163827482286912
3677.0542,4.46495352022344,16.42841499899654
3677.9,4.492524099373183,15.927810125163633
3678.748,4.529650601210411,10.450638375193877
3679.5945,4.57033293031962,13.891280952186706
3680.4429,4.610149531318729,12.128957494505947
3681.2896,4.646078678970801,14.70197059718386
3682.1365,4.6755466319527965,16.27778190844782
3682.9856,4.6956236118853445,16.254122724250788
3683.8328,4.704482997242389,11.946126427297614
3684.6824,4.703162737577798,12.990385803122933
3685.53,4.694708714016051,12.310952405645205
3686.38,4.681770639606523,12.152746971968215
3687.2278,4.665050092967627,16.421834437397507
3688.0762,4.644007012047592,8.337468783696767
3688.9265,4.619695500781447,8.16199570500877
3689.7751,4.596564712723064,12.993328497435966
3690.626,4.580172324985845,12.26399781817017
3691.475,4.572958715188976,11.137608152226235
3692.3264,4.570687135943775,9.184908920922496
3693.1758,4.564037646146833,15.287543685249156
3694.0254,4.544331266364686,8.440647104754216
3694.8772,4.509892430046021,10.595361385888259
3695.7273,4.469195803016986,12.224015064540684
3696.5793,4.4367798077210905,14.357204818429466
3697.43,4.425087695498528,17.891971209865474
3698.2825,4.435844599626444,14.87165568969439
3699.1333,4.459324087829002,9.530515300895392
3699.9841,4.481810035974333,12.65875626132516
3700.8374,4.494601222653034,15.405611733266209
3701.6887,4.497064958993703,15.596101656055566
3702.5425,4.4930766107996245,8.976765989638201
3703.3943,4.4853131533860315,10.69707649361676
3704.2483,4.4728759465579735,15.671781023618761
3705.1003,4.45343688403172,9.757303841279713
3705.9526,4.426790909625742,14.41024009683089
3706.8074,4.396908789630854,13.818631253312114
3707.66,4.370620109427466,10.264810925095942
3708.515,4.352864892364125,12.338434557672713
3709.3682,4.343816588967853,12.925412130197385
3710.2234,4.3386562638746895,17.073423157928225
3711.0771,4.3311331187720254,16.72764814046045
3711.9307,4.317446168704997,21.817981194402623
3712.7866,4.298271956761741,22.29651611592297
3713.6409,4.278121877324147,16.47844037234961
3714.4973,4.2619827491062345,12.603261302779215
3715.3518,4.252557326374517,13.066056263885631
3716.2085,4.248987887141822,9.975163862181395
3717.0635,4.248612035161329,18.134696165266625
3717.9185,4.249485902610902,10.257455704511914
3718.776,4.251881699241512,13.857048295794208
3719.6313,4.257233006496854,14.537721504633337
3720.489,4.265471633051525,18.993160655281013
3721.345,4.273183404741622,11.852052852010841
3722.2031,4.275253658622567,13.494850877019338
3723.0593,4.268622564308001,10.182360037990426
3723.9158,4.2548096304817875,23.63467164727483
3724.7747,4.2387164783314315,11.703681359541646
3725.6316,4.225759999376339,9.690944028850616
3726.4905,4.219450471983318,12.950960996585135
3727.348,4.221018091570254,16.4475889511807
3728.2073,4.229213230594964,13.025305141904072
3729.065,4.240395810601349,14.715019660528366
3729.9229,4.249742865176198,13.339312074526356
3730.783,4.253304630689931,16.492768760403305
3731.6414,4.249876905017535,12.11588018601934
3732.5017,4.241471933301459,12.224870637869785
3733.3604,4.2322850552510705,13.691553670083048
3734.2214,4.226528183621787,14.496157775452144
3735.0803,4.226164032364287,13.02359840488188
3735.9417,4.229396979558258,15.334900439061244
3736.8013,4.231881441961475,14.727470170616497
3737.661,4.230316855122043,9.486800359388834
3738.5227,4.225428410410292,15.989509099722568
3739.3828,4.221587913731549,16.94418694890578
3740.245,4.223153879108258,15.408022565375983
3741.1055,4.230879401199399,16.08750396073194
3741.9683,4.240889028971489,14.898158893307894
3742.829,4.24621539119498,11.380180502538886
3743.69,4.2400826150566155,13.179972013774933
3744.5532,4.218877162634091,14.909930547681123
3745.4148,4.184328552423648,10.73505767385359
3746.2786,4.143000588156451,14.645035056940696
3747.1404,4.104852382361733,13.485079930570521
3748.0044,4.079271519131741,10.186589040959586
3748.8667,4.071901109147907,20.316780768473063
3749.729,4.081367882875687,22.911450928102195
3750.5938,4.100026952140637,13.168985566953674
3751.4565,4.117726626137336,11.517747704124925
3752.3215,4.127257576889878,15.177867322577313
3753.1848,4.126858508043897,10.960359102376787
3754.0503,4.119560280703402,13.622251252201039
3754.9138,4.110138730279122,9.97431246458439
3755.7776,4.102138267861943,11.552997473031258
3756.6438,4.096906809252749,10.988962478975488
3757.508,4.094425704320595,9.831272962627818
3758.3745,4.094340138782297,26.164087420735008
3759.239,4.096163824622472,13.369840901991466
3760.106,4.098748012487831,17.118317964709608
3760.971,4.100095156351353,19.843974539105492
3761.8362,4.098001507687593,12.566736150162825
3762.7036,4.091079294912839,9.160172382938416
3763.5693,4.079844031069873,10.664159896061188
3764.437,4.0666469916225685,16.66774451806515
3765.3032,4.0542060905051445,14.367034158640804
3766.1714,4.042998026675841,21.77836290349337
3767.0378,4.030795789799598,16.342327641943342
3767.9043,4.015004802919198,10.717556429676758
3768.7732,3.9962409220086057,19.774991375226147
3769.6401,3.9793485401941315,17.852489664703924
3770.5095,3.969955841394899,15.344695446586302
3771.377,3.9703802054107444,15.838843695605776
3772.2466,3.977708272717226,18.270036853340272
3773.1145,3.98604918617784,18.698566119419464
3773.9824,3.9908375253858477,12.781478167846734
3774.8528,3.991721452718816,12.692742971174818
3775.721,3.9922090690031693,15.224238099332956
3776.5918,3.996369099986341,20.38874879950018
3777.4604,4.0049265994291074,18.771955343200304
3778.3315,4.014029205253481,12.730060754716765
3779.201,4.017651689410305,12.727077319087392
3780.0703,4.012160377982208,15.779945420424982
3780.942,3.998635399596427,16.24972616977792
3781.8118,3.981844219280655,24.79707966289862
3782.6838,3.967152054528328,13.87221752931219
3783.554,3.958843468437368,16.15491701850443
3784.4265,3.9591888713958068,14.903351136021817
3785.297,3.9681179400028306,15.269227870507914
3786.168,3.9830416343595685,22.733236794015806
3787.041,3.999719519767491,19.248367766841998
3787.912,4.013429812572922,19.325635788347526
3788.7856,4.020345679100609,15.743534229561993
3789.6572,4.018452079105293,20.303515483190314
3790.531,4.008976375593933,15.33990259642095
3791.403,3.9963644128935507,13.80226865923663
3792.2754,3.985400661229924,22.63173278339296
3793.15,3.9774862395477295,17.15969771137146
3794.0225,3.969621522977595,12.352776142619831
3794.8972,3.9573365842503434,18.74075794644753
3795.7703,3.939316932884497,17.604971026830025
3796.6455,3.919049674129134,13.296437879495286
3797.519,3.903126800409267,22.01145900183145
3798.3926,3.897041899847745,13.3675021425648
3799.2686,3.902525065723223,15.245526921382757
3800.1426,3.9170485761797846,13.499689434411449
3801.0188,3.935415794949025,15.62517164413235
3801.8933,3.951186228992377,16.21738605670991
3802.77,3.957937465801578,15.640263381559969
3803.6448,3.950205382608763,19.185305511818072
3804.522,3.925937768749915,17.60064123756422
3805.3972,3.8894384817438707,25.249094428522795
3806.2727,3.85105089356388,18.387445347091077
3807.1504,3.82257662495334,18.140917124533388
3808.0261,3.8105089320201397,18.632709579468717
3808.9043,3.8124169167797226,14.93747564201632
3809.7805,3.8208385262681896,12.31014442275284
3810.659,3.830194010339337,16.327936006173207
3811.5356,3.8403496592908315,32.46873808390368
3812.4126,3.8544328220955495,17.337251573396394
3813.2917,3.8737482192411816,14.754362680896918
3814.169,3.8947973794946438,19.600558452233898
3815.0483,3.911148857801388,16.708155676916537
3815.926,3.91728535318399,11.949949646398645
3816.806,3.912179794764552,13.356383335123525
3817.684,3.8994321450738654,18.112320031640795
3818.5623,3.8846623225756742,19.13624192421215
3819.4429,3.8720158752466824,14.407186832677242
3820.3215,3.8618046581036407,16.39115103359274
3821.2024,3.8500603290357964,15.556681513716436
3822.0815,3.8313848767640932,15.557400076650232
3822.963,3.8031486055037393,19.302717917073192
3823.8423,3.7691887108745328,13.737677592441075
3824.722,3.738465678979618,16.50049946590375
3825.604,3.719948139053197,18.057175640541136
3826.4841,3.716509134635499,17.416587641578307
3827.3665,3.7225057598694162,20.544967755615097
3828.2468,3.727732952231474,14.423442719670907
3829.1296,3.72421328957154,13.531728559413835
3830.0105,3.7104865319191584,15.761479206823372
3830.8916,3.690478356359401,21.916495930718852
3831.7751,3.6689292171717227,16.772909985169843
3832.6565,3.6482031676641475,13.88800450858903
3833.5403,3.628098382325512,25.33279870227374
3834.4224,3.6086403440472417,31.72669817556369
3835.3064,3.591216529780141,18.06262449992705
3836.1887,3.5784295964614827,14.728420124457404
3837.0713,3.572533288761296,16.992887698278814
3837.956,3.574791502858555,14.574811936944013
3838.839,3.585283137217463,25.45529423659367
3839.7244,3.6032488109691934,17.080234729828568
3840.6077,3.627260186283319,16.191873598935928
3841.4932,3.6555721283790352,15.43006330057309
3842.377,3.6851485832415634,16.796164534933386
3843.261,3.711582569372071,15.515082262913726
3844.1472,3.729765625645116,16.169676613018154
3845.0315,3.736524263820264,25.047192638397227
3845.9182,3.733631365792678,12.188251767744323
3846.803,3.7276155563075934,21.874902373340074
3847.69,3.7260958733138714,24.87823341747052
3848.5752,3.733374244693871,11.473197431884982
3849.4604,3.74882240173997,20.101144405304066
3850.3481,3.7686054520320282,12.305198536201832
3851.234,3.7877328600641182,18.7829403730733
3852.122,3.8017368353581893,18.153739994089392
3853.0083,3.807348575769307,20.591640718322253
3853.8967,3.803809374050995,13.942969092279876
3854.7832,3.7929166564069847,16.753010941207144
3855.6702,3.7776623253143535,13.843158455055478
3856.559,3.7605688822511985,20.302768334886416
3857.4463,3.743388717460381,17.21399983763553
3858.336,3.727657741081985,20.246332746714494
3859.2234,3.715603270719216,15.607021306803487
3860.1135,3.7091512508021047,21.06503659591708
3861.0015,3.708699726282897,17.01507213707039
3861.8896,3.712345249389337,15.450865897437513
3862.7803,3.71703740581415,16.857303265207687
3863.6687,3.7202436746432275,19.13979626486961
3864.5598,3.72060013998742,20.51998158500029
3865.4487,3.716766127149313,31.538250148972104
3866.34,3.7065025467290544,17.488317537705598
3867.2297,3.688131332243348,19.759424144737007
3868.1213,3.663208274641091,15.051181097086296
3869.0112,3.637684369202504,19.179255295172577
3869.9014,3.6184825235667644,20.609016320717146
3870.7937,3.608969938686299,17.12708812114088
3871.684,3.6067748419195707,18.607889263274974
3872.577,3.6057497131996636,17.236235479421378
3873.4678,3.6003683832937203,20.381381310838137
3874.361,3.588675152358697,15.648562475070687
3875.2524,3.5722445233256606,21.59769992792107
3876.1438,3.5534914984893295,20.25602252937222
3877.0376,3.5332963768020655,18.97754228687603
3877.9297,3.510656025086869,20.84154958282652
3878.8237,3.4835243427823044,20.365465023108303
3879.716,3.450893081409942,15.545859161959289
3880.6108,3.413526386148642,16.20856186813858
3881.5037,3.3747091263603197,24.1716963421472
3882.3965,3.338414097223391,22.173877814716096
3883.2917,3.30756387476486,21.527917978434537
3884.185,3.2829432529734754,26.31314533946003
3885.0808,3.2629120414578288,29.438555375097444
3885.9746,3.2451296983231006,16.642273237484495
3886.8706,3.2272484558598196,26.44568014109538
3887.765,3.20774476739418,23.571963059551262
3888.6592,3.1857531690839513,24.24490896865571
3889.556,3.16149161504198,24.935135753180845
3890.4507,3.137234551643551,28.320191553812485
3891.348,3.117232219752618,26.14199256934107
3892.243,3.107047734747643,24.890613697421156
3893.1406,3.1108550074476953,27.941468954277486
3894.0361,3.129440243548297,25.930495701289
3894.932,3.1597237747194096,24.60104969832956
3895.83,3.1964084173917455,29.784457655114263
3896.7263,3.234043854478103,25.888414754240085
3897.625,3.269367588721693,21.793773083822302
3898.5215,3.301030740744158,22.00162404089648
3899.4207,3.3302052127638917,22.943840119389755
3900.3176,3.3596005231516743,39.71779553692559
3901.2148,3.392759302263558,16.94044897966786
3902.1145,3.4314061709499692,19.922113989491745
3903.0122,3.4733418198441677,17.149703964323578
3903.912,3.5140630401666453,22.392541557443966
3904.8103,3.5492204330464157,19.337106391036695
3905.7107,3.577573118439762,21.51963768791508
3906.6094,3.5997067047249653,21.93039737568517
3907.508,3.6163327399381138,14.70945192493461
3908.409,3.6273945428312064,19.657394143466924
3909.308,3.633550357549887,17.03319031361535
3910.2097,3.6379625408296556,18.275081239160134
3911.1091,3.6456943853082153,22.898633512232514
3912.011,3.661194303466552,13.3340528890967
3912.9111,3.685362823833957,23.52470128621567
3913.8113,3.7152683840613894,19.65675026693205
3914.7136,3.745974785906184,18.708190739028453
3915.6143,3.77223228023273,25.64184053669266
3916.517,3.7895312962670595,13.860284470678401
3917.4182,3.7942866025034663,21.84437011351969
3918.3215,3.786126439301841,15.659614008046628
3919.223,3.769589658537565,17.41449169466516
3920.1245,3.7525640191396636,14.857286105755122
3921.0286,3.741917542374916,18.73693265620806
3921.9307,3.740199411139899,14.366502781425734
3922.835,3.7460816991368113,26.101471857559776
3923.7373,3.757503118293612,12.920018660186745
3924.642,3.773509722180552,14.448016950800532
3925.5452,3.7928472291663686,30.488842632433887
3926.448,3.8121329800025303,18.668093508612703
3927.3535,3.8258642953105007,13.457301132553715
3928.257,3.829008181684427,14.813279788169675
3929.1628,3.8203568816436855,16.608448913396067
3930.0667,3.8033338684780187,16.080256975218663
3930.9731,3.7836420100983172,21.85312479513311
3931.8774,3.766034282580389,17.966586298050164
3932.782,3.752039677589187,20.734325614734573
3933.6887,3.7410196486064993,23.764371677078383
3934.5938,3.732156600455631,21.61061584510229
3935.501,3.72495095762024,19.462829947472873
3936.4062,3.7186073373197845,15.462116930432359
