wavl,flux,ivar
3566.9744,2.2225553704014493,192.61327553946242
3567.795,2.2227925976260443,191.96312906682923
3568.6177,2.2187669916214983,193.15844704933917
3569.4385,2.2114696665605487,197.0338336433518
3570.2617,2.2036238189709727,217.54750764198167
3571.083,2.198168057591858,210.5665086201132
3571.9065,2.1964010029495227,219.6207404099512
3572.7283,2.1976062154625233,177.1837771555005
3573.55,2.199915904683117,253.1667221682921
3574.374,2.2016763112842357,196.48360798412193
3575.1963,2.202176230817719,248.51329992538413
3576.0208,2.201631905484281,187.4021739355523
3576.8435,2.2007336342849433,241.24213789958262
3577.6682,2.200181172789878,213.5595081008798
3578.4915,2.200343630735856,213.37822388531134
3579.3145,2.2010568681016496,192.85303393674872
3580.14,2.2016206558446525,227.47673484005108
3580.9636,2.200970247308078,216.1840979547485
3581.7893,2.1980991862603174,202.32038082542098
3582.6133,2.192698108300869,192.17043272734577
3583.4395,2.185546707525067,203.45275740268568
3584.264,2.178366393117836,211.9802291356237
3585.0884,2.1727542056584768,209.53003280136244
3585.915,2.169260417680108,200.57756737720476
3586.74,2.167198987860289,185.81655162417462
3587.5671,2.1652498576958625,196.01309141985368
3588.3923,2.1624306778315745,227.9674787238582
3589.22,2.158574245967511,198.20426353761468
3590.0457,2.154319953120396,210.73159508661053
3590.8716,2.150563304021861,201.15389728145078
3591.6995,2.1479751810837193,233.11370638828558
3592.526,2.1468442765742797,205.34318617948523
3593.3542,2.147257154041669,194.8013075973918
3594.181,2.1492400901845423,247.8189720361267
3595.0098,2.152447515570132,229.1046616952234
3595.8367,2.1557564960360565,208.0105965505705
3596.6638,2.1575889322732364,218.0231679945529
3597.4934,2.1567337802830653,235.26097802774626
3598.3208,2.153013867817068,197.35500173165553
3599.1506,2.147102483167622,214.00134783738054
3599.9788,2.1399552160203252,184.03971040978757
3600.8088,2.1322800061584677,241.25015798071718
3601.6372,2.124795994433059,258.7864607269945
3602.4678,2.1185578609814617,236.92869728144728
3603.2964,2.1152025381254216,222.04895030927847
3604.1252,2.1161403112566965,231.83980058323573
3604.9565,2.1214810192884386,250.71031702744213
3605.786,2.1294000391538717,183.36155557779037
3606.6172,2.13706024891945,214.54145844555305
3607.447,2.1420737648719395,200.12368563653402
3608.2788,2.1435758611042224,202.0886849087214
3609.109,2.1418818255375096,212.81575172749692
3609.9392,2.137718969952208,243.41379390177525
3610.7717,2.1318247195717808,201.38496250903816
3611.6023,2.1251431655015343,244.72705644363546
3612.435,2.1187148687210566,243.50501241798375
3613.266,2.1134011147008573,218.86063594128345
3614.0994,2.109419840757595,250.4897027367377
3614.9307,2.106559005634158,238.82095589648355
3615.7625,2.10450018367846,257.92722308848454
3616.5962,2.10305468357819,215.70193173943116
3617.4282,2.101998427479041,258.66523270586805
3618.2625,2.100872252227632,225.36938508499668
3619.0947,2.099165291089093,215.90961165610173
3619.9292,2.096698094637739,219.12132496484196
3620.762,2.0939027529144427,237.48006839949974
3621.595,2.091619382526003,277.54742974136053
3622.4302,2.0906939678970238,237.9241950473992
3623.2634,2.0915887820543118,205.26430487795633
3624.0989,2.0941788501966077,274.8711554276365
3624.9326,2.097733521035471,241.33289448623538
3625.7686,2.1011257739692604,232.35173752829792
3626.6028,2.1031039985791558,238.88956270586044
3627.437,2.102741500392471,253.55330135810112
3628.2734,2.099692734314676,193.3804545513805
3629.1082,2.0943062913018498,235.06379978947345
3629.945,2.0873675228928446,236.7471222881126
3630.78,2.079813776210425,254.3405550799239
3631.6174,2.072268862180207,210.87900278630605
3632.453,2.065096051767989,230.28079848386065
3633.2883,2.0583193656586913,248.62680824383955
3634.1262,2.0516741039943844,248.41210664796444
3634.9622,2.0446765049421747,234.76392251929536
3635.8005,2.036861946760198,255.59627004591988
3636.637,2.028580844130083,256.191977819726
3637.4756,2.021073582727595,221.93621234492105
3638.3123,2.0159183129208715,254.00313894569143
3639.1492,2.013754457396227,250.20886004083528
3639.9885,2.0138999112424947,217.27178227012746
3640.826,2.014944381313799,245.6105042474416
3641.6653,2.015738753736593,233.97929698953754
3642.5032,2.01582306831574,251.5046701670245
3643.343,2.0152728573852285,260.69250768339464
3644.1812,2.0144229100229474,242.88740783863628
3645.0195,2.013652620326027,286.9669742681907
3645.86,2.01311997764108,239.01845452814896
3646.699,2.0125428900006486,226.93020857888692
3647.5398,2.011323487958836,238.52832802914673
3648.379,2.009036173973333,258.4302924778332
3649.2202,2.005784999124695,266.34113026869414
3650.0596,2.002225211187424,239.06893332289667
3650.8994,1.9992127533134703,250.10686409892494
3651.7412,1.997583361646466,248.082304702159
3652.5813,1.9979920359964531,264.7639316403209
3653.4236,2.000591294901984,266.5639588147705
3654.2642,2.004532020167296,272.58185053408323
3655.1067,2.0078684747708078,237.88949388589415
3655.9475,2.008320601948419,260.53857861970323
3656.7886,2.0047889006183213,229.13976052606458
3657.6318,1.9982604742375258,205.3246875989076
3658.4734,1.9914568332969436,239.74370456771865
3659.317,1.9871628691919032,275.080679087188
3660.1587,1.9867628022058967,269.1884668120175
3661.003,1.9896303584102322,239.41341146698585
3661.845,1.9937448964894284,250.6163580947964
3662.6875,1.9969100803969562,224.9253004788146
3663.532,1.99770865337567,235.04391190504117
3664.3748,1.9958880184773848,262.50867479630114
3665.2197,1.9921298982240807,246.93677891211678
3666.063,1.9875383594799545,243.85616897324084
3666.9084,1.9830310491885819,275.4251262189619
3667.752,1.9790130176541028,265.89312586884853
3668.5977,1.9751425522847568,243.67981073507968
3669.4417,1.9706858405569811,250.67794839608
3670.286,1.965135693225264,243.77558979155782
3671.132,1.9588698624696737,293.55113633513554
3671.9768,1.9532125837309342,265.6182012232365
3672.8235,1.9496560226056112,254.80199562322846
3673.6685,1.9490158880665072,337.0920221279285
3674.5156,1.9508783253320725,267.29687775011166
3675.3608,1.9538774776714882,251.0902788762878
3676.2063,1.9565805079628447,254.11353559418734
3677.0542,1.9583308741499814,273.93665205840426
3677.9,1.959482383491044,256.40374182236985
3678.748,1.9609435228545284,243.57938530691146
3679.5945,1.9632958888248009,269.18882899411625
3680.4429,1.9661278946270495,218.6824096499233
3681.2896,1.967843205105566,235.18745681178066
3682.1365,1.9663240190184703,249.8045425522424
3682.9856,1.9601561625850705,236.61526125032728
3683.8328,1.9499695769955305,249.119399616821
3684.6824,1.938563892043346,217.43499137605318
3685.53,1.929818596501595,288.63512171073836
3686.38,1.9263652522457337,301.33608984088653
3687.2278,1.9282515217164007,270.6158649464745
3688.0762,1.933087941771484,285.27210383285797
3688.9265,1.9376736740692033,270.2478590569053
3689.7751,1.9396312941040634,225.8392911318597
3690.626,1.9382744341222355,279.69873192741045
3691.475,1.934400356894591,267.7055380311275
3692.3264,1.9295654354278386,232.107627530339
3693.1758,1.9254171266140911,315.65795052868884
3694.0254,1.9230783046108035,264.02406230861897
3694.8772,1.922824741736302,290.83795511859114
3695.7273,1.923932501530974,315.31836572609143
3696.5793,1.9250075162862235,264.4894566799334
3697.43,1.924790203301834,258.8450643864029
3698.2825,1.9229714055052467,288.6545645949727
3699.1333,1.920375288742207,303.0793346201403
3699.9841,1.918308903233183,288.2365593847052
3700.8374,1.9176468875849757,267.9338345021339
3701.6887,1.9183038061011202,275.4018887309955
3702.5425,1.919393157899956,270.8061395828476
3703.3943,1.9198349688423555,270.45205240725477
3704.2483,1.9189612367860915,288.75569549471754
3705.1003,1.9167714164114844,256.06789744835135
3705.9526,1.913751035048191,279.4574953484107
3706.8074,1.9104249035293157,253.1116386208226
3707.66,1.9070492749977892,275.1771184040698
3708.515,1.9035947352030331,255.76570877375045
3709.3682,1.9000834460238625,288.07701576622947
3710.2234,1.8965676138855976,262.4187171090551
3711.0771,1.8929366817818336,279.4370716128359
3711.9307,1.8887363926323701,248.21743340883376
3712.7866,1.8834903284223885,256.2003052455298
3713.6409,1.877300271679291,311.9152527963399
3714.4973,1.8709921535422362,297.390991361391
3715.3518,1.8658182061996604,333.7382531719166
3716.2085,1.8625114705786037,260.33745053260634
3717.0635,1.8607779527774628,349.3372452190162
3717.9185,1.859505292238148,234.1775839230998
3718.776,1.8578596647022922,265.92722472463095
3719.6313,1.8562311688263062,343.62896907005506
3720.489,1.8560145093839835,264.7613051930911
3721.345,1.8583388229556215,242.45868825768304
3722.2031,1.8628796087768307,300.1053396793176
3723.0593,1.8678917645429016,298.13326146215604
3723.9158,1.8715389102791808,265.1029353528144
3724.7747,1.873071703558882,270.1101691259029
3725.6316,1.8729620457255622,310.54960624203716
3726.4905,1.8721102424415834,284.0062788828534
3727.348,1.8710426649932406,310.2424703908442
3728.2073,1.8697638243341492,258.7274902060493
3729.065,1.8680837465944207,330.50171997483267
3729.9229,1.865873582731388,305.7350740133919
3730.783,1.863146416077776,275.7344341592245
3731.6414,1.8600924874815015,261.69619169249273
3732.5017,1.8570591387925859,297.61428680789396
3733.3604,1.8545719036256558,294.0714876065921
3734.2214,1.8531481852722576,247.05774101703102
3735.0803,1.8531047871118451,310.36363846770865
3735.9417,1.8542853225291558,303.61321857154326
3736.8013,1.8559409936058793,292.77321563567443
3737.661,1.8569012629220878,267.600854180033
3738.5227,1.8560340873626977,297.40437842854203
3739.3828,1.8528357265088609,300.09360901988344
3740.245,1.8477496806532856,297.62849127480695
3741.1055,1.8420826105076946,304.8283600176657
3741.9683,1.837315529801829,300.56896524786276
3742.829,1.8344138473219183,295.347530116653
3743.69,1.8331993308809587,330.22841216293125
3744.5532,1.8324902524272484,278.1762714485468
3745.4148,1.8308471845957117,303.130172327497
3746.2786,1.8275234873563442,292.58704066090115
3747.1404,1.8229917541026281,297.3027156685685
3748.0044,1.8185372752637887,289.88136092721794
3748.8667,1.8154721752681984,286.5463675107393
3749.729,1.814401400216542,313.6234268491731
3750.5938,1.815218246724417,308.6272266485081
3751.4565,1.8174390429279073,337.6657445776338
3752.3215,1.8205069690450304,319.47479388407555
3753.1848,1.82377181083273,273.89575714790647
3754.0503,1.8264850104390953,334.039223134126
3754.9138,1.8278601447731595,281.7454671660066
3755.7776,1.827393530289685,344.073112004613
3756.6438,1.8250960342110738,286.70731456030444
3757.508,1.821639666818278,310.0373858188612
3758.3745,1.8181642334383605,303.1075149973434
3759.239,1.8158925479759052,320.5124696565727
3760.106,1.8154791251226077,327.427727300118
3760.971,1.8166231762553655,292.5813437332331
3761.8362,1.8181637326525535,330.22056999810997
3762.7036,1.8187689233539395,320.16408096670193
3763.5693,1.8177319132626084,335.75655271374603
3764.437,1.815286046634789,287.8500793136562
3765.3032,1.8122239412105665,297.0543916061951
3766.1714,1.8091801457554595,289.35502461989165
3767.0378,1.8063166968787718,299.7858082498386
3767.9043,1.8034789626982441,321.7930014189154
3768.7732,1.8006620071309944,283.05361023619264
3769.6401,1.7982744876748924,300.1684750921129
3770.5095,1.796925683336987,294.04397028981765
3771.377,1.7970796259010868,346.45858604805807
3772.2466,1.7987790717603382,296.91168555996273
3773.1145,1.8016745751575927,301.4968003422264
3773.9824,1.8051740048319034,315.86453979422805
3774.8528,1.8084997438497457,310.0356809740991
3775.721,1.8107507626911388,344.35947200368173
3776.5918,1.8112509655321662,303.8483909948775
3777.4604,1.8098630164582992,302.8488607719785
3778.3315,1.807120265931072,279.3696138879582
3779.201,1.8040320748282779,379.8220516255485
3780.0703,1.8016142408763571,290.7306083895715
3780.942,1.8004404391313051,305.6598859292494
3781.8118,1.800356190919698,302.15922137003713
3782.6838,1.8005702800144858,325.56979473187306
3783.554,1.800171500491864,302.8322614827401
3784.4265,1.7986858523777922,295.7984590346134
3785.297,1.7963045926343808,306.98393635942216
3786.168,1.7936382801388708,325.2949873469582
3787.041,1.7912832453820162,317.31082111580815
3787.912,1.7894653984044564,328.74428418754144
3788.7856,1.7879222789827875,286.6350481138723
3789.6572,1.786228299312075,307.54438906791484
3790.531,1.78416940304909,320.27434984821036
3791.403,1.7818835042973742,328.6759582177033
3792.2754,1.7795458113907752,311.86798502403497
3793.15,1.777126675470558,377.2642084668982
3794.0225,1.7745314196872701,310.66046437105183
3794.8972,1.771815787007948,326.9414595829388
3795.7703,1.7691596383603179,372.3796718302434
3796.6455,1.7664748413776452,315.18267766468284
3797.519,1.7633925773331307,284.5297783683486
3798.3926,1.759671162163182,304.96657270245595
3799.2686,1.755666484441094,314.6966358803894
3800.1426,1.7522440333384566,342.7415865801224
3801.0188,1.7500463609253751,332.01935141197214
3801.8933,1.7489988499172089,320.26593479657777
3802.77,1.748374280359489,313.20385142620614
3803.6448,1.7474817567370937,302.63672695575394
3804.522,1.7462365895286938,316.0283422269025
3805.3972,1.7451653563823017,356.28352961140564
3806.2727,1.7448614128645636,315.92319914570163
3807.1504,1.7455134154028142,291.17722617801394
3808.0261,1.74681904779978,357.97758296411484
3808.9043,1.7482539057315432,308.46049036161264
3809.7805,1.749375992748829,337.1544923293697
3810.659,1.7501152951322148,355.40216056222516
3811.5356,1.7508667288162723,300.0111862635684
3812.4126,1.7522714562858628,320.32944484351214
3813.2917,1.7546097648711185,317.3582875017594
3814.169,1.757250528092582,311.0542741512425
3815.0483,1.7588740854759408,317.05129437807983
3815.926,1.7583574947826532,286.5952114419034
3816.806,1.7556504042640018,370.6127338007296
3817.684,1.7517627881718414,313.0562388681717
3818.5623,1.7479166011913958,321.22904991394216
3819.4429,1.744767282169078,277.5488191615647
3820.3215,1.7422942746453112,303.9381747178372
3821.2024,1.7401405449294798,325.56074659832433
3822.0815,1.7380773830732144,346.0995261466835
3822.963,1.7361032870202022,324.3458902376023
3823.8423,1.734391130869165,354.78550190196785
3824.722,1.733051366026819,368.4234907955886
3825.604,1.7319119704494736,317.96746761943876
3826.4841,1.7304170745451306,363.66844985943277
3827.3665,1.7278366503063003,307.1256676206319
3828.2468,1.7238197221949276,349.4853857663777
3829.1296,1.7187129331119333,342.594463877494
3830.0105,1.7134458809452662,385.6381904410762
3830.8916,1.7087919290462639,344.3059291981772
3831.7751,1.7048704751039512,345.82985979569617
3832.6565,1.7012163711068726,339.18081708132263
3833.5403,1.6972427649104542,318.12819044101855
3834.4224,1.6928433977758035,347.4588515575154
3835.3064,1.68841849622375,353.3759333140305
3836.1887,1.6846199805934874,359.3357724729387
3837.0713,1.681882916735907,363.18307470784225
3837.956,1.6803587503870574,364.65381219266686
3838.839,1.6801521807938307,336.29810244595524
3839.7244,1.6815067329887945,356.6129241573874
3840.6077,1.6846157340355505,344.5286784023808
3841.4932,1.689257772776925,334.47259673274164
3842.377,1.6947151612057212,307.65066771618757
3843.261,1.7003345189808288,359.8539452950011
3844.1472,1.705948987532637,357.0211530290554
3845.0315,1.711661382884692,334.4851412242424
3845.9182,1.717358297457772,338.2635333906466
3846.803,1.7223621769071666,346.82145072633836
3847.69,1.7259467914824518,323.8488982159355
3848.5752,1.7278498268670186,324.4863853849697
3849.4604,1.7285281939954447,330.9654783575952
3850.3481,1.7288114125380667,318.8253520089295
3851.234,1.7294412380853468,341.4035076930515
3852.122,1.7308172155395616,326.0260293365468
3853.0083,1.7329881250928407,378.7138177995904
3853.8967,1.735757172395107,314.66955276991723
3854.7832,1.7386339806601216,362.84309085028804
3855.6702,1.740872736379129,339.3528221131525
3856.559,1.74164240839949,322.56542475303866
3857.4463,1.7404534644497651,319.76059794695954
3858.336,1.7375478837085063,345.1917294518343
3859.2234,1.7339432940028892,335.1978946171039
3860.1135,1.7308951952163616,315.4814701749616
3861.0015,1.7292390636705233,334.72969657464563
3861.8896,1.728895788781677,347.1209815661637
3862.7803,1.7290862451981779,337.39018345386813
3863.6687,1.7288948781068547,314.9004289142937
3864.5598,1.7277086942833888,318.37092037091554
3865.4487,1.725215709228371,329.2956449529437
3866.34,1.7211651869813582,320.7931207250621
3867.2297,1.715482154959551,317.4012482988702
3868.1213,1.708548358251474,283.8252714032873
3869.0112,1.7014147588713429,359.49520462414273
3869.9014,1.6952638206514596,352.29546498993176
3870.7937,1.6908271373102988,338.5251657844313
3871.684,1.6881581657002818,343.96719159353273
3872.577,1.6867485075212518,351.80352320968484
3873.4678,1.685819179937348,365.36434317546525
3874.361,1.6844176261666366,328.24055875915684
3875.2524,1.681639132582242,331.4412314230725
3876.1438,1.6768822052538588,327.89562308854494
3877.0376,1.6699757752262365,328.8834892345261
3877.9297,1.6611568744833747,362.46823544015433
3878.8237,1.6508045201609007,378.6789336676699
3879.716,1.6395489230687998,398.12954424249784
3880.6108,1.6280976915736631,378.0707804188514
3881.5037,1.6172818221819345,374.6635069720751
3882.3965,1.6075793098218418,417.58143635444367
3883.2917,1.5990141170609458,392.69619452311395
3884.185,1.5913202606228942,405.01034614728025
3885.0808,1.5841065956860791,392.4034618175494
3885.9746,1.5772607957913114,414.66013110934875
3886.8706,1.5708387034271754,387.5671617328488
3887.765,1.5651023072888672,419.7753364276874
3888.6592,1.5603731308395137,410.61692786268435
3889.556,1.5570729937523697,402.88967819254367
3890.4507,1.555641754292109,380.49813697475145
3891.348,1.5562808341288372,462.73697873931826
3892.243,1.5588631709974372,397.61215382667643
3893.1406,1.5630887396849742,395.3284980885717
3894.0361,1.568694123269371,390.8378430266818
3894.932,1.5756165312407209,465.0737726803083
3895.83,1.5838169365116204,394.6468707601785
3896.7263,1.5930028906909692,403.788215981326
3897.625,1.6027397495011668,391.5534666472028
3898.5215,1.6124202024294227,317.1575617657469
3899.4207,1.6216562742183787,365.1314044591981
3900.3176,1.6301933131130775,416.17369056401304
3901.2148,1.6380830442766157,390.9016458166632
3902.1145,1.6455378005123324,372.6968529240482
3903.0122,1.6528684870309533,378.73343019713315
3903.912,1.66063851373378,375.2282125218224
3904.8103,1.6694374284970346,352.8737825580155
3905.7107,1.6797076037063732,362.39167179068687
3906.6094,1.6912130593624461,365.690669050341
3907.508,1.7031103721513534,346.7221025430055
3908.409,1.7142415351040534,333.88505156116724
3909.308,1.7235501283167765,325.50050619808746
3910.2097,1.7305828353592945,309.10482915379583
3911.1091,1.7354251608080773,331.34344902136627
3912.011,1.7387688318196524,281.0801452616197
3912.9111,1.7415424787912985,300.3188131840056
3913.8113,1.7445353212497323,350.57679531197687
3914.7136,1.747992493973829,342.8567489832624
3915.6143,1.7515414282169826,341.3479444185698
3916.517,1.75453920307994,307.76321207621044
3917.4182,1.756430502269464,285.75627051599355
3918.3215,1.7571247873670297,313.89243167427156
3919.223,1.7570764826732839,304.95393806767913
3920.1245,1.7570780353409128,312.29304309349243
3921.0286,1.7577542880168335,291.16756937964107
3921.9307,1.759120767013579,313.949678840106
3922.835,1.760595659879633,340.92032077543865
3923.7373,1.7614248912817805,282.75782615070256
3924.642,1.7612068199897888,315.8221182365894
3925.5452,1.7600516457618558,316.62735952628054
3926.448,1.7583861748620768,282.6060589774699
3927.3535,1.7566617739767585,307.2907660942266
3928.257,1.7552506730724187,304.01312201269326
3929.1628,1.7544206533880138,329.74644148446924
3930.0667,1.754326659510474,313.59066641470076
3930.9731,1.754868190076944,310.6192754586931
3931.8774,1.7555608675061132,303.22388782094083
3932.782,1.7555410228488941,285.0167585586213
3933.6887,1.7537372821491781,305.23258592396746
