wavl,flux,ivar
4606.806,0.6805892208460143,489.88440057608693
4607.8687,0.7441597288605748,414.8430344492419
4608.9287,0.7933721335323951,604.4041496995441
4609.989,0.8259767518943021,553.9973121925254
4611.052,0.8440458534383302,381.27878030511124
4612.113,0.8514576589295137,451.7865620598215
4613.1763,0.8521127291935179,528.3831067206308
4614.2373,0.8489195427977811,499.15469197541694
4615.3013,0.843839496768898,465.52087618047227
4616.3633,0.838211582540632,440.8093782236917
4617.4253,0.832864318950979,539.4662318874473
4618.4897,0.8281748816700141,502.5374997283711
4619.5522,0.8241676865178639,780.1329314567662
4620.6177,0.820668721469037,565.7922571743006
4621.6807,0.8176352861156649,550.1215992794243
4622.7466,0.815173489807713,543.3336764069126
4623.8096,0.8134659108480541,602.6295612952803
4624.8735,0.8125126050140157,542.0329618476715
4625.94,0.8120787450083825,464.666019279462
4627.0044,0.8118176991673924,487.81814346108956
4628.0713,0.81150673590183,556.469220855751
4629.1357,0.8111790572773726,504.78921197589784
4630.203,0.8110178782553826,708.1043250109582
4631.2686,0.8111358374141463,697.4242335881662
4632.3364,0.8114200587954765,500.1936549312782
4633.4023,0.8115809979646481,583.464568690779
4634.468,0.8113806501041744,558.3374894940183
4635.5366,0.8108495452712781,492.15043263883183
4636.603,0.8103020790957512,611.0773182667551
4637.6724,0.8100698925486349,488.9570555942938
4638.7393,0.8102019246508493,561.4770859397096
4639.809,0.8104243466010267,538.8931325778562
4640.8765,0.810452075449762,537.256211168507
4641.944,0.8103271558183262,534.9885949307509
4643.014,0.8103713910048029,588.4623559226465
4644.0825,0.810776100663738,639.0500746162644
4645.1533,0.8113055128582806,484.47706368315016
4646.222,0.8115072795958479,417.0263112373102
4647.2935,0.811264600829241,590.2759049359514
4648.3623,0.8110840479478939,723.9646376078828
4649.4316,0.8117572013744482,568.2175580030733
4650.504,0.8136441177102545,587.8517629372875
4651.5737,0.8161512629012263,592.4831806502727
4652.6465,0.8179389394400318,449.5877724770673
4653.717,0.8176416105283363,425.2846152398652
4654.79,0.8147213601211712,611.0763165671029
4655.861,0.8098739668470054,444.9474269608953
4656.9316,0.8046983575588539,552.605206362654
4658.006,0.8008542340749948,701.4890549960038
4659.077,0.7991878473800941,525.0632668678345
4660.152,0.7993266462752946,535.0789968527849
4661.2236,0.8002014878081248,631.8860066997978
4662.2983,0.8008624478656893,526.0831697865999
4663.371,0.8009453222514118,538.9857112350885
4664.444,0.8005840132306598,592.6541620507173
4665.5195,0.8000585037197839,556.2365724782461
4666.593,0.7995707045755486,616.0090036265531
4667.669,0.7991721235217569,595.9789561277138
4668.7427,0.7987862443897842,452.1398861896985
4669.8193,0.7982712588123709,587.1057917287546
4670.8936,0.7975730284117579,568.2741823164569
4671.9683,0.7968253762177456,602.1405188432943
4673.0454,0.7962704056240923,570.1618775686297
4674.1206,0.7960251417888315,604.2802591382626
4675.198,0.7959554082874564,507.5242630991218
4676.274,0.7958398254278529,516.7880105781717
4677.352,0.7956194103261739,551.5860972524929
4678.428,0.7954567387705911,661.90637969933
4679.5044,0.7955721618794809,618.6258747690548
4680.5835,0.7960786838771264,599.660191689286
4681.66,0.7969113041986695,717.2695244039963
4682.7397,0.7978086978316533,543.5459429783157
4683.8174,0.798287427965272,772.770513329945
4684.8975,0.7977928912447737,530.3502704603162
4685.975,0.7960468804254097,568.6477220593893
4687.053,0.7933723839357182,606.9260683614759
4688.134,0.79067520542043,672.484954837065
4689.2124,0.789034874545089,611.8484196820704
4690.2935,0.7891087780561036,673.1600453663023
4691.3726,0.7908202552941304,585.9839095206812
4692.4546,0.7934102136143157,564.7410887671017
4693.534,0.7957486139425459,605.1224076809992
4694.614,0.7968102926698949,498.1863871743912
4695.6963,0.796025645375956,541.2762435689422
4696.7764,0.7935157070545837,610.9671064104538
4697.8594,0.7900292122088587,613.2863778014913
4698.9404,0.7866469285020633,541.1359152116254
4700.024,0.7842328938362879,627.3966185652658
4701.105,0.7831131116721556,573.6764143049954
4702.1865,0.7830341426616143,517.666642950606
4703.271,0.7835080123341742,658.9197551548234
4704.353,0.7841434225247375,564.8408694004876
4705.4375,0.7847831217244596,686.8302015316546
4706.52,0.7854067607633648,550.7774906870651
4707.6055,0.786003770402744,616.4308672203352
4708.6885,0.7864978794162256,655.7243269896597
4709.772,0.7867698626017441,636.8545734034467
4710.858,0.7866815948351364,506.64243438436205
4711.9414,0.7860951425970784,533.9048264252325
4713.0283,0.784899338995177,575.1286304463029
4714.1123,0.7831290730599504,581.8666549883395
4715.199,0.7810753685781391,535.5883343580898
4716.284,0.7793208402926322,503.37226606421154
4717.3716,0.778454661930783,647.3787498782921
4718.457,0.7787156242167231,674.5641505019188
4719.5425,0.779785411954455,579.8780169371422
4720.631,0.7809910594914338,571.5016622601015
4721.717,0.7817270461906504,624.5843611332017
4722.8057,0.7818249134816885,565.2935152068113
4723.892,0.7815346099515404,591.371207951596
4724.9814,0.7811798565049399,670.3318452306083
4726.0684,0.7807849288379143,558.1877811781261
4727.1553,0.780026473772515,568.9486164791816
4728.2456,0.778550689585026,617.1180724070616
4729.3335,0.7763349707919943,636.5421335763526
4730.424,0.7737050245853953,670.1620384828462
4731.512,0.7711387520445044,596.6226990718791
4732.603,0.7689709470243843,603.7963601278718
4733.692,0.7673136225481554,833.6674132209316
4734.781,0.7660578796920162,718.6529580886564
4735.8726,0.765043146874693,614.1403556603964
4736.9624,0.7642598606235995,617.7607742326417
4738.0547,0.7639181180840182,654.0684550621881
4739.1445,0.7643152047726808,627.454220106493
4740.2373,0.7655579987274566,573.3385984026546
4741.3276,0.767376070366498,576.6237056579843
4742.4185,0.769194512589116,611.3572494834416
4743.512,0.7703448690320458,601.7391782311407
4744.6035,0.7702895279659435,631.009303682949
4745.6973,0.7687824372279363,644.8734171360667
4746.789,0.7659302324888456,540.070086244914
4747.884,0.762150769713866,603.3106000168057
4748.976,0.7581134426285009,614.9408095941765
4750.0684,0.7545096385710889,690.4403038828051
4751.164,0.7519189356131768,521.9250467346994
4752.257,0.7507076265004087,738.0291605829223
4753.3525,0.7508838994458826,687.2076262824139
4754.4463,0.7520879259290151,643.7739830507601
4755.5425,0.7536980590849668,583.6089907534562
4756.6367,0.7550853784453797,632.5513687650276
4757.731,0.7559021432180416,532.895793362331
4758.828,0.7561437170879627,577.9105600150315
4759.923,0.755995228540152,662.8895680935351
4761.0205,0.7556072191335084,616.1606001604301
4762.1157,0.7549892348114114,732.4039249980501
4763.214,0.7540600234285414,665.6832532305357
4764.3096,0.7527899697678057,664.7143733525415
4765.406,0.7512783847828699,643.5153774487794
4766.5044,0.7497557102962369,640.3180199179748
4767.601,0.7484825285316329,684.2020339619825
4768.7,0.747565356187195,774.6364049781068
4769.7974,0.74688458249757,635.6980514746565
4770.8975,0.7461646423317637,680.58092111427
4771.995,0.7452047561806862,660.3084660592843
4773.093,0.7440201059899063,700.9074257177894
4774.1934,0.7427838517423293,720.5167489495034
4775.2915,0.7416295746507267,597.4319939118594
4776.3926,0.7405007972369194,642.8041014240955
4777.4917,0.7392652829556908,555.474207595774
4778.5933,0.7378881000437105,621.3032701966915
4779.6924,0.7365082677823153,630.9265975450592
4780.792,0.7352675823502133,674.5190237329564
4781.8945,0.7341522384787637,659.4473056638075
4782.9946,0.7330160955772502,758.9983798448857
4784.0977,0.7317534697323593,719.1422440574357
4785.198,0.7304897637409693,695.7403175489857
4786.302,0.7295403780499679,696.2364366718307
4787.403,0.7292378658462094,733.9916951731816
4788.504,0.7296735074237469,632.79355373127
4789.6084,0.7305825487404964,706.3489354785335
4790.71,0.7314228534359681,596.8464403809054
4791.815,0.73168168326976,613.8934366677357
4792.917,0.7311429310947597,665.9141080889613
4794.0225,0.7299369177852678,622.3845440721929
4795.1255,0.7283612056475145,692.324583025085
4796.2285,0.7266582012264378,733.0541622285515
4797.3345,0.7249770203448405,720.5082309662138
4798.438,0.7234510314804345,755.130800395142
4799.5444,0.7221792674511022,653.3063875616832
4800.649,0.7211796653377703,673.4129325109359
4801.756,0.7203169941348075,653.9044134205658
4802.8604,0.7193681286849092,628.321668075222
4803.968,0.7180987137297895,745.2269883123645
4805.073,0.7163508849480186,823.151122961874
4806.178,0.7140549653658597,598.6337318362057
4807.2866,0.7112358882429888,691.9535576077413
4808.3926,0.7080562012345076,657.4560525428511
4809.5015,0.7047526880157469,717.7514156465703
4810.608,0.7016228600143818,659.1010352329713
4811.7173,0.6988220251434515,841.6767576792909
4812.824,0.6963088068600972,760.8706455026924
4813.931,0.6938369041618796,684.1813950700393
4815.0415,0.6911562777346982,716.8293294390177
4816.149,0.6882000096325983,817.6653039840321
4817.26,0.6850323314341675,719.6958164069235
4818.3677,0.6818046227439256,816.4410701522763
4819.479,0.6785913131850947,700.9996143605215
4820.588,0.6754244607458868,931.2965343299315
4821.697,0.6722147893575637,784.9614136259123
4822.8086,0.6687986298514992,749.0743785529062
4823.918,0.6651010898649161,696.177182861538
4825.0303,0.661248330313367,849.5526461727142
4826.14,0.6576409197777705,748.2595807255555
4827.2534,0.6546326064933115,791.8592149812082
4828.364,0.6522755651360157,898.8922245528527
4829.4746,0.6501333836189696,877.599899547045
4830.5884,0.6475096904554114,778.685880551902
4831.699,0.6438697013409991,928.1385183816026
4832.8135,0.6391269653177929,1025.4451669950895
4833.9253,0.6337546716671648,915.2611354207802
4835.04,0.6283607018102152,1228.5180198656449
4836.1523,0.6233221280112667,963.0472360529266
4837.265,0.6184732485665356,1050.5957817141057
4838.3804,0.6133540597322384,978.1497998339461
4839.4937,0.6076540662658119,1084.9768984542848
4840.6094,0.6013847549763961,1290.0011083256982
4841.723,0.5948591937414798,1055.0849553534872
4842.8394,0.588297760029818,1068.7012221855325
4843.9536,0.581727661061282,1072.9078172476532
4845.068,0.5749341808708716,960.4208503179091
4846.185,0.5677124300777783,1084.2485214967667
4847.3003,0.5601386971710725,1332.1755200482085
4848.418,0.5524638406839877,1074.3499283304989
4849.533,0.5449928287027888,1436.6269158412376
4850.6514,0.5376558095010916,1321.7060083998742
4851.7676,0.5300591933649781,1391.7552574020237
4852.884,0.5215771655808752,1425.9265420243985
4854.0024,0.5117015572722224,1385.1464270488768
4855.119,0.5002898116878254,1569.3080353977343
4856.239,0.4873732449972464,1541.6557789432527
4857.356,0.4732475173930503,1631.467240690319
4858.476,0.45826327393465405,1698.5354365029934
4859.5938,0.4433159888362715,1965.0255406069314
4860.712,0.42981316652727997,2022.5699276356286
4861.8325,0.41972418590482446,2278.9444279597233
4862.951,0.41504410194173996,2335.54441342344
4864.0723,0.4168134500294235,2319.782461002086
4865.1914,0.4245301524400392,2439.4379817282397
4866.3135,0.4362752475599745,2355.255147024436
4867.4326,0.44944158615613483,1803.4837135944535
4868.5527,0.461962222283597,2694.157748680936
4869.6753,0.47272790039310464,1960.7154805895334
4870.7954,0.481525329863946,1584.8548714121994
4871.919,0.4889047243347061,1631.6889680777813
4873.0396,0.4957456321589908,1587.9761265751072
4874.163,0.5031395116398392,1392.4321984510152
4875.2847,0.5117949700379608,1650.5353295861858
4876.4062,0.5217387642669123,1031.4264335113296
4877.531,0.5322817906838815,1238.5876186466373
4878.653,0.5423871622055727,1177.3798159639405
4879.778,0.5514001585408829,1123.7561113607965
4880.9004,0.5591032598570065,1130.964290393115
4882.026,0.5657646413861154,1202.7984515290216
4883.149,0.5717224942117399,1015.8054087121081
4884.272,0.5772972713123016,1132.7059276323728
4885.3984,0.5826900173203738,1132.622984380703
4886.5225,0.5880086440877701,1089.002360057601
4887.6494,0.5934488066855932,1080.026279726154
4888.7734,0.5991528282289537,986.7359195904974
4889.901,0.6051781588393058,1057.1492108610912
4891.026,0.6112601005408931,899.9102466746273
4892.154,0.6169923983488228,988.4081269704551
4893.2793,0.62193455592729,832.3636381190075
4894.405,0.625954061273878,1032.6531320545123
4895.5337,0.6292887016047047,1050.753844648912
4896.6597,0.6324048844354643,873.0152016545717
4897.789,0.6357855398318778,850.3631462724713
4898.9155,0.6396140297162247,886.4800185662255
4900.0454,0.643818289332561,919.8860330756338
4901.1724,0.6481268720316744,869.7268818541845
4902.3,0.6522854719472783,879.8338283326151
4903.4307,0.6560308054602889,820.9303672037697
4904.5586,0.659027961063585,967.5896229721272
4905.6895,0.6609904874674405,796.1168788423771
4906.818,0.6617955406854203,855.3644870912723
4907.9497,0.6617110869165457,823.681544918894
4909.0786,0.6614101490654168,842.4538412676641
4910.208,0.6617347599639417,875.3523400150876
4911.3403,0.6632703518134486,985.7611047428493
4912.47,0.6660023275770837,743.1988451706429
4913.603,0.669420047081487,736.2404913393256
4914.7334,0.6728976175270025,781.4298280161566
4915.8667,0.6761305654461144,798.9886730131793
4916.9976,0.6790736471097099,839.0887885651409
4918.1284,0.6817229945898339,826.0683560310761
4919.2627,0.6839170494433997,688.2709081937146
4920.3945,0.6854140957973585,762.6268481742981
4921.529,0.6861277394680703,898.6903874773147
4922.661,0.6861828688687162,771.9076273600438
4923.7964,0.6858784005316458,778.4840527918961
4924.929,0.685600397025591,699.381281990942
4926.062,0.6857214365006365,775.9832132636784
4927.1978,0.6864538264102866,700.7044187786386
4928.3315,0.6876874085309616,747.0569114483957
4929.468,0.6890028417237635,830.659327001513
4930.602,0.6898919234242223,778.4851113123784
4931.739,0.69011032087176,699.7784313096655
4932.8735,0.6898534429439706,744.1404417914063
4934.0083,0.6896488931508502,873.5763448686313
4935.146,0.6900146338910149,702.731388173588
4936.2812,0.6911279515134512,788.2328492725602
4937.4194,0.6927538066875273,709.3991144172039
4938.5557,0.6944450178924814,745.3555178973702
4939.6943,0.6959006451687632,696.7071246534425
4940.8306,0.6971291173469162,681.2522479276635
4941.9673,0.6983878592376183,823.2252502264075
4943.107,0.6999229061943644,891.638537848476
4944.244,0.7017361367053394,753.8627106442777
4945.3843,0.7035479523297342,717.5970730063823
4946.522,0.7048826500094488,797.5825257869685
4947.6626,0.7053457260412089,696.9258931144291
4948.801,0.7048739551677222,737.2878972391856
4949.9395,0.7038604087636262,638.6838763493284
4951.0806,0.7029591057877213,682.4311986637991
4952.2197,0.7026952183814271,778.5879880407219
4953.362,0.7031617282714883,688.2559030541486
4954.501,0.7040518039962552,762.8184475289254
4955.6436,0.7049116519429731,704.9193386708848
4956.7837,0.7053328760333462,709.4763491743689
4957.924,0.7050584281262756,705.3778170218985
4959.0674,0.7040390015984446,890.0537956756875
4960.208,0.7025285734883021,632.5965673174048
4961.352,0.7010346371269528,650.3709230975563
4962.493,0.7001182690994578,717.9014704068151
4963.6377,0.7000551681084123,832.8566246353716
4964.7793,0.7006971533458033,610.0457125992677
4965.9214,0.7015963204884699,764.0597891699592
4967.067,0.7023050600085209,672.3136176031888
4968.2095,0.7025852995768965,682.1009108509784
4969.355,0.7024116330693884,812.2712537111017
4970.498,0.701817765721421,751.0057471279572
4971.6445,0.7008228340159649,727.3928827359296
4972.788,0.6995312677559132,603.8254028197839
4973.932,0.6982056569772469,757.7586028466252
4975.079,0.6972049244182624,678.952931167204
4976.2236,0.6968244779207993,738.532878804179
4977.371,0.6972053969834962,774.2060200989591
4978.516,0.6983685998903307,731.5971173671553
4979.664,0.70022194587095,780.2593924734831
4980.8096,0.702484322808187,789.0980475490773
4981.9585,0.7047507156065931,642.3971511773836
4983.1045,0.7066299929825706,669.4792121610644
4984.251,0.7079425024935654,766.4915315795191
4985.4004,0.7086405873314652,640.6553063656542
4986.547,0.7086391885102851,766.0022033708235
4987.697,0.7078030878040309,703.0853124918007
4988.844,0.7061722485576761,830.9583956226261
4989.9946,0.704157473008131,728.201156181868
4991.1426,0.7024466294800946,683.7981845039219
4992.291,0.7015504016863751,619.5012025451582
4993.442,0.7014772417977291,732.1843767242772
4994.591,0.7017803149431494,653.2079887336838
4995.7427,0.7019385780299933,657.049324595364
4996.892,0.7016994543629768,753.6091561570553
4998.044,0.7011247609564247,715.3783563982017
4999.194,0.7004035131253361,833.4061263641365
5000.3438,0.699658709623442,811.7998110474024
5001.497,0.6988961963168971,726.1194375776892
5002.6475,0.6980493534801692,719.2492786041107
5003.8013,0.6970205894423476,791.6276354642455
5004.952,0.6957833184680475,704.7003611286677
5006.1064,0.6944542820670205,789.5661827703374
5007.2583,0.693326453054042,744.1401591126642
5008.41,0.6926952962113603,898.0220581663385
5009.565,0.6926645748418957,731.3292433677955
5010.7173,0.6930700702294564,795.6959061849122
5011.873,0.6936172819831291,699.0304477895305
5013.026,0.6940906313501991,732.2643511495166
5014.1816,0.6944547832060752,803.7576244481382
5015.3354,0.6947498584021845,893.1868292277964
5016.4893,0.694955690342625,786.5272958750526
5017.646,0.6949821792110452,747.440355653555
5018.8003,0.6947946274290256,738.9198024782486
5019.9575,0.6944889078756077,794.3174065248919
5021.1123,0.6942187983316325,771.3038704211435
5022.27,0.6940742089908516,865.5745750769755
5023.426,0.6940585193432628,863.2188062735481
5024.581,0.6941244005629841,694.9063757509717
5025.7397,0.6941928034930144,695.9169999364998
5026.896,0.6941516787409265,674.5420779480297
5028.055,0.693882995015667,795.6247341637662
5029.212,0.6933089955376703,980.8577195322658
5030.3716,0.6924306712789977,770.4313399289377
5031.529,0.6913860014786638,817.9051025584353
5032.6865,0.6904475943810239,748.6541253312007
5033.847,0.6899446990759243,867.0887768324923
5035.005,0.6901165683834347,753.3680148060996
5036.166,0.6910090990874049,711.9890719508479
5037.3247,0.6924600606113086,747.9189725581814
5038.4863,0.6941423657740641,695.1184706464458
5039.6455,0.6955900230093263,657.359170173968
5040.8047,0.6963425501316415,748.3784028071727
5041.967,0.6961200478216647,692.0029939129454
5043.127,0.6949859746225207,835.9194212716859
5044.29,0.6933255893975369,855.909189062392
5045.45,0.6916539318089557,805.4218170898898
5046.614,0.6903126030676994,796.5705266296006
5047.775,0.6893424215122128,849.8660379341555
5048.936,0.6885235452573413,726.5579124314396
5050.1,0.6876301515370403,777.2952050660593
5051.262,0.686665263905405,793.8815738874404
5052.427,0.685865460066592,816.4363513153905
5053.5894,0.6855087964021243,775.3896279489468
5054.7544,0.6856949449929458,736.0507575557198
5055.9175,0.6863430680923195,831.8098727672607
5057.0806,0.6873427497218508,895.3958533084045
5058.2466,0.68863888712659,667.2111048360058
5059.41,0.6901271338461916,725.2677057001887
5060.577,0.6915639277516186,847.3815104603696
5061.741,0.6925970835760796,658.0036659084757
5062.908,0.6929727271598795,669.1812218924698
5064.073,0.6925875860475286,747.1263368889813
5065.238,0.6913803627186283,661.103696000187
5066.4062,0.6892145928200867,743.7643094112892
5067.572,0.6860598176027073,702.9183842726568
5068.74,0.6822687186618412,814.1229644125135
5069.9062,0.6787614379757825,728.8545028988843
5071.075,0.6766284131717047,885.3507036969353
5072.2417,0.6765654452382133,759.1695353053393
5073.4116,0.6784572966116341,711.5948718146572
5074.5786,0.681551684265407,729.5496686628566
5075.746,0.6849961914335683,877.2967443826664
5076.9165,0.6881617406656579,793.1787205999036
5078.0845,0.690588960865712,786.9390226041475
5079.2554,0.6919047332256891,734.7008621703692
5080.424,0.6918443369172285,651.3578732453109
5081.5957,0.690457113320501,845.5345756191491
5082.7646,0.6881430166143876,723.9109364755033
5083.9336,0.6854421841319306,715.2111809495418
5085.106,0.6828169266341656,739.2835237034479
