wavl,flux,ivar
3566.9744,2.200270307500392,55.573010330299255
3567.795,2.2001242171107664,60.48122065097682
3568.6177,2.1977080954575854,56.790274670431295
3569.4385,2.1928373080392882,56.828073038136516
3570.2617,2.186432069924386,64.01393839422836
3571.083,2.179988935517212,68.1592957436773
3571.9065,2.1746059248479352,53.64226401566779
3572.7283,2.1703700561160257,60.366516124728705
3573.55,2.1661225496630894,64.14538711570336
3574.374,2.160244658906851,52.992899385363096
3575.1963,2.152049521682941,70.10643854441349
3576.0208,2.1426970086398907,57.67204341943965
3576.8435,2.1350910304500097,56.422331863539334
3577.6682,2.132121344945328,66.69303798144296
3578.4915,2.1348523128184933,66.38430361605126
3579.3145,2.1416775205061223,68.36369851376662
3580.14,2.1493454187330236,62.82452216107328
3580.9636,2.1547829130563847,59.24298707567816
3581.7893,2.156698723586662,52.79287087059601
3582.6133,2.1555636288317683,57.621847738935244
3583.4395,2.1524851100595,71.59646278116179
3584.264,2.147924364092312,52.55972137608615
3585.0884,2.1413524956763954,64.73482773187762
3585.915,2.1321183118906406,84.06335765098682
3586.74,2.120676361007436,66.06177275350943
3587.5671,2.1087056328341514,74.32219079871794
3588.3923,2.0985616128650184,78.1975480487755
3589.22,2.092082566952983,78.08382403679579
3590.0457,2.090206031847066,70.55178119207092
3590.8716,2.0925559019191473,91.45803309203293
3591.6995,2.0974432758805075,65.48516397774533
3592.526,2.102236915737919,64.51400184769098
3593.3542,2.104556800496953,71.31544383861213
3594.181,2.103317496117724,107.27992554407099
3595.0098,2.0989672336431786,70.34407090047554
3595.8367,2.092846303403208,56.0651966346335
3596.6638,2.0863207566570043,76.4526724039714
3597.4934,2.0804156398318128,57.98010175460817
3598.3208,2.0758251451646488,74.33798128142423
3599.1506,2.072849848487898,64.6603969528025
3599.9788,2.0715504103614664,58.601598423399096
3600.8088,2.0717758940099213,76.69948610616838
3601.6372,2.0732273907931744,68.77935998892407
3602.4678,2.0753383576744557,71.55553966978258
3603.2964,2.077110432186415,69.20935071793228
3604.1252,2.077247847766892,78.76984599822066
3604.9565,2.074569654174575,69.93095528155922
3605.786,2.0687286294957588,71.2643427841864
3606.6172,2.0607473141352872,50.401193938399494
3607.447,2.053109968104551,86.57068645750834
3608.2788,2.0486507854720863,54.14562485279985
3609.109,2.048982167345055,70.69758332010349
3609.9392,2.0532416216473495,77.11578648154587
3610.7717,2.058543648234001,72.32801776304548
3611.6023,2.061795463246769,47.39091349371573
3612.435,2.0617601507577423,59.47202758391673
3613.266,2.0594272779927403,67.07447204822218
3614.0994,2.0565624710367505,68.20853467492877
3614.9307,2.053879895006242,69.42376237782226
3615.7625,2.050572452347422,57.66400204380757
3616.5962,2.045579360864846,65.14925599555747
3617.4282,2.039089032861326,72.6041397997411
3618.2625,2.032632780076091,80.04636857393604
3619.0947,2.0279889881418227,66.01947577019922
3619.9292,2.0257591962225594,61.161440044799434
3620.762,2.0252587424734436,70.87281268355915
3621.595,2.0253485411901253,61.34361267631107
3622.4302,2.0252729971682024,89.3830724998638
3623.2634,2.0246060284807914,93.7712358974171
3624.0989,2.0227569838787116,68.78103866502133
3624.9326,2.0189600543238275,63.36031625985387
3625.7686,2.0128541063285854,80.3820941540303
3626.6028,2.005198380208681,54.90991538493922
3627.437,1.9977393318686352,79.4440052883905
3628.2734,1.9923069234865154,77.65315012940074
3629.1082,1.98949957235285,82.87309500977692
3629.945,1.987836389193015,52.326672191993886
3630.78,1.9845056684900055,76.15416571319189
3631.6174,1.9772216393112247,57.77861776196433
3632.453,1.9660966447795414,67.14898825192661
3633.2883,1.9536909340282322,69.1353577193899
3634.1262,1.943398563093836,85.573259838123
3634.9622,1.9374326598149034,65.39748544920545
3635.8005,1.9356452769983272,80.13082493737924
3636.637,1.936183025221323,87.26378322922272
3637.4756,1.9366783023862764,72.64900673771857
3638.3123,1.9353299164824007,91.72137588795904
3639.1492,1.9315311219967728,71.41004264200359
3639.9885,1.926105567829839,83.33344612856855
3640.826,1.921092924052612,61.78286132640115
3641.6653,1.9185876054440256,99.62410581543904
3642.5032,1.9193804250123816,84.81631536242287
3643.343,1.9222441418700424,98.75339207779001
3644.1812,1.9247743448757957,79.24326589950621
3645.0195,1.9251191071280027,64.12671991735382
3645.86,1.922929504333374,73.75616692983458
3646.699,1.9189601111231929,83.5447773371606
3647.5398,1.9140635375584025,65.00236647742604
3648.379,1.908914698569238,98.5688793927336
3649.2202,1.9041632840602118,108.96823811505492
3650.0596,1.9004476856493142,85.52124279991047
3650.8994,1.8976678223049166,68.67964346216881
3651.7412,1.894562711973388,77.4173920030104
3652.5813,1.8892688924637049,73.78211553518585
3653.4236,1.880723675666542,56.00061205284343
3654.2642,1.869922051470453,86.95221293214442
3655.1067,1.8593855604393166,85.18563162940688
3655.9475,1.8516309126504051,81.81913774023019
3656.7886,1.8475668235206482,80.95686230886741
3657.6318,1.8464962519890138,88.71991143989413
3658.4734,1.846919374093257,115.01971112493989
3659.317,1.8473490683078386,79.77436805868602
3660.1587,1.846842106184828,78.60152996632664
3661.003,1.8452716338456812,67.95672308714234
3661.845,1.8431463727264081,106.87328512093364
3662.6875,1.8408935744407549,102.64170945806833
3663.532,1.8384247976056929,75.80411816200319
3664.3748,1.8356370057485178,96.26306103537385
3665.2197,1.8332398146980116,64.0725496578572
3666.063,1.8327481028756405,99.54368986332709
3666.9084,1.835254678158971,99.64815751528326
3667.752,1.8403604934999593,86.79601198058646
3668.5977,1.8464385432189854,78.90061869673602
3669.4417,1.8517299021098783,70.6508870422319
3670.286,1.8553362458654674,92.3641975971553
3671.132,1.8570801363290879,76.84859241993323
3671.9768,1.856858740174392,68.89630629879647
3672.8235,1.8543993652798354,75.82661169419758
3673.6685,1.8497526346962918,75.93599906547463
3674.5156,1.8437296584776899,78.8583794688428
3675.3608,1.8375883688909556,96.75338980508359
3676.2063,1.8319808164023303,93.9892813828956
3677.0542,1.826688083113887,87.97197362665251
3677.9,1.821440882163832,83.2281625074515
3678.748,1.8167160714353066,105.16935845553421
3679.5945,1.813680013701765,87.38047760777293
3680.4429,1.8129531464147535,99.86528497251125
3681.2896,1.8136835549094272,78.39298127672821
3682.1365,1.8136846860088232,78.10870973780752
3682.9856,1.8106081078163496,80.98308482197639
3683.8328,1.8033097338314314,122.90590020726783
3684.6824,1.7924457451943638,101.5390880598253
3685.53,1.7803386897573699,88.06856052863381
3686.38,1.7697346333285846,92.3073823554011
3687.2278,1.7627431351883394,110.6146927427875
3688.0762,1.7598997492831183,78.10346097050454
3688.9265,1.7604383865925204,81.74251139136543
3689.7751,1.7629513988401424,93.28854042704457
3690.626,1.7660058876813798,100.5357880617951
3691.475,1.7683657818652412,84.54533547894577
3692.3264,1.7692206460171909,98.30827411643605
3693.1758,1.7684081742143223,86.20284499202617
3694.0254,1.7665392640794717,76.40769796432554
3694.8772,1.7647513157721295,97.57688636609016
3695.7273,1.7642623698624826,108.68396070295577
3696.5793,1.765804271380207,134.3345132074679
3697.43,1.7691230621634153,116.2556069445925
3698.2825,1.772815976192483,113.35975287305847
3699.1333,1.7747822836991223,76.9860171480895
3699.9841,1.7733204833241296,112.61507683129254
3700.8374,1.7679284808330176,100.5778864328894
3701.6887,1.7594662413229363,104.45831602048801
3702.5425,1.749507894868626,79.6530518418874
3703.3943,1.739870124524318,77.1803769029096
3704.2483,1.7319916012626573,106.39852510129913
3705.1003,1.7268600099411093,79.20174613611121
3705.9526,1.7247810249489706,100.05882859364351
3706.8074,1.7254877362577687,124.59022601643974
3707.66,1.7281972927905518,80.44964689321685
3708.515,1.7318522264904124,107.93996364836126
3709.3682,1.7353863477312652,77.48209176363491
3710.2234,1.7379807814485926,120.51601275205766
3711.0771,1.738986341297732,111.12542859673442
3711.9307,1.737920855854807,98.17453123501785
3712.7866,1.734552514580212,89.44774871697659
3713.6409,1.7290912842704338,86.09596622153208
3714.4973,1.7220841667334421,101.9190134792202
3715.3518,1.7143578621705828,88.73236876295833
3716.2085,1.7068439872441628,95.70243810094588
3717.0635,1.7006742784090392,112.41043129816816
3717.9185,1.6967008799972982,222.4400432225525
3718.776,1.6949866250288046,97.8282491130983
3719.6313,1.694643179253369,92.35239682606098
3720.489,1.6944053274299016,89.57630364223922
3721.345,1.6934541331103283,104.69203094691252
3722.2031,1.6916278339218878,88.27618393934247
3723.0593,1.689088159107648,93.58081296589071
3723.9158,1.6860123399092537,100.08398794778475
3724.7747,1.682750337081918,101.14303650747722
3725.6316,1.6800759104951748,96.41199890705234
3726.4905,1.6788972127916018,105.00899962617795
3727.348,1.6796416835153984,108.24165883476448
3728.2073,1.681774236872359,82.09512927598004
3729.065,1.6839831790573248,106.49892932622787
3729.9229,1.6848912247133578,123.51950367912127
3730.783,1.6837222335938342,106.9984493021546
3731.6414,1.6806879957620247,101.61281622655507
3732.5017,1.6768304993433614,110.3712048667223
3733.3604,1.6733886970343224,109.0856912642206
3734.2214,1.6708983422531705,105.73764909842079
3735.0803,1.6689556958734326,84.72324595881946
3735.9417,1.6668008426340952,95.58189424680333
3736.8013,1.6644237366694845,101.54190852953496
3737.661,1.6629522686343114,116.4088393269131
3738.5227,1.6638776457135116,102.08968350468002
3739.3828,1.667527900752552,109.29428315915736
3740.245,1.6721572546432342,121.76750598253409
3741.1055,1.6745774824190087,89.64633149111533
3741.9683,1.6722543902646303,97.55962625177807
3742.829,1.6651586221462737,112.07987815176455
3743.69,1.6558868829076168,103.25101487108363
3744.5532,1.6479020351662867,106.30136134286936
3745.4148,1.643351225561468,130.67659434505657
3746.2786,1.6417767556174587,102.37452197107991
3747.1404,1.6407852361783883,85.61032404882427
3748.0044,1.6376696187710846,111.36132149624797
3748.8667,1.631001759498503,104.90033073956222
3749.729,1.6212037620839284,137.82296618934876
3750.5938,1.6102278898453704,99.29294743923556
3751.4565,1.6008811707863797,99.64190417504527
3752.3215,1.5956237111029368,111.26182378760868
3753.1848,1.5956770145297507,109.56464767689077
3754.0503,1.6003176235063912,103.59808044269847
3754.9138,1.6071681592006242,113.81059245853596
3755.7776,1.6133753078744346,100.2231623565709
3756.6438,1.6168641012663711,126.99653297262213
3757.508,1.6170615911209885,103.28483660338321
3758.3745,1.6148671936275927,80.75277524366366
3759.239,1.6119536526162372,112.66569621808831
3760.106,1.609858286250804,110.64998808598531
3760.971,1.6092772832821676,136.80857142021455
3761.8362,1.609723655506351,103.02156934189678
3762.7036,1.6099127055885964,106.49571124651986
3763.5693,1.6086104777423547,121.21106498276019
3764.437,1.6054188468660957,129.81239095004554
3765.3032,1.6010121839028344,101.00423600728026
3766.1714,1.5966996375548068,95.53807530839264
3767.0378,1.5938127489532374,98.28660525668094
3767.9043,1.5930567303024141,111.35488134319198
3768.7732,1.594254408298446,107.99055518141789
3769.6401,1.596360751059981,120.63058536698986
3770.5095,1.5978780587717154,105.78641943312802
3771.377,1.5975327733457951,114.14929392718959
3772.2466,1.595033708948476,102.8810760568455
3773.1145,1.5913219046025813,130.80695901423798
3773.9824,1.5879786614254112,141.5208421902821
3774.8528,1.5862618290161934,118.43504637312712
3775.721,1.586479107402011,119.48904123189858
3776.5918,1.5879697711304595,111.76092612969764
3777.4604,1.5894834085976601,104.63284558709987
3778.3315,1.589676228565172,107.58064402429954
3779.201,1.5876796228175167,123.99496219301945
3780.0703,1.5837081919403497,132.9240976390846
3780.942,1.5791446448741615,127.13480258733085
3781.8118,1.5757371606751691,124.08357573768458
3782.6838,1.5740953449937398,109.24906957434587
3783.554,1.5730396687954777,140.86742080526068
3784.4265,1.570542025470383,78.56033186515194
3785.297,1.5656249251385204,130.6397776868032
3786.168,1.559090524516205,146.01397640859437
3787.041,1.5524585015670516,181.02782309845458
3787.912,1.546542730286899,116.13685164792959
3788.7856,1.5411246260653635,113.00366611860991
3789.6572,1.5359519166045277,148.59233130491094
3790.531,1.531191031609573,146.6178935816988
3791.403,1.5271919349011283,116.8866610268281
3792.2754,1.5239247035541659,125.28578463190513
3793.15,1.5210983025909086,110.3677801197891
3794.0225,1.518596469027625,119.72779173245956
3794.8972,1.5165361226559404,137.17171768509237
3795.7703,1.5148852089637361,143.76010074561094
3796.6455,1.5129555118445992,127.55689761381387
3797.519,1.5096151512479237,114.56586428355374
3798.3926,1.5041798002433129,100.47074818520714
3799.2686,1.4972863845413442,125.16640920447894
3800.1426,1.4908932862428501,123.6251542605641
3801.0188,1.487085953257129,153.37938944172285
3801.8933,1.4870018344345595,117.11437350874525
3802.77,1.4903450247003893,124.03953755944778
3803.6448,1.495740647368593,105.80543167735318
3804.522,1.5014428141893679,159.13277606504545
3805.3972,1.5058482728722418,99.92936520723553
3806.2727,1.5079943538230824,120.08257122105303
3807.1504,1.507586238479892,149.87939430018122
3808.0261,1.5048762700711058,141.5751575639678
3808.9043,1.500521550732786,110.81640635015661
3809.7805,1.4955908827978093,147.39459734020778
3810.659,1.4912351792877392,138.74130048446472
3811.5356,1.488202901305549,111.38661552327214
3812.4126,1.4863848667735413,151.0652807642474
3813.2917,1.4851363035942224,131.41695893826218
3814.169,1.4839856803904439,117.04981739797819
3815.0483,1.4830236393942215,130.74381189151782
3815.926,1.4826930768238944,129.49124783472615
3816.806,1.4832853725158637,124.19006601453465
3817.684,1.4847170867300807,124.5175547389457
3818.5623,1.4866531715841642,169.20562265044884
3819.4429,1.488677356971027,123.44224902689227
3820.3215,1.4902474130531393,120.815325361582
3821.2024,1.4905944978733339,126.18360357728344
3822.0815,1.488767074760944,115.84531425649924
3822.963,1.4840621899180502,129.12509440449165
3823.8423,1.4766008640082697,157.69595987839557
3824.722,1.4674028787705813,157.1698194098174
3825.604,1.4580049292050261,148.69907598917848
3826.4841,1.4499377451271154,119.2763772835737
3827.3665,1.4440920641685946,147.0176517579037
3828.2468,1.4406129320573242,142.71300688359344
3829.1296,1.4387828177446162,155.15137249141628
3830.0105,1.437384215096703,143.61162764392873
3830.8916,1.4351840691345137,138.51427458136953
3831.7751,1.43147198844816,154.69183020496914
3832.6565,1.4263598468649272,145.80117524783776
3833.5403,1.4205644901216439,158.31421250969203
3834.4224,1.4150948815704343,168.10488211946037
3835.3064,1.4107862498288197,131.18100793407683
3836.1887,1.4081827522929218,155.65838227370386
3837.0713,1.4072933088582875,147.8365370345382
3837.956,1.407481013368906,141.94950670222744
3838.839,1.4076549574708472,160.85118570493927
3839.7244,1.4070176084749473,137.9458388048943
3840.6077,1.4058668475341034,162.23869804956166
3841.4932,1.4056067984082543,139.62391606436123
3842.377,1.4077530521700483,138.99484682923887
3843.261,1.4126516272270333,146.16177171020016
3844.1472,1.4190543856763667,128.7763751020683
3845.0315,1.4247980574160015,152.06063032972074
3845.9182,1.4281948337430932,140.77464476551614
3846.803,1.4288022595993957,142.91733526198448
3847.69,1.4274941570465356,150.8927482085599
3848.5752,1.425847821315628,153.54375276598927
3849.4604,1.4254430237817763,137.8505336400911
3850.3481,1.4273925311464168,156.32358924322202
3851.234,1.4320676085352324,149.86263226730728
3852.122,1.4390930161384756,141.0811737398024
3853.0083,1.4474234321541433,146.2231873751602
3853.8967,1.4558494076831952,129.31900815367203
3854.7832,1.463251147493349,148.7685822383679
3855.6702,1.468877305158063,156.82872593449014
3856.559,1.4721594266094247,133.47773721136534
3857.4463,1.472700601147993,129.20856954822392
3858.336,1.4705369962542374,113.39283649715986
3859.2234,1.4663191245858764,133.18886958134132
3860.1135,1.4610519646647833,132.73622361009612
3861.0015,1.4557297687013953,134.03761809476956
3861.8896,1.4510700424705762,126.07214580700325
3862.7803,1.4477268823201264,139.61507172051023
3863.6687,1.4462737947969428,131.2661362761722
3864.5598,1.4466115745818597,141.7016334955551
3865.4487,1.4474560985678813,129.13821908618775
3866.34,1.4465916681584252,138.2550944056448
3867.2297,1.442075385478619,141.90688067772533
3868.1213,1.4335275732708308,131.7419440657841
3869.0112,1.4225629754641271,113.42369686716063
3869.9014,1.4116928131139348,139.44154446108217
3870.7937,1.4027797066865106,136.36870219130088
3871.684,1.3961607217590775,128.14981234012228
3872.577,1.3908854411292142,143.97629222615197
3873.4678,1.385975581034679,146.3428576398571
3874.361,1.3810454931893485,144.01772739453645
3875.2524,1.3762363388326442,147.4068971785801
3876.1438,1.3715047977700714,171.8948163375837
3877.0376,1.3662621508025652,139.12543053277892
3877.9297,1.3595323731133315,182.67067034979095
3878.8237,1.3503434059330823,123.13071895265391
3879.716,1.338380213713908,175.92623174774587
3880.6108,1.3240750938393187,149.04223675364446
3881.5037,1.3086691704371733,207.65561032096738
3882.3965,1.2936033886221987,204.11074984070285
3883.2917,1.280243144606475,152.09138525060007
3884.185,1.2696480780381536,154.12658140028907
3885.0808,1.2619925367598293,180.78399105246035
3885.9746,1.25657624525531,153.9930982998511
3886.8706,1.2519810402268652,171.90571723762673
3887.765,1.247033687379231,174.80048600278994
3888.6592,1.2415993900129498,202.39285431124298
3889.556,1.2368279515724194,180.13790112271832
3890.4507,1.2345185789555242,187.0360557776814
3891.348,1.235880592729031,186.69983262831983
3892.243,1.240712928200321,220.75065142546518
3893.1406,1.2475520403120968,216.30121457960456
3894.0361,1.2546148668153723,171.14020565210862
3894.932,1.2610362356529157,153.71299059049412
3895.83,1.2670968848348643,218.5221036224491
3896.7263,1.2735079684347417,183.38847259072833
3897.625,1.2806524204462082,179.89883667618165
3898.5215,1.2882352693608081,188.72374589330673
3899.4207,1.2958896598644751,177.81699368523044
3900.3176,1.3034653917970964,153.43596664252559
3901.2148,1.311077322347795,144.6324264980205
3902.1145,1.3186566273338065,161.15797020535433
3903.0122,1.3258872867879068,138.6549421673433
3903.912,1.3328050576740509,139.58415529541148
3904.8103,1.339928286572664,180.35748385734996
3905.7107,1.347910961561098,127.50300120330016
3906.6094,1.3566827701787314,167.05972763954284
3907.508,1.3654928985824981,147.26613105242325
3908.409,1.3735839738312834,146.16633624628867
3909.308,1.3808302658981355,161.36674286277898
3910.2097,1.387785378895645,156.6851708577624
3911.1091,1.3947913527947768,137.47996432531747
3912.011,1.401497181780321,166.07736234876296
3912.9111,1.4068940736302318,139.85672001327578
3913.8113,1.4102704230014675,137.29175896315687
3914.7136,1.4118371706152137,194.6061692484538
3915.6143,1.4125670909079286,172.17017692263224
3916.517,1.4133982548449164,167.17633986511208
3917.4182,1.4145805780140612,145.91083361415784
3918.3215,1.4157710138838868,167.03195050809714
3919.223,1.4165473033588711,163.92124037963225
3920.1245,1.4168367074962402,136.88384558209714
3921.0286,1.416931679564287,154.9820315961935
3921.9307,1.4172765729025751,160.65269531311696
3922.835,1.418241048805539,162.7706727893958
3923.7373,1.4199485573580621,137.92956723250273
3924.642,1.4221845722471633,135.03164456325996
3925.5452,1.4243714390646771,149.2108510681927
3926.448,1.4258391816559812,136.9243098508604
3927.3535,1.4261694357549153,135.13051718766738
3928.257,1.4253149958766218,142.7972447161313
3929.1628,1.423298972735274,169.56596267472625
3930.0667,1.4198733263677707,153.1805129794837
3930.9731,1.4146341020909912,141.8738662528488
3931.8774,1.4077415555565942,133.5486869237576
3932.782,1.4002181632742514,142.01341830519635
3933.6887,1.3935337546867161,152.85666496846548
