wavl,flux,ivar
3566.9744,0.6760000972342032,552.8158235625784
3567.795,0.6775863989108569,437.5060218498211
3568.6177,0.6794424794945862,405.9834143072215
3569.4385,0.6807661922604576,361.0707170047061
3570.2617,0.6810296790442947,497.04786742409823
3571.083,0.6802198538140236,368.7548373827768
3571.9065,0.6787318466831,405.69436732759215
3572.7283,0.6770520078218174,477.4623693396334
3573.55,0.675437117845456,521.335829631009
3574.374,0.6738466477263576,382.2824415663049
3575.1963,0.6721388159631402,349.97108008629635
3576.0208,0.6702960230196842,516.3333932245631
3576.8435,0.6685307326738901,368.6648966190265
3577.6682,0.6670930396151216,377.3641787222209
3578.4915,0.666036966521719,340.1921237027279
3579.3145,0.6649773837073557,407.61544658227484
3580.14,0.6631032829296406,833.2485642151432
3580.9636,0.6596480795182998,454.7004413584409
3581.7893,0.6546025081142286,609.4531693741201
3582.6133,0.6491472029284167,340.3712050255114
3583.4395,0.6450235097127918,559.4440169558517
3584.264,0.6435128172463374,652.3068176667628
3585.0884,0.6446561824638015,527.0623451747427
3585.915,0.6475227601002821,566.9215187842914
3586.74,0.6509413476888783,445.9149814936854
3587.5671,0.6541928258475422,377.6026852918197
3588.3923,0.6570731886835554,427.8249266048608
3589.22,0.6596465066209901,539.4201160454403
3590.0457,0.6618101221641198,382.06956495153224
3590.8716,0.6632207284406045,450.7834852331422
3591.6995,0.6634266155197375,511.82195341907743
3592.526,0.6621236527501922,318.98765049865074
3593.3542,0.6593082606751741,388.24727282393866
3594.181,0.6553461215375987,438.92148714679604
3595.0098,0.6508685649975469,799.4172964120023
3595.8367,0.6466436167697484,430.3676403474021
3596.6638,0.6432044593679046,514.0981159879268
3597.4934,0.6406937821819657,874.3489019351289
3598.3208,0.6389690733509961,552.440056640778
3599.1506,0.637900414939219,399.436202399231
3599.9788,0.6377103438713498,651.5386072717323
3600.8088,0.6389084342158051,622.3182670705677
3601.6372,0.6418742188833569,403.8362064542239
3602.4678,0.6463935056048578,519.9676457073033
3603.2964,0.6514300538194471,632.0803528806023
3604.1252,0.6555158376205885,495.86498094406755
3604.9565,0.6573726564562995,551.7864425795705
3605.786,0.6565431648731734,387.8618434726544
3606.6172,0.653607718272611,529.6321418478705
3607.447,0.649796538167635,742.5405919757983
3608.2788,0.646265652953076,424.3340095160823
3609.109,0.6436565727094501,324.52630841337316
3609.9392,0.6420053963914484,702.4429396070732
3610.7717,0.641075274607199,473.1995227283014
3611.6023,0.6406880577309333,513.2692354467493
3612.435,0.6408319478056692,638.0640786420282
3613.266,0.6415361852123792,699.1414132630322
3614.0994,0.642690418831454,524.093930928097
3614.9307,0.6440215346382344,383.48379288727085
3615.7625,0.6452346155856447,438.0278961834821
3616.5962,0.646059071596836,451.2372158867439
3617.4282,0.646225644904645,491.0484524696864
3618.2625,0.6455457761057347,632.1889768610981
3619.0947,0.6441152751266199,425.08812548781503
3619.9292,0.6424624943756442,586.116213869878
3620.762,0.6415273935979275,542.762651471982
3621.595,0.6423565709019043,491.4112332273133
3622.4302,0.645616856053158,406.1244309580267
3623.2634,0.6509132150168313,530.6686718149999
3624.0989,0.6565248817683642,588.7189360348457
3624.9326,0.6598863926577846,439.35817852856627
3625.7686,0.6590963193251955,177.34881293611727
3626.6028,0.6541261636128801,411.3874800894829
3627.437,0.6467541919432384,405.3695819688693
3628.2734,0.6392215293262475,421.6215202654075
3629.1082,0.633031906225756,424.51378602551836
3629.945,0.6285583618862373,496.0826200767972
3630.78,0.6256495215974763,640.7031894072256
3631.6174,0.624020577490079,656.1645316116405
3632.453,0.6234642854259664,445.8778349721337
3633.2883,0.6238242250104983,787.8449899245187
3634.1262,0.6250675755794506,429.0506921485422
3634.9622,0.6272898558722765,635.6895803728776
3635.8005,0.6305956359780631,519.6521222088526
3636.637,0.6347185224689873,350.30686048853073
3637.4756,0.638842740592768,360.4731677206934
3638.3123,0.641730905908749,393.30184148568077
3639.1492,0.6424202895468007,541.2157488705635
3639.9885,0.640735611382817,361.83583983512835
3640.826,0.6373494605608673,470.4772839051685
3641.6653,0.6332552831279563,410.31950832076024
3642.5032,0.6292885638182786,357.8942817627678
3643.343,0.6258959369576832,518.0666042055187
3644.1812,0.6233121768136665,525.4259083356175
3645.0195,0.6215949695203409,496.2706858879601
3645.86,0.6206188776689576,444.7376282528362
3646.699,0.6200779402029141,420.8422628095712
3647.5398,0.6196150028646727,454.48869066208397
3648.379,0.6190117784421862,657.0565519055148
3649.2202,0.6182743039041353,530.7386220078412
3650.0596,0.6176574564079416,687.3472794368988
3650.8994,0.6175669099599024,568.9441821284628
3651.7412,0.6183080928351822,575.0164623352008
3652.5813,0.6197112330511582,578.8557697906207
3653.4236,0.6210430273377423,513.2607273559876
3654.2642,0.6214428687426856,394.5243106830225
3655.1067,0.6206787977319803,777.9932239321549
3655.9475,0.619437387010707,640.7164723475183
3656.7886,0.6187778333025434,465.54479923767053
3657.6318,0.6192191178138637,755.8965515470779
3658.4734,0.6202881771364698,504.49302131665274
3659.317,0.6209496074142276,758.3273752477263
3660.1587,0.620441264115238,612.8948853649463
3661.003,0.618784653781504,528.2710288698822
3661.845,0.6166616241875565,681.5038274264936
3662.6875,0.6148981919943514,461.7359402502692
3663.532,0.6140658824064316,528.5502168919735
3664.3748,0.6142935310229334,584.5703074990456
3665.2197,0.6152594402122709,598.5644060464535
3666.063,0.6163314977359621,658.1249131541532
3666.9084,0.6168286780106622,464.5314694952541
3667.752,0.6162653738274321,500.6315272476721
3668.5977,0.6144941673249544,730.3494860141082
3669.4417,0.611712463279315,500.77251716402424
3670.286,0.6083527151886973,722.5117013213857
3671.132,0.6049629095105882,467.42111764029653
3671.9768,0.6020749953581523,710.7824070277754
3672.8235,0.6000015850874452,612.1974523955664
3673.6685,0.5987810235195973,469.51917437575094
3674.5156,0.5981636631358384,579.4858928176006
3675.3608,0.5978053213660369,577.2063121945332
3676.2063,0.5974981362096909,632.5011697906518
3677.0542,0.5973053266101742,628.153328813045
3677.9,0.597437701430643,624.071061457731
3678.748,0.5979785547079106,539.5142945072038
3679.5945,0.5987171577229038,494.1150386074091
3680.4429,0.5992398941517695,681.2567597418379
3681.2896,0.59914668437107,410.04145437337803
3682.1365,0.5982532403095977,549.4527675408891
3682.9856,0.5966894321569358,576.0216541116566
3683.8328,0.5949554432844746,541.3699980242869
3684.6824,0.5938188391570842,598.0663039262863
3685.53,0.5940677105269241,526.0171750303476
3686.38,0.5960528331214012,530.6219257232403
3687.2278,0.599308567777348,616.1484445844858
3688.0762,0.6026293085217217,576.1543216979641
3688.9265,0.6046694482629636,483.9268641946002
3689.7751,0.6047994923080531,537.8696787230112
3690.626,0.6035802843205186,694.921858919641
3691.475,0.6023841459839983,601.710140871594
3692.3264,0.6024582654484035,779.0264777755253
3693.1758,0.6041524624080225,505.7672751375161
3694.0254,0.606787048077016,580.3232780656156
3694.8772,0.6091332368278285,593.3305767449116
3695.7273,0.610076618194189,401.6862303336976
3696.5793,0.6091611141908301,633.0190528600208
3697.43,0.6066973773083273,417.6796223328613
3698.2825,0.603488897639448,623.1273897400165
3699.1333,0.6004195625516089,477.7595301198006
3699.9841,0.5980516647879993,567.6360807436931
3700.8374,0.5965177920828203,684.4330942795278
3701.6887,0.5956054166285739,564.3810729750968
3702.5425,0.5949438172204436,739.7654341636554
3703.3943,0.5942776735978109,506.61382417865764
3704.2483,0.5935783260811567,594.3548999327202
3705.1003,0.5929573633081736,559.2605350248891
3705.9526,0.592436563956339,461.968241267459
3706.8074,0.5918368450565364,476.7269139860479
3707.66,0.5908508707890554,682.8447206847186
3708.515,0.5891946382760929,796.1094898034758
3709.3682,0.5867945714974728,680.9408632306074
3710.2234,0.5838708896109481,555.3751843471427
3711.0771,0.5809726746868933,583.779807065619
3711.9307,0.5787399246787284,726.6507565630031
3712.7866,0.5775878901679883,637.8556693300344
3713.6409,0.5775031595359822,881.545620872517
3714.4973,0.5781584910459298,464.1092909791095
3715.3518,0.5792845029175351,440.6770897347511
3716.2085,0.580887838108942,645.381515852424
3717.0635,0.5830381609115196,483.8583904878892
3717.9185,0.5855310299629314,713.1523745124297
3718.776,0.5878269264807892,471.3199680203763
3719.6313,0.5894170405889787,678.1448681099683
3720.489,0.5902765290278315,610.8038683085209
3721.345,0.5907696334662238,563.9782384420033
3722.2031,0.5911644740221986,690.5254788371649
3723.0593,0.5912623068406236,455.06115006357106
3723.9158,0.5906531240276327,568.0639964428859
3724.7747,0.5893285105095739,641.1389652173831
3725.6316,0.5879900197339065,550.7100133463927
3726.4905,0.5875976525719713,765.106734167469
3727.348,0.5886157247590688,644.8957639090283
3728.2073,0.5906131716179014,574.5609605455325
3729.065,0.5925145678039697,645.7140450086152
3729.9229,0.5932532864046078,711.3738613891438
3730.783,0.5922832459365318,530.5595620328868
3731.6414,0.5897986256273923,751.7228679249631
3732.5017,0.5865617880232141,561.7892588870112
3733.3604,0.5835485237469697,654.1411875529108
3734.2214,0.581461111101247,579.3185780197649
3735.0803,0.5804785371189667,592.8650924047764
3735.9417,0.5801980219413484,491.4555575640927
3736.8013,0.5799683528747637,603.5630309854675
3737.661,0.5793710246077359,596.2831449874058
3738.5227,0.5785437739105584,517.3047338923412
3739.3828,0.5780442496327972,534.3590508917168
3740.245,0.5783334429217158,827.0678391586225
3741.1055,0.5793820735328068,570.7989057920794
3741.9683,0.5807205838977483,655.1576569592397
3742.829,0.5817714301448313,619.422752256311
3743.69,0.5821568288316775,777.8458463517244
3744.5532,0.5817321175436532,627.0006354038157
3745.4148,0.5805026543064653,658.9756053529725
3746.2786,0.5785499559923251,629.0979859401072
3747.1404,0.5761180147026218,612.00152291427
3748.0044,0.5737327145404357,583.3259927290209
3748.8667,0.572268313826141,557.6333500103382
3749.729,0.5725735783553009,545.0648206388414
3750.5938,0.5749219089506,594.2936167365865
3751.4565,0.5786434359057182,560.8180669362006
3752.3215,0.5824530607445588,477.55261315935616
3753.1848,0.585097082576223,613.8370332169184
3754.0503,0.5860041896521403,426.0663485777901
3754.9138,0.5854053650541964,638.2957994191931
3755.7776,0.5840845360974711,510.9048946883394
3756.6438,0.5828290650563099,621.6562777854735
3757.508,0.5819374613923525,425.2293443897857
3758.3745,0.5810790879600605,499.4945036456137
3759.239,0.5797125661586267,734.7558530896058
3760.106,0.5776326742348832,571.2409019343947
3760.971,0.5752161024995739,723.5736740806249
3761.8362,0.5730662987029815,621.5296219914281
3762.7036,0.5715069091755075,732.2731148134994
3763.5693,0.5703747883570023,733.862670360905
3764.437,0.5692839866206174,580.0664279206947
3765.3032,0.5681368023514345,625.9524424927232
3766.1714,0.567308085892898,684.5020679359621
3767.0378,0.5673585423326348,675.5327538390261
3767.9043,0.5684357183095853,730.5729712206893
3768.7732,0.5698965406879364,813.8976859401326
3769.6401,0.5704821896646787,632.3620253432712
3770.5095,0.5691082410518662,585.887481191688
3771.377,0.5656963452973378,551.7763822715749
3772.2466,0.5613491959907075,729.9485715067275
3773.1145,0.5577341122832211,819.7487265104821
3773.9824,0.5559912395836923,616.9123473371872
3774.8528,0.5562054500341155,703.70768367545
3775.721,0.557617158357692,540.6124933206571
3776.5918,0.5592898468752261,660.2132781492986
3777.4604,0.5606089935340717,670.5977154281701
3778.3315,0.5614773051559022,548.6336847176042
3779.201,0.5622005331305657,541.2177605008407
3780.0703,0.5632648010238961,938.2379607256721
3780.942,0.5649983531742441,879.4979206714609
3781.8118,0.5672967862086336,666.6388041410522
3782.6838,0.5696665289377706,525.7957882269429
3783.554,0.5714450845321569,679.3379387685952
3784.4265,0.5721099982604746,917.4605388778836
3785.297,0.5714085409010367,425.7752748730717
3786.168,0.5694707497249345,501.08927233404745
3787.041,0.5668183009395041,611.8974802021329
3787.912,0.5642189263084578,667.7184273917869
3788.7856,0.5622502816721225,561.0142006877575
3789.6572,0.5609990531081076,632.1297252652645
3790.531,0.5600347920867069,717.7065106509359
3791.403,0.5588095791321159,709.176668118385
3792.2754,0.5570294076207918,629.3282029978502
3793.15,0.5547421643433184,808.781299776786
3794.0225,0.5521731141386841,760.8605484341582
3794.8972,0.5495266537639084,589.1079935041496
3795.7703,0.5470714509510364,602.3821983919436
3796.6455,0.5451786095306181,821.1711032609059
3797.519,0.5442623802393097,683.4339885016237
3798.3926,0.5445009690588112,598.314465485486
3799.2686,0.5457089963665113,578.5531881645137
3800.1426,0.5474103231760139,683.5249800730577
3801.0188,0.5491190187391258,601.1678759237997
3801.8933,0.5505561305140979,648.6181532761495
3802.77,0.551759540413361,806.7034702711288
3803.6448,0.5529384726118607,618.9405972563617
3804.522,0.5542803676114907,707.5291835219367
3805.3972,0.5557899118458343,874.5751738462427
3806.2727,0.557348726077726,848.8175033717089
3807.1504,0.5588306444179915,911.2039578089133
3808.0261,0.560174161552467,614.6211618695193
3808.9043,0.5614244209983553,764.3687333890873
3809.7805,0.5627055001943081,500.0826746768913
3810.659,0.5641841144362172,723.7876913135475
3811.5356,0.5658274173641396,588.3905076175813
3812.4126,0.567182751555864,697.0126437701324
3813.2917,0.5674756119345782,533.7197343649282
3814.169,0.566221298835299,621.7924263506179
3815.0483,0.5638206430499539,842.6278842973402
3815.926,0.5614640058756193,512.0942944142528
3816.806,0.5602790206463768,716.1247289193975
3817.684,0.5606007870099793,655.6849749445989
3818.5623,0.561878403604527,636.9737571981216
3819.4429,0.5631870669703192,708.7407624397224
3820.3215,0.5637460730478512,536.5158485225031
3821.2024,0.5632052962022389,813.4962114215441
3822.0815,0.5616413440586704,719.7934687210374
3822.963,0.5594094145985989,738.1449096695079
3823.8423,0.5569742069389401,607.3636117244581
3824.722,0.5546808579361903,593.2789027017108
3825.604,0.5526149159962671,679.1194184581734
3826.4841,0.5505602707358285,782.3892849055578
3827.3665,0.5480564525133468,658.6415983622483
3828.2468,0.5446448488256583,639.6713649558676
3829.1296,0.5400115069724739,625.8131066845631
3830.0105,0.5341949480923518,642.0209921734164
3830.8916,0.527609910114045,646.5112900628432
3831.7751,0.5210887292095765,1167.0834397676217
3832.6565,0.5157435346731744,586.015941312923
3833.5403,0.5124470326860069,635.1664130851783
3834.4224,0.5115517673387664,786.7341491047661
3835.3064,0.5127669909598208,751.4016715308741
3836.1887,0.5154927573796118,618.879202431196
3837.0713,0.5192297422317489,809.4658217581136
3837.956,0.5237179298197903,932.3016714766235
3838.839,0.528692994448665,634.5837420413587
3839.7244,0.5336797642213841,1065.7576868966207
3840.6077,0.5378765335462408,651.8521944025005
3841.4932,0.5405432033489328,558.1325824494713
3842.377,0.5413806921958011,608.4172795413158
3843.261,0.5408576474787774,762.8829117755733
3844.1472,0.5400437396472787,623.6296690662772
3845.0315,0.54009120515222,1001.4832050046707
3845.9182,0.5416205048704524,600.4696448583215
3846.803,0.544435965514683,843.8772452762598
3847.69,0.5477532268809788,655.3865361944912
3848.5752,0.550654328234286,618.1024945032336
3849.4604,0.5526545247250355,710.7698106033342
3850.3481,0.5539843557832188,812.3004449752841
3851.234,0.5554880413214308,605.8842784655343
3852.122,0.5581159532665381,847.7751731635283
3853.0083,0.562213777788106,556.593657669982
3853.8967,0.5672588549188026,633.537644537201
3854.7832,0.5720691326965348,843.1086015733216
3855.6702,0.5755543785677206,470.3621868769439
3856.559,0.5772629585576353,459.22392989945723
3857.4463,0.5775267228254874,638.6032018171688
3858.336,0.5770763113288514,546.998701866314
3859.2234,0.5764196139892969,607.1000846986494
3860.1135,0.5755224581769305,690.1520850531276
3861.0015,0.5740382286676499,583.9963400105884
3861.8896,0.5717594058016716,714.6882017410952
3862.7803,0.5688686861901138,634.2300746526136
3863.6687,0.5658329443923049,609.5751028651678
3864.5598,0.5630346705517847,647.9691905033935
3865.4487,0.5606132551971135,846.0213343225289
3866.34,0.5583795742850739,616.3196114135696
3867.2297,0.555988450826832,575.6126710639232
3868.1213,0.5530805382067853,804.400283970467
3869.0112,0.5495171297240565,884.473914521147
3869.9014,0.5454828440501569,609.2349385734783
3870.7937,0.5415318940190511,713.6819032715487
3871.684,0.5384600523137774,881.9814130816981
3872.577,0.5369059549696548,885.6917121707573
3873.4678,0.5370396865099806,642.2348241828636
3874.361,0.5383642784306389,742.9534564402235
3875.2524,0.5398544862953674,682.3183754937618
3876.1438,0.5403564967891976,694.3485566835386
3877.0376,0.5390230282905104,712.8532068493695
3877.9297,0.5356361632390735,671.1973398169555
3878.8237,0.5305922234713389,751.1727297737128
3879.716,0.5246843967762306,706.4086601636786
3880.6108,0.5186806891504233,1061.3404706883653
3881.5037,0.5133106888249352,812.4973903810125
3882.3965,0.5094812168705777,634.3682022932924
3883.2917,0.5089263909829375,736.921681359792
3884.185,0.5143888367757942,865.6304967311435
3885.0808,0.5285170854490658,813.0675224088128
3885.9746,0.5510487869896552,865.023364364987
3886.8706,0.5765149479516358,828.2119106362237
3887.765,0.5946461757884284,846.7163468150454
3888.6592,0.5961719530679901,774.925428404757
3889.556,0.5790429666878344,1192.1773035225076
3890.4507,0.5503855701129297,764.2652407094586
3891.348,0.5212876268790269,850.4774391047089
3892.243,0.5004108303721687,682.5524605431244
3893.1406,0.4902781790576932,845.1746039149563
3894.0361,0.4890107677448993,944.9384844947094
3894.932,0.49298431497945255,771.4565185641497
3895.83,0.49894124006387003,830.2029574015361
3896.7263,0.504578550843652,756.2794881389723
3897.625,0.5087355714740427,668.5717323457893
3898.5215,0.5111520742426524,717.9854373580708
3899.4207,0.5122524433378192,778.0220057598792
3900.3176,0.5127667922903835,804.79288125806
3901.2148,0.5135208151645573,981.3468694002199
3902.1145,0.515245777671695,897.6356327304538
3903.0122,0.5183932369939291,976.2037258101167
3903.912,0.5230607446613159,661.6861739690547
3904.8103,0.5289244943800294,954.7211881535625
3905.7107,0.535374925134504,523.2382632152536
3906.6094,0.5415479798984172,596.0590024163375
3907.508,0.5466443784981826,663.7910499974258
3908.409,0.5501256973248296,670.9164509354208
3909.308,0.5518014863180009,775.2320573624879
3910.2097,0.5518502584631644,787.9055491654708
3911.1091,0.5508219610874194,667.6996880102324
3912.011,0.5497459783200642,640.0753759271
3912.9111,0.5499859724735987,701.1738988260122
3913.8113,0.5525901322169477,4330.166592634638
3914.7136,0.5576088388014929,588.8073146071596
3915.6143,0.5639662599552779,682.275820723811
3916.517,0.5702468304064594,514.8825977900881
3917.4182,0.5754382456707234,630.6593147794184
3918.3215,0.5793136199041055,489.15023644430755
3919.223,0.5820681289328699,599.4957131215021
3920.1245,0.5840298556962773,566.1942617003316
3921.0286,0.5854951810159196,545.4203799642897
3921.9307,0.5867398817666689,513.2972477845262
3922.835,0.5880015275941245,684.0530830298384
3923.7373,0.5893321283334949,568.8123723909843
3924.642,0.5905484390503931,556.2334715247605
3925.5452,0.5912911026818114,592.6042803175652
3926.448,0.5912517756376827,612.7310090706407
3927.3535,0.5903440799286067,477.2889339072467
3928.257,0.5887656933561284,599.4752302655806
3929.1628,0.5868942301163133,612.4838493991678
3930.0667,0.5851691267719091,572.3950180321341
3930.9731,0.5839189385009962,614.7412083209364
3931.8774,0.5832788669918919,551.2107266623578
3932.782,0.5831312241294353,647.6182228522687
3933.6887,0.5831993223303671,571.7161046002539
3934.5938,0.5831672293008329,645.2168186041404
3935.501,0.5827411741894566,583.9857897175981
3936.4062,0.5816517017650609,734.5561374606475
