wavl,flux,ivar
3566.9744,5.204483433274461,14.848259042948287
3567.795,5.197578751347029,11.111996412663055
3568.6177,5.179200879642566,12.277635438074084
3569.4385,5.1540037245567785,12.910965408418445
3570.2617,5.126047938996493,12.183117796722389
3571.083,5.097725528998856,12.857953964067697
3571.9065,5.070071115813995,13.20529169071587
3572.7283,5.045471383473024,13.52817738151669
3573.55,5.028244825037153,14.437502981598293
3574.374,5.023301171957465,11.907691335896404
3575.1963,5.032842740698989,13.660229041381644
3576.0208,5.054292532958212,10.259575113666774
3576.8435,5.081347778871822,11.440827767691088
3577.6682,5.107620400360803,7.797455137035099
3578.4915,5.128481941607268,12.563156779490019
3579.3145,5.141109153012631,8.940643536063288
3580.14,5.14323801388732,8.70795270495237
3580.9636,5.13420239515188,9.68142293049127
3581.7893,5.117518788380694,12.668251300280751
3582.6133,5.101490579014197,10.263426404553462
3583.4395,5.095380992739722,13.147315213269902
3584.264,5.104532186893893,11.657377333729098
3585.0884,5.127922162456302,16.56437452969466
3585.915,5.159966329213874,11.261461384289168
3586.74,5.193256769254559,12.57942639072217
3587.5671,5.221141029072287,12.992857140820632
3588.3923,5.237746757859219,9.726336623548532
3589.22,5.23868465698575,13.176350734591033
3590.0457,5.221570906048667,9.890675823275084
3590.8716,5.187415570868253,5.984536244192838
3591.6995,5.141040910502357,10.04730986495954
3592.526,5.090272548112092,13.599231028743555
3593.3542,5.042518416065943,10.677334881453376
3594.181,5.003192377045673,13.14748658423349
3595.0098,4.974259961051259,18.565976166583123
3595.8367,4.955309773959661,16.781322733544275
3596.6638,4.943367245467641,13.611778681582168
3597.4934,4.933832716803973,11.509905293704522
3598.3208,4.9222053271140185,11.78289599482404
3599.1506,4.906153195454755,12.02970189471714
3599.9788,4.886912773306677,14.70012552039999
3600.8088,4.868061585045249,11.991564970543807
3601.6372,4.853770686893023,14.565000321663737
3602.4678,4.847166404387899,15.49355676253699
3603.2964,4.85063759461739,14.286719492331192
3604.1252,4.8659918316237505,10.470394305156717
3604.9565,4.89384281301401,12.748517209446714
3605.786,4.932068880910156,14.727819996169416
3606.6172,4.976603244012967,12.184561301093863
3607.447,5.022421924257003,9.99436671235531
3608.2788,5.065315012936202,10.276095163824717
3609.109,5.10068337599105,9.765079081266656
3609.9392,5.123549971242944,8.45719896633264
3610.7717,5.129219970391044,13.073066626100411
3611.6023,5.1162068972481265,10.864212125815275
3612.435,5.088575112530621,13.165162013783627
3613.266,5.055396075439047,12.592354380464204
3614.0994,5.026166186207011,15.390238270540316
3614.9307,5.006552864019778,12.565415149565677
3615.7625,4.995781194382097,11.040774990206945
3616.5962,4.988325319384214,11.509411332549044
3617.4282,4.977241789526228,11.822748451258063
3618.2625,4.957788353597327,11.34930502462404
3619.0947,4.930410202150291,12.564478184566875
3619.9292,4.900490879650879,10.106404592496146
3620.762,4.87591358612453,13.464315592066933
3621.595,4.862483233112467,11.497457621040342
3622.4302,4.861618585937161,14.930203831073893
3623.2634,4.8700907950577506,16.100338344990707
3624.0989,4.881585449311643,15.825948447400446
3624.9326,4.88869909260242,15.639762278683042
3625.7686,4.885177004565847,12.345446267323686
3626.6028,4.867860826973783,16.135985712045184
3627.437,4.8382867413827055,12.506101193633462
3628.2734,4.802716877236685,11.404060500588562
3629.1082,4.770327566508092,9.698258094636007
3629.945,4.749293401607637,14.05909862809927
3630.78,4.745758222693852,9.472360599698755
3631.6174,4.764937896087798,10.823915761194886
3632.453,4.811671187156577,15.247984452931146
3633.2883,4.8849259440812025,11.91397373444233
3634.1262,4.96827906901485,14.79329321277049
3634.9622,5.027673147263043,22.098463459266487
3635.8005,5.029354958413724,8.685093470157042
3636.637,4.963676399563391,15.265915275325035
3637.4756,4.854242870433554,12.105654909328596
3638.3123,4.742256604165466,17.943098503921423
3639.1492,4.658226365281351,13.97113171357111
3639.9885,4.609622109214673,11.201614010725764
3640.826,4.586737100704986,15.9769846245654
3641.6653,4.575516189326271,15.907789139348331
3642.5032,4.567226297827578,12.519746865021713
3643.343,4.559261391406991,15.244947278559707
3644.1812,4.551951183812751,14.50629592423594
3645.0195,4.545343348844499,16.26712618469162
3645.86,4.538884664120843,13.263448053563055
3646.699,4.532882769116772,13.874687463554405
3647.5398,4.529028887600589,18.78705482232897
3648.379,4.529042100994763,13.924322126070278
3649.2202,4.532388110184162,13.54833498401933
3650.0596,4.535550638672945,15.139225351244487
3650.8994,4.533959147257695,13.202471254345289
3651.7412,4.525267762176457,13.68603281544022
3652.5813,4.511457335734332,23.685595706005742
3653.4236,4.497386352841206,21.05941645574349
3654.2642,4.487569942434414,14.209708418457975
3655.1067,4.483515653066792,14.195531563546945
3655.9475,4.484009468125497,10.837462206794584
3656.7886,4.48665415425552,16.13774067173154
3657.6318,4.489283418167772,15.947798190519372
3658.4734,4.490382411618053,14.260672515235079
3659.317,4.489011901987042,17.831215321730397
3660.1587,4.484682287261329,16.150492631667785
3661.003,4.477480978260024,21.25792229452673
3661.845,4.468283900891606,19.674877840838256
3662.6875,4.4582000183895545,13.432141962870023
3663.532,4.447844480127518,17.886371220456734
3664.3748,4.437188458771694,14.25391744140787
3665.2197,4.426506178398307,12.3099848015551
3666.063,4.418997822994451,18.244219315758478
3666.9084,4.424293481460793,18.31093656132981
3667.752,4.462665900516445,16.440206815539298
3668.5977,4.565609960712952,12.028009726166687
3669.4417,4.761961587537059,16.877925494623
3670.286,5.049839077730338,16.365473318624396
3671.132,5.36879636529809,13.103990900244467
3671.9768,5.606489699086984,16.107816390782446
3672.8235,5.662142331783868,19.24365673374881
3673.6685,5.512586130140506,12.611705793033417
3674.5156,5.228131547678573,12.672459498635265
3675.3608,4.922601217937597,12.666830328771418
3676.2063,4.680428790769887,13.885118414792185
3677.0542,4.529228122102178,19.853411455072166
3677.9,4.455157705680839,15.676431956426347
3678.748,4.429328607123333,14.588690308602281
3679.5945,4.427299034295661,21.962503822180174
3680.4429,4.431759001947181,10.884539677043598
3681.2896,4.431589087908215,14.413297552563355
3682.1365,4.421912834382271,12.520370698825248
3682.9856,4.404354187915916,18.907969244224486
3683.8328,4.384955201060022,15.278169188555873
3684.6824,4.369180477857889,15.064100829125668
3685.53,4.358700732856022,16.820877877576358
3686.38,4.351398187299562,14.990816910574466
3687.2278,4.344863250295016,16.759164092427568
3688.0762,4.339026572557921,18.17141213271681
3688.9265,4.336017439162505,21.12754102821892
3689.7751,4.337582370083863,15.379223852330494
3690.626,4.342978830710027,13.348341593095098
3691.475,4.34928604821099,14.509340589760932
3692.3264,4.353481416283732,13.045367657046544
3693.1758,4.353944162952085,20.565859425912933
3694.0254,4.350595270190819,14.699032771182706
3694.8772,4.343903411498328,13.21380316293184
3695.7273,4.33434681172014,15.135239489904144
3696.5793,4.32273328080627,13.236291149092871
3697.43,4.311150158015137,16.543479996551703
3698.2825,4.302408681342627,14.143464864353465
3699.1333,4.29833178881375,19.81144813457346
3699.9841,4.298034665966368,16.483730539289887
3700.8374,4.298489863920768,17.98752758449917
3701.6887,4.29647038325842,16.97263516414797
3702.5425,4.28993210356668,23.765377799066094
3703.3943,4.277964849900978,18.20848934462179
3704.2483,4.260145261125376,21.01122384831166
3705.1003,4.237086589725361,16.555817538046593
3705.9526,4.210856381434566,17.839683736810485
3706.8074,4.184803024751311,15.842838759452063
3707.66,4.162187474955727,14.749519494231109
3708.515,4.144040296071817,17.095305134188667
3709.3682,4.129489717657182,17.83114139882907
3710.2234,4.116959124282283,17.700567431842643
3711.0771,4.106110491389356,19.66819250985811
3711.9307,4.097674052895875,16.20987379185122
3712.7866,4.092113152933659,23.511931557166136
3713.6409,4.0887464616593014,14.315168224986078
3714.4973,4.086349980999622,19.813699257261185
3715.3518,4.084552674870608,21.663918878639596
3716.2085,4.084169732828528,24.980952926346173
3717.0635,4.086441279317526,18.070198583747274
3717.9185,4.092009897852245,17.678937677626426
3718.776,4.100642223418504,19.154190196471674
3719.6313,4.111567855975719,17.531330362317735
3720.489,4.124112090973892,18.791144197019058
3721.345,4.1372590748245335,20.224161090439512
3722.2031,4.149286356665674,15.324834214520937
3723.0593,4.157793647348582,17.086105839667038
3723.9158,4.161341339076276,21.867701205428407
3724.7747,4.160660188658114,12.336638708304907
3725.6316,4.1583897334411,21.910868460836696
3726.4905,4.157017855758149,14.452995111199197
3727.348,4.156861116243968,15.283650994803716
3728.2073,4.155851883132963,15.567682370556337
3729.065,4.151201099868453,19.20086327375129
3729.9229,4.1411600951155085,19.82203298480896
3730.783,4.125623746644374,16.747224874695153
3731.6414,4.106140255609966,17.397429290214195
3732.5017,4.085456661506178,20.418895282042744
3733.3604,4.067342187819929,21.160029686149255
3734.2214,4.054939064848323,17.438530117128284
3735.0803,4.049335761736548,16.5897289524808
3735.9417,4.048464277507877,19.27882644324719
3736.8013,4.048046600312972,18.814528502737474
3737.661,4.043556274154888,21.28434126513056
3738.5227,4.032196760427827,19.97596069751883
3739.3828,4.013948480831609,18.87499980809299
3740.245,3.9909813938823553,19.955315375938895
3741.1055,3.9667676728910415,19.435234832544012
3741.9683,3.94429834535325,25.34413480409316
3742.829,3.925498497595304,16.447511638371175
3743.69,3.910556998235542,17.99648167623526
3744.5532,3.8988611835399287,24.7313540495763
3745.4148,3.8903727169012265,21.636042149794253
3746.2786,3.8863438836903774,20.824053700469587
3747.1404,3.889083947414121,16.743175035802736
3748.0044,3.9002474679139594,25.456007609419018
3748.8667,3.9188197985646123,21.64152021390844
3749.729,3.940514378753095,20.941953946922585
3750.5938,3.959160432759392,17.233972445973528
3751.4565,3.969440935315731,26.253218756514862
3752.3215,3.9697236731996655,14.30400779770114
3753.1848,3.9624297896100935,22.99945389970836
3754.0503,3.9525515771772413,21.408580764201258
3754.9138,3.9452168108890997,25.57039540272208
3755.7776,3.9432823589795665,19.625817123863133
3756.6438,3.946346750886969,18.241861583687548
3757.508,3.951259502853959,21.978669031852426
3758.3745,3.954300551388322,16.377386729525536
3759.239,3.9534841428089784,20.23037922076139
3760.106,3.949357737478782,20.03420416457419
3760.971,3.9436478410527696,18.453381386747967
3761.8362,3.9371969327376766,18.95896901748741
3762.7036,3.9292506096011612,19.76437369006853
3763.5693,3.918384667664865,23.55583472299881
3764.437,3.903642975487473,20.606423516037946
3765.3032,3.8853770529435168,20.918933604119683
3766.1714,3.8649111681414445,21.02628483557064
3767.0378,3.844227881180974,22.014820803746346
3767.9043,3.824947728784451,22.24076394920967
3768.7732,3.807975853679758,21.840562093587298
3769.6401,3.79348372341751,24.417092680646522
3770.5095,3.7805788387433314,19.44831318320504
3771.377,3.7679241361479736,24.041819139028686
3772.2466,3.7545456331288882,19.491149199992265
3773.1145,3.7413250245776637,24.739972871007556
3773.9824,3.73082298783314,19.130987057970867
3774.8528,3.725907251599077,20.214939580789856
3775.721,3.728122457046787,22.80192409439334
3776.5918,3.737165731306363,18.9177240385195
3777.4604,3.7513709798294332,24.270469333334876
3778.3315,3.768386745618736,22.537648109627295
3779.201,3.7851149296597977,23.495192649440593
3780.0703,3.79864960206934,26.21844756110719
3780.942,3.8075045032540005,20.274158268036867
3781.8118,3.8123852163582006,20.636167849397815
3782.6838,3.815397282529522,22.391635140740245
3783.554,3.8179998692460018,21.849902008067293
3784.4265,3.820086857841363,18.489404178334777
3785.297,3.8205745370629214,20.495739289458914
3786.168,3.818471260930435,16.77696012470473
3787.041,3.8131211413120694,23.87755838076679
3787.912,3.8042098297444853,21.13059762620641
3788.7856,3.7920808981129035,22.821099943955304
3789.6572,3.7785557212371077,17.471330840835304
3790.531,3.7664684346983743,24.577425140476418
3791.403,3.7583304540647298,25.260777011602613
3792.2754,3.7542742178126822,20.759774808127034
3793.15,3.7516822429612118,17.942809143919902
3794.0225,3.746804282248325,22.397216427050296
3794.8972,3.7372793883242315,22.67201715363055
3795.7703,3.7235904393491177,22.744725886101588
3796.6455,3.707906875241532,23.505447572237
3797.519,3.692157875783354,24.21733600701941
3798.3926,3.6766849248426414,23.21200700715351
3799.2686,3.6610676326527916,26.150300106779333
3800.1426,3.6455219912634367,28.069713622946658
3801.0188,3.6306983233073384,22.242579981947305
3801.8933,3.6169084191122507,24.362894446039213
3802.77,3.6033704759245584,25.142859330464535
3803.6448,3.589565643202957,25.844359979635993
3804.522,3.5764414368751707,27.054696848271032
3805.3972,3.566515456980518,23.623618431941424
3806.2727,3.561871463744569,25.45081173300241
3807.1504,3.563039653784454,20.683859805312874
3808.0261,3.569407302507599,38.9636713633236
3808.9043,3.5802789996868603,27.82436269729249
3809.7805,3.5947112573618427,24.44230633605595
3810.659,3.6111018267824844,19.346986980078242
3811.5356,3.6273472352749216,22.774005573829097
3812.4126,3.642413194932701,26.612267410670416
3813.2917,3.6565325600439085,22.077201008860243
3814.169,3.669582570620393,21.04214928451712
3815.0483,3.6797601314072756,23.098982970682986
3815.926,3.684015307996967,19.4621920699735
3816.806,3.6806374047028547,24.499649798500442
3817.684,3.6708105609211485,23.067339640720643
3818.5623,3.657898220798905,24.68070120704501
3819.4429,3.6454158779945853,25.07803539718224
3820.3215,3.6356646537424955,20.653844732724313
3821.2024,3.629104956497265,24.814342779550422
3822.0815,3.6247376952746535,22.51738656704
3822.963,3.620508662644576,24.311718837680406
3823.8423,3.6142381250463216,25.407214811057447
3824.722,3.604241462305861,24.529114589036517
3825.604,3.589392373277122,21.22881635995451
3826.4841,3.5690950770464567,24.685778261820357
3827.3665,3.5434125096796953,21.962090358762907
3828.2468,3.5143859234438968,24.63282853428239
3829.1296,3.485776681670223,23.629857672289102
3830.0105,3.4621036778967973,26.59309631825489
3830.8916,3.445775388821286,24.487896843828523
3831.7751,3.436171250253526,24.914285045259373
3832.6565,3.4306174983685724,30.19833208306743
3833.5403,3.42621493747281,24.397908268482045
3834.4224,3.421047279278657,25.5357505556546
3835.3064,3.4138095993475432,28.85971197080244
3836.1887,3.40356303086554,24.65662108653795
3837.0713,3.390266514884738,21.663253369736648
3837.956,3.375944489342092,32.67546120769346
3838.839,3.3650854484645407,33.62666847009608
3839.7244,3.363074528528383,26.167317025787273
3840.6077,3.373750534627734,29.949489005897714
3841.4932,3.396994311989183,33.98895713695656
3842.377,3.4278372382091544,29.636101259291596
3843.261,3.4586379410427055,22.365444094738802
3844.1472,3.482515768120987,22.743023189337826
3845.0315,3.4960757241639406,30.977064215631646
3845.9182,3.5002298888253853,26.60873664377278
3846.803,3.4985613837415426,30.28732274812787
3847.69,3.4958546555715766,24.847285556402753
3848.5752,3.4967208726316943,25.07386427837509
3849.4604,3.5039380022607833,24.50824890908093
3850.3481,3.5169137493875593,22.072863597069578
3851.234,3.531382795142251,29.227157740112144
3852.122,3.541846451009177,24.009843279902725
3853.0083,3.544757449174085,21.841928082965186
3853.8967,3.5407738997942557,25.774878390625787
3854.7832,3.533740343964702,22.318308072314274
3855.6702,3.52741488642776,20.008824386497675
3856.559,3.5225456562002284,25.872971035326827
3857.4463,3.516463812520833,24.927626117048067
3858.336,3.505269104758369,21.83849110104896
3859.2234,3.487153314660608,24.94118206750167
3860.1135,3.463890891249836,28.22840926331979
3861.0015,3.4404561818955988,27.194128154708036
3861.8896,3.4220962505255548,26.15173084424449
3862.7803,3.4121160770712584,25.332005135767048
3863.6687,3.4107764819069355,27.36176297512719
3864.5598,3.4155174080441553,25.686779395616007
3865.4487,3.422344054043072,22.29492911890742
3866.34,3.4274951972726146,24.993877860677916
3867.2297,3.4284527971716154,22.234758770221788
3868.1213,3.424157760253163,23.479578378222058
3869.0112,3.4146110645630556,21.20171312355413
3869.9014,3.400698738578885,26.378939423948708
3870.7937,3.384309451075327,23.57367737945956
3871.684,3.3682148029695624,26.882225610420942
3872.577,3.354848559919114,24.54038751946171
3873.4678,3.345483111399945,26.084142608244722
3874.361,3.3395011209899526,23.25905679057037
3875.2524,3.335108985006891,31.669765013686284
3876.1438,3.330353705945394,19.169687044654225
3877.0376,3.3239703468035637,27.98024273365474
3877.9297,3.3152959971264844,33.493745466539714
3878.8237,3.303447029702344,26.436864819594703
3879.716,3.2870858700693715,27.408600462434283
3880.6108,3.264549717984514,23.370677865270565
3881.5037,3.2349613299613513,28.714086003575385
3882.3965,3.1986892621152143,27.864977005448324
3883.2917,3.157935862499768,36.07693228111048
3884.185,3.1170021670492067,30.471659955790862
3885.0808,3.080560062257952,30.822589620629532
3885.9746,3.0527402640252985,28.370906147170363
3886.8706,3.0350411319354245,31.999213469564765
3887.765,3.02650078110757,32.428487707093986
3888.6592,3.024189613154465,34.667953435156385
3889.556,3.0247460495394836,31.7614027836801
3890.4507,3.025571988983495,31.499494789359805
3891.348,3.0256253697645135,38.964566607118925
3892.243,3.0254152429178633,30.217949855135508
3893.1406,3.026329249524385,37.35766185929351
3894.0361,3.0299738176586657,33.40498386839577
3894.932,3.0378784931365943,35.63732517805609
3895.83,3.0508864938810603,35.142541240516586
3896.7263,3.0678036458305065,33.05131786508488
3897.625,3.08537627195465,33.80724160976408
3898.5215,3.100131648487865,28.328656104473193
3899.4207,3.1119080482213963,32.00989470306702
3900.3176,3.124432216378738,46.95364577561574
3901.2148,3.1426390070452666,38.78304635371665
3902.1145,3.1682233579190022,24.517049052336127
3903.0122,3.1973546467219958,24.755259754507037
3903.912,3.2231574378457153,26.786194305341667
3904.8103,3.2398323356817382,29.70299545806805
3905.7107,3.2468181649638,29.103081586308207
3906.6094,3.2489046507442847,23.79148064377039
3907.508,3.253406176400882,23.70239517210703
3908.409,3.2659855673497726,24.237656069146286
3909.308,3.2878211930605636,25.454356256925408
3910.2097,3.3159016834607273,33.82335521718408
3911.1091,3.34517576236007,31.28034273668045
3912.011,3.372282457152732,24.36360316201091
3912.9111,3.39657119819636,23.78113844623485
3913.8113,3.41932581422722,36.9290205830933
3914.7136,3.440874927277689,24.561693718451703
3915.6143,3.459111801554265,25.470728761182198
3916.517,3.4712689294553143,19.219977060673134
3917.4182,3.4762294936661067,23.383139785537246
3918.3215,3.475640913248293,29.14707147024474
3919.223,3.472322222034966,27.848188874254443
3920.1245,3.4682573668701546,23.07029120036938
3921.0286,3.463899187428783,26.648412093254468
3921.9307,3.458874796395682,28.448272994426855
3922.835,3.452867738601991,25.223726458767242
3923.7373,3.4463341844209303,22.944858253221046
3924.642,3.4405457961914574,23.098968784415295
3925.5452,3.437217657057813,28.125968646937
3926.448,3.4373362435846753,27.090389087447623
3927.3535,3.4403033453220435,28.476836199037418
3928.257,3.443974459748606,27.066179346185486
3929.1628,3.445815571585625,25.92480647970993
3930.0667,3.4441158068403355,21.218606648054553
3930.9731,3.4385932760688993,23.253392045862668
3931.8774,3.4302979583995286,27.391502272497775
3932.782,3.4209406688342403,24.57832020939211
3933.6887,3.41207390513768,26.534452151228685
3934.5938,3.404267188197641,25.042501531811837
3935.501,3.396682782065247,19.88554972774567
3936.4062,3.388027593947092,21.486566657531718
