wavl,flux,ivar
3566.9744,2.0730317303038954,196.68810557634367
3567.795,2.0689996817022167,225.68970692112674
3568.6177,2.0661220301304537,200.73373802671102
3569.4385,2.0634359625625325,198.58431676360104
3570.2617,2.059910573376907,200.72765382412382
3571.083,2.0551813305601354,180.19513063445117
3571.9065,2.0496849220315942,202.81176714385117
3572.7283,2.044417800281287,215.46121066609794
3573.55,2.0403143436276356,247.89994191394376
3574.374,2.0378859053259752,211.54936601307548
3575.1963,2.0369524507819583,190.06483507829307
3576.0208,2.036445007865903,234.201827587022
3576.8435,2.0346982914250944,218.63864029016068
3577.6682,2.030315066026513,206.9508649852114
3578.4915,2.0232533148048693,176.32413553298545
3579.3145,2.0151094617133394,216.46995995742998
3580.14,2.0083751172550888,200.64615129652347
3580.9636,2.0051611926219626,244.67071693517232
3581.7893,2.0059262019274597,223.07072910269977
3582.6133,2.0091768990191703,215.0008534422872
3583.4395,2.0121929990735135,231.82544043575837
3584.264,2.012561366523285,201.02808737284084
3585.0884,2.009718086750361,216.2610746943428
3585.915,2.005229172026769,183.95480573793986
3586.74,2.0017483970129533,205.72042771659184
3587.5671,2.0012943875106295,201.92388253547202
3588.3923,2.0042619271157025,186.60079521301955
3589.22,2.0095064960149065,204.40794315825428
3590.0457,2.015094294596058,196.2618069956443
3590.8716,2.019239181890019,192.88924866216172
3591.6995,2.020805810366957,175.26575355705847
3592.526,2.0195687426247013,208.56579296130903
3593.3542,2.016156117420055,228.5926261630089
3594.181,2.0116069600239603,253.9225498049883
3595.0098,2.0066973968914144,236.0064744448059
3595.8367,2.0017567085689967,211.617220155744
3596.6638,1.9968959055811613,198.77011736531352
3597.4934,1.9924635778658166,202.29652483340072
3598.3208,1.9889908105831653,239.60120867069017
3599.1506,1.9865451840587767,265.2317110218863
3599.9788,1.9844056220503374,187.88963790374032
3600.8088,1.9812623078758944,188.6506065368969
3601.6372,1.9760455602085358,171.1116804195965
3602.4678,1.968608572932188,215.44341058940577
3603.2964,1.960087502603887,203.14945788223014
3604.1252,1.9523552520770202,216.48907165430654
3604.9565,1.9471541465438356,232.94024552610315
3605.786,1.9452577802672708,175.36790298720211
3606.6172,1.9462557087790846,243.58745176478791
3607.447,1.9492470912980608,258.7131488092873
3608.2788,1.9534963862030787,214.2494025714801
3609.109,1.9583394651908728,253.4895671649462
3609.9392,1.9627676991670053,200.26272734992307
3610.7717,1.9654007626110166,228.98712939423885
3611.6023,1.9652517663894695,237.42885257521135
3612.435,1.9625211556409263,266.0455327924019
3613.266,1.958452427839855,227.1920813931944
3614.0994,1.9543658161152544,201.18687899981458
3614.9307,1.9509715888543075,246.21278048066887
3615.7625,1.9483472747347206,245.74645710789648
3616.5962,1.9464961916601022,211.39217621743668
3617.4282,1.945615184703724,204.6897694676035
3618.2625,1.9457972513842852,291.8135606522486
3619.0947,1.946558193222916,238.3929113613556
3619.9292,1.9467313512213689,282.4033091459991
3620.762,1.945061307895256,201.1716601337899
3621.595,1.9411842753860589,211.08353071272236
3622.4302,1.9361584581919633,217.94174934826577
3623.2634,1.9319986177445794,255.56830365701686
3624.0989,1.9302155689250775,262.3842329068364
3624.9326,1.9307383092164516,304.8704452072991
3625.7686,1.9319638861798507,209.33883954261236
3626.6028,1.9319469594505716,275.26849885900003
3627.437,1.929605109739142,272.101903441193
3628.2734,1.9250492103825567,202.9372848760957
3629.1082,1.9192090216395377,234.59541543865873
3629.945,1.9130533693622793,212.76358117497344
3630.78,1.907172875740334,203.3153472904459
3631.6174,1.9016223936023051,226.97514290098005
3632.453,1.8964707079993905,259.16231428796203
3633.2883,1.8921441530081107,299.75261062289263
3634.1262,1.8893992996803946,262.70637894824233
3634.9622,1.8887371962433637,235.622894678882
3635.8005,1.8898005307099122,233.18980873450795
3636.637,1.8913381032818026,258.2284925505927
3637.4756,1.891636654149132,230.7246790010278
3638.3123,1.8891871757636418,222.64195426085058
3639.1492,1.8834464203859076,295.9430029776859
3639.9885,1.8753334365215593,275.27067099065766
3640.826,1.8672089860772225,237.63200526973074
3641.6653,1.8618289336660732,284.43119574097153
3642.5032,1.8611732254630273,206.0156628012787
3643.343,1.8653513371611483,301.76408340019077
3644.1812,1.8725084712971571,238.48350676497108
3645.0195,1.8798825097825995,262.79302919362374
3645.86,1.8852573332270006,203.8135193668462
3646.699,1.8877224391071077,242.81320952359016
3647.5398,1.8873717274257897,252.30887559914257
3648.379,1.8844039754358475,263.53549511736156
3649.2202,1.878769174843628,260.0624162991228
3650.0596,1.8705772281770463,251.29153481993333
3650.8994,1.860518036699448,284.3081517233787
3651.7412,1.8500578809437251,259.1526128562716
3652.5813,1.841167825097441,230.75848861624408
3653.4236,1.8354094085423722,325.5813224123365
3654.2642,1.8331877857766061,255.12832822302204
3655.1067,1.8332024544590462,298.0786830389506
3655.9475,1.8330436133475387,229.26502422342855
3656.7886,1.830608190633365,306.6580050968907
3657.6318,1.8254806403610515,265.33264323859925
3658.4734,1.8193200752443817,370.7306420092387
3659.317,1.8147849004225454,239.53641220921253
3660.1587,1.8140580087748441,255.83048308037723
3661.003,1.817713078295249,252.8684107487936
3661.845,1.8246078105340722,277.42372738329215
3662.6875,1.8326180226870035,275.8025238486636
3663.532,1.8395587738265275,320.93944825867527
3664.3748,1.8438568584049477,235.01988478640058
3665.2197,1.8448305546651906,315.9669913514225
3666.063,1.8423994325792945,253.15717407334574
3666.9084,1.8368634759015399,238.87320955018146
3667.752,1.828968708784295,261.92156032993114
3668.5977,1.8199314956428827,256.8048596426769
3669.4417,1.811403451956028,299.82226698949717
3670.286,1.8047129032429161,273.0204652029201
3671.132,1.8002682839534208,268.9348165582198
3671.9768,1.797462904506021,280.28069479006064
3672.8235,1.7952987709097856,255.21146760425088
3673.6685,1.7933679921995553,315.6098856847139
3674.5156,1.7920846503526053,285.5141078474537
3675.3608,1.7920061742000775,275.8793739467479
3676.2063,1.7928536630747334,294.5589938123363
3677.0542,1.7933991887785137,298.38411181377035
3677.9,1.792344222112374,283.2850477720842
3678.748,1.7893394006206338,263.6934987637736
3679.5945,1.7852012497367948,320.0539358112839
3680.4429,1.7811818172462703,357.85987955597267
3681.2896,1.7781965790344667,274.0820388713406
3682.1365,1.776420266351586,250.33391086109935
3682.9856,1.7754277015279916,293.382963856797
3683.8328,1.7743743620555525,277.341250629387
3684.6824,1.7722238239622756,249.28697749645755
3685.53,1.7683247059443314,304.06822878856906
3686.38,1.762974223246858,309.67013055214704
3687.2278,1.7574856946717357,336.04601707036755
3688.0762,1.7532909925104052,332.66068344868563
3688.9265,1.7510623345862146,263.25726312093053
3689.7751,1.750402666870194,265.29134757355746
3690.626,1.7502314803978039,249.56199557121067
3691.475,1.7495351841692188,276.7655793704537
3692.3264,1.7479785471610494,242.3927101144039
3693.1758,1.7460996269258533,324.0616006730651
3694.0254,1.744853330267667,277.79289111001737
3694.8772,1.7448358161829196,277.2638676739035
3695.7273,1.7456933823137655,236.7932280912909
3696.5793,1.7461733205256185,360.8682530066369
3697.43,1.744814961093226,324.8361670105492
3698.2825,1.7409173238947389,290.32255428812726
3699.1333,1.7352266788566408,271.0255229314219
3699.9841,1.7296634750000466,282.2665528435313
3700.8374,1.7262141916543092,336.4537683444803
3701.6887,1.7256664231031666,279.57640098343643
3702.5425,1.7271150073338333,313.9134485243396
3703.3943,1.7287867731765882,331.66707828515626
3704.2483,1.7294342394084987,295.32509212894
3705.1003,1.7290748152426119,305.1234631364564
3705.9526,1.7284934126909774,304.13902564347194
3706.8074,1.7280348212915955,299.0653663572272
3707.66,1.7270032203035277,252.2997307985452
3708.515,1.7243212807458659,221.71720950597012
3709.3682,1.7198509708685445,285.8344409543174
3710.2234,1.714889456824492,342.7038306190531
3711.0771,1.7114330236346913,314.63432465115875
3711.9307,1.7107167146327595,321.35954069330205
3712.7866,1.7124803671600528,333.86221612986833
3713.6409,1.7152253535981765,319.35247739955736
3714.4973,1.7171641558293282,233.68116769753826
3715.3518,1.7170810802471985,268.2760861110732
3716.2085,1.7147824355182053,339.4813083153244
3717.0635,1.7109550688352333,354.8741177446828
3717.9185,1.7066444026172227,281.9613966250614
3718.776,1.7027777542166984,295.5210142073981
3719.6313,1.6999275616319698,303.52311220945444
3720.489,1.69816419597437,380.74463020213625
3721.345,1.6972402752110034,294.424248134524
3722.2031,1.6968633591829694,334.06116514901055
3723.0593,1.6969267361014493,332.2993381754737
3723.9158,1.6973429824183317,310.9357395387972
3724.7747,1.6976907841438749,360.1361394973412
3725.6316,1.6971378339106518,322.41815759590673
3726.4905,1.6949065487977624,303.89329950627206
3727.348,1.6909606571667775,309.13056991390476
3728.2073,1.686187051842738,320.55546638812547
3729.065,1.6818743196176034,363.9709371248989
3729.9229,1.6787211334433083,317.5315505062766
3730.783,1.676485478282607,318.8290355746978
3731.6414,1.674495775616166,305.0227471656394
3732.5017,1.6724169482025333,335.8659489133958
3733.3604,1.6705324395201284,315.45275172918394
3734.2214,1.6692903681973192,335.3322919282804
3735.0803,1.6688678963060248,327.68451510400695
3735.9417,1.669093220545664,304.2540433790661
3736.8013,1.6696348115252484,308.5313206207903
3737.661,1.670036733345148,316.0010010073538
3738.5227,1.6696283087102348,308.4786366774592
3739.3828,1.6676499770738473,312.51691089632305
3740.245,1.6636848055783011,303.5943696604169
3741.1055,1.6581198426905965,347.9802882434024
3741.9683,1.6520368605239188,331.6716902962174
3742.829,1.646848784299335,353.81676147613655
3743.69,1.6437035837877776,314.67819757895984
3744.5532,1.643254799881269,297.73807852172786
3745.4148,1.6454026106262385,349.76961703149516
3746.2786,1.6490507672883228,317.14686286587397
3747.1404,1.6522056300572245,303.91530256131836
3748.0044,1.6528108951516305,301.21324981033683
3748.8667,1.649757970863665,280.978357357333
3749.729,1.6434121488130595,305.13078309065065
3750.5938,1.6351955352227627,232.40805065446065
3751.4565,1.6268997633304765,401.08954984079577
3752.3215,1.6199829104273342,352.5803859952884
3753.1848,1.615481932719035,360.55055304148186
3754.0503,1.6137027921714633,310.9631604808014
3754.9138,1.614137904384055,319.1885227130216
3755.7776,1.6156595536827698,340.46323107050273
3756.6438,1.6172362551634252,324.43852520076496
3757.508,1.6184909088893442,348.84181536992645
3758.3745,1.6196589705371889,400.3866345827136
3759.239,1.6210127682537172,341.860055469224
3760.106,1.6224540398009544,325.46787722806084
3760.971,1.6234467400825345,377.13194079206903
3761.8362,1.6232748532272585,304.12502134028017
3762.7036,1.6213913075161936,322.99200267713576
3763.5693,1.6178206207012438,325.0291510348952
3764.437,1.6132015610318693,360.4932032245706
3765.3032,1.608429047136881,298.1693127001885
3766.1714,1.604010287820708,349.6428792655382
3767.0378,1.5999487523235634,349.9110853903376
3767.9043,1.59601774617508,345.19233090312736
3768.7732,1.5922224954926414,324.923931492731
3769.6401,1.5889261197179347,337.23525430935723
3770.5095,1.586544318459958,404.9758901775406
3771.377,1.5853520598960218,359.2352938297845
3772.2466,1.5853808027677139,336.06038775793996
3773.1145,1.5865091465019163,337.8897794581504
3773.9824,1.5884911268512618,304.81561580178555
3774.8528,1.5909643989224596,314.50816167458737
3775.721,1.593451087673967,278.88163923702905
3776.5918,1.5954546083017076,375.6840870633869
3777.4604,1.5964414424519806,360.99860186350736
3778.3315,1.5959419933862997,390.30738340319016
3779.201,1.5936915329816974,332.7760143900577
3780.0703,1.5898255999854294,432.18075580684126
3780.942,1.58493500361559,340.87586113099957
3781.8118,1.5799530861445834,330.94756981524057
3782.6838,1.5757138801017239,409.5487825544025
3783.554,1.5726859764683185,276.82281674400554
3784.4265,1.5708223881039358,352.7154311079189
3785.297,1.5698146651900398,386.8365237535591
3786.168,1.5692465049325797,259.4645035325064
3787.041,1.5686448128449786,347.56602975197706
3787.912,1.5675059762129744,340.6628156696521
3788.7856,1.565454336101324,345.87958347182513
3789.6572,1.562434579532216,340.8660837876009
3790.531,1.5585953851003433,356.30749821718365
3791.403,1.5540897957521895,348.4486865376744
3792.2754,1.5488865645941112,406.80213414654804
3793.15,1.542940846688345,390.4027909811295
3794.0225,1.536535909733213,352.3190310483872
3794.8972,1.5303166790852551,382.9402260726803
3795.7703,1.5251768404235595,410.8210667761603
3796.6455,1.5216716641799,396.18582039854266
3797.519,1.519746394127101,392.2595983316586
3798.3926,1.5187850526208755,401.635714213855
3799.2686,1.5181529027968428,420.1460714627356
3800.1426,1.51764402137895,323.24874829165793
3801.0188,1.517506876895536,423.96383334741125
3801.8933,1.518192294870775,324.9404827979982
3802.77,1.520161752897235,376.10851701017407
3803.6448,1.523803430236193,486.17854612383053
3804.522,1.5292885842216986,360.09760537134866
3805.3972,1.536144412120545,402.3158476884444
3806.2727,1.5432045604631233,383.79535683883955
3807.1504,1.5489999854399303,352.53315400050417
3808.0261,1.5525323670320805,309.79985404027576
3808.9043,1.553928150914933,359.7446259089843
3809.7805,1.5542281924686299,347.1483068141766
3810.659,1.5547015193490776,342.75779107601534
3811.5356,1.5560568246762638,353.18223813928427
3812.4126,1.5581266465490937,438.36349029455744
3813.2917,1.5601255702197723,317.49736724357024
3814.169,1.5612360473705835,385.6676196616145
3815.0483,1.561105138776289,388.2701033680173
3815.926,1.5597799533857184,436.74538977921617
3816.806,1.5572867354046434,383.99075932214697
3817.684,1.5534334288100766,313.267135626269
3818.5623,1.5480767139034164,346.1741895816727
3819.4429,1.5415681508485126,361.8349065043776
3820.3215,1.53481834256769,449.649935428103
3821.2024,1.5286577334993086,334.6746912613743
3822.0815,1.5234575302120599,340.20642691191927
3822.963,1.519039445808547,371.3060315922539
3823.8423,1.5151551747667897,346.02805794548766
3824.722,1.5116283942443098,367.18149391826364
3825.604,1.5081727321834824,366.4250222883107
3826.4841,1.5040308485893805,362.7290129185434
3827.3665,1.4978752010027385,367.8052708991662
3828.2468,1.4884599620968606,404.9914741341476
3829.1296,1.4753097006830995,382.2251148734429
3830.0105,1.4593111520975377,441.09214550005504
3830.8916,1.442082178889202,379.63949033430026
3831.7751,1.4251506146986415,500.5622439996189
3832.6565,1.409451098260516,425.56741307448556
3833.5403,1.3950745492793228,401.47335238455395
3834.4224,1.3821830743817431,465.05519477703086
3835.3064,1.3713940010817547,379.9375912212677
3836.1887,1.3642121791292061,430.40979464934185
3837.0713,1.362295063975194,584.8209815859685
3837.956,1.366416747042073,590.2445815231886
3838.839,1.375568135045992,566.573421492385
3839.7244,1.3874396705965495,348.39183120071016
3840.6077,1.3997025535284235,482.90518115688025
3841.4932,1.411395313225158,457.49577285413477
3842.377,1.4226846627252745,403.55276994518454
3843.261,1.4341434785719793,454.6465086156241
3844.1472,1.445932164959395,398.23700755550396
3845.0315,1.4576936808623209,375.0978124884272
3845.9182,1.4691575946949331,435.6920244321677
3846.803,1.4802169155279423,395.889746991501
3847.69,1.4911081695635109,418.74835649570514
3848.5752,1.5019369822264694,392.5346889526762
3849.4604,1.5126457038820953,373.7334747611802
3850.3481,1.5229851537568975,363.0458117641517
3851.234,1.5326064186161812,359.84197576677803
3852.122,1.5413354187595436,373.66272288737156
3853.0083,1.5489280007261343,423.8252582630598
3853.8967,1.5551870614109062,328.42398919463267
3854.7832,1.5599013979481227,352.3708263414965
3855.6702,1.5630635749126707,338.8154892360841
3856.559,1.5647765534037261,366.06410985856223
3857.4463,1.5651846316485785,374.8571423635114
3858.336,1.5645802868170657,342.77773606233296
3859.2234,1.5635824141653418,344.06434844682116
3860.1135,1.5630245115684582,370.67088026161343
3861.0015,1.563443914681141,426.9420416030134
3861.8896,1.5645880091315056,349.31731736352833
3862.7803,1.5655479930872156,352.49059818876185
3863.6687,1.5654448413513569,337.07184881249475
3864.5598,1.5640778753725693,368.8957733499035
3865.4487,1.5618888329527834,382.17194433711836
3866.34,1.5592209293718213,323.7062109349543
3867.2297,1.5556177033638319,332.85473814643274
3868.1213,1.5497660399037716,358.2270117536979
3869.0112,1.5404515878931784,289.23645285912954
3869.9014,1.527516084494281,375.03592764919966
3870.7937,1.5120675768611482,404.24511952775464
3871.684,1.4958241415807914,412.89275109732864
3872.577,1.4798759439713505,449.6616140647765
3873.4678,1.464654721116657,369.5208786648307
3874.361,1.449912101919406,392.0155042259737
3875.2524,1.4353599518031313,456.2582481398014
3876.1438,1.4205139224107561,353.94109858096306
3877.0376,1.4048195326973159,391.6845732216981
3877.9297,1.3879669848844716,378.26982700535785
3878.8237,1.3698992843987614,424.93242036846834
3879.716,1.3511585179918608,433.2952507851338
3880.6108,1.3322955490950186,458.3384106465478
3881.5037,1.3137645432582776,529.4071058509599
3882.3965,1.295388218735058,508.8394168184659
3883.2917,1.276648802480467,594.6986136716725
3884.185,1.2572065761573383,481.4483860875572
3885.0808,1.2368434381834055,602.542408664398
3885.9746,1.215940588474684,575.5991312490755
3886.8706,1.1951118927395892,613.4154018750479
3887.765,1.175624684012976,668.131116932216
3888.6592,1.1590399003898086,637.07050620763
3889.556,1.1470937137880937,702.7079655261279
3890.4507,1.1413286962183766,705.1918665055024
3891.348,1.142551544157763,718.4278248996758
3892.243,1.1508312166909564,696.3098701492056
3893.1406,1.1655816655137705,722.4577617956506
3894.0361,1.1854019140184657,592.4252223034263
3894.932,1.208384057326569,527.8450524246703
3895.83,1.2323529547449161,726.7790702175148
3896.7263,1.2552194101494867,500.18458534486706
3897.625,1.275862640285676,506.79967587768766
3898.5215,1.2938708462281234,563.7454593063042
3899.4207,1.3099128744142354,448.35764233661683
3900.3176,1.325142778792999,424.92715675521595
3901.2148,1.341054473759335,474.4981483577583
3902.1145,1.3586244587152156,428.08205603439507
3903.0122,1.37759664517966,429.605955069331
3903.912,1.3968668451089674,414.1054735792763
3904.8103,1.414928458862383,436.59458971822966
3905.7107,1.4310731456218462,433.40421542431665
3906.6094,1.4453976098495545,435.1395316184045
3907.508,1.4587278455314494,429.2510526304711
3908.409,1.472001696569022,381.2469377585857
3909.308,1.4858939890743033,403.4353013093756
3910.2097,1.5009389917796108,397.88898084854816
3911.1091,1.5170891009238383,427.6598767747568
3912.011,1.533736431546948,371.48842949759035
3912.9111,1.5494030469185105,356.5237603883226
3913.8113,1.562625499816985,386.4025930916292
3914.7136,1.5727494353932696,365.2330795720211
3915.6143,1.5803520534117605,375.17186605312014
3916.517,1.5870082346643932,374.19826466942453
3917.4182,1.594202338658842,387.73906591052986
3918.3215,1.6026261966576203,392.78021941602645
3919.223,1.6118045659414209,292.3035656167459
3920.1245,1.6206135166505247,311.9830107503258
3921.0286,1.6279225133885808,328.99864574419945
3921.9307,1.6331518688581483,314.50400347369776
3922.835,1.6365711993961884,311.2630754437115
3923.7373,1.6388834922705122,325.47538561251645
3924.642,1.6407121895277839,309.6397739440806
3925.5452,1.6421279173935441,308.31414890987736
3926.448,1.6427150672803121,305.6549957275753
3927.3535,1.641963959601537,271.36033231573816
3928.257,1.6397176814881604,333.54408601025074
3929.1628,1.6362855245409786,300.6447895266176
3930.0667,1.632250004828678,334.597187347045
3930.9731,1.6280655387424499,334.04343035942657
3931.8774,1.6240065454550856,313.47158330400384
3932.782,1.6202288729343675,333.1662888702385
3933.6887,1.6169169679648345,302.764346859883
