wavl,flux,ivar
3566.9744,5.479297399716375,10.940670785362967
3567.795,5.469813362636888,11.416306292910702
3568.6177,5.460000105944974,7.811769248839737
3569.4385,5.45187612903302,17.838517206314126
3570.2617,5.448736916831842,13.258910571679007
3571.083,5.451880469172433,10.908111836829589
3571.9065,5.4578778979307785,11.258719885838184
3572.7283,5.459169794652565,10.236610138521282
3573.55,5.448305525780041,15.164547964083589
3574.374,5.422502499347431,12.359517135143307
3575.1963,5.385513137172092,17.71046192017794
3576.0208,5.344620846582292,11.187446342324195
3576.8435,5.307154739965336,11.080066309054125
3577.6682,5.277284198665445,12.085607173390432
3578.4915,5.2564991867656445,12.667101023674064
3579.3145,5.243734088485112,9.20168793857318
3580.14,5.2357282785422825,12.488979847603257
3580.9636,5.227766243397591,16.739323261207147
3581.7893,5.21642191004643,11.222492115509825
3582.6133,5.203612817725177,11.556605444539613
3583.4395,5.197115617761726,15.223984544807205
3584.264,5.205924087357362,18.731193048431983
3585.0884,5.233125233048672,14.889453532937479
3585.915,5.273143312350628,12.74430853081704
3586.74,5.314702059393652,11.587153621937855
3587.5671,5.348023168919951,12.563433609462392
3588.3923,5.368683603047353,11.85780881959453
3589.22,5.378331419136988,11.445174248672748
3590.0457,5.3808123422522245,10.378602056871117
3590.8716,5.378075199844792,11.647312003638996
3591.6995,5.367852703488994,9.718842042468186
3592.526,5.345925066014589,11.767512095007827
3593.3542,5.311372896266596,11.424649179691622
3594.181,5.270863166870305,12.042388883429286
3595.0098,5.235299426007592,17.202682066787997
3595.8367,5.212040394515827,14.493380464975626
3596.6638,5.198521528754868,13.519076014260651
3597.4934,5.186257263998442,11.544854389838783
3598.3208,5.169940823243192,14.288884170042886
3599.1506,5.151180965241505,12.204793041410143
3599.9788,5.134042924509553,9.896016753207691
3600.8088,5.118737428160722,8.678970972473424
3601.6372,5.1028911605920735,17.487592319784945
3602.4678,5.087229586836283,14.117252208406711
3603.2964,5.078295646268643,14.091834474395782
3604.1252,5.083169150847687,16.88214480325042
3604.9565,5.102410659954626,12.898296697031274
3605.786,5.127917851318101,11.991140993740661
3606.6172,5.149110033660693,12.767819676858466
3607.447,5.161002718099609,12.05920742475252
3608.2788,5.168075574842132,15.106913715316631
3609.109,5.179327681616295,10.740308132456784
3609.9392,5.199344992867952,11.660741240545674
3610.7717,5.223098602743192,9.752593935536146
3611.6023,5.239306815414306,9.613439175330988
3612.435,5.239867251834789,12.760498380247489
3613.266,5.225674629105194,11.97292046875709
3614.0994,5.204824344591551,10.610259020884493
3614.9307,5.186033590092651,10.573163496229926
3615.7625,5.1730012962451,11.288399740972501
3616.5962,5.164115888156886,18.152421203589164
3617.4282,5.155663982269389,14.853776949699782
3618.2625,5.145599489268701,11.781276842983246
3619.0947,5.135432434822885,14.144634540604098
3619.9292,5.1284303074199755,13.248758259511906
3620.762,5.126439549558087,9.905496284356204
3621.595,5.1277671356534675,12.228918472563553
3622.4302,5.128166295724218,15.39505359385086
3623.2634,5.123433092684475,12.522800964377877
3624.0989,5.1117215386951775,15.118346144431884
3624.9326,5.094737716003498,13.331785437946074
3625.7686,5.076961738119612,12.433239447800712
3626.6028,5.063396632619875,15.810007638429871
3627.437,5.056008801811038,10.57677198538461
3628.2734,5.052658912833138,16.36914562474769
3629.1082,5.049174458165303,10.479000385689682
3629.945,5.042440188300633,12.779520487192645
3630.78,5.031597656125335,12.898028894407723
3631.6174,5.01692897156787,15.4382307524977
3632.453,4.999665570357499,17.59764986755287
3633.2883,4.98296132441526,15.012243235872553
3634.1262,4.972502549751784,15.374093696008376
3634.9622,4.973658147243965,15.119692354913292
3635.8005,4.986319352046054,14.348586533182965
3636.637,5.002894976584989,18.394522561649932
3637.4756,5.012885696185644,11.261912360952923
3638.3123,5.010293354894382,16.233664024332406
3639.1492,4.997615853835419,18.804787288757712
3639.9885,4.982214720211881,13.110157541032116
3640.826,4.969445085456095,11.917484937817209
3641.6653,4.958465017789334,10.266368054497567
3642.5032,4.9449453528021605,12.248944852577216
3643.343,4.926667475073891,22.83194364182331
3644.1812,4.907027441610794,13.02273229310513
3645.0195,4.892267903374053,12.070679763118749
3645.86,4.885881560658971,13.665140874769106
3646.699,4.885330316733247,14.250049364597507
3647.5398,4.884351498217205,13.891751291780945
3648.379,4.878520489784054,14.508670559243006
3649.2202,4.868506792955848,16.850514017229663
3650.0596,4.859122527064709,17.87980199406598
3650.8994,4.8558600215383665,13.961033041174169
3651.7412,4.8623351608402885,31.994549122664697
3652.5813,4.8787463046543165,17.324024728039888
3653.4236,4.90143744036758,21.305273725786638
3654.2642,4.92323315827899,17.151668973328427
3655.1067,4.936210661602595,12.892618200014477
3655.9475,4.934847731680282,14.61847966632798
3656.7886,4.918738428107539,14.14371662087345
3657.6318,4.892446544863704,16.49581596246395
3658.4734,4.863446171300436,20.952646010164422
3659.317,4.838182143003206,18.5003894571238
3660.1587,4.819952106456601,16.687341034693002
3661.003,4.808477370884562,14.429687516242314
3661.845,4.8021512783655105,14.894326220034028
3662.6875,4.799182559858411,16.52729162539895
3663.532,4.797292246857612,19.652362482862127
3664.3748,4.793083915322311,16.83225930872745
3665.2197,4.783594128005506,16.42226416333698
3666.063,4.769370247509184,15.547594227925437
3666.9084,4.755105245551595,17.49892949824014
3667.752,4.746830778221196,16.367848535241485
3668.5977,4.747518531492717,17.48152706798067
3669.4417,4.75558578784809,14.943220461827117
3670.286,4.7662846469588676,15.285230266158132
3671.132,4.773974318860468,21.735740515539533
3671.9768,4.773648553146273,12.55714344557907
3672.8235,4.762389894970864,12.991799889601253
3673.6685,4.740842554005668,15.876642709314158
3674.5156,4.7132559593095,14.884442854159492
3675.3608,4.685798806918418,15.29768206345892
3676.2063,4.662967938662056,13.825340877400178
3677.0542,4.646193194264443,15.612447031559759
3677.9,4.634827324311875,17.904854708063503
3678.748,4.627847891433751,20.493764756613018
3679.5945,4.62512606225492,21.366100804560624
3680.4429,4.6266143769255175,13.984010152639753
3681.2896,4.630925489782683,16.38194033402549
3682.1365,4.634692506957348,12.410439301383482
3682.9856,4.633991760886504,14.821298142525551
3683.8328,4.627167753107249,17.09348591324506
3684.6824,4.616324587477028,15.489144537325322
3685.53,4.605884373476397,18.139803346881433
3686.38,4.599125983177467,15.343529844393133
3687.2278,4.59655662648745,12.568030645019682
3688.0762,4.5968778143671845,14.545422348926836
3688.9265,4.599331889304715,14.308420363145872
3689.7751,4.604492647708883,21.204055531805647
3690.626,4.613101482152276,16.71779333390261
3691.475,4.624221066739238,14.735728736736723
3692.3264,4.634837109610313,15.210927700020223
3693.1758,4.64087762715134,17.37199949134538
3694.0254,4.63981217555474,12.352140905753156
3694.8772,4.632723374907559,13.088096299296021
3695.7273,4.624280298912659,18.27373383145852
3696.5793,4.619216387174856,15.653983607543651
3697.43,4.618334525403613,20.180224061185115
3698.2825,4.617825962089097,19.29087508857573
3699.1333,4.61305328774876,13.560971139751278
3699.9841,4.602655244469644,17.20034031361514
3700.8374,4.588909727349835,14.918666845411783
3701.6887,4.575047982505536,19.036569560343608
3702.5425,4.562614874637669,15.94744172117857
3703.3943,4.551953348987134,19.503744809942717
3704.2483,4.543411841195157,17.24824678297667
3705.1003,4.537935915351017,18.104616066609783
3705.9526,4.535977870991343,18.76327483170186
3706.8074,4.536934041822734,15.299871112083013
3707.66,4.539701149478087,15.944958881285354
3708.515,4.54367544814965,15.890873216584206
3709.3682,4.548543844975242,20.812375794436917
3710.2234,4.553123426706501,17.31909740253785
3711.0771,4.554671155826838,17.000828684116897
3711.9307,4.549972422828918,15.676917934547758
3712.7866,4.53684791040144,16.395211051335938
3713.6409,4.51502388103632,21.164570131931466
3714.4973,4.48589316199835,15.045339990880885
3715.3518,4.45318171433117,17.285260637635563
3716.2085,4.42231862692038,13.102644388557652
3717.0635,4.399082545789829,12.613240895240228
3717.9185,4.386272434865834,16.018671920451006
3718.776,4.383266008516846,17.717592047053053
3719.6313,4.388161393495078,18.407990511280435
3720.489,4.399759162000483,23.501821974620288
3721.345,4.416460290889853,16.171920289979376
3722.2031,4.434109315988036,18.21393979808206
3723.0593,4.446067514697797,11.768967330118972
3723.9158,4.447293448807955,17.203899098579353
3724.7747,4.437905526176723,26.59713113571634
3725.6316,4.423675877656645,15.926538688945739
3726.4905,4.412411324527921,18.688069811974675
3727.348,4.40935600925358,17.58584275411887
3728.2073,4.4139096690684525,20.493005566119194
3729.065,4.419902808844974,20.29051472531694
3729.9229,4.418943161854346,17.50220174480491
3730.783,4.404655552692135,15.33589128290385
3731.6414,4.376030175175308,16.984941692906393
3732.5017,4.338085165347914,18.220996084162234
3733.3604,4.300969085205782,14.216296772650427
3734.2214,4.275881095802309,18.526438511975098
3735.0803,4.270383293934052,17.3876652122837
3735.9417,4.283331797509944,19.4289352801284
3736.8013,4.3050088400158195,12.739625925494076
3737.661,4.323268605064333,17.3464549119274
3738.5227,4.3312203415171515,15.735303758544987
3739.3828,4.330238049148986,22.41731221353104
3740.245,4.326740303420031,17.261628639215107
3741.1055,4.326544390808064,18.294264669146486
3741.9683,4.331518354813459,22.473504837634916
3742.829,4.339473412521666,19.57161134405457
3743.69,4.346057611846889,23.403554764380843
3744.5532,4.347106212552084,20.50640085732978
3745.4148,4.340482658307782,14.533882865144726
3746.2786,4.326511915490268,16.941002679694222
3747.1404,4.307500474424764,17.71982183586443
3748.0044,4.287062169196061,17.05022894000894
3748.8667,4.270254564879457,22.607467349201947
3749.729,4.261850687793427,19.55239538624031
3750.5938,4.26360772681886,22.272037883689705
3751.4565,4.272300804445908,16.445286557534693
3752.3215,4.281525470364325,13.514457977655299
3753.1848,4.2857316194934905,22.65530052580828
3754.0503,4.282887174954148,18.51772442143581
3754.9138,4.273887340925462,19.7525759637732
3755.7776,4.261105236311709,19.855994833917443
3756.6438,4.248022067437996,15.770164425843085
3757.508,4.239145256293549,21.582906965149547
3758.3745,4.238183481264345,18.506921433020157
3759.239,4.245855753251589,21.709255751698553
3760.106,4.258981993772086,17.586952469529106
3760.971,4.271907015476278,18.202117751696797
3761.8362,4.279616867244517,17.8309914023207
3762.7036,4.279771951772919,18.262488643630803
3763.5693,4.2728608944575575,39.057054972844156
3764.437,4.260761899215916,19.432622011661348
3765.3032,4.24560487138382,20.811905551664903
3766.1714,4.229378735105341,22.126050603612875
3767.0378,4.214187593829642,21.056674823063066
3767.9043,4.201529181742964,21.94889483141647
3768.7732,4.191883834762235,16.789484400602284
3769.6401,4.185053311925653,20.818037398462852
3770.5095,4.1807245401280415,17.790795662353947
3771.377,4.178560775395983,19.77858504204241
3772.2466,4.176947103925952,17.455379508390994
3773.1145,4.1722594053736035,18.151824570903514
3773.9824,4.160299578077439,24.921170970780572
3774.8528,4.1396461497496,21.122037832642675
3775.721,4.114236643942317,19.93168004666832
3776.5918,4.091357353363741,25.59628322292302
3777.4604,4.077515905965134,20.900315547335634
3778.3315,4.074539861278552,28.49867402973285
3779.201,4.080278492882183,25.419391743964287
3780.0703,4.091314997511813,21.95201426547009
3780.942,4.105065445542647,21.068159836918856
3781.8118,4.119460503672168,22.545416483517354
3782.6838,4.132066699587673,19.019949045043973
3783.554,4.139758911902382,17.017928011395554
3784.4265,4.140428656121629,22.805377065769758
3785.297,4.134543050174632,24.641995983262618
3786.168,4.125011435797295,18.36313937852156
3787.041,4.114707800671381,22.610724692970116
3787.912,4.103910380033951,18.619153012313006
3788.7856,4.089858827474597,20.94958582251327
3789.6572,4.069839988589473,20.053377288852012
3790.531,4.044496440102714,20.77921988617213
3791.403,4.019119148592381,24.383167352179864
3792.2754,4.000287836107753,28.03640052855445
3793.15,3.9915183282678246,20.763740200672895
3794.0225,3.9907565261751032,22.73157585549115
3794.8972,3.99179173488871,21.763121284607195
3795.7703,3.988748523570291,20.790715065044736
3796.6455,3.980109274313407,22.705632650486233
3797.519,3.9695554771292536,21.427622804666882
3798.3926,3.962888930380675,22.292016921292344
3799.2686,3.9637053934440227,20.373684704350715
3800.1426,3.9706741778445798,25.274546566795117
3801.0188,3.978426384403556,26.506694142558462
3801.8933,3.981235755719776,18.94376972421807
3802.77,3.97701724695758,21.850923733142075
3803.6448,3.96859289921156,21.20374101922326
3804.522,3.96174081712233,19.505454187495108
3805.3972,3.961964412814606,19.16952967539522
3806.2727,3.9716705364711977,24.9057715699575
3807.1504,3.9892751508362614,20.813003004602898
3808.0261,4.009886640425834,16.63591747529279
3808.9043,4.028065449931586,24.33859418281558
3809.7805,4.04017197151581,20.31393339443856
3810.659,4.045946286506634,22.951570188803338
3811.5356,4.047451488227972,19.652086708044763
3812.4126,4.047213481071512,22.737694611392154
3813.2917,4.046460751350665,19.322401138491276
3814.169,4.0446502488957154,24.208610032839584
3815.0483,4.0402635543352154,19.265783258462605
3815.926,4.032460091466861,21.073395125723813
3816.806,4.0222906692256455,16.64499539600608
3817.684,4.012669003598893,22.535325901687997
3818.5623,4.0064408303065,22.87000772280887
3819.4429,4.004306709640782,20.5956565113983
3820.3215,4.003893602765034,18.802454512143605
3821.2024,4.000621020298009,23.47757200673367
3822.0815,3.989832312811132,21.79715532918168
3822.963,3.968921606210795,19.987889120887047
3823.8423,3.939125309029612,20.852620474243853
3824.722,3.9052886341782145,27.069103661848423
3825.604,3.874050729543982,25.32656048842506
3826.4841,3.8509553656779416,22.73597073260094
3827.3665,3.8376138611492725,22.51958495427339
3828.2468,3.832038770288101,28.70559535505051
3829.1296,3.829918277206822,27.54004613521524
3830.0105,3.826453854527916,21.254908588372672
3830.8916,3.8175796006617073,21.953709345375167
3831.7751,3.8010907194821444,19.668409618222103
3832.6565,3.7777134600010918,32.3179783745094
3833.5403,3.750772748463708,23.966114939204964
3834.4224,3.725703040747835,27.27970920893432
3835.3064,3.7082392672049522,24.471133496116344
3836.1887,3.7031635264816187,26.662770038195056
3837.0713,3.7122099444979484,24.176512496063623
3837.956,3.7332312837206167,22.580240178439826
3838.839,3.7607605124024617,23.901405174069513
3839.7244,3.7887548492916507,23.167415703103554
3840.6077,3.8122226572894404,24.04710513479981
3841.4932,3.828241751499025,17.734326262974026
3842.377,3.835403240542765,22.876960737185886
3843.261,3.834329567146834,19.735925652339052
3844.1472,3.8276333597740035,21.992202104249603
3845.0315,3.8190500338298414,23.99092715866371
3845.9182,3.8116529333186433,23.30251479231945
3846.803,3.8072018057402794,26.072930159265525
3847.69,3.806541989367518,26.64497171754425
3848.5752,3.8103828282818863,21.680211680546353
3849.4604,3.819143535766091,23.42811009181981
3850.3481,3.8323787766054522,26.909631925286362
3851.234,3.8483767134661244,23.75222615626768
3852.122,3.864923021773452,20.46094456874325
3853.0083,3.8798834120333647,22.936165368026394
3853.8967,3.891957573467028,21.547782275741955
3854.7832,3.900115126702666,24.857212170590714
3855.6702,3.9033669080711024,22.37085422499781
3856.559,3.901019880336998,24.991437034182454
3857.4463,3.8940713522456583,21.76057908202146
3858.336,3.885977105240945,22.86164537878386
3859.2234,3.881491293184296,23.17344807899896
3860.1135,3.8836518444228156,19.08976655801019
3861.0015,3.8918600573045703,20.518530344419712
3861.8896,3.9026604471515816,25.17826864423069
3862.7803,3.912128315092308,22.84684298170567
3863.6687,3.917264146528074,23.857872934665156
3864.5598,3.9160250300096875,24.49842633041885
3865.4487,3.9069595419619243,19.907964121249563
3866.34,3.889801375742624,23.60874987124579
3867.2297,3.866421512655944,21.77876642974478
3868.1213,3.8402237918179174,25.3763541411056
3869.0112,3.815053054224624,19.655841313240032
3869.9014,3.793236456541587,28.76778412460267
3870.7937,3.7747590853445443,24.83109792588211
3871.684,3.757248800344252,21.118145125583506
3872.577,3.7368120330684484,30.878454737527164
3873.4678,3.71067383080726,21.5295843791457
3874.361,3.678745533501849,25.691245398865878
3875.2524,3.644168640711162,32.83216972753026
3876.1438,3.6108527107702546,31.49591888936303
3877.0376,3.581551094101733,28.632198912769237
3877.9297,3.5571868787249867,24.496148761836615
3878.8237,3.5364802157105633,35.337046587653546
3879.716,3.516756693425962,28.528840713336116
3880.6108,3.494330342240763,35.344266644704014
3881.5037,3.466277258140704,24.132147558258858
3882.3965,3.43148142476561,30.92727945195228
3883.2917,3.3912247265817044,30.9305882162432
3884.185,3.3489910955497826,32.83721048054024
3885.0808,3.3085736796689624,40.450388805597505
3885.9746,3.2737225471520914,35.02538268972963
3886.8706,3.246686950320469,47.940168121708766
3887.765,3.2285511825723208,35.28487619348954
3888.6592,3.218746818873736,27.24101633660308
3889.556,3.2155216221558955,30.427003102856865
3890.4507,3.216505276346378,32.76136015138381
3891.348,3.2196275586552376,23.872739894218746
3892.243,3.2240608368343318,34.39932361927327
3893.1406,3.2307879120720844,32.24847221491367
3894.0361,3.2423419305895758,28.625332621120968
3894.932,3.2620047366189695,31.30385440929131
3895.83,3.292271452177485,34.902190300699985
3896.7263,3.3329616002536198,33.95604633684896
3897.625,3.381137635013287,23.181733805933977
3898.5215,3.431105449412909,31.37392275977618
3899.4207,3.4772500052251396,29.06061609094767
3900.3176,3.5153176795228385,24.627355347637717
3901.2148,3.5451182093195035,22.073546440061655
3902.1145,3.5702595680114095,25.18466501491419
3903.0122,3.595876626074674,29.67624946316867
3903.912,3.625304684751167,29.141446220999647
3904.8103,3.656980381129677,25.47483019051543
3905.7107,3.686027668085878,20.428127080056804
3906.6094,3.7080245933528686,20.70377927079601
3907.508,3.723290312708688,22.583823652160394
3908.409,3.7366965191294215,25.62562218436544
3909.308,3.7540030916796274,22.635959476803198
3910.2097,3.77815113858062,25.825307295137883
3911.1091,3.80769650540054,24.14044821803868
3912.011,3.8389271986120908,23.818111512554154
3912.9111,3.867590482422031,23.816408888659037
3913.8113,3.8905542064063123,24.94285176945655
3914.7136,3.9057773878732163,22.714196343538557
3915.6143,3.9124076978086975,31.226455119516277
3916.517,3.911253027076288,21.927801382885683
3917.4182,3.904472709250227,24.980611886839053
3918.3215,3.8948199946355864,21.38339853855178
3919.223,3.8850414844331143,28.27239490227395
3920.1245,3.87748290464761,23.400328382258774
3921.0286,3.8739858208503097,22.69096199065072
3921.9307,3.875462276779661,25.246615200687373
3922.835,3.881600532419069,20.077046519033914
3923.7373,3.891142407916326,27.995413260384154
3924.642,3.9024730133407255,20.098206861148014
3925.5452,3.9136689696709905,25.836507669637335
3926.448,3.9228534353899223,27.185377949710663
3927.3535,3.9287574153859603,21.79095102121714
3928.257,3.9314668563887167,20.322344991361728
3929.1628,3.9325412602898555,18.660757134795205
3930.0667,3.9336921686870014,18.481625992485355
3930.9731,3.9349621159707397,24.262447231569134
3931.8774,3.9337319443321768,20.21272591804444
3932.782,3.9258897857948676,23.258302893909367
3933.6887,3.908601930356065,20.653667427431692
3934.5938,3.8827600906491746,26.852579974574052
3935.501,3.8523234992015896,21.14707168007251
3936.4062,3.822231975484964,22.025586308688233
3937.3142,3.795791907487634,20.244408301416637
