wavl,flux,ivar
3566.9744,0.2687342154543871,1679.0268006188585
3567.795,0.2689977179496267,980.1393685252837
3568.6177,0.268727300366393,1065.2084257617735
3569.4385,0.2680941790802152,3352.3687838748788
3570.2617,0.267330743744833,699.0020703315691
3571.083,0.26638753849155805,4967.37233561155
3571.9065,0.2648701144644462,1674.856066769264
3572.7283,0.26241156572273727,2024.6703789804942
3573.55,0.2590908030833408,3507.638461511915
3574.374,0.2556129141457671,2436.9084747094203
3575.1963,0.2531711822531397,1521.87531606006
3576.0208,0.25296382681161866,4382.329942139243
3576.8435,0.25568597620094763,2709.5568045442187
3577.6682,0.2611322390601942,1144.442137468113
3578.4915,0.26819950744836174,671.5942093365809
3579.3145,0.2754464089786309,2849.0547039013536
3580.14,0.2815960072009516,879.3808793042823
3580.9636,0.2856142244626628,1298.6252659918705
3581.7893,0.28675625601271637,854.367567147222
3582.6133,0.2847063244217128,674.0839044174342
3583.4395,0.28003679079532623,2169.7606699798125
3584.264,0.27432151498104984,857.7315324660949
3585.0884,0.2694684876354403,1106.9659922194735
3585.915,0.2668928480403489,2501.2368381869965
3586.74,0.26703698846855967,1037.615971882205
3587.5671,0.26935523275315254,796.1040005715039
3588.3923,0.27265552871261334,1014.2850337998636
3589.22,0.275666996764838,611.9725024522926
3590.0457,0.27755647072427203,922.4480001022059
3590.8716,0.27824839185136807,1675.8614649810868
3591.6995,0.2781097928018123,1692.1927928145917
3592.526,0.2774312053149145,609.1640325664431
3593.3542,0.2761981582372263,2188.0437898559785
3594.181,0.2743741998714293,1297.9421119025592
3595.0098,0.2722870468569351,942.7258703429009
3595.8367,0.2707797711205673,946.6680875748184
3596.6638,0.27091432867809145,810.0716609371724
3597.4934,0.2735130864381258,2545.8368122615843
3598.3208,0.2785721061530798,1880.4342558488538
3599.1506,0.28500201952667736,516.8182311762345
3599.9788,0.2907969850302612,1013.9161148295085
3600.8088,0.29408703806762365,662.3749658790557
3601.6372,0.29413185899841476,630.1195843946991
3602.4678,0.29173431156480106,867.9864903073022
3603.2964,0.2885667978600094,560.0709112118109
3604.1252,0.286028358815317,1276.8113940101093
3604.9565,0.28460306196074237,1121.6062571441685
3605.786,0.28397816638601653,2336.78587897371
3606.6172,0.28356496433696504,1982.5475188354444
3607.447,0.28299524339410026,757.1134982432012
3608.2788,0.28226470444859686,999.6557916644631
3609.109,0.28157198084158863,2233.479340383087
3609.9392,0.2809969963888485,1205.7378083740966
3610.7717,0.28032799980368384,488.87803573927346
3611.6023,0.2791656979415965,2481.6263043660674
3612.435,0.2771880129465165,2756.4548668328007
3613.266,0.2744281257472284,1804.291011259336
3614.0994,0.2712991080635357,2010.798188830231
3614.9307,0.26845399150331845,1230.0304066649292
3615.7625,0.26638594960126166,1029.1402639579019
3616.5962,0.265206916367953,759.1302150501529
3617.4282,0.2647187377763866,1055.3339752589895
3618.2625,0.26475776568553977,1530.1857760744035
3619.0947,0.2654628308488768,2057.3726272308727
3619.9292,0.26708229600284406,1515.679743301421
3620.762,0.2694345578634329,1897.3932717768232
3621.595,0.2716393579339526,677.9378146300227
3622.4302,0.272462399971471,899.0449088520988
3623.2634,0.2711237917827085,649.846255069442
3624.0989,0.26790192320145867,23579.11160988909
3624.9326,0.26407188595173575,2073.601845906899
3625.7686,0.2612144890323259,969.7791896200187
3626.6028,0.26055131506402335,802.3743014598206
3627.437,0.26245471179996244,842.9712442232742
3628.2734,0.2663946658050616,1220.4817304155677
3629.1082,0.2710938708222121,1059.493009351194
3629.945,0.27509204803964993,1499.5774817655958
3630.78,0.2773684436811984,663.0220450611926
3631.6174,0.27793084821772773,1118.0385786085103
3632.453,0.27766348741988883,1659.7478119376237
3633.2883,0.2776250748855122,865.6890599810248
3634.1262,0.27837061938878876,685.3345442622064
3634.9622,0.27993476410715795,847.0595471248662
3635.8005,0.2822984551181692,1478.948243495788
3636.637,0.28551702206125995,638.5421560954652
3637.4756,0.28936071933541074,1733.430495238146
3638.3123,0.2928558775917228,906.5276815556607
3639.1492,0.29464476598128536,578.2660772138574
3639.9885,0.29382603891304004,1631.554695497924
3640.826,0.29069325482266434,868.9519310464415
3641.6653,0.2866546633196177,1584.3007391532958
3642.5032,0.28353601668345685,881.2270410628765
3643.343,0.2826157120579233,1009.6591598073112
3644.1812,0.2840487507480558,1543.7396140288142
3645.0195,0.28684559361089135,899.38939554674
3645.86,0.28954086975383087,564.0763717125208
3646.699,0.2910876672333703,3527.6425428384673
3647.5398,0.29144120468447965,865.7006299572797
3648.379,0.2913108173623983,1617.988944767125
3649.2202,0.2914610904051779,2335.4615777124704
3650.0596,0.2921756257655067,715.5822274886498
3650.8994,0.2932844261108823,1007.690286475503
3651.7412,0.2944852488399568,2752.3919338059504
3652.5813,0.29547173411403693,1049.7147660427934
3653.4236,0.2958520060176478,8423.177443497852
3654.2642,0.2951686829074177,513.9704041760787
3655.1067,0.29324701574461226,2019.9901437224419
3655.9475,0.290549645275227,2440.2596132361086
3656.7886,0.28807918963673257,3329.1062636508836
3657.6318,0.2868814774651564,1164.4902817013472
3658.4734,0.2874353426384733,828.2669526028535
3659.317,0.2893095263422242,1325.5834686161097
3660.1587,0.2913168301349534,2009.3874903295791
3661.003,0.2921339735063022,2878.1951617564973
3661.845,0.2910179434251903,971.9024671992833
3662.6875,0.2882492508838257,1253.3268931422012
3663.532,0.28490322190795364,1881.413139911223
3664.3748,0.28215636051542003,3857.527635188768
3665.2197,0.28053644064929106,646.2779962572614
3666.063,0.27978772196439106,1691.8850106135558
3666.9084,0.27920248772279954,1072.5210541362874
3667.752,0.27816979681577,687.9832837111308
3668.5977,0.2765188549639706,1242.6634258329868
3669.4417,0.2746497275440733,625.6035231261799
3670.286,0.2733457657616151,2083.844056367775
3671.132,0.27331920982531926,6302.188092921555
3671.9768,0.2746288575698842,1202.506491630767
3672.8235,0.2764926190753406,1572.6486288485794
3673.6685,0.2777555546033547,799.3357853473492
3674.5156,0.27772880972766906,932.910362022534
3675.3608,0.2766589575973074,1176.640089423847
3676.2063,0.27554764628925166,2087.4012645113144
3677.0542,0.27551148811627996,759.3978431913863
3677.9,0.2771461421215082,1508.7762690148497
3678.748,0.2802640698769923,709.837453966361
3679.5945,0.28404621843834627,6558.342614451569
3680.4429,0.28753506680758106,781.1241085080842
3681.2896,0.2899692088229632,1688.3134182961164
3682.1365,0.29098215218868384,1528.883147028701
3682.9856,0.29052703210429853,1555.502177289701
3683.8328,0.28886779352949404,1858.7349914785163
3684.6824,0.2866014726362349,552.5745013262487
3685.53,0.28459604812869865,3350.5708506530536
3686.38,0.2835936215935325,1874.3870198263214
3687.2278,0.2838425551381444,931.1941930106896
3688.0762,0.2850242510061182,607.0910856134764
3688.9265,0.2865924315877375,1474.0855166667484
3689.7751,0.28811033851111817,838.8083045959183
3690.626,0.2893780206302308,1431.6975551825249
3691.475,0.2902951682737961,13173.992061656041
3692.3264,0.2907623753301594,1135.1719665713604
3693.1758,0.2906977696152874,700.8629524107824
3694.0254,0.29021640614501515,1600.2868506845607
3694.8772,0.28969969455115985,4325.791858183051
3695.7273,0.28956524152320195,1766.7131049689665
3696.5793,0.2898420117878727,616.9025228368317
3697.43,0.29001329445339785,722.1086408616651
3698.2825,0.28935803439081503,868.0556800600707
3699.1333,0.28754583408305484,803.6243110455972
3699.9841,0.28498411797609086,750.3452071648815
3700.8374,0.28264654136902523,1198.4036806324132
3701.6887,0.2815087455235333,1516.6017467531005
3702.5425,0.2819081651415961,709.5168596956427
3703.3943,0.2833960119561974,953.6176300343939
3704.2483,0.2851146741654687,798.2804033268917
3705.1003,0.28635766786626343,898.4993773766166
3705.9526,0.28693765742161526,833.1518679650727
3706.8074,0.2871083247836143,1094.2044688676804
3707.66,0.2872525742119011,1346.2201542536093
3708.515,0.28759538960607794,690.8186946083438
3709.3682,0.28817519572394334,1602.0134182978486
3710.2234,0.28908185532012143,1642.6345242480359
3711.0771,0.29059615026916563,685.0761254963026
3711.9307,0.29295571449532953,1493.6144764083035
3712.7866,0.2959152831379437,1513.344106156639
3713.6409,0.2987041973282068,1149.274505045532
3714.4973,0.3009624624326174,467.89794571793345
3715.3518,0.3042369894941652,714.0300176154516
3716.2085,0.3133018989738328,893.9637459047101
3717.0635,0.3355648704205618,500.41989395851175
3717.9185,0.3774709722778018,760.0811552221151
3718.776,0.43805185215481224,872.0369922401347
3719.6313,0.5029775901681534,848.9006985901647
3720.489,0.5486394413565492,661.083424023117
3721.345,0.554309353105828,824.9587479057038
3722.2031,0.5169954847151627,879.9699191851486
3723.0593,0.4535770480912663,999.8994097861419
3723.9158,0.3882696945278042,1023.822881371866
3724.7747,0.33804832558052755,679.9344007398375
3725.6316,0.30733307598985526,445.09324492300556
3726.4905,0.2913660722129177,945.2745357767808
3727.348,0.28375128658399396,680.9151710209701
3728.2073,0.27997253034575703,1666.3638968660857
3729.065,0.27795335181177444,787.0135462354644
3729.9229,0.2770017387496976,1186.8205944732786
3730.783,0.2769518463643477,1056.5126849801625
3731.6414,0.2776165976671992,2304.641995509687
3732.5017,0.2785659302825035,1102.3855348240506
3733.3604,0.27923468570592214,876.2891160862904
3734.2214,0.27928161609662355,1179.0926978739756
3735.0803,0.27883380983753847,788.892066639063
3735.9417,0.2783809795148782,923.435757192227
3736.8013,0.27839093291909944,1168.2841711100327
3737.661,0.27897370050715103,976.3194812316788
3738.5227,0.2798938026044511,773.744421599123
3739.3828,0.2808417598966501,901.0032964078807
3740.245,0.28168483098274144,1279.3626503579837
3741.1055,0.2824185280902875,1197.535894652055
3741.9683,0.28303239655410445,1091.9645749827641
3742.829,0.28350820162928436,1798.6815220202493
3743.69,0.28396768577817827,888.846844658306
3744.5532,0.284610690235938,870.0102029469275
3745.4148,0.2853722229156278,956.0681802917308
3746.2786,0.28568806210901965,668.5876261355086
3747.1404,0.284739066651762,1025.9551797272532
3748.0044,0.28207353353239883,811.1829811843968
3748.8667,0.2780698494137652,1407.2676398427525
3749.729,0.27379843465366843,990.6287219939496
3750.5938,0.2705351821356376,1047.1941761349144
3751.4565,0.26924494887789147,2149.058557451053
3752.3215,0.27012306052423374,1836.1806187120353
3753.1848,0.2724660680312595,978.1711699385065
3754.0503,0.27494875528964663,517.8741956624253
3754.9138,0.2762647381067628,1911.0189305880385
3755.7776,0.27582643931375,3727.9259947312694
3756.6438,0.2739348718873221,1031.3404885482425
3757.508,0.271493805237964,1197.041119288307
3758.3745,0.26942897037596375,844.0932457913202
3759.239,0.26830042850082503,1202.7709054107015
3760.106,0.2681774518714331,2206.704783713043
3760.971,0.2688550779194528,2326.9767479801985
3761.8362,0.27007164007337375,888.6082788501226
3762.7036,0.27157118571279,2159.644996484156
3763.5693,0.27303411117828835,2376.604260333202
3764.437,0.2741292629642772,644.9783542148446
3765.3032,0.274677762773835,778.4025587037536
3766.1714,0.27489299162201136,1267.4802018305636
3767.0378,0.2754047699171252,922.1059420712797
3767.9043,0.27693695298020066,1134.0453201850185
3768.7732,0.27971642749870956,972.1604564328658
3769.6401,0.2829898460677326,1178.808657940405
3770.5095,0.28526394030921737,1384.0316271680829
3771.377,0.2851361207734002,945.1985766939472
3772.2466,0.28228593236856087,2332.8594809737465
3773.1145,0.27773755927646443,1793.5404085178216
3773.9824,0.27318807148582436,615.2554681561737
3774.8528,0.2700031074860043,888.2550576084548
3775.721,0.2686020414146185,543.544819713218
3776.5918,0.2684868263376362,915.4227840271222
3777.4604,0.2688624162285999,1267.3217458507058
3778.3315,0.2692041968288273,1173.4006547713411
3779.201,0.2694520139186456,1283.5177029336353
3780.0703,0.26982663235881793,909.2767051834002
3780.942,0.2705619931848252,1005.6032535048066
3781.8118,0.2718302230582489,1140.6409965959697
3782.6838,0.27383850134360954,1108.1510080007959
3783.554,0.2767479174551758,4126.462269481231
3784.4265,0.28040911917792205,774.332316498032
3785.297,0.2840675686645129,3779.6707079555913
3786.168,0.2866709512859244,600.2844030921923
3787.041,0.28749285112265166,1085.8958937703892
3787.912,0.28662257775690103,1347.201284025685
3788.7856,0.284814117552823,1366.2441766212783
3789.6572,0.282902588523302,956.046202805657
3790.531,0.28130368835079117,1008.7273137179924
3791.403,0.2799690129244081,944.8583474887563
3792.2754,0.27853889151775457,1639.345911303611
3793.15,0.2765865696784842,1109.266350502713
3794.0225,0.2738781802583634,1000.0402555862004
3794.8972,0.2705539806367769,794.7315185634702
3795.7703,0.2672071921358565,2044.948194783089
3796.6455,0.2645528740067216,1614.5596404978867
3797.519,0.2630500321341298,740.9925109696286
3798.3926,0.2626286706035517,1251.292552477765
3799.2686,0.2628956650625898,1473.9070451255918
3800.1426,0.26353418950572594,2092.020532286641
3801.0188,0.2645739511141701,916.2329939018423
3801.8933,0.26627321063176607,1546.9250060049953
3802.77,0.26879606064336165,2139.35227616271
3803.6448,0.2719386049296564,2260.623843372924
3804.522,0.27524247988412986,2080.3023800513374
3805.3972,0.2781988503605666,2471.477824678596
3806.2727,0.2805099955935007,1257.523750228308
3807.1504,0.2820925938467121,999.8214654123
3808.0261,0.282993900067117,1375.6079288334772
3808.9043,0.2833034586561892,623.7799934732709
3809.7805,0.283066722737776,845.4027758651434
3810.659,0.2823330457052681,891.4477415812848
3811.5356,0.2812750576748915,2144.248133970774
3812.4126,0.2802225851949156,2124.305170623454
3813.2917,0.2795563508865467,579.3582045928525
3814.169,0.27953821760328773,811.3732855965752
3815.0483,0.28018482072310585,1665.5733169749674
3815.926,0.28121254140250884,846.6159437700921
3816.806,0.28206070922706783,1168.7654229825123
3817.684,0.2820673483898444,563.0586143305617
3818.5623,0.28087032164080533,1021.1171018742135
3819.4429,0.27874373445017375,919.9603172834734
3820.3215,0.27660115055271806,1117.0953959753817
3821.2024,0.2754708531939696,1160.4283208887725
3822.0815,0.2758768205860816,1100.4740313304787
3822.963,0.27749095008401753,1574.80448645878
3823.8423,0.27935217964702996,1087.3967946796565
3824.722,0.2804681604280747,1233.4691637146682
3825.604,0.2802812150790994,907.4650515016492
3826.4841,0.278768441326048,1098.5981836155058
3827.3665,0.2762100457270388,1116.594749007149
3828.2468,0.27297297623131567,1094.1978289023166
3829.1296,0.269402884566439,1241.2381856973323
3830.0105,0.265939906395448,1212.3398750654592
3830.8916,0.26303753285807363,1120.3671644246456
3831.7751,0.26099661029339355,1425.2051615140995
3832.6565,0.25972108889396,1109.7950245028228
3833.5403,0.2586462499224068,1042.7649181090956
3834.4224,0.25710714317722094,1212.8072654503783
3835.3064,0.2548469392291105,1062.5898801425246
3836.1887,0.25234700981927755,3454.5470029170115
3837.0713,0.2505675255191179,1252.9198059374637
3837.956,0.25034651072758446,913.3746438954528
3838.839,0.2518338932069999,1990.3420634488746
3839.7244,0.2543943094236469,2745.7292643671663
3840.6077,0.25700937697377624,2433.301786375491
3841.4932,0.25897035232027094,1152.6361928168246
3842.377,0.2602627376568608,1559.2512981874847
3843.261,0.2614927256329895,778.2519344097444
3844.1472,0.26332684843630155,1471.9465411874007
3845.0315,0.26593918870668865,1407.1217207308023
3845.9182,0.2689533240719398,1161.8283802123904
3846.803,0.27179714198225563,772.8347067738949
3847.69,0.27424645937605036,1120.935776297749
3848.5752,0.2764876326645862,1006.7704105121554
3849.4604,0.278837468594479,758.7350276745558
3850.3481,0.28135978012647345,533.4002424675086
3851.234,0.28379066574012496,1213.1081704150547
3852.122,0.28581567918509637,1184.7838600455964
3853.0083,0.2872366886316572,718.2023680149266
3853.8967,0.2880237007439039,848.3625873795777
3854.7832,0.288229743374689,617.8727429498103
3855.6702,0.28805483789180175,772.9898239667376
3856.559,0.28793095886634806,664.5673735859825
3857.4463,0.28844142279349383,1552.4120702721202
3858.336,0.2900238882120427,1797.8325328292792
3859.2234,0.29268883816450764,573.5653376164364
3860.1135,0.2960476214942976,963.4712868989307
3861.0015,0.29944742482744435,879.1898795989714
3861.8896,0.30224290092815986,1107.7606473585681
3862.7803,0.3039530181956037,1143.329387774758
3863.6687,0.3044388697172722,636.6073482840487
3864.5598,0.30401289210571375,1702.4840060788088
3865.4487,0.30328649966805,1076.446161641086
3866.34,0.30282054310776,916.1098211573606
3867.2297,0.3027725961893064,2002.8457939849618
3868.1213,0.3027760883331955,944.5142876937302
3869.0112,0.3022002760875456,1025.0487739057094
3869.9014,0.30058867856073473,763.2311608208206
3870.7937,0.29791033009235685,1868.6607900346517
3871.684,0.29448894492398037,2268.5220110656055
3872.577,0.2906679507307582,1191.5647601443347
3873.4678,0.28668667069728787,886.4147602263267
3874.361,0.2826059337581108,689.3306017260909
3875.2524,0.2784224159380304,1179.462659713981
3876.1438,0.27396706697873086,2633.514896101641
3877.0376,0.2689570623099138,776.8016776251657
3877.9297,0.2632993773194769,1244.8694834545129
3878.8237,0.2573236488427267,922.9972919476261
3879.716,0.2518142084552853,1457.9739187471926
3880.6108,0.24741511252730508,1015.1076985491192
3881.5037,0.24426439776734443,1246.3506957192608
3882.3965,0.24192929819923648,1808.5245448620897
3883.2917,0.2398011831787289,1037.7537743083549
3884.185,0.2374079278025378,1920.0941230930737
3885.0808,0.2344621141729706,971.0085322977078
3885.9746,0.23087737056424745,1108.5654125946312
3886.8706,0.22665372782226942,2253.032990322586
3887.765,0.2219097159669118,1752.3483044457757
3888.6592,0.2168775870915593,1296.741188076549
3889.556,0.21207551597499366,1255.8359228276488
3890.4507,0.20842560664223692,1779.9118429080022
3891.348,0.20696225407091867,3050.8219343309584
3892.243,0.20842540394800055,2177.041524203589
3893.1406,0.2128506158152741,2623.6832124320254
3894.0361,0.21949627882832765,3141.7685068706187
3894.932,0.22721338228098015,3564.9787387947426
3895.83,0.23485040166490065,1397.5840065430486
3896.7263,0.24154229460968324,1672.733155568656
3897.625,0.24701294501026133,1540.454394015177
3898.5215,0.25141417612357336,1158.3740171367358
3899.4207,0.2552514401263845,1666.4542835715981
3900.3176,0.25904961679403254,1018.40187320164
3901.2148,0.2632409573190487,1028.6472211209257
3902.1145,0.2680150302316416,935.5456952485731
3903.0122,0.27321945186718527,1128.9565076313695
3903.912,0.27845172809957525,1440.995402311133
3904.8103,0.28307575198213397,856.4071254654235
3905.7107,0.28651471838658565,1200.970095827109
3906.6094,0.28844889014500585,1056.2149375392505
3907.508,0.2891212536497032,948.1260016228576
3908.409,0.2893425309362521,812.3665118887739
3909.308,0.2901549152144954,1808.758896180245
3910.2097,0.29222773886463427,1169.1156686961763
3911.1091,0.2954138155621362,1881.8272813332403
3912.011,0.29897180741993673,1366.7342957144633
3912.9111,0.3021664786731161,542.5186841333567
3913.8113,0.3048635951898916,671.2285578846739
3914.7136,0.30745294651729177,1059.5532945897214
3915.6143,0.310295568691182,589.1123971510173
3916.517,0.3132958781776333,924.0756177231373
3917.4182,0.3158881031067984,639.6454895541634
3918.3215,0.31755225035282186,946.308572716894
3919.223,0.31824286706314464,1242.6144142953278
3920.1245,0.31850192803689115,586.0080485495175
3921.0286,0.3190896906837063,1340.3150000227477
3921.9307,0.32045959854270967,1108.1349475360198
3922.835,0.32246036666205713,929.4111804472892
3923.7373,0.324442318001814,828.0799106292633
3924.642,0.3257525648318727,935.5495613967514
3925.5452,0.3261583924083563,602.6279154388711
3926.448,0.3260179538108723,730.5875729868872
3927.3535,0.32603658383083217,793.4863649563598
3928.257,0.3268288039378625,649.4253580239053
3929.1628,0.3285697891115453,605.4328492756827
