wavl,flux,ivar
3566.9744,0.7100394004927865,9.310578887514799
3567.795,0.7294186493236728,15.683775198099468
3568.6177,0.74583082612838,5.306142774956442
3569.4385,0.7605104233575329,38.025168025820335
3570.2617,0.7720058840672557,5.407359262818411
3571.083,0.7759572601168281,272.3358598652381
3571.9065,0.7691871563858749,3.2332668565396627
3572.7283,0.7529249774913831,15.691850465932605
3573.55,0.7320422171542521,5.301139509222367
3574.374,0.7116830640761962,1439.3309581487308
3575.1963,0.6952996994853513,3.9082582764853155
3576.0208,0.6849446473045115,8.963314039329997
3576.8435,0.6829403434019881,28.078382454418538
3577.6682,0.6911323312015736,2.769139708784923
3578.4915,0.7084157741820181,3.3177488590241455
3579.3145,0.7290833908133878,3.640586787814869
3580.14,0.7441920625602922,3.4785585433900725
3580.9636,0.7451953319963617,22.014705954350593
3581.7893,0.7281468248117241,7.323504155788763
3582.6133,0.6959831600232996,9.32598679846512
3583.4395,0.6576745737739755,11.464572219248145
3584.264,0.624779053581703,1063.181547965896
3585.0884,0.6049699335005779,13321.799258251318
3585.915,0.5987633670057608,78.26747803841822
3586.74,0.6013299118114057,19.63281931891599
3587.5671,0.6080616478264232,613.18983017505
3588.3923,0.6184102639950894,154.82669595233375
3589.22,0.6344478868837067,2.499466296345157
3590.0457,0.655895670979898,16.624445483319217
3590.8716,0.6779595834464152,31.35912727075837
3591.6995,0.6936595983780943,1.8079245974187435
3592.526,0.6985862866769245,20.02646292774493
3593.3542,0.6941232084554734,9.799758365836368
3594.181,0.6868569399161579,4.748524949360506
3595.0098,0.6854414736281191,1.8718278079891746
3595.8367,0.6965199322963463,40.54044013756961
3596.6638,0.7210433500192,4.878707403579114
3597.4934,0.75280178652912,1081.10619365632
3598.3208,0.7797409509050162,11.99625496263892
3599.1506,0.7896869456214408,3.7453108585360506
3599.9788,0.7764860001496352,1.6843230155403428
3600.8088,0.7439936988760544,5.490428327721103
3601.6372,0.7037041857245743,117.82758773151839
3602.4678,0.6668754922996757,3.4168666053286323
3603.2964,0.639068847442988,26.295169976014428
3604.1252,0.6191895177720114,10.288946597734146
3604.9565,0.6038101211366494,10.879504712935663
3605.786,0.5909649945105186,6.588960346541562
3606.6172,0.5809607720008255,12.74869586540861
3607.447,0.5755206536268703,1.3597771156735243
3608.2788,0.5759085055976277,160.19656533756768
3609.109,0.5818473546052508,3.8326049077336575
3609.9392,0.591301654265207,7.805313807119203
3610.7717,0.6009669526812027,10.54519803993824
3611.6023,0.6070087581609883,38.24413539276125
3612.435,0.6066249283019811,5385.746376596304
3613.266,0.5998784380133464,4.839550099735183
3614.0994,0.5909200167378366,8.9396457843376
3614.9307,0.5868908230509917,3.4397551845936043
3615.7625,0.5941316960772682,8.255829749343034
3616.5962,0.6146884776854852,4.958761188910654
3617.4282,0.6452789666677887,6.370356158127936
3618.2625,0.6800332471828612,2.1812464199935286
3619.0947,0.7129811907537448,113.99839318958328
3619.9292,0.7400000968086159,3.991290638016734
3620.762,0.7579622301234679,6.583556907211971
3621.595,0.7650814985278835,1.8068291885163843
3622.4302,0.7615388502805848,13.958546860434657
3623.2634,0.75073097918347,4.13374516577744
3624.0989,0.7387348167108743,49.300738588327405
3624.9326,0.7317586304974174,9.124733556176643
3625.7686,0.7325904350673239,3.2642498275796363
3626.6028,0.739252526220516,2.7148040531555915
3627.437,0.7466365105566724,7.429721961879444
3628.2734,0.7499361818808901,3.9553135952243386
3629.1082,0.7474309146391492,4.39136768802729
3629.945,0.741321786107373,81.61777864990621
3630.78,0.736475146834978,157092.96086916665
3631.6174,0.7376301315464849,7.345101852573563
3632.453,0.7463320708787983,4.718788872316888
3633.2883,0.75922768143053,1.2538694960489245
3634.1262,0.7694706351871845,40.64873673847577
3634.9622,0.7706928153673707,622.0856342850888
3635.8005,0.7615604144164322,3.05766772768528
3636.637,0.7478056019963083,32.10483858521591
3637.4756,0.7400598159306487,11.693720746717368
3638.3123,0.7479980006872343,43.05740126851173
3639.1492,0.7735274518321169,2.0362904913488697
3639.9885,0.8089536448083531,6.7647014942159585
3640.826,0.8414125165681731,647.3194330296021
3641.6653,0.8615251476685787,1.573348884503277
3642.5032,0.8677542015080646,2.5769518059803933
3643.343,0.8656556478451778,22.81502386371467
3644.1812,0.8630319346086976,13.46854075542672
3645.0195,0.8655194491839433,3.846537956727894
3645.86,0.8743910861534226,8.154780628977136
3646.699,0.8862487830834348,1.820001468296442
3647.5398,0.8948707678374983,1.8491524859008392
3648.379,0.894593058270918,1.7656947861068635
3649.2202,0.8840544325280455,0.7514352433115464
3650.0596,0.8672449166799909,22.210584216606247
3650.8994,0.8511172733714579,1.6784766711283652
3651.7412,0.8428556396493438,5.400875057062377
3652.5813,0.8487379179140578,2.200658567775644
3653.4236,0.8733808282058296,11.57363925137146
3654.2642,0.9169289884590237,2.463445333837447
3655.1067,0.9723646747268042,4.688760530114412
3655.9475,1.0256932548643356,13.004540636403245
3656.7886,1.0626074154191316,3.1290541247866486
3657.6318,1.074119341831097,1.2927979232273081
3658.4734,1.058219108368079,4.985670264162042
3659.317,1.0177578263793474,6.193655058723397
3660.1587,0.9590737420890374,1.6717447841546305
3661.003,0.8918472636163317,1.4480638656728149
3661.845,0.8299206474336793,10.435084059864426
3662.6875,0.786080236467561,42.31682664082943
3663.532,0.7669065500410114,372.53013713686056
3664.3748,0.7696179023316904,1.0050774922485222
3665.2197,0.78460238578414,9.065850033545807
3666.063,0.8014780943011955,5.654049617603311
3666.9084,0.8139551284253312,400.11450889874516
3667.752,0.8204504215079264,14.95226108328017
3668.5977,0.8220731827246168,12.734998324453166
3669.4417,0.8196499734879035,3014.42862213664
3670.286,0.812798106106463,1.7394258831582752
3671.132,0.8014761918257389,14.794599083668292
3671.9768,0.7883883512310282,19.588596745941135
3672.8235,0.778889093126918,2.0312918180321446
3673.6685,0.7782558236643802,357.3385792924446
3674.5156,0.7881580745976551,1.5358211066952705
3675.3608,0.8056149991960461,2.976955163309302
3676.2063,0.8251809964419117,1.69380446381502
3677.0542,0.8422924783255379,58854.76241253874
3677.9,0.8554641956221982,9.141768885967764
3678.748,0.8664236175430104,5.281666862747819
3679.5945,0.8773658500505654,218.96332998000287
3680.4429,0.8884003841416127,0.9071540361255865
3681.2896,0.8964719649152334,3.2577667670974604
3682.1365,0.8973640566941231,13.627525409759006
3682.9856,0.8887590732628503,10.909091364605562
3683.8328,0.8725172585585511,15.95677924762883
3684.6824,0.8540021764374872,5.637781394440337
3685.53,0.8395344219548759,12.020731976636789
3686.38,0.8328345957541243,170.404555487885
3687.2278,0.8340326724378374,36.446180660311754
3688.0762,0.8412766780717418,3.9707801178075433
3688.9265,0.853506977957917,299.78615462211485
3689.7751,0.8703919707843657,72.85834166986756
3690.626,0.889568607690574,6.670123721488168
3691.475,0.9042688430772398,2.3019340312203864
3692.3264,0.9060772854185367,7.9386867737095965
3693.1758,0.8905923956997476,36.68654812205138
3694.0254,0.8616176553884657,2.9112167580214963
3694.8772,0.8294680822705875,6.275576423733815
3695.7273,0.8046131446686183,205.27540757173125
3696.5793,0.7902911154660036,3.1453987769710308
3697.43,0.7815568294917895,14.359571888238406
3698.2825,0.7705743697509428,68.11657985178151
3699.1333,0.7545244383659818,1.9223679961075557
3699.9841,0.7385374001469124,5.368634558435188
3700.8374,0.7320841762492739,1.2997218668774226
3701.6887,0.7422487178231444,4.939991496945302
3702.5425,0.7691388501606218,9.86963525431812
3703.3943,0.8056842599991355,9.89382906489358
3704.2483,0.8413513439725052,93724.63401663705
3705.1003,0.8655582168240183,4.1199634601566455
3705.9526,0.871781456389893,1.5880550445842276
3706.8074,0.859379024140273,2.528676272356959
3707.66,0.8336429414373071,5.010428735265676
3708.515,0.8026179857334649,6.7945475098970345
3709.3682,0.7747295137936366,1.5443799669122273
3710.2234,0.7578025155297876,3.1573302721315804
3711.0771,0.7592703319169359,10.466366785727217
3711.9307,0.7826315516489852,205.42930662929496
3712.7866,0.8231291389207213,828.8194235672969
3713.6409,0.8668117379829684,2.3880246341337634
3714.4973,0.8975155201692459,55.01003516634531
3715.3518,0.9049292892466299,2.3400501054187934
3716.2085,0.8894472351224656,564.760129972379
3717.0635,0.8596276844215084,1.00177305824662
3717.9185,0.8262585601622365,2.088897621420325
3718.776,0.7977190542738174,2.9011615783448628
3719.6313,0.7784624614727342,39.99965498310466
3720.489,0.768660518362889,1.573756881371101
3721.345,0.765738131417845,4.6751926806785375
3722.2031,0.7659987795505703,14.86119287729731
3723.0593,0.766369118663272,1.2836691549766042
3723.9158,0.765062438341105,76.5905700625836
3724.7747,0.7617783046223984,33.59673207441435
3725.6316,0.7582597304453023,2.7760267090460182
3726.4905,0.7580480389825356,1.5829326897215195
3727.348,0.7639512712926745,6.387217456495105
3728.2073,0.7745563498516378,1.7031902551916458
3729.065,0.7841911605742254,12.683805311735698
3729.9229,0.7881974691998269,2.405407659980945
3730.783,0.7877368411880605,55.01332975631696
3731.6414,0.7882647277427998,16.07625992371817
3732.5017,0.7929220548198673,167.84828724903457
3733.3604,0.7989122323835048,4.391196248603232
3734.2214,0.8012299658122731,47.98724951835871
3735.0803,0.7986238127389698,4.389099875434486
3735.9417,0.7947311678109685,10.24374158793633
3736.8013,0.7936408412956366,2.3188480181389406
3737.661,0.7956731848828519,3.1203590526814216
3738.5227,0.7982972148594619,1.8330842568785208
3739.3828,0.8006509518454439,3.6843949144254977
3740.245,0.806643926340256,3.278090437764668
3741.1055,0.822766225779048,44.88903644422
3741.9683,0.8521217613748358,24.65211706491904
3742.829,0.8888802329148549,10.35089201825128
3743.69,0.9197458682531667,7.7630062387764855
3744.5532,0.9316778928742624,3.3782491595611677
3745.4148,0.9209612220033608,16.530970043213543
3746.2786,0.8955826180110218,5.797008546220271
3747.1404,0.8684791807149005,63.615416550057056
3748.0044,0.847594659685533,34.523394754186484
3748.8667,0.8323077864885684,277.6050455674806
3749.729,0.8165656566429409,302.6609579858682
3750.5938,0.7952448630022231,16.615584775036957
3751.4565,0.7681478692864304,4.9440912177894605
3752.3215,0.739903540129347,11.9948929220002
3753.1848,0.7187123418044034,5.805717691204797
3754.0503,0.712767914351011,11.36390780617883
3754.9138,0.7257901858792235,6.444404307911858
3755.7776,0.7527511599987641,32.404373317342234
3756.6438,0.780887029952994,6.189043260159304
3757.508,0.7964115141466903,2.1256098378395163
3758.3745,0.7932122092983569,30.42790412536408
3759.239,0.775236771553116,118.07450163045655
3760.106,0.7522633936269978,3.342082079148336
3760.971,0.7341763593203122,22.637984124752553
3761.8362,0.7274590523024698,12.305095818965636
3762.7036,0.7348316921170628,287755.1167939179
3763.5693,0.7545492094847357,582.9310755961618
3764.437,0.7801893566688386,2.288861507096943
3765.3032,0.8021879663462943,77.40473528518393
3766.1714,0.8123148453150146,1.757052196841975
3767.0378,0.8073111304673868,4.479208411302766
3767.9043,0.790160707965249,3.281000192591112
3768.7732,0.7680018511063055,6.697429568176835
3769.6401,0.7491026645379874,4717.715519137454
3770.5095,0.7391430916680802,336.4380977541815
3771.377,0.7391296574579818,33.1648701375004
3772.2466,0.7449109844907924,4.450322327618344
3773.1145,0.7497410408978401,12.00744359576858
3773.9824,0.7484678781782106,18.01481625609415
3774.8528,0.7403988734670549,290.76869802150577
3775.721,0.7291518572085832,1.4550387548284331
3776.5918,0.7195939870619009,42.81518337520312
3777.4604,0.7149354483669283,671.3469511159965
3778.3315,0.7152044865089459,46.476746585908266
3779.201,0.7181608345245708,87.20702398482537
3780.0703,0.7214830336385125,1.1086537799350515
3780.942,0.7248590200138367,200.5928716728686
3781.8118,0.7301015398410555,8.101735834587409
3782.6838,0.7389736426206389,145.51703950943605
3783.554,0.7502077992629628,4.2862965978616625
3784.4265,0.7588503178531196,22.35376731847418
3785.297,0.7584886161173651,4.634365370138092
3786.168,0.7454653819912547,4.746989013075809
3787.041,0.7213559638908184,10.155461167466164
3787.912,0.6927948070843056,1119.7700163376317
3788.7856,0.6682927118427622,4.321485076222558
3789.6572,0.6552040987913315,2.043978364473266
3790.531,0.6560021050303391,147.1852016323665
3791.403,0.6668558567438873,2.7463727867007917
3792.2754,0.6796021623987732,569.4418779872016
3793.15,0.6871705870041169,2.560707184280992
3794.0225,0.6885161363503616,69.50839129028799
3794.8972,0.689428295185406,107470.70496746099
3795.7703,0.6984803271510275,143.2576433369242
3796.6455,0.7214468479419465,6.070055716946738
3797.519,0.7573246025728146,5.514388451339717
3798.3926,0.7990421145380042,15.770179248313312
3799.2686,0.8376817712853228,1.9294141724953926
3800.1426,0.8671469971893433,5.791490591424494
3801.0188,0.8867419383992704,101.7634941272762
3801.8933,0.8983478579471247,2.0682032570116657
3802.77,0.9032981805589712,5.73863742004481
3803.6448,0.9010771189952707,30.472034101627028
3804.522,0.8909233494078437,0.5856813487825847
3805.3972,0.8731131221031374,18.33520392417056
3806.2727,0.8479573739301669,26.834372764101854
3807.1504,0.814489565455933,4447.930825842715
3808.0261,0.7717615606927456,3.437493305409531
3808.9043,0.7214761890167996,3.589536468961925
3809.7805,0.6711079291819564,11.77998930621594
3810.659,0.6313779156459088,74.60238190327084
3811.5356,0.6120312455172785,5.10989325824344
3812.4126,0.6159413613348854,38.412337307777705
3813.2917,0.6377838027685215,170.54184278069192
3814.169,0.6668869357872682,4.428902078286977
3815.0483,0.6939838090140463,6.821569447978135
3815.926,0.7155042646658284,8.129289376978369
3816.806,0.7333137561554162,11.566872419501042
3817.684,0.7494178896583266,4.618291759246628
3818.5623,0.7624878710525611,25.582160305448653
3819.4429,0.7686974777123986,11.991300444259814
3820.3215,0.7657326755158136,16.18441880175125
3821.2024,0.7553801502235007,11.217772456513776
3822.0815,0.7421638182649326,12.863053388282804
3822.963,0.7297093038530988,174.4846406993188
3823.8423,0.7188404876439964,29.627622284549947
3824.722,0.708275713436876,17.11237513834732
3825.604,0.6972267453228781,2.635943376812418
3826.4841,0.6870914393449556,5.599894752795585
3827.3665,0.6807205654046293,20.072204320359184
3828.2468,0.6805251018590351,3.985019200276019
3829.1296,0.6865363208284692,18.139005915507855
3830.0105,0.6961738227156844,45.06064540572877
3830.8916,0.7058798257381865,7.889449710610074
3831.7751,0.7132428796176993,142.74630142385413
3832.6565,0.7179369073535286,3.6483498019753426
3833.5403,0.7209323898553152,11.88141180000931
3834.4224,0.7227393600541366,10.031596966917398
3835.3064,0.7229941963235785,4.801887187985168
3836.1887,0.7215620469679519,4.481059301559523
3837.0713,0.7197873416581988,1.6533902905447382
3837.956,0.7202474518537649,139.71222395682264
3838.839,0.7250702607657634,10.64601681358727
3839.7244,0.7342597389753539,13.588386655859615
3840.6077,0.7451276139574275,12.55770591389539
3841.4932,0.7533534678118948,11.597909242320116
3842.377,0.7546290954146477,4.637074266259196
3843.261,0.7468397865698531,1.8745360761160283
3844.1472,0.7313636270576528,17.87148602442288
3845.0315,0.7130513738415194,2.201091216698825
3845.9182,0.6977350931501834,5.988556252406693
3846.803,0.6893655067205603,4.027667763071899
3847.69,0.6878818876396924,6.095925428375748
3848.5752,0.6904394915304004,1.08108723685657
3849.4604,0.6943287976012816,16.909463770814895
3850.3481,0.698797315007523,130.51226184171145
3851.234,0.7038955418606816,9.07690530337404
3852.122,0.7085422481902508,1.4772579719713326
3853.0083,0.7105281053411429,32846.99108438104
3853.8967,0.7087992939199759,16.2590463251752
3854.7832,0.7049331240579069,203.60223055341507
3855.6702,0.7021447903906161,41.81308616750012
3856.559,0.7031255246307719,5.348806987542228
3857.4463,0.708777202583457,5.4397967836955665
3858.336,0.7183433935476202,9.506620488740008
3859.2234,0.7297296776097685,2.77417715360484
3860.1135,0.740038267714955,11.106811414664827
3861.0015,0.7461005337556609,16.19443061531836
3861.8896,0.7458207407517086,6.076282178206476
3862.7803,0.7388656376964187,4.105033793454824
3863.6687,0.7270055121731152,90.1624500353137
3864.5598,0.7137860404262876,11.649741361291628
3865.4487,0.7040013127420852,16.064374288943007
3866.34,0.7016299075614043,13.145636348580947
3867.2297,0.7077047730334772,6.663570358166854
3868.1213,0.7193159178370696,7.020478686071772
3869.0112,0.7310996020273686,5.5717186392073526
3869.9014,0.7385583652826739,3.6675159613090917
3870.7937,0.7406325143455864,2.0598428313524115
3871.684,0.7400930265266701,11.439400725450675
3872.577,0.7412464283531107,3.607671289902557
3873.4678,0.746303843516627,8.230756875278892
3874.361,0.7530769362498785,4.883536864213886
3875.2524,0.7558293656507376,23.2817781065485
3876.1438,0.7493021404447644,65.3015449975012
3877.0376,0.7325645038274521,3.4112871628223456
3877.9297,0.7099873782728162,3.0773837147109377
3878.8237,0.6880791047899191,14.177654431688644
3879.716,0.6720659776978878,22.561668779135612
3880.6108,0.6639607972150716,3.4779143138762763
3881.5037,0.6633211949359148,830.4573849771108
3882.3965,0.6676754157135176,20.367793651160536
3883.2917,0.6725517226417785,39.30428026510021
3884.185,0.67207045076631,16.427238215005023
3885.0808,0.6616334435435176,3.2335747491534774
3885.9746,0.6409933792494291,1027.6477508091173
3886.8706,0.6143115697316472,15.984060118419888
3887.765,0.5872080443097487,31628.81038072345
3888.6592,0.562721865442241,61.800787665065066
3889.556,0.5411963599749235,3.9122059708468138
3890.4507,0.5234957621195685,6.390283846554205
3891.348,0.513068549016821,13.586104992111924
3892.243,0.5147124296338208,14.044329004838104
3893.1406,0.530106286727684,3.141742289840219
3894.0361,0.5550358365609346,3.2930805779889254
3894.932,0.5813405456512727,12.527947257346922
3895.83,0.6016879204286693,303.1178563506047
3896.7263,0.6136266236409803,6.620655325135246
3897.625,0.6205183438704777,473.9488378622852
3898.5215,0.628137485205302,30.079159181997955
3899.4207,0.6403246924189361,184.53977463871024
3900.3176,0.6559429729447819,39.36302944342066
3901.2148,0.6698920096513518,596.7719992458461
3902.1145,0.6768271884393579,79.64726648908537
3903.0122,0.6752534017803554,12.915923311271722
3903.912,0.6690180900300268,9.0571236815193
3904.8103,0.6647977836206826,27.894242082000744
3905.7107,0.6672984814596954,44.11384410793
3906.6094,0.6757820467612538,5.391821409890785
3907.508,0.6846519576344973,2.4102447562259077
3908.409,0.687661852745736,39.764914867988715
3909.308,0.6825305403886505,2.4031432176111536
3910.2097,0.6728994266728576,374.91921903027617
3911.1091,0.6665952990856192,2.4719570536747537
3912.011,0.6709973388338925,3.812581116121296
3912.9111,0.6885071710659464,1042.3487119908145
3913.8113,0.7150106516936011,2.1008868962867826
3914.7136,0.7425916860013501,2.3524503553396756
3915.6143,0.7637476388790487,16.473202298797133
3916.517,0.7746422479453304,4.314617885983962
3917.4182,0.7750979887773206,9.690891349362875
3918.3215,0.7679066244610118,9.931724776956832
3919.223,0.7573253551104532,67.07624546368258
3920.1245,0.7465501516855122,2758.902458037253
3921.0286,0.7356774271207158,12.56013801294688
3921.9307,0.7227124816989171,4.537028126978688
3922.835,0.7069921710305229,3.243646129417882
3923.7373,0.6915680575977825,9.5061150059069
3924.642,0.6807902027139021,127.49377513724882
3925.5452,0.6767293539951916,3.3615367527909084
3926.448,0.6779628590589543,4.241053629305094
3927.3535,0.6818242336203179,4.433213357261892
3928.257,0.6862235168918269,105.92422233847762
3929.1628,0.6897284458162384,16.66564975084629
3930.0667,0.6913005299225979,2.699698637369945
3930.9731,0.6913049759131252,2.0102503651351307
3931.8774,0.6922522272884695,6.861165284009283
3932.782,0.6975351248139152,4.528523435033547
3933.6887,0.7085732908802727,15.25524917215733
