wavl,flux,ivar
3566.9744,0.3098364161185053,528.233318224522
3567.795,0.30994456937334375,340.221225683162
3568.6177,0.3080418358616963,446.41391899180894
3569.4385,0.30404976824441704,272.3054437645441
3570.2617,0.2984323500637648,3335.171880118184
3571.083,0.2919412625402853,630.824862362032
3571.9065,0.28513647688729366,672.8109526551493
3572.7283,0.2785026068395317,401.11384792917994
3573.55,0.27260118103160424,186.82111009352667
3574.374,0.26818334578643993,371.0626258733915
3575.1963,0.2658916217674627,1765.1947294098682
3576.0208,0.26585926111134806,2572.0832200995624
3576.8435,0.2678167868054161,1208.9821993881997
3577.6682,0.2714116465961398,923.0886449679933
3578.4915,0.2763011426049888,336.9331834237276
3579.3145,0.28198408405996783,653.945924840763
3580.14,0.2876191711979133,219.28597532520584
3580.9636,0.2921568070504792,779.0745801873418
3581.7893,0.294886429831285,459.6956108533652
3582.6133,0.29564131800370524,388.13817433951704
3583.4395,0.2947187048026354,765.667871263709
3584.264,0.29252863298106885,1120.4469218602585
3585.0884,0.28942932882906053,850.4084236167818
3585.915,0.2858525706287247,179.15179587397745
3586.74,0.28247397818797343,371.66771697973036
3587.5671,0.27996618316353444,270.75913494058307
3588.3923,0.27864932895031036,463.80047548504336
3589.22,0.27829191728693925,529.4002603380452
3590.0457,0.2784726950600947,793.3877204839057
3590.8716,0.2790594603388844,269.9378325448719
3591.6995,0.2803708147443605,350.92130839001203
3592.526,0.282852490703148,1662.9318316247843
3593.3542,0.28661466594722357,895.7533058356194
3594.181,0.2910974296065734,430.0734164954923
3595.0098,0.29525731577127134,213.01319668171126
3595.8367,0.2980254400501107,316.7192280182559
3596.6638,0.29903140679195755,3690.3612032707033
3597.4934,0.2988584395968696,4502.238490838883
3598.3208,0.2987150603003422,403.75058560015066
3599.1506,0.29962730108623586,427.2939664767341
3599.9788,0.3017680537331905,362.7113600998199
3600.8088,0.3044123945678372,362.55162349776407
3601.6372,0.3063676800656128,870.4584050506164
3602.4678,0.30656603928755444,466.63303626585076
3603.2964,0.3044162200931994,388.59024815829275
3604.1252,0.29999177226994495,394.6241922330827
3604.9565,0.2940347266757048,376.4689457432417
3605.786,0.2878888810196419,762.789857010501
3606.6172,0.28304391655536904,530.5888505754909
3607.447,0.2806641436684768,1130.3282374244795
3608.2788,0.2808641830623592,1087.172505811514
3609.109,0.2824754862499147,980.9000803509348
3609.9392,0.2836135612601284,181.64908260478452
3610.7717,0.2829186715489046,175.5795415733799
3611.6023,0.28057358028095847,307.8013835318643
3612.435,0.2782026753089168,235.80128917805357
3613.266,0.277752891222578,1873.4923453793813
3614.0994,0.2801404338862951,331.8261729018099
3614.9307,0.284725417091407,663.4147039562605
3615.7625,0.2899190020029032,312.0558654498291
3616.5962,0.2942449691611507,304.12773292849596
3617.4282,0.29703485623636267,1666.718857774624
3618.2625,0.298492768959586,385.3881497687263
3619.0947,0.29917620749496326,2805.310055435179
3619.9292,0.29949191833299976,544.8023574389242
3620.762,0.2993632669437494,319.63667659937494
3621.595,0.29835692981608214,118.64856353259867
3622.4302,0.29618419693211295,387.9276631685669
3623.2634,0.29317608294447334,503.37012174306835
3624.0989,0.29015347110912265,1166.3953924764783
3624.9326,0.2879959403432305,532.6806803423748
3625.7686,0.28730632341754925,520.766804812806
3626.6028,0.2885020476296765,470.24495391979053
3627.437,0.2917165838548489,17973.971185325616
3628.2734,0.29639453061455295,625.3330689252819
3629.1082,0.30104960089424315,720.5510039842054
3629.945,0.3039781530813104,1917.2647472091714
3630.78,0.30426144582326287,1638.9513667810288
3631.6174,0.3022864749935972,329.8450613722282
3632.453,0.2992240942169666,433.5294394799448
3633.2883,0.29613121167153034,479.40128109086163
3634.1262,0.2935112024125349,275.42606130834866
3634.9622,0.29142235959728724,532.0803202300881
3635.8005,0.28963551945223565,377.35029011111607
3636.637,0.2878185373348761,1126.1328324778594
3637.4756,0.2857697788485518,1092.5222535568648
3638.3123,0.28387392162101777,256.48825122282744
3639.1492,0.28311662347160105,380.6185969566627
3639.9885,0.28443080575603535,276.66429363987965
3640.826,0.28774665141508066,212.95607788531893
3641.6653,0.2917843142330049,306.2210192971885
3642.5032,0.2947234525438549,311.7874837393382
3643.343,0.29528039479803947,535.1964913190255
3644.1812,0.2933015148596769,306.0417965358788
3645.0195,0.28980713395756297,278.779065110556
3645.86,0.28649324614821936,402.0595053509606
3646.699,0.2849301031916097,911.8045996893193
3647.5398,0.28573933854389233,569.5744495496016
3648.379,0.28846220703431835,740.313447884867
3649.2202,0.292143899401556,919.3077525551042
3650.0596,0.29597883836464245,923.8593919389314
3650.8994,0.29951475847277265,946.077971869086
3651.7412,0.3022840398937085,541.2080977113086
3652.5813,0.3036232915412967,411.7489690743135
3653.4236,0.30303915334736264,171.38843247536263
3654.2642,0.30064136521016416,301.02606231374875
3655.1067,0.2971258722684089,1008.1905006134282
3655.9475,0.29329639593748175,1096.689062892429
3656.7886,0.2895187391331091,518.2790082248746
3657.6318,0.28573796129605294,326.33889959653436
3658.4734,0.2819023859883104,1357.0151957398284
3659.317,0.2781755212248158,1618.5500949743082
3660.1587,0.2748439710910905,720.0051363391473
3661.003,0.2719462671896811,339.45021093951436
3661.845,0.2693016731253361,1502.9247542288824
3662.6875,0.26668572695632076,277.788890075004
3663.532,0.2640694647220073,272.803905083538
3664.3748,0.2617069467101647,2265.3290160067418
3665.2197,0.2601181475903967,666.9457029703101
3666.063,0.2600388460511232,554.6507645649831
3666.9084,0.2620644569151466,424.37011633740525
3667.752,0.26616468226799284,1267.5280313304422
3668.5977,0.27148583442707613,693.1342345590525
3669.4417,0.2765971158839445,590.6842591772331
3670.286,0.28030821091712255,255.23260333573182
3671.132,0.28224772169145435,368.5045723090749
3671.9768,0.28289802955111176,464.50213292198686
3672.8235,0.2831051573710256,289.66206632643895
3673.6685,0.2834807035400547,390.7074190655203
3674.5156,0.28413875781948217,461.8715142677386
3675.3608,0.2847305981661198,903.3278331780037
3676.2063,0.284691759532229,1629.5180452307206
3677.0542,0.28359517424553704,535.1899800269351
3677.9,0.2815276081337854,247.6220972444263
3678.748,0.27915247243494623,854.3504275086315
3679.5945,0.2773888377496647,449.6636521521765
3680.4429,0.2767594218942299,2098.1668634151306
3681.2896,0.277028618928874,393.92392839997973
3682.1365,0.2773904680519352,414.7843495705263
3682.9856,0.2771206794511855,451.97027799713084
3683.8328,0.2761142959117973,319.42835834089607
3684.6824,0.27484651743830124,861.0133914417772
3685.53,0.27387851916547956,706.3875514207466
3686.38,0.27340256614514513,824.3192552382776
3687.2278,0.27335059990097976,947.0116367205078
3688.0762,0.27383480752422923,370.27154022607016
3688.9265,0.27531671316016726,3705.316617414638
3689.7751,0.27809025697223066,441.2959993441816
3690.626,0.28163939383452186,2257.5095686182563
3691.475,0.2846492297246323,2366.3205821060797
3692.3264,0.286024171435288,1731.2437382748594
3693.1758,0.2858008914213338,246.80200716756
3694.0254,0.2851195650101998,393.05090586652796
3694.8772,0.2851750145150753,1324.1878436364211
3695.7273,0.2861470344010396,201.51211571624458
3696.5793,0.28692302409837195,305.6473063467638
3697.43,0.2857675910969166,391.8293870310949
3698.2825,0.2815315813786312,920.6367263140507
3699.1333,0.2746960750340961,297.60942215542394
3699.9841,0.2673889586984914,4139.034793985059
3700.8374,0.2623404978030113,512.6926986038809
3701.6887,0.26140239016019684,582.4391899449143
3702.5425,0.2645054084350888,424.9510189767856
3703.3943,0.26982813254654997,302.782598820984
3704.2483,0.27487989083115144,383.4773875091721
3705.1003,0.2776949830210621,373.9596658534731
3705.9526,0.2777542143551061,341.05028221491824
3706.8074,0.2759641861894271,480.0565376564343
3707.66,0.27400584551566937,1239.6799790116818
3708.515,0.27332515131918594,486.67376995933546
3709.3682,0.27444005609152505,1160.1916498212904
3710.2234,0.27677206614967764,1632.840127161081
3711.0771,0.2790545524930873,265.0013450217918
3711.9307,0.28014101393614893,710.7319650405614
3712.7866,0.27969088698011385,578.5176695722606
3713.6409,0.27829026537644913,440.36117930367595
3714.4973,0.27682326649498834,293.13684421501364
3715.3518,0.27564844617825934,1679.1140478944426
3716.2085,0.2743048993614662,1268.0854381262052
3717.0635,0.27214937286621504,3705.71080111165
3717.9185,0.26929510967632353,630.4604107864219
3718.776,0.2669584929836632,1323.2715854223684
3719.6313,0.2667250645757032,306.13700543271756
3720.489,0.2692380305291552,1914.064460231462
3721.345,0.27358093304086595,956.9771751205981
3722.2031,0.27792914501279975,1062.715864658743
3723.0593,0.2807208550820051,507.0084119981172
3723.9158,0.28147003900751,390.9927915443849
3724.7747,0.2805093337620333,388.30451867580746
3725.6316,0.2783434428616644,807.3307646061489
3726.4905,0.2752480760944649,4394.276450735014
3727.348,0.2715043796902495,417.54610568816975
3728.2073,0.26775708414937743,261.55949030239304
3729.065,0.26509800087465635,741.076246483522
3729.9229,0.2644735820374614,3711.0971049957075
3730.783,0.26601735300741125,1273.3300692370904
3731.6414,0.2687708034451665,474.3509973822369
3732.5017,0.2712122139911332,396.83284763795257
3733.3604,0.27214114782313864,311.90799446911467
3734.2214,0.27134442767835554,765.568325549403
3735.0803,0.2695270855386598,489.2197597581743
3735.9417,0.26774268685774816,312.76428671697346
3736.8013,0.2668542422057137,638.1203545088725
3737.661,0.2672007817499513,744.8869036276512
3738.5227,0.2685615188211706,571.8679563123703
3739.3828,0.27030221518875114,497.41640675948855
3740.245,0.27178348323171614,456.03104587813544
3741.1055,0.2727402265485156,857.8364646065727
3741.9683,0.27339543641685565,365.20748388024293
3742.829,0.27411908451465145,778.9187021490549
3743.69,0.2750053091284746,522.0644118030668
3744.5532,0.2757083435086743,5051.702374503573
3745.4148,0.27568272173734626,617.9329304666364
3746.2786,0.2746220726057972,479156.90401167294
3747.1404,0.2726967518069255,319.8049524012989
3748.0044,0.27036841401685113,608.4561317102541
3748.8667,0.26801571383204603,418.9634664497721
3749.729,0.26561626741056354,360.43132270453884
3750.5938,0.2628214552670673,589.1782245435606
3751.4565,0.2593482623222277,949.9925213086913
3752.3215,0.2553615699878962,248.2582353338439
3753.1848,0.2517181863584221,293.4466644269565
3754.0503,0.24957736169692687,455.83044741859834
3754.9138,0.2497413208935462,453.26219323352814
3755.7776,0.25205906216191976,432.7704939570261
3756.6438,0.2555628635542057,424.41889879306746
3757.508,0.25908639136084033,164.8752735930516
3758.3745,0.26194385592502534,844.6331365227767
3759.239,0.26394730371021763,650.0186079738897
3760.106,0.26513224129336904,622.0730915960952
3760.971,0.2655201505585979,340.934718891503
3761.8362,0.26530297843910916,504.28259032396164
3762.7036,0.2650107904436965,247.67919151552545
3763.5693,0.26535410640460155,1019.8895364325481
3764.437,0.2668194755779685,324.60979536925373
3765.3032,0.2694396103540671,450.9683011944039
3766.1714,0.27295418230168284,441.60848930794987
3767.0378,0.2770257085690445,642.8240352809763
3767.9043,0.2813524386690899,632.4281245501646
3768.7732,0.28552724162884113,389.5317633214737
3769.6401,0.2889410104684762,820.1163387878937
3770.5095,0.2910109716997938,637.8779735463897
3771.377,0.291354153818196,412.53177544456986
3772.2466,0.2899272822697931,1234.6603338780892
3773.1145,0.28695701381839606,693.6537855589595
3773.9824,0.2828278860578585,330.5442656060844
3774.8528,0.2780143249179526,465.9473694594524
3775.721,0.2730826492250536,697.842441090678
3776.5918,0.26850606158553464,400.22609332964976
3777.4604,0.2646623604110608,437.16110858320394
3778.3315,0.26169898283088516,387.73508894749335
3779.201,0.2596347189232101,502.77909152593037
3780.0703,0.2583033524628606,725.2439543378702
3780.942,0.25739516029033005,290.6601200094361
3781.8118,0.2565956291576092,753.2854025219308
3782.6838,0.25575330815763914,1018.0613246200232
3783.554,0.25488570987783776,834.2045659886371
3784.4265,0.2539741933417148,351.9134889291051
3785.297,0.2529437642683896,478.86317182513596
3786.168,0.2518958327579697,644.82275246891
3787.041,0.25131334318320464,226.7674023691162
3787.912,0.2518607303785594,1131.4226480432314
3788.7856,0.25392425461060875,366.67981395583695
3789.6572,0.2573067363666779,506.8635681170437
3790.531,0.26133428109052936,879.6672218833382
3791.403,0.26511466081188206,362.29474746586084
3792.2754,0.26797430439434766,680.8939751394338
3793.15,0.26968399087154454,569.7388259134906
3794.0225,0.2704087806296226,1013.8939451824452
3794.8972,0.2703932453772609,463.7530205195895
3795.7703,0.26964891575433053,285.9171657563632
3796.6455,0.2680122629919612,1588.3958665964524
3797.519,0.265474806389674,476.65052205696423
3798.3926,0.26238783267723936,5765.758123001733
3799.2686,0.2594510778660726,1166.6765084149056
3800.1426,0.2575978955897566,1035.714989994716
3801.0188,0.2577160835970038,416.89431586104354
3801.8933,0.26027450390253504,1549.0986335084317
3802.77,0.26488388791132006,678.4375636814128
3803.6448,0.2701756544261237,1019.9394818184787
3804.522,0.27439768895709427,532.7669026456858
3805.3972,0.2761351221431825,720.7110600461535
3806.2727,0.2749653898526625,343.03852957410646
3807.1504,0.27153572814550897,409.44144010264694
3808.0261,0.2673922747086264,532.2109381727139
3808.9043,0.2643735311967584,787.1254616870684
3809.7805,0.26384348654159184,816.0236370975199
3810.659,0.2658919445381282,404.75966156495974
3811.5356,0.269236702787745,667.3801961316943
3812.4126,0.27197609660438204,485.69253990229487
3813.2917,0.2726423175452819,112756.04366017602
3814.169,0.27086647722199686,574.9332028017333
3815.0483,0.26733009342843655,303.00400982620465
3815.926,0.26328692631792233,434.49838344077875
3816.806,0.2599009705969312,567.4577514728701
3817.684,0.2577919784457965,380.8881530215035
3818.5623,0.2567805234127299,518.9574884553215
3819.4429,0.2562019641296671,463.5826986457498
3820.3215,0.2554993187720908,545.9684727918493
3821.2024,0.2546297220759478,865.0093238820646
3822.0815,0.25397387232928564,779.584643953272
3822.963,0.25385238325207105,480.2438009672672
3823.8423,0.25416051535356377,599.901092214692
3824.722,0.25438662306592763,762.3499118354705
3825.604,0.25394217029219746,615.9935615714728
3826.4841,0.25253433029817396,743.7089866998494
3827.3665,0.25035695308604056,678.3935791416711
3828.2468,0.24804508304528036,792.6043540004383
3829.1296,0.2462997732015385,713.0987655605624
3830.0105,0.24552041765015933,927.1525823271845
3830.8916,0.2456456629877867,504.04651183460436
3831.7751,0.2464454457789862,380.5026299323909
3832.6565,0.24785687995888583,671.9044427312338
3833.5403,0.2500142840933138,495.78916726701596
3834.4224,0.25285322203674354,1087.655449156969
3835.3064,0.2558135747775549,1269.2266134718375
3836.1887,0.25790768724953894,226.11706646256337
3837.0713,0.2582968470793776,470.24430195329626
3837.956,0.2567816853924054,484.2063679724043
3838.839,0.2539002711724977,1011.3601914058729
3839.7244,0.2504969090127529,1191.3934534007874
3840.6077,0.24729336165900848,1439.9234962192877
3841.4932,0.2447148238395346,1017.4105653697673
3842.377,0.24317559477486686,715.1344456046654
3843.261,0.24319184143350656,522.8106885732861
3844.1472,0.24515715959317944,1162.628338529581
3845.0315,0.24881190566723957,557.1324399361598
3845.9182,0.2530783043199409,747.5453038411343
3846.803,0.2564395227243921,345.85587250154197
3847.69,0.2578592525928442,818.094398948579
3848.5752,0.25736426622183384,481.0031012335953
3849.4604,0.25602109531781686,539.3483541045223
3850.3481,0.25524325755762883,538.5293418531841
3851.234,0.2560151890203641,577.3662186539636
3852.122,0.2584880009235334,1023.35125953916
3853.0083,0.26208341884403813,1645.388331224206
3853.8967,0.26590783813543345,448.0061249577851
3854.7832,0.2690083051919035,470.98672934846445
3855.6702,0.2706473174182175,483.49932602640456
3856.559,0.27050149205648294,417.9603952415109
3857.4463,0.268897375712203,459.3915383923408
3858.336,0.26674714914922865,583.4187199510317
3859.2234,0.26514958735225264,493.34338224134035
3860.1135,0.26481382468185183,550.3571639258387
3861.0015,0.2657691286282206,490.36817399131644
3861.8896,0.26741309638314703,489.686534069555
3862.7803,0.26889862089725564,320.76417763476144
3863.6687,0.2696162969918633,429.81216805890693
3864.5598,0.2695350495277012,572.8404364858334
3865.4487,0.26905823819065633,1031.5474331620878
3866.34,0.2685515143638602,488.1310477542583
3867.2297,0.2679910045559404,492.6863972842395
3868.1213,0.26706047077757133,827.5645440368003
3869.0112,0.26559096719231085,342.28284251093004
3869.9014,0.2638616958657503,4635.307668867712
3870.7937,0.2625232458302454,1457.963562964666
3871.684,0.26218995061459566,681.1450876266439
3872.577,0.26295883794908886,968.7068754969473
3873.4678,0.2642256260756009,452.220526548172
3874.361,0.2649306415991096,368.32025822882946
3875.2524,0.26407422516537976,624.9832797694748
3876.1438,0.2612143327190045,607.3507362641874
3877.0376,0.2565864873297974,578.3230722134645
3877.9297,0.2509313366615988,677.0229307026043
3878.8237,0.2450131451506778,319.62213054584646
3879.716,0.23938914747480491,1374.2295537775565
3880.6108,0.2342490340398909,755.1456774368232
3881.5037,0.22967755319886854,386.3564024461534
3882.3965,0.2257760267491156,421.0901092366678
3883.2917,0.2227761885282206,1547.059851145217
3884.185,0.22097344036657232,1109.1836668668625
3885.0808,0.22056541915914246,871.8784382334558
3885.9746,0.22161411144227688,1405.4050878413955
3886.8706,0.22397194700098405,542.8684735708564
3887.765,0.22718990890284166,899.3729810612667
3888.6592,0.23056859836270693,646.5406232445212
3889.556,0.23339026401862095,457.98710571787217
3890.4507,0.2352868763876644,483.8532681866002
3891.348,0.2365276149596435,1167.9032671325554
3892.243,0.23776573360515277,1101.8221697530857
3893.1406,0.2394904172465776,642.887721959612
3894.0361,0.24156295526627364,767.2073762538475
3894.932,0.2434124044730558,325.75985203006326
3895.83,0.24463843604406235,498.1555478583226
3896.7263,0.24546297171840162,702.9010509579169
3897.625,0.24659746605113175,598.8608379556915
3898.5215,0.2486274142322283,704.9246723715601
3899.4207,0.25158495132939573,1370.9883116124795
3900.3176,0.2549518226567931,1589.8965996982947
3901.2148,0.25815802604305266,821.8658862766079
3902.1145,0.26101614339953816,616.5945645233351
3903.0122,0.2638109730388843,2572.9396516862535
3903.912,0.26701489270722034,384.1448602603863
3904.8103,0.2707600989416598,336.83557521198384
3905.7107,0.2747397358940581,428.3746558592511
3906.6094,0.2783942535961471,688.463016172175
3907.508,0.28127119667927664,476.12738645067896
3908.409,0.28306504421848827,420.72917477534213
3909.308,0.28355903640073765,711.6057079325642
3910.2097,0.28270037186136593,932.5649628913948
3911.1091,0.2807374522181315,292.955173938933
3912.011,0.2782429915508957,636.3542940180812
3912.9111,0.27597594190620384,321.74514660956504
3913.8113,0.27455951980295934,453.94370406546216
3914.7136,0.27428910348495206,334.13141137907303
3915.6143,0.27507260335786343,445.3727160078419
3916.517,0.27650098112302846,1141.3876273215694
3917.4182,0.2780132345719748,363.63240954592334
3918.3215,0.27918698995438845,856.124166967365
3919.223,0.2799549311780904,410.125399559241
3920.1245,0.2806233761690439,412.6621217665348
3921.0286,0.28158871790034096,618.3371109327849
3921.9307,0.28299336507888073,1348.2662775452313
3922.835,0.28461174225738034,256.654176500977
3923.7373,0.28600035544198565,364.37746709153316
3924.642,0.28685645861911935,276.0896476765649
3925.5452,0.2872292158247858,430.7761366502962
3926.448,0.2875284787546492,517.4830663297425
3927.3535,0.28831330480710166,361.3989609007564
3928.257,0.28999107158392345,346.1572066914573
3929.1628,0.2925480652373559,419.857134249205
