wavl,flux,ivar
3566.9744,0.18478709167359303,13682.71869685172
3567.795,0.17800384942749622,774.3415176466541
3568.6177,0.1707218184134508,425.68666134706547
3569.4385,0.16446602086955284,1891.3310013226794
3570.2617,0.16022271302457766,2637.18467416638
3571.083,0.15829987286473504,1745.2711080495728
3571.9065,0.1584005906948476,4086.1222774090365
3572.7283,0.16004765854146363,6043.648683011996
3573.55,0.1627717789821554,2733106.4042607863
3574.374,0.16607573468145204,244455.10342636536
3575.1963,0.16942526458571294,1686.4225829741226
3576.0208,0.17257901481218962,1431.9352727177159
3576.8435,0.1757244800942374,31992.38788098195
3577.6682,0.17926691827655417,30171.2509135343
3578.4915,0.18318380352015382,58581.25237394756
3579.3145,0.18679228886590704,5038.048029689679
3580.14,0.18911763757948888,1161.6399134981339
3580.9636,0.18956870066969841,514.7208545556166
3581.7893,0.188287063136382,119663.89276995145
3582.6133,0.18582173122710016,563.4326708130463
3583.4395,0.18265199962349102,417.74908356335834
3584.264,0.179173548947328,3368.93500025064
3585.0884,0.17589721839384886,15026.04987024035
3585.915,0.17351920594371398,1853.1840373557488
3586.74,0.1726528161312737,678.8774269588382
3587.5671,0.17351247047674348,1197.6621537871602
3588.3923,0.17589638898025378,739.752547181136
3589.22,0.1793151363944277,69492.37693743227
3590.0457,0.18303924351162934,922.6619729120673
3590.8716,0.18625512300900524,511.9031753638135
3591.6995,0.18820118824451998,816.7212025133955
3592.526,0.1883763873861049,1318.8148936339776
3593.3542,0.1867445345136082,1692.4152143884353
3594.181,0.1838310442088272,6348.056638515523
3595.0098,0.18064189469428002,782.63531132741
3595.8367,0.17839630896426373,1093.9998214680277
3596.6638,0.1778757903880686,687.1786878243554
3597.4934,0.17884205579846768,441.6678568907252
3598.3208,0.17991872042921192,1601.6000966429147
3599.1506,0.1793599121520891,31746.971474390128
3599.9788,0.17621107318900142,13533.062434786068
3600.8088,0.17097061187810267,999.9454622252148
3601.6372,0.16533130055851478,1034.6061190142646
3602.4678,0.16112805915177236,476.32223239371757
3603.2964,0.15951556362054642,6304.978122952949
3604.1252,0.16057592971242465,242358.5984911492
3604.9565,0.16367226663765377,658.9631016008138
3605.786,0.16790699580420648,1277.1269827012898
3606.6172,0.17246182662043658,52200.371098383446
3607.447,0.17649154821435006,14289.871160006953
3608.2788,0.17915616436834683,460.5962338165536
3609.109,0.17979950706884662,749.7567933541538
3609.9392,0.1783462155402438,9291748.464168763
3610.7717,0.17534895245843965,10477.939277291807
3611.6023,0.17175714036638207,1031.9088712041655
3612.435,0.16851049693874162,608.521507264309
3613.266,0.16640433200445345,2074.7690774231496
3614.0994,0.16592062698256071,591.8882506188473
3614.9307,0.1670921901858023,9849.611107252105
3615.7625,0.16938500014478258,709.3420261230527
3616.5962,0.17189872763703185,9035.33571271366
3617.4282,0.17382648095097902,2140.9743293875335
3618.2625,0.1749457544920463,578.4066720028749
3619.0947,0.1756354858320092,8850.341641413055
3619.9292,0.17652387120218638,1606.24006274557
3620.762,0.17805465981394905,1665.1692913999236
3621.595,0.18039525684506846,383.5675514550293
3622.4302,0.18351418087570737,115414.84515447094
3623.2634,0.1871010628855718,1496.4527528606077
3624.0989,0.19049507092597798,716.495673130212
3624.9326,0.19271896442509195,983.4106773380668
3625.7686,0.1928762761660477,4063.728270705953
3626.6028,0.19044421921169916,598.4426776064156
3627.437,0.18546880204999244,22986238.84882188
3628.2734,0.17857734523459431,50942.312095323396
3629.1082,0.17085523789143425,914.2148575950853
3629.945,0.16328750310646573,1853.4779188497475
3630.78,0.156594853962323,1670.8188008513014
3631.6174,0.15122179213013348,3525.0761528158914
3632.453,0.14762652881210003,1759121.9800305492
3633.2883,0.1458258479675938,2049.539451341729
3634.1262,0.14491949289287817,1427.173747669218
3634.9622,0.14327873551892265,1170.0615095816138
3635.8005,0.13963541839191795,2627.211986646625
3636.637,0.1341626882900633,994.8427617175605
3637.4756,0.12831718720221044,775372.2486396375
3638.3123,0.1238336758749568,2233.1500899437597
3639.1492,0.12154952360315031,18531.56787880341
3639.9885,0.12122300232376576,4715.048195801533
3640.826,0.12205600182479728,1740.1799923824356
3641.6653,0.123401438974063,2373.053843602711
3642.5032,0.12506685287900188,11532.05476413023
3643.343,0.12714619960894924,3932.8413422051253
3644.1812,0.12963704855936845,1845.2568779436551
3645.0195,0.13233486124810206,3013.4279825716403
3645.86,0.13497321707488136,1780.9572560614668
3646.699,0.13739582160691965,3762.518492806562
3647.5398,0.13960132704010403,1945.243005521447
3648.379,0.14156117911563793,3884.8447313492443
3649.2202,0.14318692430220203,1307.4053218999554
3650.0596,0.14436382444290302,914.052545504961
3650.8994,0.145041881659742,4439.155400875006
3651.7412,0.1451467828450885,4433.230034239421
3652.5813,0.1444931242954519,1338.7635419151875
3653.4236,0.1428730671421559,1814.2747044400612
3654.2642,0.14034333983852804,389979.530334956
3655.1067,0.13735852386407957,15768.879500455769
3655.9475,0.13460567199944165,1599.8060084139793
3656.7886,0.13253636518436568,690.2173758754031
3657.6318,0.1311869940395643,2595.65161215031
3658.4734,0.13038935422748904,12096.640776445844
3659.317,0.13003866228520009,17892.20738739802
3660.1587,0.1300766800223124,16008.229867872984
3661.003,0.13024789031633682,579.2398422294228
3661.845,0.1301096293990745,1212.8285921888678
3662.6875,0.12937848974595695,3841.997466489329
3663.532,0.1281633884346359,7911.146380976254
3664.3748,0.1267617037844212,1466.8133772446774
3665.2197,0.1252280069825462,2992.1892888502093
3666.063,0.1233402290429734,5431.064381494489
3666.9084,0.12097030845392576,1292602.29234706
3667.752,0.1185057190739336,164635.50510749297
3668.5977,0.11671168439029814,8577.811048118388
3669.4417,0.11625551888799045,1599.617733014985
3670.286,0.1171748694689477,2698.89476323479
3671.132,0.11879142406835248,3736.2743450091234
3671.9768,0.12006186411222947,4716.996176468696
3672.8235,0.12025555482345285,1451.98063673237
3673.6685,0.11943342259784928,8458.902702275205
3674.5156,0.11834631820954657,2643.7816401151413
3675.3608,0.11779307226003871,1178.7873533215022
3676.2063,0.11799921443438206,3281.344956368746
3677.0542,0.11859249633962943,2944.5550858896386
3677.9,0.11901209364497228,1274.077908774882
3678.748,0.11889869422357095,1035.79945330903
3679.5945,0.11815964002731677,26212.39080431556
3680.4429,0.11688634153998312,23631.808644724428
3681.2896,0.11535802178771831,26243.38009096704
3682.1365,0.11405614219612842,1963.834503735719
3682.9856,0.11354816348615841,10259.191456385466
3683.8328,0.1141871967475365,63656.02277759774
3684.6824,0.11591804183741965,11102.856032869166
3685.53,0.11840393205915103,27725.2325888684
3686.38,0.12135192103424133,3902.2106711853953
3687.2278,0.12456816533276308,4866.392423697317
3688.0762,0.1279005371568953,2831.7513071374533
3688.9265,0.13117592303038175,2024.3158231374764
3689.7751,0.13428438620377017,3417.976556508908
3690.626,0.1372255757749458,1198.9830452963893
3691.475,0.13984069551955897,1509.8892402328324
3692.3264,0.14171549081431528,1325.4949785354681
3693.1758,0.14233824611264553,568.1115515353073
3694.0254,0.14154743256474828,892.9418830983236
3694.8772,0.1396827004635166,2249.80594193658
3695.7273,0.13733464512156698,3954.996255677795
3696.5793,0.13485442557725735,1835.7042308458213
3697.43,0.13222717497209838,4239.780496219574
3698.2825,0.12930929501666727,4034.5237138817656
3699.1333,0.1262501508168859,1520.4903384737622
3699.9841,0.12349915061557579,2201.30227239734
3700.8374,0.12151097270763915,47588.11377523609
3701.6887,0.12043956980337159,7067.007873571385
3702.5425,0.12008786836840213,1344.4263776651767
3703.3943,0.12015038028818428,2705.187292671118
3704.2483,0.12036171905301134,2481.5356706422085
3705.1003,0.12047588445280086,2822.8206150121705
3705.9526,0.12024053302936356,2732.713228679767
3706.8074,0.11952145456013671,8776.128040632002
3707.66,0.11847638853986357,1960.9799089795167
3708.515,0.11750960822373423,3030.3374190372815
3709.3682,0.11706247804695509,2731.921700261365
3710.2234,0.11737619080650472,1015.6841855835322
3711.0771,0.11839761084781651,4109.206084392172
3711.9307,0.11977721847843634,7656.627332362725
3712.7866,0.12097030671160985,1057.567239183905
3713.6409,0.121453924708044,1826.5776399941735
3714.4973,0.12103027769888747,4852.839530314737
3715.3518,0.11997078333998819,1186.1524864629355
3716.2085,0.1188954407900345,3552.550531708725
3717.0635,0.1184281240074975,5137.269687299224
3717.9185,0.11876685777562736,96973.74276802808
3718.776,0.11954021914968478,776.9475896643842
3719.6313,0.12009939492782457,1890.0298103294426
3720.489,0.12009592774585788,70129.39632731088
3721.345,0.11976437564052769,5591.434069984327
3722.2031,0.11962178871736295,1324.40107700318
3723.0593,0.11988882276970551,1463.3943717651869
3723.9158,0.12025088553288346,5377.403261420596
3724.7747,0.12017797084403724,1224.5247713701115
3725.6316,0.11941131820131545,3144.1320074029563
3726.4905,0.11813661399303081,3627.2044586205448
3727.348,0.116802852960483,2955.2498041873764
3728.2073,0.11584314904318047,2010.3901550915618
3729.065,0.11557410151065209,1799.588266845325
3729.9229,0.11613742024977196,1930.8987381286208
3730.783,0.1174078053153243,10550.82143006266
3731.6414,0.11888885721844657,1377.593941247626
3732.5017,0.1198922973730944,2424.274317386847
3733.3604,0.11994222295370985,3210.235428193032
3734.2214,0.11913974598446873,4091.909263061189
3735.0803,0.1180808683578112,2137.6985592797564
3735.9417,0.11735264365431596,4777.053281678911
3736.8013,0.11706883715382704,2152.019057177224
3737.661,0.11679893403196845,5323.053904172504
3738.5227,0.11597046800088255,4983.664552947
3739.3828,0.11438191401522953,4979.379058975113
3740.245,0.11239123905475461,2663.224667714696
3741.1055,0.11070398543267937,2296.824237573906
3741.9683,0.10988782529403744,3696.687373204228
3742.829,0.1100900890907842,2034.2445192160792
3743.69,0.11104847314962563,3709.8304523057373
3744.5532,0.11239884509551411,3292.4283196145216
3745.4148,0.11395892948124971,5176.422290323022
3746.2786,0.11579581638943705,9630.968021724493
3747.1404,0.11790628708834279,1065.2931977544645
3748.0044,0.11988846892335904,3827.325121560876
3748.8667,0.12089069487311795,3115.476002633917
3749.729,0.12011816569609121,1226.9406358491094
3750.5938,0.11740655951634223,1538.8891557816082
3751.4565,0.11345641017517655,4090.6404755144154
3752.3215,0.10939737741935099,10263.347531235102
3753.1848,0.10622360315433846,33467.569427401366
3754.0503,0.10433750990040964,3043.9873211786917
3754.9138,0.10361724778565606,11158.587462429266
3755.7776,0.10364088870606385,6326.075299013506
3756.6438,0.10399314812945523,10984.913201130688
3757.508,0.1044461746800977,4194.926981992794
3758.3745,0.10500992467385958,3729.977782784558
3759.239,0.1058106868693049,889.7813613141354
3760.106,0.10694634208269417,18884.24908769443
3760.971,0.10841722471258765,3406.017046963007
3761.8362,0.11019264000913931,280099.4316091739
3762.7036,0.11220506051295528,2980.614857537154
3763.5693,0.11424281003432823,2186.422731696397
3764.437,0.11595943098288261,3425.7244856593597
3765.3032,0.11702215876108804,2597.297257293496
3766.1714,0.11738724736434128,19946.71505991341
3767.0378,0.11734365629074515,1958.9538456481132
3767.9043,0.11732460600086929,4904.226938176746
3768.7732,0.11763887979399577,16488.68235956409
3769.6401,0.11832145968534225,2273.2232627205913
3770.5095,0.11913872864140336,4101.47898518692
3771.377,0.11966534067261132,11902.612709981408
3772.2466,0.11944672460425293,18791.506720412403
3773.1145,0.1182090899141751,16023.00655598793
3773.9824,0.11610171501128973,1203.0037555711833
3774.8528,0.11379944687318981,2710.618428334841
3775.721,0.11229915875921377,13214.676830172422
3776.5918,0.11232497946220327,1515.1813848858856
3777.4604,0.11386755244917685,19331.777613121278
3778.3315,0.11619620973173445,3355.217562385574
3779.201,0.11831439776551199,2651.1328640413417
3780.0703,0.11951868984790952,2151.3160047338647
3780.942,0.1196323709221683,3815.187134071366
3781.8118,0.11896170562729319,2617.3652620219677
3782.6838,0.118033682550419,2526.562102747786
3783.554,0.11726686099484789,3149.123625635586
3784.4265,0.11675384382188196,2482.462672917916
3785.297,0.11634816493647711,11399.606788071193
3786.168,0.11590521302210376,1479.2971370612108
3787.041,0.11544188205034214,4489.234045037521
3787.912,0.11504125182770777,5109.465665900872
3788.7856,0.11463271528728919,214908.63466040557
3789.6572,0.11395372158563015,1578.3795109751497
3790.531,0.1127510008002446,1832.260340674256
3791.403,0.11106999950820376,11910416.743234038
3792.2754,0.10930524048355744,22759.988400035414
3793.15,0.10798401849798434,16778.79199917563
3794.0225,0.10741950259219422,3392.6576934458667
3794.8972,0.10747329913132977,2122.932831926895
3795.7703,0.10765636860472155,3191.0361409383286
3796.6455,0.10744757924517265,2416.3419756026587
3797.519,0.10660413475943843,3595.0136480908195
3798.3926,0.10525504826727285,4333.294602452283
3799.2686,0.10377620154253071,9231.743348182225
3800.1426,0.10259409412429556,1967.7900866578284
3801.0188,0.10197495560708357,2493.7330861510573
3801.8933,0.10195463780841604,9171.811043134163
3802.77,0.10236015273411818,2784.7750480991585
3803.6448,0.10293619179217683,36785.24261077572
3804.522,0.10348484605744447,1988.0988756195284
3805.3972,0.10391818903690458,7296.4668898635255
3806.2727,0.10423425200751794,1948.5755487445995
3807.1504,0.10444484675871314,3982.2072075153137
3808.0261,0.10456985587657758,12277.788047495593
3808.9043,0.10470951567178971,2749.343458110002
3809.7805,0.1050763824166054,3202.943212883276
3810.659,0.10589500430109662,2209.776159519034
3811.5356,0.10719821630433282,2832736.371927848
3812.4126,0.1087463405565222,3902.4294599278915
3813.2917,0.11016319527515815,1979.1195341038801
3814.169,0.11117314988531143,6350.453570037122
3815.0483,0.11171335297945846,26559.965985459326
3815.926,0.11177850952129148,4198.374848828372
3816.806,0.11130933233522189,1059.920935610502
3817.684,0.110297151398758,1861.1074522534443
3818.5623,0.10895628472316918,6503.635116189385
3819.4429,0.1076624463936156,843.6455702443845
3820.3215,0.10667230176258016,1738.3351932803316
3821.2024,0.10591430736445787,3768.157613703111
3822.0815,0.10516782558226613,1799.3666649848608
3822.963,0.10438448961439233,1983.261462312209
3823.8423,0.10383753052762845,16891.59677697594
3824.722,0.10388370789630982,3268.9381699005735
3825.604,0.1046129420831121,4924.875829558878
3826.4841,0.10568361497226055,3396.5448955606553
3827.3665,0.10650474849792527,10150.241436316415
3828.2468,0.1065379013472861,1613.0084927079547
3829.1296,0.10553988164737231,5501.8600269688895
3830.0105,0.10363051130897008,5813.01565258052
3830.8916,0.101210648482323,1530.6610589271347
3831.7751,0.09879951017654441,4311.21983383236
3832.6565,0.09684064260435836,1512.8948753987531
3833.5403,0.09548747731993323,5995.902891608253
3834.4224,0.09462853482519075,6161.352526192526
3835.3064,0.09401259894845537,1888.429426829008
3836.1887,0.09345904533302304,35438.81034658306
3837.0713,0.09294811244126637,1966.2176587128288
3837.956,0.09261454897922962,3773.5304240648807
3838.839,0.09268432157356753,8491.650986290933
3839.7244,0.09339687326209091,7518.6015368165645
3840.6077,0.09490425192158211,10037.751147400577
3841.4932,0.09714912877247901,12706.97202292499
3842.377,0.09973102237204524,9106.921960513257
3843.261,0.10201525476869314,2394.18042648765
3844.1472,0.1034288399843821,3395.401490718799
3845.0315,0.10381076278490019,3761.2607459506503
3845.9182,0.10354363250129239,81925.48551912926
3846.803,0.10332640534131324,3652.84604478395
3847.69,0.10380668358504261,40087.05891896793
3848.5752,0.10530325900195872,1491.1903989522302
3849.4604,0.1077407740929632,2661.182492540728
3850.3481,0.11073548287674911,2487.1219668438384
3851.234,0.11367913550245949,5806.26848803578
3852.122,0.11592314565597198,5955.573627948266
3853.0083,0.11693337744007432,1701.3807327887673
3853.8967,0.11657878916547576,1598.881503646785
3854.7832,0.11522938378450345,10178.01191685767
3855.6702,0.11359984460410452,3781.6185796847703
3856.559,0.11241824269651882,3409.265534873428
3857.4463,0.1121551364005019,4243.487114581409
3858.336,0.11290323202181622,2057.5202088256633
3859.2234,0.11440381122032212,2252.4743943062394
3860.1135,0.11617427716694148,2998.812949609185
3861.0015,0.11766718037237112,2618.8564331583752
3861.8896,0.11848679234775833,7555.095733715261
3862.7803,0.1184497974009645,3635.7736600510184
3863.6687,0.11757033572844341,2558.733574544425
3864.5598,0.1160060744223452,2374.9688912337897
3865.4487,0.1140352826222293,2339.1294987284805
3866.34,0.1119524042645031,3436.490391120776
3867.2297,0.11000886218974777,5495.482634668268
3868.1213,0.10834850589967142,1590.4855883726912
3869.0112,0.10709210880147271,2134.063178730519
3869.9014,0.10631425157420726,41449.704472563615
3870.7937,0.10591654886635224,3159.158533017704
3871.684,0.10548274479956685,46029.844317530034
3872.577,0.10437554546945228,2162.9869940196013
3873.4678,0.10214347907869886,3130.5641937568043
3874.361,0.09889421535491831,5995.890026660173
3875.2524,0.09538916853440445,16415.75720572231
3876.1438,0.0926013014581289,6797.981452596855
3877.0376,0.0911621375264292,17926.6670794562
3877.9297,0.09101261788971768,10338.195930550248
3878.8237,0.09149377653702882,2435.4752927756253
3879.716,0.0918060650756414,6793.070806630512
3880.6108,0.09140344595806127,17511.8466158875
3881.5037,0.09007969944838731,4697.86012443739
3882.3965,0.08786440241624581,3335.5531643763925
3883.2917,0.08497293249424245,1899.183118326835
3884.185,0.08185403984207597,6402.795739320438
3885.0808,0.07901958734825747,18815.19473709556
3885.9746,0.07683958618804619,6092.532518828164
3886.8706,0.07534775602567355,5895.945999419429
3887.765,0.07442204435876672,5093.497961221725
3888.6592,0.07400984748425811,7312.591457353406
3889.556,0.07421518612196543,22043.564215558872
3890.4507,0.07512024989322567,3333.810407415872
3891.348,0.0765892173495979,5765.4164871003995
3892.243,0.07826413430254592,3367.308604241273
3893.1406,0.07984886216228211,2815.4672851254613
3894.0361,0.08134243545499283,188978.2884093201
3894.932,0.08306428799549283,6724.789992887999
3895.83,0.08533815124289873,41583.146032651886
3896.7263,0.0881333631455094,5742.305742901241
3897.625,0.09103305373176031,3400.2339403349897
3898.5215,0.093447282303483,2305.287413698299
3899.4207,0.0950640086166044,3454.6664903706355
3900.3176,0.0960220077399681,2373.9773855443464
3901.2148,0.09680443121295157,4458.819333551597
3902.1145,0.09783430191847194,1862.523684218238
3903.0122,0.09918303859773983,2657.0547502512645
3903.912,0.10065724620222036,14672.870806802632
3904.8103,0.10209366356000006,4254.783296190674
3905.7107,0.10359074703706135,6592.608305628469
3906.6094,0.10534993937478508,19315.04048714816
3907.508,0.1073779278607341,3511.3082964308546
3908.409,0.10936063765475894,1538.1381997244398
3909.308,0.11091294429313946,2746.6514615823844
3910.2097,0.11199248673987923,3133.5590283963857
3911.1091,0.112938175619305,12285.85011054572
3912.011,0.11415165162069907,3056.1820323654383
3912.9111,0.1156842646240333,2585.344172966304
3913.8113,0.11719918986388285,3051.7657009248724
3914.7136,0.11824923481173251,2343.44911901476
3915.6143,0.11861305445582622,2598.2920965737435
3916.517,0.11846041196250613,1850.1875236256483
3917.4182,0.11824475654463892,3271.124695558376
3918.3215,0.11844445414224365,4190.367719953489
3919.223,0.11929983628468514,3358.018498466425
3920.1245,0.12070738770492158,2654.5615000344865
3921.0286,0.12232900057844827,5034.878267479421
3921.9307,0.12379970942426698,1498.2207180600253
3922.835,0.12492751644886753,3127.1449971756792
3923.7373,0.1256940577636583,1872.1848087236858
3924.642,0.12619583414156924,1219.6552642857787
3925.5452,0.12653569452632557,4986.293353496872
