wavl,flux,ivar
3566.9744,0.6175783257631853,541.1515156887875
3567.795,0.6156174328414993,604.4983907548021
3568.6177,0.6132343572549694,1099.2453823106662
3569.4385,0.6108907551894389,436.2678410763856
3570.2617,0.6081778687085921,649.7849034585812
3571.083,0.6045006833897634,791.4559242554736
3571.9065,0.5998704562569531,310.8801357970456
3572.7283,0.5952539783329462,753.3616610209435
3573.55,0.5920131832020094,1026.7736360980516
3574.374,0.5910886266103659,1022.9543834898627
3575.1963,0.5923929022673582,336.55702071948076
3576.0208,0.5949481504683739,577.0920418277368
3576.8435,0.5976827033677091,519.0052025028848
3577.6682,0.6002267040644532,614.9292541566147
3578.4915,0.6028466805737296,652.3738489884039
3579.3145,0.605748904894601,372.86755503983443
3580.14,0.608482535528697,450.6511635681803
3580.9636,0.6101561695553778,327.72624042248805
3581.7893,0.6102623640041586,659.5419542418288
3582.6133,0.6090619148201476,509.98553863024915
3583.4395,0.6072399265400747,492.5432727331869
3584.264,0.6053464572280072,439.5536271405864
3585.0884,0.6036071479001653,531.22796095143
3585.915,0.6021664738931097,411.8227178197722
3586.74,0.6012717337314066,752.9199072396242
3587.5671,0.6011386134128396,451.8132955486393
3588.3923,0.601721396555383,450.00059105267127
3589.22,0.6026009153466749,510.7299765890812
3590.0457,0.603172675202343,614.9040055898862
3590.8716,0.6031063962680868,963.5617004840731
3591.6995,0.6026418464779226,639.7984493708636
3592.526,0.6023238855924996,1133.3847850217683
3593.3542,0.6022360797760418,1050.4815428080738
3594.181,0.6015229525854328,513.8592063851257
3595.0098,0.5988585337952462,519.2643541042378
3595.8367,0.5936693926396219,630.8021978355066
3596.6638,0.5869292010952092,851.2946782320656
3597.4934,0.5807796952523244,358.9562255156896
3598.3208,0.5772357123385606,2095.940380933529
3599.1506,0.5769305227865338,542.7389638616334
3599.9788,0.5791648335901811,528.9620154903702
3600.8088,0.5827524658096094,592.7956365999581
3601.6372,0.586742044904341,409.9247603784496
3602.4678,0.5905187134712173,538.3605042009468
3603.2964,0.5934624416661305,506.4472770394196
3604.1252,0.5950840599284233,368.24047553073666
3604.9565,0.5954029246331363,471.15767131911025
3605.786,0.5950797454255297,579.6106575011398
3606.6172,0.5948799363639546,732.1380638654567
3607.447,0.5949738679467201,347.6492444696897
3608.2788,0.5948530918789506,1041.3539458931307
3609.109,0.5939202383433674,625.720395155459
3609.9392,0.592058714134227,1059.1698857371475
3610.7717,0.5896458203854261,815.563216331125
3611.6023,0.5872365008040727,445.69823307029833
3612.435,0.5853281221940426,381.9963061099902
3613.266,0.5844511767110915,821.0301855406632
3614.0994,0.5850378561162527,778.1443028272823
3614.9307,0.5870015174980874,629.2139347666356
3615.7625,0.5894499687829816,606.3186742566861
3616.5962,0.5910992580145955,834.1631068737413
3617.4282,0.5912364436798343,341.8058475872758
3618.2625,0.590388304665336,770.4282338642912
3619.0947,0.5899628068576204,570.4782078117114
3619.9292,0.5911636359965431,626.1935210386504
3620.762,0.5941082258659561,757.9746364453305
3621.595,0.5978436573592125,441.3166003015591
3622.4302,0.6011416787706052,455.0327715053617
3623.2634,0.6033908059827103,587.467163061923
3624.0989,0.6049441340670985,582.5356202347551
3624.9326,0.6064978738682727,720.2508730612096
3625.7686,0.6082669134618192,1090.0927685200686
3626.6028,0.609673637880438,567.8402423828185
3627.437,0.6098676791910363,471.98161436279906
3628.2734,0.6083345308499313,838.4003400992542
3629.1082,0.6050943346951473,523.2314361350773
3629.945,0.6004696457653849,459.93935000225235
3630.78,0.5950217212644554,452.99627043426216
3631.6174,0.5895926082503357,1021.8139058258901
3632.453,0.5854709986109972,1014.6486577665908
3633.2883,0.5839140435980096,552.4545028224654
3634.1262,0.5855123707257442,498.3501417024279
3634.9622,0.5897279891847037,802.8427242183011
3635.8005,0.5952818070974284,562.775117167578
3636.637,0.600969732782604,661.3395155096318
3637.4756,0.6063884845443059,357.9424507941569
3638.3123,0.6116109245433359,692.400957514219
3639.1492,0.6165283828192828,635.4745407570373
3639.9885,0.6203876974515705,835.2642823379041
3640.826,0.6221937681544538,591.2658834523646
3641.6653,0.6216254104762053,440.8350669087577
3642.5032,0.6193845337091008,788.1517898649874
3643.343,0.6166962602552188,457.94037205942925
3644.1812,0.614476887206449,572.9884721622042
3645.0195,0.6129312598893001,512.4019529859951
3645.86,0.6119412470707886,446.6158140459143
3646.699,0.6116041114002259,625.0194685406609
3647.5398,0.6122810482568507,790.1193290136393
3648.379,0.6141656812052966,1147.1023839855047
3649.2202,0.6169397771442131,420.32079730738417
3650.0596,0.6198950130127217,480.8533422047
3650.8994,0.6224284531487917,517.397679299575
3651.7412,0.6242183202923485,1002.7623740596563
3652.5813,0.6250456695245107,483.43042955963995
3653.4236,0.624660877148385,542.6442866447394
3654.2642,0.6229508706234917,579.8334734648847
3655.1067,0.6202240955994547,586.2467699734807
3655.9475,0.6172279130070614,809.9541676230301
3656.7886,0.6147614364759687,497.8757589862313
3657.6318,0.6133381146701645,1338.229764464278
3658.4734,0.6130997080006039,416.6708238475765
3659.317,0.6139613776396441,1044.5426010520619
3660.1587,0.615831690938033,2186.2880866713213
3661.003,0.6186839795090223,533.0731095333352
3661.845,0.6223075023421875,543.4466892391554
3662.6875,0.6260282156832516,287.05483329973544
3663.532,0.6286450206959838,507.05067607309877
3664.3748,0.6290040635752376,421.7467251200461
3665.2197,0.6269414224376872,497.7459104132405
3666.063,0.6236781005350944,347.364810074468
3666.9084,0.6210919611115632,796.1570690658796
3667.752,0.6204047892124129,1019.5568631930337
3668.5977,0.6213199562315135,566.8592857616526
3669.4417,0.6224673579839317,760.7686661508011
3670.286,0.622629524290046,591.0328862093214
3671.132,0.621648874137382,531.5548096237125
3671.9768,0.6203765153057778,404.9857898161734
3672.8235,0.6198163511133427,488.80007853545106
3673.6685,0.62029619724393,366.6477813791323
3674.5156,0.6212959716380418,478.2542521522238
3675.3608,0.6219800787974408,558.1748577994949
3676.2063,0.6219173526041986,345.7608104070378
3677.0542,0.6213814270488447,365.1953862865272
3677.9,0.6211209995059105,736.8761424783042
3678.748,0.6217943513041476,452.5749998849063
3679.5945,0.6234856918714821,548.9862637996075
3680.4429,0.6255781289925636,608.5895714067066
3681.2896,0.6269682408201385,359.2153049199545
3682.1365,0.6265820346714619,842.6057331445016
3682.9856,0.6239027507470101,557.1382779976353
3683.8328,0.6193505923360543,1020.2826557612422
3684.6824,0.6140337215396561,1432.9520058583876
3685.53,0.6091851778273767,523.7855669853228
3686.38,0.6055993424490905,484.88841820282425
3687.2278,0.603849477020631,453.832561231853
3688.0762,0.6044956941528064,576.6393180645579
3688.9265,0.6078935101851517,811.0574634507941
3689.7751,0.613577654732564,499.8405015582479
3690.626,0.6202237706937511,417.2649433785537
3691.475,0.6261559609689351,670.7619538253808
3692.3264,0.6301163583180145,626.296927165704
3693.1758,0.631321060703906,524.8436982268568
3694.0254,0.6293872597676623,440.67675275161866
3694.8772,0.6244140216527004,354.89999985848465
3695.7273,0.6175083124292403,446.2922220595063
3696.5793,0.610762534738123,747.4254611121792
3697.43,0.6064609328290389,918.6529124049639
3698.2825,0.6056272590608961,609.3477351163828
3699.1333,0.6074735117966631,840.8111826075565
3699.9841,0.6101662389615745,477.28999466854737
3700.8374,0.6122968919294259,581.87863592878
3701.6887,0.6136177950695529,936.2339051439201
3702.5425,0.6146311248236533,739.5427009949792
3703.3943,0.6156140509829889,474.9475435364263
3704.2483,0.6162003682194196,411.6448638278064
3705.1003,0.6156936393131558,589.1835042287496
3705.9526,0.6137497729225143,509.0080628972004
3706.8074,0.6108344244468249,566.9244782902051
3707.66,0.6081806058651328,819.9342400925784
3708.515,0.6070088270749123,708.6930519652701
3709.3682,0.607591820665638,454.37329147137876
3710.2234,0.6088187976946314,323.16465708906946
3711.0771,0.6088527513583128,718.7314397332666
3711.9307,0.606399663129348,593.4267313313208
3712.7866,0.6014818119230402,532.0420138268618
3713.6409,0.5952839097954666,502.66650786752257
3714.4973,0.5892253395063326,1605.721422968527
3715.3518,0.5844103562870581,649.846708521006
3716.2085,0.5814321234412656,1440.5695117208757
3717.0635,0.5806179584129599,906.1600243795483
3717.9185,0.5819844725407517,806.5297832704438
3718.776,0.5851575536443733,1262.8038063731697
3719.6313,0.5892962939314668,720.4240823048005
3720.489,0.5932888255873648,888.2113946411399
3721.345,0.5959346183561649,804.2230035439609
3722.2031,0.5964081482920814,476.574074989295
3723.0593,0.5947377996291482,346.60186288139965
3723.9158,0.5920223445559564,1005.9191235768307
3724.7747,0.5898263244746593,1240.0575237213714
3725.6316,0.5891275650254495,477.1998993623076
3726.4905,0.5897252528169564,314.62752496874896
3727.348,0.5907333206301758,977.4078116368279
3728.2073,0.5914565176157999,752.0461730499995
3729.065,0.5917785384764079,563.1721672263584
3729.9229,0.5919768610466415,619.4892410915936
3730.783,0.5923553797048139,591.5449306877731
3731.6414,0.5930044786281177,749.1513633419485
3732.5017,0.5937640789388461,747.7589356330543
3733.3604,0.5943780450842788,732.7870001746069
3734.2214,0.5947290705028129,429.0353578929606
3735.0803,0.5948510464728944,553.3492300326839
3735.9417,0.5947321496694321,758.467970178045
3736.8013,0.5941743152064283,545.1099952428203
3737.661,0.5929509919915142,505.2718493320416
3738.5227,0.5911294562767311,677.469648725622
3739.3828,0.5892456943976351,469.4679515430361
3740.245,0.588024896777034,451.1034019482931
3741.1055,0.5878771603465563,480.60437815772866
3741.9683,0.5885191085958837,478.7121305094542
3742.829,0.5891362219403433,550.5691536087477
3743.69,0.5889049425950362,689.9671357915945
3744.5532,0.5873933532639508,467.4993351198782
3745.4148,0.5846847484731437,600.04729804114
3746.2786,0.5812803652098247,606.0947118998429
3747.1404,0.5779993621136893,690.183375243851
3748.0044,0.5756534241749468,880.718938174857
3748.8667,0.5747980774522752,486.2953400806274
3749.729,0.5755820775520825,552.8202248515804
3750.5938,0.577879213755769,490.20143119512653
3751.4565,0.5813186934984879,614.024976543994
3752.3215,0.5852858581425772,618.215646528581
3753.1848,0.588969176659597,568.5116953409647
3754.0503,0.5918227428314212,593.935831642262
3754.9138,0.5938699661974773,394.68449577705417
3755.7776,0.595636265456896,335.78185936383073
3756.6438,0.59756580378439,756.4028410381968
3757.508,0.5995547973307264,393.05902738502823
3758.3745,0.6010815665611232,593.9413447845967
3759.239,0.601688931482795,504.28768182356845
3760.106,0.6013814608451056,1059.3130682610333
3760.971,0.6004732116076327,688.8245177995365
3761.8362,0.5991545398596234,1017.3099408340922
3762.7036,0.5973241130550784,580.6874611447553
3763.5693,0.5949382572333889,537.9825886956472
3764.437,0.5923906561649617,552.0182646419762
3765.3032,0.5904652114417028,861.3670417937597
3766.1714,0.589786137196745,608.7551704574023
3767.0378,0.5905729373045777,374.00366934787854
3767.9043,0.5929475737406723,570.7729817508198
3768.7732,0.5972656706115839,552.833421811253
3769.6401,0.6035144492036029,605.5346731734057
3770.5095,0.6102205861002978,694.8370170476769
3771.377,0.6140532287290339,653.6553581156245
3772.2466,0.6116673571412625,703.8090641394037
3773.1145,0.6023741560107182,743.8547378421766
3773.9824,0.5892139004548523,635.8016977167609
3774.8528,0.577129654703581,778.5053929043302
3775.721,0.5700568915589992,805.1003493753243
3776.5918,0.5689223991226735,672.8749991401364
3777.4604,0.5720767028002167,541.7882457475074
3778.3315,0.5767084503418932,639.7186891668426
3779.201,0.580340561559629,430.920133282785
3780.0703,0.5819203862743169,667.1892320842528
3780.942,0.5819954543375918,620.3790136789711
3781.8118,0.5820359304019709,788.9003114929922
3782.6838,0.5832623742096127,673.7155443700022
3783.554,0.5857664678229016,313.78667644666393
3784.4265,0.5884872239575817,535.6276863859699
3785.297,0.5898370909698826,458.8186142106681
3786.168,0.5886880199141481,838.5449303557049
3787.041,0.585047651165922,567.5037823849351
3787.912,0.5801550676824833,473.2781891157512
3788.7856,0.5756711972711832,562.1536523093644
3789.6572,0.5727368648847391,691.7491814061411
3790.531,0.5714458471512058,644.5444929910914
3791.403,0.5713580662409175,633.0464534027536
3792.2754,0.5722227276095274,644.4331284315406
3793.15,0.5741441045388231,702.8054933510672
3794.0225,0.5769599143583974,634.5991575229478
3794.8972,0.5797488018128962,838.1496339724902
3795.7703,0.5811045408721776,556.041379043166
3796.6455,0.5801267943438666,504.22572961289825
3797.519,0.5770749327680239,677.521329076223
3798.3926,0.5731659432100927,521.8271626020692
3799.2686,0.5697776213183673,562.6155058928732
3800.1426,0.5677709899671822,908.8588032825104
3801.0188,0.5672360208741469,868.5100579454415
3801.8933,0.5678403150583298,427.732278470069
3802.77,0.5692984532781886,613.8481269773569
3803.6448,0.5715931047811081,910.0866723086854
3804.522,0.5748056362792184,620.3727040529596
3805.3972,0.5786913080097404,530.6644144559491
3806.2727,0.582574826769559,462.2920802508404
3807.1504,0.5855318497831499,687.979903548329
3808.0261,0.586766723162112,588.0764956085841
3808.9043,0.586001917300011,648.7491375959416
3809.7805,0.5836442442468623,737.7308940537789
3810.659,0.5807464839947781,2670.311932248003
3811.5356,0.5787559692118842,736.1692509988072
3812.4126,0.5789527400405475,537.3122464065457
3813.2917,0.581884306651991,1064.277678787275
3814.169,0.5869625437144046,508.0924454756475
3815.0483,0.592713120109869,443.22427477758794
3815.926,0.5974079720795787,437.78543164593697
3816.806,0.5999002036913772,610.7144467164144
3817.684,0.5998424125338442,439.59891895628033
3818.5623,0.5975549390775875,657.9785416638578
3819.4429,0.5937180058955615,822.298238528867
3820.3215,0.5893318375345672,596.8175335587106
3821.2024,0.5855865753153049,826.0792328074617
3822.0815,0.5836297148646798,653.0176504567489
3822.963,0.5839874750153863,586.486668800935
3823.8423,0.5862172950350918,1006.3192426647802
3824.722,0.5890389262114563,631.5321879741248
3825.604,0.5909459750994001,637.4173346472664
3826.4841,0.5908475471431379,422.6829517482935
3827.3665,0.5883743942408988,990.5202835767192
3828.2468,0.5837478117191801,621.1463147774845
3829.1296,0.5774772448399741,825.6186625101142
3830.0105,0.5702990589071669,654.1951060068003
3830.8916,0.5629926367980449,574.921175526565
3831.7751,0.5562702296283304,750.9754316624513
3832.6565,0.550618816783883,1546.713524649566
3833.5403,0.546058643393677,597.7209806689848
3834.4224,0.542315358581992,702.8146751077403
3835.3064,0.5389155716327897,865.101395622104
3836.1887,0.5354850329105234,785.7538110281679
3837.0713,0.5319435775682778,495.42797136238096
3837.956,0.5286996175502766,769.5482296109867
3838.839,0.5265212885708266,538.1408898153227
3839.7244,0.5259655098377282,802.8927858321006
3840.6077,0.5269490243329562,969.1121093399829
3841.4932,0.5288403491898274,1131.359088925053
3842.377,0.5310113829414193,968.3839072478886
3843.261,0.5333071755015183,1145.078479858927
3844.1472,0.5360068873481416,891.1920372921059
3845.0315,0.5394469297562006,866.1185117519797
3845.9182,0.5437593757622207,872.9566284584178
3846.803,0.5487648058334953,715.8735781486432
3847.69,0.5542308565639519,821.6183794682929
3848.5752,0.5599336947950465,747.8502949588601
3849.4604,0.5657353457327201,1329.0316941959495
3850.3481,0.5715221407705,590.4551349038165
3851.234,0.5772359911456743,943.4976125340773
3852.122,0.5830495963234122,631.2084246398542
3853.0083,0.5890861144742313,914.9071711742297
3853.8967,0.5952066253651097,638.1417839427678
3854.7832,0.6007984389991082,573.3020332422286
3855.6702,0.6052168287544066,653.019693545987
3856.559,0.6082101915367724,430.62661788181555
3857.4463,0.6100700196349278,601.8532692354436
3858.336,0.6113714214964865,680.3281173866062
3859.2234,0.6125543041177341,433.0781149273644
3860.1135,0.6138546274180086,586.1685386716929
3861.0015,0.615422280684021,786.7346776789269
3861.8896,0.617444847494671,521.6757524245322
3862.7803,0.6200085002738712,752.5462686354786
3863.6687,0.6227919194515518,779.6624259997151
3864.5598,0.6249543199804403,503.53821015877594
3865.4487,0.6252921658809268,516.6701536212886
3866.34,0.6228007425589845,474.4565705462436
3867.2297,0.6171771427078977,694.391628062565
3868.1213,0.6089733728444716,514.5781160739721
3869.0112,0.5995628550483328,489.10955988196287
3869.9014,0.5906884496519308,577.0374263260802
3870.7937,0.583972754761031,653.1093714493156
3871.684,0.5803298325688102,615.8682755771534
3872.577,0.5795158064408286,565.8101870551473
3873.4678,0.5803716153240357,905.1992517850045
3874.361,0.5813651388745104,511.5978464767787
3875.2524,0.5811952655270708,520.1878930256474
3876.1438,0.5791850347754716,507.86048570617913
3877.0376,0.5753825022296146,581.7856026269295
3877.9297,0.5705125808210043,714.9733987541086
3878.8237,0.5655718286157865,627.8515648200257
3879.716,0.5613362447567325,719.5306819765697
3880.6108,0.5577822598817479,1319.5231824769187
3881.5037,0.554089574796547,591.2475797633182
3882.3965,0.5490248913872712,609.351932206398
3883.2917,0.5416304604116511,1035.4713274116746
3884.185,0.5318231264533563,648.5882259550272
3885.0808,0.5203654906024242,1127.9579973306306
3885.9746,0.5086781211417702,931.5623661729551
3886.8706,0.4980043755450795,786.1016196372778
3887.765,0.48915534488030527,1401.5510816167373
3888.6592,0.4823340896336744,1097.7148847683065
3889.556,0.4775243879369702,1350.8925983146373
3890.4507,0.4747802225437778,734.0204295502796
3891.348,0.47418869819929016,1141.1232188070192
3892.243,0.4757822615643252,954.1532344862793
3893.1406,0.4793520320977221,749.9603204559231
3894.0361,0.48434459240084116,1262.1866378593072
3894.932,0.4900819143879347,1031.8202905645471
3895.83,0.49610641065782213,977.8745299644543
3896.7263,0.5024003512531362,752.235521804095
3897.625,0.509358130711317,1886.810235676166
3898.5215,0.5171503861392889,1290.1805760325055
3899.4207,0.5253768938380409,926.2255109272435
3900.3176,0.5328014241277691,611.0146003994322
3901.2148,0.5379100164355908,1101.9002152215862
3902.1145,0.5396378092683689,674.7323848313674
3903.0122,0.5383703467190578,775.9919755973461
3903.912,0.536502082138478,644.053670702093
3904.8103,0.5376989259963425,816.2797174939586
3905.7107,0.5448829253102273,564.546997669498
3906.6094,0.5582858280807632,608.1381315011245
3907.508,0.5754191871914339,597.6505697982532
3908.409,0.592745638255899,533.1781110184805
3909.308,0.6073842310920977,698.6428854348221
3910.2097,0.6181610807907941,432.86161606750943
3911.1091,0.6251947457330651,666.2449803747865
3912.011,0.6296618171736816,492.64253458273134
3912.9111,0.6331551244476296,370.8019134350143
3913.8113,0.6372160782418778,373.73316088990447
3914.7136,0.6427683875964876,501.79746626436577
3915.6143,0.6497753782515647,730.3983095612497
3916.517,0.6574305183181985,360.05539959953506
3917.4182,0.6645596367971898,503.8459057473673
3918.3215,0.6704257034258794,475.2630274547962
3919.223,0.675000573978378,429.1941294261419
3920.1245,0.6788818089591552,335.3336083327211
3921.0286,0.6827031053973318,400.85898463077325
3921.9307,0.6866767556215437,372.6353435654616
3922.835,0.690590208245635,412.3154195823307
3923.7373,0.6939715986439926,400.76336206773817
3924.642,0.6964685529167086,317.1210624851876
3925.5452,0.6979630873847378,375.2081184433968
3926.448,0.6985745505881007,512.3102174942426
3927.3535,0.6984728712768156,430.9630459825698
3928.257,0.6977804004742809,476.3922485321729
3929.1628,0.6965857927066433,391.12444551135485
3930.0667,0.6950126997457655,341.67767688217805
3930.9731,0.6931976437394248,471.6902274236196
3931.8774,0.69127044898694,420.5969826515427
3932.782,0.6893041193642241,458.63357345705134
3933.6887,0.6873778944108159,397.808328296817
3934.5938,0.6856345985757706,411.46098585470884
3935.501,0.6842168699483673,442.77371048610337
