wavl,flux,ivar
3566.9744,1.4747485804219291,101.3676959116478
3567.795,1.4689708332925329,101.61428626536151
3568.6177,1.4634716235723608,109.82169606744192
3569.4385,1.4590463316574283,92.90668768360145
3570.2617,1.4561602939694633,92.56658184134527
3571.083,1.4547669697660177,131.43971367963942
3571.9065,1.4540459702919493,141.69952365998137
3572.7283,1.4525117244622636,126.96058992636367
3573.55,1.4486213973516624,106.67250613969934
3574.374,1.4417214354881187,92.46036537185246
3575.1963,1.4327046650214836,138.68027490747727
3576.0208,1.4235777710898891,105.70211994238639
3576.8435,1.416593433815043,119.2094106470956
3577.6682,1.4130017893093787,127.6278909648678
3578.4915,1.4125699380022796,134.46086110608888
3579.3145,1.4137271552501205,129.19427134459877
3580.14,1.4144613422160135,94.73802580094036
3580.9636,1.4132086228558598,171.53647394355
3581.7893,1.4093283120618012,93.09568264006471
3582.6133,1.4032013848666784,85.48956959986438
3583.4395,1.3961262298642678,160.3671684565806
3584.264,1.3902174354627737,98.50981079873891
3585.0884,1.3875991140919042,90.30284364138886
3585.915,1.38939790059322,164.95016323154547
3586.74,1.3949979691404533,82.86417598031112
3587.5671,1.402367216251147,103.49235076443934
3588.3923,1.408947873784322,110.393699622004
3589.22,1.4127320478780871,102.0067555647849
3590.0457,1.4128839672093971,111.95907680005905
3590.8716,1.4104101674484755,96.81061141243147
3591.6995,1.4080256632739154,149.0048391153754
3592.526,1.4087985086906623,141.07623643991377
3593.3542,1.4139403574835012,154.63661702135175
3594.181,1.4215409238558931,100.07027096244268
3595.0098,1.4276313858106662,91.08433104038507
3595.8367,1.4286937227884768,99.18310336280757
3596.6638,1.4239300955125305,90.00951352189954
3597.4934,1.415161040793541,125.04642631406088
3598.3208,1.40496560709404,127.69739215501085
3599.1506,1.3944302509189563,80.97471125758017
3599.9788,1.3831154308376012,82.86835879795638
3600.8088,1.37044020905546,103.86953198866829
3601.6372,1.3574839121313864,162.6885769584067
3602.4678,1.3466532626452774,157.87280701416987
3603.2964,1.3402521409395214,85.99826427079971
3604.1252,1.3387904020343913,95.69682672155491
3604.9565,1.3410544108538824,130.85693540992116
3605.786,1.3451294921361212,123.53328775263094
3606.6172,1.3494958290639723,117.09350861823279
3607.447,1.3532320963071869,123.69187659080106
3608.2788,1.3558566208792633,128.87519737109497
3609.109,1.3572045084159745,157.6361041199487
3609.9392,1.3576633073377047,97.48354030890319
3610.7717,1.3581518340920093,79.71060200316583
3611.6023,1.3596337570637187,106.69718899393628
3612.435,1.362436747502217,110.43483093609908
3613.266,1.365930286414476,144.14814671263525
3614.0994,1.3689918711383646,102.33856463703222
3614.9307,1.370742093133845,126.90381816737232
3615.7625,1.3710800097444675,88.50049208808518
3616.5962,1.3704990564722555,106.50773499086796
3617.4282,1.3696818672108992,168.526872648871
3618.2625,1.3692670146753312,118.3583050664843
3619.0947,1.3697477159608358,139.31612735948463
3619.9292,1.371067428886951,104.97426098995597
3620.762,1.372099768246079,129.57101355342536
3621.595,1.3708507600844264,100.35271031416106
3622.4302,1.3656229598570915,105.47712516511602
3623.2634,1.3564465888387873,105.27669194353581
3624.0989,1.3452718751834911,99.1374916715996
3624.9326,1.3350710376935315,122.3465323863114
3625.7686,1.3281708126034564,111.78975234405252
3626.6028,1.3256164351175936,170.826998355881
3627.437,1.3271289813127354,102.45998639859664
3628.2734,1.331563464440222,132.13161823388535
3629.1082,1.3370903215702683,105.46886310674174
3629.945,1.3416165857671996,88.36280866761757
3630.78,1.3433789270292682,95.28499511725153
3631.6174,1.341655763845927,109.93043601635193
3632.453,1.3368217243444191,138.55574320195137
3633.2883,1.3299056111403784,131.5020839520014
3634.1262,1.3221899671718262,137.01092998530973
3634.9622,1.3152133943179258,132.02345414119316
3635.8005,1.3104130444490294,178.88371649177316
3636.637,1.3085417445681427,145.01316287835476
3637.4756,1.308888320889927,141.96139688522112
3638.3123,1.309633416567004,113.60015256915733
3639.1492,1.3092492290874507,120.55610356772677
3639.9885,1.3077760566690388,125.35885368945448
3640.826,1.3067095688125692,116.26168937926917
3641.6653,1.3075102028597658,127.31804025948776
3642.5032,1.3102225284831048,119.5005311866235
3643.343,1.3133717977125607,139.90663705784104
3644.1812,1.3149520160783463,130.25463879038858
3645.0195,1.313640440239526,142.28750417699817
3645.86,1.309395605098722,87.72705290996662
3646.699,1.3034831826869955,164.72475849462748
3647.5398,1.2976796406006537,113.37250673456685
3648.379,1.2931640323216813,150.05894446692025
3649.2202,1.2895866731114058,130.79171590311924
3650.0596,1.2854788432835194,108.00817802225313
3650.8994,1.2794652432415254,120.06659049573851
3651.7412,1.2714409520535142,116.23740720274716
3652.5813,1.2628458258365698,123.13461923359253
3653.4236,1.2558376756532819,135.36108319987764
3654.2642,1.252321235295562,133.66182626546183
3655.1067,1.2528666993736357,117.43847873493863
3655.9475,1.2563931095168959,158.60594310024197
3656.7886,1.2606742271427454,95.63457375694037
3657.6318,1.2635395260955236,205.48447943677513
3658.4734,1.2640036816017859,147.20688058681338
3659.317,1.2626761801447781,172.76261140834083
3660.1587,1.2611818914763981,110.80535596673278
3661.003,1.2611067384787582,126.01488149233164
3661.845,1.2630732362620234,183.1312223823647
3662.6875,1.2663345054657233,178.38333573230364
3663.532,1.2691173594026226,132.87272205605524
3664.3748,1.2695869814077672,187.4090690706405
3665.2197,1.2669684719754444,141.7139470555984
3666.063,1.2619931023855717,147.1477044817782
3666.9084,1.2563698989118455,160.79500773779347
3667.752,1.2519401922244524,123.8920082686511
3668.5977,1.2499186075701356,191.74673309665246
3669.4417,1.250723217688514,140.03108428032306
3670.286,1.2538635072835569,173.19263815260473
3671.132,1.2580479682248245,113.53679725554323
3671.9768,1.2616086768539736,130.48716356956578
3672.8235,1.2633540552029494,134.6413325793557
3673.6685,1.263023698101089,180.08375098411943
3674.5156,1.2610155453017267,109.76547059245298
3675.3608,1.2576638703629137,128.1080408286206
3676.2063,1.252928119318297,173.16544739498846
3677.0542,1.246871674243959,97.58847983032742
3677.9,1.2403792884568476,132.45648008237885
3678.748,1.2350561737166164,139.71199325779773
3679.5945,1.2325298664825912,122.96698314921626
3680.4429,1.2332762694792838,155.49236803336734
3681.2896,1.2361598924864572,113.85994691420127
3682.1365,1.2389446935378212,130.41760948809696
3682.9856,1.2394487764005966,150.7337806157711
3683.8328,1.2365176796778787,145.33645550464053
3684.6824,1.230269489574981,127.37628790417979
3685.53,1.2218993857626252,163.72865275273244
3686.38,1.2132068010670083,119.3830723224274
3687.2278,1.2062471941147892,183.0790949455762
3688.0762,1.2023870520580402,155.88204464099388
3688.9265,1.2016550436245341,138.8491255260036
3689.7751,1.2027198170297972,138.67629652224818
3690.626,1.2037669316301034,136.31808022131577
3691.475,1.2035502949617352,155.3881681635341
3692.3264,1.201929723303474,172.6948387573668
3693.1758,1.1997678644667313,169.25438804067886
3694.0254,1.1983855863439397,131.74037415279827
3694.8772,1.1988442117766513,169.43337287867487
3695.7273,1.2012289449024156,149.73264137454254
3696.5793,1.204442581625848,163.13854120442295
3697.43,1.2068053505479133,121.3092315376988
3698.2825,1.2072601389244098,157.85259291721076
3699.1333,1.206105664184199,165.61815199632537
3699.9841,1.2046526418040135,127.50863901652677
3700.8374,1.2040986627318604,132.48804098016726
3701.6887,1.2047172066636582,124.39016403123416
3702.5425,1.2059701795804785,118.72609650232107
3703.3943,1.2071772082652803,151.6083601336097
3704.2483,1.2079263756069778,171.6446632241119
3705.1003,1.2078668286438776,182.31495413486866
3705.9526,1.206459482868125,164.28297417193508
3706.8074,1.2031698410874574,140.42021025036019
3707.66,1.1980479152634387,107.57846019928809
3708.515,1.191880402192105,162.8496015836991
3709.3682,1.1858942115378124,129.91313930891704
3710.2234,1.180960444800411,181.76378166013404
3711.0771,1.1772110028803477,124.06772362937554
3711.9307,1.173934474417702,192.0721462944752
3712.7866,1.1700187772761725,172.83331748476132
3713.6409,1.1647267784789812,129.69248400931224
3714.4973,1.1583172245003786,154.4451611196182
3715.3518,1.1522041554180318,237.81146638373858
3716.2085,1.1480535972779122,138.7202297030233
3717.0635,1.1467482089445904,159.86527516713025
3717.9185,1.147678915954211,146.84066655927032
3718.776,1.1491165866428057,188.29926141884394
3719.6313,1.1492351371912994,139.21120473892017
3720.489,1.1472059368705803,160.9407027394741
3721.345,1.1435593952728595,226.9457946072421
3722.2031,1.1396238345910108,123.15145417761315
3723.0593,1.1367205472941457,165.81050792126413
3723.9158,1.1356217945749332,140.12514843786366
3724.7747,1.13664595208197,179.47533409396254
3725.6316,1.1397959313056263,153.00358836297923
3726.4905,1.1447259853123948,162.1996915615749
3727.348,1.150554480426135,181.61869002217557
3728.2073,1.156047134073596,159.12198205917073
3729.065,1.1598744280450834,127.13511189365016
3729.9229,1.1609865865234479,136.4431651761467
3730.783,1.1587627996928977,118.36109206912181
3731.6414,1.153328611993554,174.72539564730968
3732.5017,1.14568550831647,142.74239555926846
3733.3604,1.137472891507935,198.88444630926506
3734.2214,1.1300851643937682,156.9917141953245
3735.0803,1.1242333502098603,172.8129045645461
3735.9417,1.1198676953071267,180.3303497890773
3736.8013,1.1167674884817316,130.47038280591832
3737.661,1.1147400259221434,265.4226246939822
3738.5227,1.1136049029728172,196.89068939114776
3739.3828,1.1130882347482771,199.30142050723273
3740.245,1.1128812882499244,162.1343742957061
3741.1055,1.1128095028337124,243.18532586420173
3741.9683,1.112869341468549,220.11098313377306
3742.829,1.1131136341779195,178.02244406288156
3743.69,1.113492656289288,204.72914071449964
3744.5532,1.1138071549948731,201.30488447407825
3745.4148,1.1138069741169054,164.81285566554064
3746.2786,1.1132959543969232,158.73177348174283
3747.1404,1.1120709031689944,187.6995620522658
3748.0044,1.1097836002426706,186.7752852604956
3748.8667,1.1060877348514282,163.44817396020133
3749.729,1.1010584870250766,171.91897070814426
3750.5938,1.0955759276192387,193.99800439488513
3751.4565,1.0911977223821607,186.93499194142743
3752.3215,1.089286020917409,190.17623688077225
3753.1848,1.0902350628143558,192.72328940112874
3754.0503,1.0931471535157182,228.29546815681292
3754.9138,1.0962797112962348,227.59891097984732
3755.7776,1.0980065414762101,157.2839427600426
3756.6438,1.0976356136474992,182.8620855755109
3757.508,1.0957067888616163,195.82171849720237
3758.3745,1.093554284200863,147.0501548715876
3759.239,1.0925262657971506,136.6191569405578
3760.106,1.0932866451552536,191.90533631640778
3760.971,1.0955622084081817,264.609191914204
3761.8362,1.0982990940522497,195.20949453321407
3762.7036,1.1001295062024286,174.91765367610276
3763.5693,1.0999835663426403,189.603493920751
3764.437,1.097648876024287,205.87728984596131
3765.3032,1.0939300055099814,143.79846516802888
3766.1714,1.090224010286251,225.18863325887833
3767.0378,1.0877572937251272,179.23226071942835
3767.9043,1.0868188593793506,182.85050720468325
3768.7732,1.0867117769180905,199.18079223842
3769.6401,1.0863439861616468,143.27343377677045
3770.5095,1.0849973872430771,208.8896858708383
3771.377,1.082717038281656,151.83594859486846
3772.2466,1.0801180197736096,168.22640122405616
3773.1145,1.0779727135895727,187.06387426186654
3773.9824,1.0767425208932366,185.2842487459091
3774.8528,1.0763539829469428,214.87576236316318
3775.721,1.0762243728258996,236.55079536049178
3776.5918,1.0756076148384606,224.46588147218557
3777.4604,1.0741311012955528,156.0734818213567
3778.3315,1.0720606500282484,232.1779922384043
3779.201,1.0700537937613062,186.4415738186281
3780.0703,1.068521589523187,198.59450735834565
3780.942,1.0673166457548309,236.8027679041193
3781.8118,1.066016634701087,194.0518212457677
3782.6838,1.0644552410277244,242.2990242276996
3783.554,1.0629912140241606,220.94826834995243
3784.4265,1.062238653230899,199.87086093560677
3785.297,1.0626463708281204,283.683928285268
3786.168,1.0641575342965166,410.822105989069
3787.041,1.0661476727043544,230.66548789649792
3787.912,1.0676341926845048,177.2122089142953
3788.7856,1.0677967489792601,179.25785420401328
3789.6572,1.0663686476943364,241.6029329058813
3790.531,1.0635918914176468,177.11857605067325
3791.403,1.059814831884167,201.75936990075877
3792.2754,1.0551493442160715,173.77647502917455
3793.15,1.0495930241140272,186.27955062091317
3794.0225,1.0433900159633207,185.13919209672866
3794.8972,1.0370378749885836,274.5971277056903
3795.7703,1.0311796136426945,195.01580039356782
3796.6455,1.0262235061900353,164.47474078641287
3797.519,1.022397448865429,173.24807054840215
3798.3926,1.0198008060978787,269.9830262763696
3799.2686,1.0184842561339478,214.08070242430756
3800.1426,1.0182743358975461,236.5049172370146
3801.0188,1.0186045755944568,229.31139701819785
3801.8933,1.0187342807754614,208.58315661330494
3802.77,1.018285319056315,221.643203548848
3803.6448,1.0176333164396454,239.23838976722473
3804.522,1.0176840538879297,197.1932105112863
3805.3972,1.0191393303330272,204.41870177142653
3806.2727,1.021816377336237,220.11200326998278
3807.1504,1.0245770199723598,193.34160439447243
3808.0261,1.0259322074120714,235.40284267185422
3808.9043,1.0250551964914696,213.95780407036565
3809.7805,1.0223965149265402,145.8560048500057
3810.659,1.0194447741233128,203.90261202587251
3811.5356,1.0178323023595164,198.09172027939792
3812.4126,1.0183797808536637,146.34216890757875
3813.2917,1.0208042838567102,166.7307014628074
3814.169,1.0239685456854706,227.5602643704627
3815.0483,1.0265320299258571,157.88625616290992
3815.926,1.0275242223913712,256.93690368639386
3816.806,1.026755174243916,178.51771373087462
3817.684,1.0247663193847918,167.24344914849462
3818.5623,1.0224272684331492,236.6180222208261
3819.4429,1.0204116021890408,225.01595334697964
3820.3215,1.0188786751388514,215.13661341099072
3821.2024,1.0174495070675438,222.83352692849263
3822.0815,1.0155624964376422,195.42290165983954
3822.963,1.0128800843947658,167.91322413716398
3823.8423,1.009597925995967,229.24846068296893
3824.722,1.0062798244308384,219.49836194606902
3825.604,1.003404951180739,227.94632753402527
3826.4841,1.0009462098183697,209.02532060288095
3827.3665,0.998308249100711,250.812378748917
3828.2468,0.9948501030865219,238.77227302810041
3829.1296,0.9904065933820333,227.03327720002568
3830.0105,0.9855538650406556,256.95110809651686
3830.8916,0.9811374271834973,236.9246049208834
3831.7751,0.9775994629516831,239.33878870331276
3832.6565,0.97457719306836,239.0884701757122
3833.5403,0.9711045506120896,192.87420454301522
3834.4224,0.9664546592756078,188.3819923140811
3835.3064,0.9607295614170644,257.8005824188674
3836.1887,0.9550001483240406,206.76845914442518
3837.0713,0.9507046587125609,223.82624048404875
3837.956,0.9489842649353837,278.1750807972316
3838.839,0.9502257154221345,226.1191109329503
3839.7244,0.9540862186087892,244.48771907832258
3840.6077,0.9598355943417245,225.09616016731667
3841.4932,0.9666586465267742,193.43249587770964
3842.377,0.9734483681337439,234.82890133850069
3843.261,0.9788097451840125,154.83556754904416
3844.1472,0.9813979810906395,204.01137018565944
3845.0315,0.9806844833651026,217.7615474503329
3845.9182,0.9774170603052542,231.28822114957666
3846.803,0.9732342694964055,208.4554144335743
3847.69,0.9696812666976012,243.07681916256774
3848.5752,0.9675644454616464,196.3250814047296
3849.4604,0.9669200868385442,178.71551082742042
3850.3481,0.9675609059137885,232.50020445460396
3851.234,0.9693846541083377,233.93687803527266
3852.122,0.9722295642899889,222.1919433137787
3853.0083,0.9755654838720829,223.19287127876467
3853.8967,0.9786656185920272,252.32998465425968
3854.7832,0.9810347020141774,197.73746824096915
3855.6702,0.9827928180669131,281.36547397701173
3856.559,0.984478570398027,242.12182212183984
3857.4463,0.9865368219469735,204.62782058123113
3858.336,0.9889398272474552,208.16048982945227
3859.2234,0.991148583028047,192.95901092249437
3860.1135,0.9924941853135754,249.95530950776637
3861.0015,0.992512272104972,201.34434899500974
3861.8896,0.9911699097383937,202.62836030709525
3862.7803,0.9888628489002983,213.31328380882005
3863.6687,0.9863563908161354,222.55357958231667
3864.5598,0.9844931755655034,226.90986356834446
3865.4487,0.983804307429768,228.39964101459913
3866.34,0.9840355635345863,178.20197314482402
3867.2297,0.9840708505077664,236.97632304237737
3868.1213,0.98241648077409,249.6617590701624
3869.0112,0.9781194438096509,213.91024038461143
3869.9014,0.9714266600043541,257.65447581705797
3870.7937,0.9635940968647446,248.1162958763438
3871.684,0.95600533775265,205.24889911078506
3872.577,0.9491581729231116,170.61076912224885
3873.4678,0.9427259362888694,203.54218906807583
3874.361,0.9360028553679675,265.51198761804204
3875.2524,0.9286374790997161,272.16286276421704
3876.1438,0.9207942609914539,283.10306089938774
3877.0376,0.9131878325281363,268.48087903118875
3877.9297,0.9068611079085989,269.5511825216286
3878.8237,0.9025257477471115,238.13253599475001
3879.716,0.9002556359479282,266.90312851304725
3880.6108,0.8995701793293486,227.81461420148975
3881.5037,0.8999677248134135,215.96331129485372
3882.3965,0.9009885779358866,353.1718932229692
3883.2917,0.901666944904938,261.0945487004085
3884.185,0.9001340148224766,275.1550521422876
3885.0808,0.894374674668537,72.83183561654714
3885.9746,0.8838853279152177,335.8514815182027
3886.8706,0.870413800628494,330.40369089145616
3887.765,0.857188700585086,235.6477394108486
3888.6592,0.8468225033773482,308.31756406584697
3889.556,0.8402564980193902,358.5557846749822
3890.4507,0.8371084156898454,347.6883707229168
3891.348,0.8366328859584582,249.4471438312235
3892.243,0.8385128866978365,341.067559497543
3893.1406,0.8427661894608037,270.8682744799046
3894.0361,0.8491517361221768,247.40797100051049
3894.932,0.8568919207544297,300.13492532255646
3895.83,0.8648922276061543,351.2168475170296
3896.7263,0.8722529855218389,306.12935338109554
3897.625,0.8787488145105368,267.8630796533649
3898.5215,0.8845003301389288,353.1682487722442
3899.4207,0.8896700295324173,221.9446275302421
3900.3176,0.8941401054709027,303.00021893035904
3901.2148,0.8978361331356706,249.88378328374355
3902.1145,0.9010274068918713,257.68811134238837
3903.0122,0.9043594541083646,191.47664874169928
3903.912,0.9085306850764805,233.6762976980232
3904.8103,0.9137619132149412,232.0159464488447
3905.7107,0.9197861772031999,233.2468394104453
3906.6094,0.9261158489832406,280.32440379652974
3907.508,0.9325219425596999,258.6829142809158
3908.409,0.9390346012274305,240.792019873446
3909.308,0.9456153161633121,215.9986978875013
3910.2097,0.9520416030247936,249.3002687650827
3911.1091,0.9578384558433172,226.39210955077434
3912.011,0.9625711472319823,189.82378808970657
3912.9111,0.9658388504114944,277.61376057606367
3913.8113,0.9674884835033766,240.70782592386644
3914.7136,0.9678286424144594,315.3463069835398
3915.6143,0.967784148874569,215.3973082342248
3916.517,0.9685553300330573,306.431670388853
3917.4182,0.9708758298956933,189.80401274438609
3918.3215,0.9745355407554293,206.88051025117088
3919.223,0.9785198966066181,229.88608158538625
3920.1245,0.9817067323487632,233.33079125978085
3921.0286,0.9834355298366851,183.81176349830915
3921.9307,0.9837511988760481,196.03538240156982
3922.835,0.9832671643568214,293.73095855153315
3923.7373,0.9826878946165001,237.83907829694226
3924.642,0.9823546128267528,228.07308777510127
3925.5452,0.982195613642755,210.39135440354906
3926.448,0.982083504000904,180.57337669876418
3927.3535,0.982158413401123,281.89191610041576
3928.257,0.9826424175543632,213.1015142185791
3929.1628,0.983287043950212,243.3660724070345
3930.0667,0.9831062063731277,183.03984305401087
3930.9731,0.980877589425705,247.47923476302824
3931.8774,0.9761134272454342,251.30515156900535
