wavl,flux,ivar
3566.9744,12.134614489470932,5.7847952469952535
3567.795,12.108118789612432,5.502781296086641
3568.6177,12.10196871198737,6.042157525561546
3569.4385,12.108760681703378,5.029340814023193
3570.2617,12.117197880730979,5.747833285995051
3571.083,12.116499332359723,5.932884033646892
3571.9065,12.100303122342977,4.439728529390346
3572.7283,12.068564405812412,5.458845452596737
3573.55,12.026979075335161,5.677872076806454
3574.374,11.98446078382447,5.040801349060743
3575.1963,11.949916032675494,5.803139936214081
3576.0208,11.92862309916679,6.67471706368229
3576.8435,11.921997465795506,6.107798845803867
3577.6682,11.928441040586007,5.5889153185336085
3578.4915,11.94541232126836,4.67625615132183
3579.3145,11.970107202303417,5.816304913561499
3580.14,11.998370001658415,5.006194834713971
3580.9636,12.023413613812759,5.368878875500232
3581.7893,12.038202641837286,4.315806078128597
3582.6133,12.03890479059896,6.6363544468484115
3583.4395,12.026817020943936,5.830132652253203
3584.264,12.00599033850962,6.41754358284378
3585.0884,11.979699847826945,4.779313188874669
3585.915,11.949836790889107,4.836684497859262
3586.74,11.918909262725668,5.776429514582217
3587.5671,11.889976315801063,5.9793036193399365
3588.3923,11.865196818858205,5.532911845427073
3589.22,11.843513120563738,5.3384205996302345
3590.0457,11.82195299969955,5.865699294877968
3590.8716,11.797559768704572,6.244490119735127
3591.6995,11.769464704652554,6.297357463905765
3592.526,11.739730767708192,4.864241621867889
3593.3542,11.712148107131094,6.088090269806686
3594.181,11.690412550594553,5.746762284159518
3595.0098,11.675183216361487,5.686064566361748
3595.8367,11.663827346061382,5.705964213735301
3596.6638,11.65202557768239,6.461714176980229
3597.4934,11.637022105878875,4.538679080428089
3598.3208,11.619956025571064,8.069695664114233
3599.1506,11.604951557333667,6.120549189826815
3599.9788,11.595946338322792,8.043068554262733
3600.8088,11.592883710367229,6.822109828932577
3601.6372,11.591879138667954,7.2536687027503985
3602.4678,11.58881327783329,5.994714417133019
3603.2964,11.582976156177653,5.496245499727009
3604.1252,11.576880215606856,7.162404791109608
3604.9565,11.572649029399978,6.003404607814047
3605.786,11.56839189782737,7.046647699543087
3606.6172,11.557942008914992,5.891418616020523
3607.447,11.535016789080196,4.905000198884731
3608.2788,11.498252867329855,6.288563867813463
3609.109,11.453680874403107,6.005128891136437
3609.9392,11.41131860044107,6.658671991305131
3610.7717,11.380125990800881,6.845843028744549
3611.6023,11.364305324492394,5.479266339570385
3612.435,11.36204980687973,5.4792724491611535
3613.266,11.367535592955274,6.849477236788899
3614.0994,11.373710388763783,5.7238647940739895
3614.9307,11.375357548902848,5.852397986492798
3615.7625,11.371247105865324,6.263825147286429
3616.5962,11.363901758576544,5.12372982853041
3617.4282,11.357225794700115,6.397063169165279
3618.2625,11.353273708601627,6.361191394356759
3619.0947,11.350955433900964,6.703530535565334
3619.9292,11.347098495681575,6.273162978865384
3620.762,11.338946279910868,6.585152482456634
3621.595,11.32615750943285,6.364442281419342
3622.4302,11.311531480989434,6.446902991490734
3623.2634,11.299870149720759,6.235367544441276
3624.0989,11.29456873062702,5.47414333105435
3624.9326,11.294787529672767,6.141588269466512
3625.7686,11.294954271856112,5.540402790608226
3626.6028,11.287386517535996,6.532795705622239
3627.437,11.266002056909892,7.131178400005497
3628.2734,11.229132086405222,5.960384095195833
3629.1082,11.180840247400562,8.11324319989026
3629.945,11.128502439912412,6.694272290210277
3630.78,11.080197942327764,6.871043902716286
3631.6174,11.041054883175786,7.405388408586374
3632.453,11.01352051974812,7.851412516563934
3633.2883,10.997025243140099,7.063879805041519
3634.1262,10.988919034573486,5.586444619361413
3634.9622,10.98554672117074,7.3997825021270485
3635.8005,10.984271250050819,6.997806065103957
3636.637,10.985429559919462,7.664360180232396
3637.4756,10.991873260875833,4.987636636332831
3638.3123,11.006084174566244,6.650650689543629
3639.1492,11.027355201384069,6.613341581191172
3639.9885,11.051631190852259,7.027692023281963
3640.826,11.074353200914862,6.896058393417323
3641.6653,11.094449268225167,6.0919280121603485
3642.5032,11.114135173684225,7.176982066913609
3643.343,11.135754781605542,7.778879380434599
3644.1812,11.15787448213022,5.779240589020542
3645.0195,11.175478660396761,6.144555033525651
3645.86,11.182616883776852,6.698451103133314
3646.699,11.175455298467524,6.363837819887534
3647.5398,11.154045201251842,6.573053045365312
3648.379,11.122790515945937,6.499019690323722
3649.2202,11.088590807779527,6.606602155329443
3650.0596,11.057741528863183,7.026955269725912
3650.8994,11.032073936960568,7.448437224869032
3651.7412,11.009764571184899,6.051812291310695
3652.5813,10.989306668590705,7.468941831621525
3653.4236,10.971961606488646,6.855003632403238
3654.2642,10.960320682266975,6.461035569313619
3655.1067,10.953675880285212,8.47507024262573
3655.9475,10.94680694335303,7.148136225111062
3656.7886,10.934150669028293,6.082603272722873
3657.6318,10.916109463908883,5.82113479873193
3658.4734,10.900302518798311,6.013186952501592
3659.317,10.894694671780961,7.883411845942723
3660.1587,10.900025620979532,7.575666039530116
3661.003,10.909271201638195,5.728459413069992
3661.845,10.91453247756545,5.916495668283155
3662.6875,10.913208358664983,6.750562633316449
3663.532,10.90690292071189,5.341165966403283
3664.3748,10.896653019577236,5.928557024576083
3665.2197,10.880916608413854,7.1012882648983995
3666.063,10.858470937613504,7.587709083795832
3666.9084,10.83082188543332,7.321638700177887
3667.752,10.801792952578792,7.560611681190511
3668.5977,10.774485943981997,6.871011775883669
3669.4417,10.751072383679704,6.575236918382736
3670.286,10.733327069765773,7.983436394135538
3671.132,10.722528757094832,9.462077830972326
3671.9768,10.716970531716075,7.02956370505741
3672.8235,10.710620114003994,6.956737319055625
3673.6685,10.69655556259934,6.820750771949673
3674.5156,10.672557561495537,6.451470653179339
3675.3608,10.64410482004251,7.794889233489222
3676.2063,10.62075979369896,6.313244479996047
3677.0542,10.609723712408556,8.155092198359498
3677.9,10.61071112733871,7.564822977504065
3678.748,10.615496188337389,7.487036453260348
3679.5945,10.612459907429674,6.357292852865017
3680.4429,10.592755585504147,6.4423347447774155
3681.2896,10.554743835476977,8.136660024774693
3682.1365,10.504585578300738,6.1691863761613055
3682.9856,10.454041405058728,8.388872048583965
3683.8328,10.416163521932273,7.28631256929694
3684.6824,10.398215559646648,8.238279408038762
3685.53,10.398152361580257,7.686791782508361
3686.38,10.406272508977038,7.765912480332573
3687.2278,10.41294922644615,7.6662348030890515
3688.0762,10.415259677281485,8.264340951476747
3688.9265,10.416614568171033,8.02642543569888
3689.7751,10.420987845565099,8.61657524494108
3690.626,10.42807689706411,6.60806195472893
3691.475,10.433619705279066,6.208389636166704
3692.3264,10.433592378182691,6.929003828846893
3693.1758,10.427385632264572,7.794099086086271
3694.0254,10.417534774029454,7.796806460062356
3694.8772,10.406742307626036,8.394936798587489
3695.7273,10.394972461701375,8.883330751049678
3696.5793,10.378659404752069,7.778136244673162
3697.43,10.353828675288772,7.048187333812333
3698.2825,10.32019319016234,8.035579728899604
3699.1333,10.283011345988397,8.070266906126664
3699.9841,10.248977750805752,9.532985355751553
3700.8374,10.221222715213978,7.6100817030335755
3701.6887,10.198033756328664,7.5272330511793655
3702.5425,10.175280775803555,6.985210530489279
3703.3943,10.150699180798902,7.789343073605266
3704.2483,10.125157873145435,7.108416788831348
3705.1003,10.10279504796439,7.784541907947354
3705.9526,10.088777216607147,7.355878268791701
3706.8074,10.086804102302855,7.448508623678136
3707.66,10.096611753577466,7.674318805441936
3708.515,10.113792968365605,7.447100439506758
3709.3682,10.132113914739978,7.391254988903785
3710.2234,10.14723230359284,7.085674133627235
3711.0771,10.158269116081101,6.8241487116286645
3711.9307,10.166952510020545,6.707602948952274
3712.7866,10.174684913780558,7.515783148113624
3713.6409,10.18036099004175,6.9107131206211925
3714.4973,10.180709233489164,6.9352875859733825
3715.3518,10.172440422714336,7.057284397100333
3716.2085,10.154459475626975,7.714852040613484
3717.0635,10.128382503917576,7.864275208832873
3717.9185,10.09678968491863,7.5832314650331405
3718.776,10.061717011356562,7.471179470636599
3719.6313,10.02488691848863,7.882701704421114
3720.489,9.98786725738351,7.699845408060568
3721.345,9.953377025815872,8.868042129522486
3722.2031,9.924635833168345,8.309834249468713
3723.0593,9.90523149603247,8.399370365809757
3723.9158,9.896989692897396,7.27341753514625
3724.7747,9.898347708316308,9.19107209495396
3725.6316,9.903520479191632,8.237944850187397
3726.4905,9.904408027934165,7.73105002812113
3727.348,9.894605327187111,7.288987490927413
3728.2073,9.873276300894297,7.642879222872091
3729.065,9.84642478018584,7.313343779568816
3729.9229,9.823629340292864,8.53060542218619
3730.783,9.81250460538626,9.443321627914804
3731.6414,9.814048212008995,7.39673437732324
3732.5017,9.822426821807657,7.155602786770988
3733.3604,9.829485050618125,8.828824369367991
3734.2214,9.829725010952167,7.891206084144219
3735.0803,9.821648735503278,7.630184961793917
3735.9417,9.80583867570007,8.324295830260668
3736.8013,9.783076561618191,7.561774728700496
3737.661,9.75393588224618,7.095888728061293
3738.5227,9.719514258531134,10.097021918522378
3739.3828,9.681761459400128,9.963581314036917
3740.245,9.642222568622712,8.461147229212523
3741.1055,9.602564004059868,9.090107487672379
3741.9683,9.564728625897178,7.891189107413849
3742.829,9.532549355026129,9.723922897982861
3743.69,9.510365232954898,8.772374681998546
3744.5532,9.50118509968176,7.9749326921709915
3745.4148,9.504564621704056,9.614959249051264
3746.2786,9.516153666270219,9.681442009427386
3747.1404,9.529635149479885,7.282374372657965
3748.0044,9.540056389470202,9.339296227520073
3748.8667,9.545880852476591,8.776970395451729
3749.729,9.548826525734238,9.980121279340196
3750.5938,9.551335243380555,8.379861721632148
3751.4565,9.554056400348763,8.64911859623255
3752.3215,9.55469759679949,9.634560550642693
3753.1848,9.548609930766924,10.758971939056812
3754.0503,9.531482115674295,8.143790440807471
3754.9138,9.503296776161587,8.726565293806255
3755.7776,9.469558898480726,8.551126354977844
3756.6438,9.438046493116255,10.029060924727231
3757.508,9.41341912378205,10.48005694775011
3758.3745,9.394181923890976,8.816184097199542
3759.239,9.376248922961883,9.002184948752333
3760.106,9.357793838034414,9.132016858892845
3760.971,9.341758631424671,8.170837279655261
3761.8362,9.33263858669839,10.102601886144958
3762.7036,9.331812447589147,9.751651506812415
3763.5693,9.335335419463975,8.332627037692767
3764.437,9.336497231601657,9.48468175470687
3765.3032,9.330711442053941,9.245895713313232
3766.1714,9.318473530951577,9.15812053524232
3767.0378,9.304378187455484,11.197390500759456
3767.9043,9.29324511769306,9.85862301338002
3768.7732,9.287167859891458,10.027641391614043
3769.6401,9.285339205260058,8.840879682787799
3770.5095,9.285898643202538,9.03658910679228
3771.377,9.28757475936784,9.593672521538418
3772.2466,9.289382589004854,8.463596408777377
3773.1145,9.289420279883894,9.718086431862622
3773.9824,9.284886724727613,9.833855024505324
3774.8528,9.273711601754966,9.217469448579585
3775.721,9.256544121872672,8.024869048091375
3776.5918,9.236772139742989,7.560732726394065
3777.4604,9.219326706190472,10.528963636748376
3778.3315,9.208145788100055,9.538108775799717
3779.201,9.205033203442067,9.620753098073278
3780.0703,9.209193646230617,8.327512809306022
3780.942,9.218156686164797,9.51115421401164
3781.8118,9.228591520450815,11.225164326782437
3782.6838,9.23682939023383,10.084047775037703
3783.554,9.238760828532698,9.61820646306103
3784.4265,9.230584317038474,7.877381880480337
3785.297,9.210283372323019,8.761324537933737
3786.168,9.178857796229979,9.257684635096231
3787.041,9.14054011915829,9.86076727481054
3787.912,9.102168924076716,10.173995796272708
3788.7856,9.070360238577587,10.482173940772572
3789.6572,9.049355221690679,10.830961236851108
3790.531,9.038533420981123,8.754737186163144
3791.403,9.03327844641198,8.85990260108537
3792.2754,9.026826359704536,9.598307806305696
3793.15,9.012449805071984,8.957118296723394
3794.0225,8.985592464410317,9.070184295845536
3794.8972,8.945952522315178,10.83802207706545
3795.7703,8.899434712783892,10.53660480541019
3796.6455,8.85561703792658,10.215763881440685
3797.519,8.823297480305726,10.564254772186324
3798.3926,8.804994194724996,11.501885945319708
3799.2686,8.797146174451816,9.548015779896378
3800.1426,8.794809643224456,9.200384301923835
3801.0188,8.796716779416856,10.173611539287034
3801.8933,8.805741305789955,8.358692532345657
3802.77,8.824101683016384,10.264470195624153
3803.6448,8.848082374586554,7.215637350964848
3804.522,8.868356607340301,11.802323786320226
3805.3972,8.875044134464751,11.995505353201919
3806.2727,8.86458815337592,10.300230106440367
3807.1504,8.842264273542643,9.557983031006701
3808.0261,8.819665519478871,9.930957674859512
3808.9043,8.807531086230888,11.71270774352425
3809.7805,8.809855021351865,8.93259727561997
3810.659,8.822605290831588,11.884925862449965
3811.5356,8.838212637971559,10.983353924799873
3812.4126,8.851360976757281,9.164523742634564
3813.2917,8.860884296873344,10.674314293248987
3814.169,8.867403443523525,9.72169183888834
3815.0483,8.87024085651338,9.18410323226812
3815.926,8.866594595664976,9.686516883263637
3816.806,8.853548141755338,10.927856636714072
3817.684,8.83040385635395,10.651659448713408
3818.5623,8.798993855161616,11.117007027108482
3819.4429,8.762440601099941,12.569548827457384
3820.3215,8.724031624537572,9.873049006724889
3821.2024,8.685688865978284,10.569482160274145
3822.0815,8.64837022430929,10.385197595064456
3822.963,8.611540982910526,9.782734435097804
3823.8423,8.574662093965976,11.240621633295737
3824.722,8.537816552054005,11.170632940540944
3825.604,8.502583632173751,12.804660921012538
3826.4841,8.471602422664434,10.795926812034716
3827.3665,8.446696507312751,10.718231140777245
3828.2468,8.428697301362885,11.620346792251107
3829.1296,8.4169064700949,10.306172780499793
3830.0105,8.409407365451345,11.536778473126994
3830.8916,8.402615681718194,10.796813558833078
3831.7751,8.391459156253042,11.74304348446347
3832.6565,8.370462064204691,12.149532692371826
3833.5403,8.335733957822761,12.55527832040326
3834.4224,8.288352092113307,13.073205930431243
3835.3064,8.235325250675459,11.384853605323542
3836.1887,8.18859306692335,12.642391055442982
3837.0713,8.159842750485767,12.460487629972553
3837.956,8.156399356146007,12.328119130981412
3838.839,8.17833298206158,11.63159016009385
3839.7244,8.218415795127942,10.240929377829005
3840.6077,8.264611404601592,11.751323373510417
3841.4932,8.30559493520238,12.90174075508273
3842.377,8.334284162810889,11.485096534151264
3843.261,8.349796024419666,13.298326898978432
3844.1472,8.35565705197299,11.124400046126087
3845.0315,8.357698551624434,10.97055815782589
3845.9182,8.362109133544253,12.670106555826305
3846.803,8.373211036342608,10.252008518879082
3847.69,8.39185749569071,10.627315640229888
3848.5752,8.41525234326685,12.071766161016866
3849.4604,8.439132424770147,10.409973435942913
3850.3481,8.459693084488295,10.10401635939382
3851.234,8.474060994289626,10.912297667983974
3852.122,8.480654938736498,12.883304064952467
3853.0083,8.479580128478629,11.029572651454108
3853.8967,8.473404017573031,12.191855703198707
3854.7832,8.466203183837392,10.826108592852057
3855.6702,8.461453650735223,11.984540789208985
3856.559,8.461195873987656,11.068361777197477
3857.4463,8.46682506826098,12.0547689138516
3858.336,8.479585993070911,13.647726090118834
3859.2234,8.498807917452156,11.739213310839341
3860.1135,8.519812994452172,10.390797008952783
3861.0015,8.533714874876848,11.92798780314117
3861.8896,8.53204053225404,6.42404169009546
3862.7803,8.512105809728668,11.417020724293478
3863.6687,8.479362725308587,11.998706862592655
3864.5598,8.442800781594919,12.855596520375308
3865.4487,8.408763493350396,10.932856694715902
3866.34,8.377058459094759,12.464997763703082
3867.2297,8.344263633558038,11.14481779161431
3868.1213,8.307814520758125,11.734050042724943
3869.0112,8.268627923465885,11.271934636628854
3869.9014,8.228927185242346,13.180390208049872
3870.7937,8.189772200843,12.895032008000813
3871.684,8.150602440952346,11.939372155314096
3872.577,8.110367632338447,11.93676707331421
3873.4678,8.070398603743323,14.149961134034656
3874.361,8.03330071983159,14.175671936679153
3875.2524,8.00068185340759,12.511078414036918
3876.1438,7.9698094845822665,14.083714648881054
3877.0376,7.934800027492726,15.277712601031013
3877.9297,7.8910905426955145,12.151304477361652
3878.8237,7.838367929185857,15.29590525321776
3879.716,7.780875509436985,15.974136304428868
3880.6108,7.723100225375051,13.273793285896124
3881.5037,7.6677067256224385,13.817605062065926
3882.3965,7.613814750737402,15.270747719004913
3883.2917,7.558448927641715,15.883716196896785
3884.185,7.498962667820442,13.899744510181042
3885.0808,7.434458682325086,13.48362651632905
3885.9746,7.36869345139588,16.383569710406096
3886.8706,7.308247711562462,14.053035628121147
3887.765,7.260462216381855,16.487458389865722
3888.6592,7.228808638164388,16.7589521249649
3889.556,7.212083814469074,16.634129188991338
3890.4507,7.206352109513257,16.397386608614482
3891.348,7.208121119278613,14.983593636373808
3892.243,7.2167104021150354,14.182595947734997
3893.1406,7.233803470510873,13.097834961563896
3894.0361,7.260799099514996,15.272713257864018
3894.932,7.297123273303282,15.865543378296131
3895.83,7.340690098959016,13.730853330715755
3896.7263,7.389835489405431,15.26074324063064
3897.625,7.445507944943453,16.428467768667197
3898.5215,7.508842971768985,19.38899322184107
3899.4207,7.579347351708361,15.99679938899916
3900.3176,7.652113057918616,12.780151712103342
3901.2148,7.720852437783472,13.727209087420109
3902.1145,7.780826501590019,14.13232897033885
3903.0122,7.830996009492391,10.462633154099409
3903.912,7.874520098826444,13.644074338579768
3904.8103,7.914803922219262,13.779065801818843
3905.7107,7.953444689735985,12.478830290815186
3906.6094,7.989194801053412,11.486772401424643
3907.508,8.020494377718661,11.997521667542147
3908.409,8.04694744317492,11.405613999060238
3909.308,8.069133207571044,13.139363897961891
3910.2097,8.088189191949356,12.551749024290848
3911.1091,8.105498273142661,14.171398490337529
3912.011,8.123935072622064,12.797637296804671
3912.9111,8.147197901263889,13.854873246709401
3913.8113,8.177834398954882,12.241446099792725
3914.7136,8.21483684218833,13.022020883581426
3915.6143,8.253484981747015,11.327384443644362
3916.517,8.288788644807504,13.462439867056105
3917.4182,8.317837210746745,9.911169068617292
3918.3215,8.341029819641319,11.756433200950655
3919.223,8.359956294534028,12.292384600816735
3920.1245,8.375689642785643,11.829771855701543
3921.0286,8.387472440785258,11.499230709721942
3921.9307,8.392920761722413,12.371612132754732
3922.835,8.38936251695468,11.7905594227842
3923.7373,8.375254749948223,12.739432693783405
3924.642,8.351501157531406,11.893801740581853
3925.5452,8.32269086600743,10.891995691612049
3926.448,8.296661905604953,11.317142092931315
3927.3535,8.282509420963658,11.8972712533236
3928.257,8.286598790437436,11.830193402497873
3929.1628,8.308146514548516,10.820579060525027
3930.0667,8.338074647760582,10.400414290465905
3930.9731,8.363049754800796,10.719109659585838
3931.8774,8.371622464202552,11.198725524181693
3932.782,8.35987639662901,13.44689733583519
3933.6887,8.3315077958239,11.55156400742492
3934.5938,8.294249833688221,11.165444678919306
3935.501,8.25432333925874,11.80654075963115
3936.4062,8.214609060836418,10.521068417707882
3937.3142,8.175261414157196,11.736009469308677
3938.22,8.137167006391374,11.544920206498867
3939.128,8.10202354198326,12.26759608975797
