wavl,flux,ivar
3566.9744,4.508698771826221,18.549446303523673
3567.795,4.525897106221496,14.424059876320394
3568.6177,4.539008724807752,12.652951933484204
3569.4385,4.546304779298465,13.043527074789852
3570.2617,4.549580858984375,13.613579412352573
3571.083,4.552083548484862,11.58876997327334
3571.9065,4.555926436572299,11.094093991516507
3572.7283,4.561158283407991,9.935407384285242
3573.55,4.567445661003073,14.435224519863924
3574.374,4.575715602882368,11.901657199391508
3575.1963,4.587311874201889,14.24956452323767
3576.0208,4.601732153194186,15.620659130207422
3576.8435,4.615213715080553,17.303839258120014
3577.6682,4.622332871441649,10.75518997477155
3578.4915,4.618466457306576,14.246333303505912
3579.3145,4.602133946207504,11.594648653049354
3580.14,4.575987328798685,10.79185537781155
3580.9636,4.54701501454243,12.404157156922755
3581.7893,4.523670349568648,13.580982817998834
3582.6133,4.511595515975151,11.402873885771626
3583.4395,4.509098247472124,15.230895151037352
3584.264,4.507848417609752,11.022489987591213
3585.0884,4.498590253046127,12.312704783012482
3585.915,4.477709405364873,13.204751320550503
3586.74,4.449230157734149,14.650430083378428
3587.5671,4.420428850327508,14.889532681584107
3588.3923,4.3969569703013445,14.279438094056646
3589.22,4.380553754107777,11.406256827276186
3590.0457,4.371575480398257,15.920268635329663
3590.8716,4.370587910627405,18.48426022743322
3591.6995,4.377230793542813,13.644099837330778
3592.526,4.386897945577252,21.73708942366175
3593.3542,4.390399995759499,11.385867416418613
3594.181,4.378791618436825,11.213563665031495
3595.0098,4.350521151188686,11.43274558192999
3595.8367,4.314750869611288,13.392649170772414
3596.6638,4.286224178838418,22.507902233833946
3597.4934,4.276168561671485,13.284219124704663
3598.3208,4.28525095306728,21.393937962560365
3599.1506,4.3036358191840405,18.312022665942585
3599.9788,4.3172256030588905,13.949217826631504
3600.8088,4.315450427702381,10.638541324877911
3601.6372,4.295671841096292,24.81462883414631
3602.4678,4.263247004938837,8.939733262785115
3603.2964,4.22838679357999,16.11364488506917
3604.1252,4.200330041453113,33.78829386218241
3604.9565,4.183258798849693,11.280324140113358
3605.786,4.175609276467927,16.5610642963813
3606.6172,4.172865445400678,16.632491591475883
3607.447,4.171581696624719,15.431257601226573
3608.2788,4.170674686975291,22.980147656830596
3609.109,4.170342433811014,14.535859653099742
3609.9392,4.170783577055959,16.416222898962616
3610.7717,4.172360307959287,19.882388362384297
3611.6023,4.176366298056558,11.118650180134438
3612.435,4.184869582078078,17.47503153018077
3613.266,4.199086700711569,19.948903248657523
3614.0994,4.218087702808401,11.43494083268426
3614.9307,4.2386710637069145,13.082198200094396
3615.7625,4.257326772137494,10.936008612838625
3616.5962,4.271474651041372,13.436606570724736
3617.4282,4.279277019979828,11.30167148782884
3618.2625,4.278957563747879,17.270129519922868
3619.0947,4.269234261941977,10.871295014699184
3619.9292,4.251512923910747,14.0307926480804
3620.762,4.231239594529765,15.172922030094975
3621.595,4.215309627629229,17.674543391479922
3622.4302,4.207732593974733,19.151319124619466
3623.2634,4.207036208397321,12.605430109036545
3624.0989,4.207601871227217,20.195533913891882
3624.9326,4.203519088172695,14.807095004574974
3625.7686,4.1916818534702855,16.397911448633064
3626.6028,4.173040355793827,12.891109877620842
3627.437,4.151741587330056,19.940853844210338
3628.2734,4.133072151717771,33.588905152351515
3629.1082,4.120919494967168,17.508429745585534
3629.945,4.115749098597664,14.025831495105582
3630.78,4.115395138214703,13.929655008967627
3631.6174,4.117274077315685,15.222334577406361
3632.453,4.1203664429492735,18.69747154218772
3633.2883,4.125392773861852,13.269665246304324
3634.1262,4.133739114301015,15.053932149698586
3634.9622,4.146320285763277,25.41050632565739
3635.8005,4.163314154914366,16.98581223863568
3636.637,4.1837099324758125,14.75656264358954
3637.4756,4.205303890329493,32.9203921330029
3638.3123,4.224202372764465,13.644126457667573
3639.1492,4.236264297061058,15.609146301070293
3639.9885,4.239061749069212,12.558596619317445
3640.826,4.233459591864129,16.300077547606882
3641.6653,4.222834991452613,14.81015936248309
3642.5032,4.210744734433743,18.000183401862902
3643.343,4.199119584584798,17.463846520813924
3644.1812,4.188680834273316,11.62337532950336
3645.0195,4.180022306091458,12.907582495955795
3645.86,4.174438499323615,13.263621711771501
3646.699,4.173520747962832,14.879210767387638
3647.5398,4.177952899711272,17.520240436568628
3648.379,4.186446911008613,12.91462052489859
3649.2202,4.195511681363346,15.923910130911697
3650.0596,4.200360609169438,16.003215133282023
3650.8994,4.197242291913264,18.929798529770544
3651.7412,4.185239187503341,15.53930481128054
3652.5813,4.166467661144856,15.598398298475825
3653.4236,4.143913707436881,19.243830213366778
3654.2642,4.119644179316687,21.753680258865426
3655.1067,4.094096693727367,12.234766474162972
3655.9475,4.068028005949113,16.922713046384533
3656.7886,4.043651088926214,17.64411254197364
3657.6318,4.024573082224655,16.715410588505296
3658.4734,4.0138934717396175,16.364881293530143
3659.317,4.011740101346763,17.517622239976713
3660.1587,4.01469487400821,20.195872266721473
3661.003,4.017042322418145,24.077694303792978
3661.845,4.01373234995956,15.012128079021204
3662.6875,4.003459000402367,14.236870456762198
3663.532,3.9896140831277616,26.6892991046422
3664.3748,3.9783276509805328,19.126929600732883
3665.2197,3.9743152464966744,17.20099534761728
3666.063,3.978062274437964,15.465374564584682
3666.9084,3.985779276669422,16.797896265108772
3667.752,3.9919333550594094,20.514048802288347
3668.5977,3.992452324616274,15.374122013558065
3669.4417,3.986776671656629,17.133264957682304
3670.286,3.978441159844868,15.003407472741076
3671.132,3.973521379184253,17.859589441175157
3671.9768,3.9770974358310553,20.62686499274843
3672.8235,3.9895123793958858,15.75276922316349
3673.6685,4.005379359385632,13.552789349524787
3674.5156,4.016576339560293,22.56347653725418
3675.3608,4.016617939188361,17.593391239243196
3676.2063,4.004314067270466,11.464602700140762
3677.0542,3.9841732085739014,15.469914964947371
3677.9,3.9641678603929327,13.74150167098378
3678.748,3.9509130021011067,21.014431874074848
3679.5945,3.946389103386275,21.987980336121968
3680.4429,3.947595843712197,16.419268020536034
3681.2896,3.950039274269579,14.381773775240998
3682.1365,3.9511320868352353,18.513095478578776
3682.9856,3.950428502188343,17.83295221942593
3683.8328,3.9473457504883123,17.502537186130645
3684.6824,3.9397238939391923,15.149061543599084
3685.53,3.9253710184134314,14.990708011471222
3686.38,3.9046264152816472,15.625522098432626
3687.2278,3.881609042043853,19.69593199230994
3688.0762,3.861824440274388,18.94430639639728
3688.9265,3.848828955200084,28.68617300465734
3689.7751,3.842199294992769,20.991759689759803
3690.626,3.8386777399797887,16.407694827681652
3691.475,3.8357575886829323,18.579756894716468
3692.3264,3.8338615222766093,20.400226067021652
3693.1758,3.835517364220105,15.804048570052318
3694.0254,3.8425279167135344,18.26673594731971
3694.8772,3.853878958617824,18.89917940029993
3695.7273,3.865437756266159,15.716241555182966
3696.5793,3.8717554757935533,15.823216407723477
3697.43,3.8685670020342187,12.989969028455764
3698.2825,3.855330014762757,17.54044883745095
3699.1333,3.8361073177554887,21.47096457678871
3699.9841,3.817743894467214,15.82050332895801
3700.8374,3.8066291043873277,18.70899041197337
3701.6887,3.8059284643417794,17.87353468747113
3702.5425,3.814731556090349,16.578338629292315
3703.3943,3.8295019847536813,17.14515039662798
3704.2483,3.8462131959323376,24.403333536093417
3705.1003,3.861249075331611,17.299237837081836
3705.9526,3.871766988823727,17.959296685620902
3706.8074,3.875314874822217,18.03140169344149
3707.66,3.870041198403495,16.581400541877645
3708.515,3.855381083710576,19.33364098756781
3709.3682,3.8328505415319047,14.419913842619842
3710.2234,3.8057188663882884,18.398832402168047
3711.0771,3.778147995230386,22.655719915274783
3711.9307,3.753191683454985,18.494367770772644
3712.7866,3.7320483725276175,15.102946745063567
3713.6409,3.714839566670251,16.64048359211717
3714.4973,3.701708375759173,20.687453564898306
3715.3518,3.693973107561625,16.430068537239876
3716.2085,3.692934577505081,20.559822324216892
3717.0635,3.6978883415863653,20.085658675057328
3717.9185,3.704975507431122,22.0530247438989
3718.776,3.708581302301598,18.228624272516495
3719.6313,3.7040759712448335,20.784193113225463
3720.489,3.6898443856529766,15.95205607255501
3721.345,3.6676004739592445,22.89572738083691
3722.2031,3.6413107711887727,21.360353441440008
3723.0593,3.6165192495842167,20.44573775006165
3723.9158,3.598698964377076,19.447373777247005
3724.7747,3.5920562484589618,27.16904284233321
3725.6316,3.5983261203621604,22.707467357509096
3726.4905,3.6162164751844403,21.67791546590933
3727.348,3.641272957370157,33.34729330223334
3728.2073,3.6666049656255035,22.037785466982296
3729.065,3.6844826891696494,17.94188613713946
3729.9229,3.6899533587611604,15.1298067734711
3730.783,3.683013387504085,17.673294099082888
3731.6414,3.6684180264029695,17.17042957726585
3732.5017,3.6528094236776263,26.810886308837254
3733.3604,3.641741710788838,20.617331522716672
3734.2214,3.6373949627157947,20.922750671076805
3735.0803,3.6383170705876426,18.59815542988121
3735.9417,3.6406608695668834,22.444540975462743
3736.8013,3.6407656238793997,23.053811734128328
3737.661,3.6374965869054723,16.49824591079286
3738.5227,3.6327300952278967,21.606079642553098
3739.3828,3.629677308625003,39.419790094259035
3740.245,3.6299864799133497,21.209446346558472
3741.1055,3.6320995896766215,16.59143971068412
3741.9683,3.6322804100851793,27.298059522430993
3742.829,3.6275421818872515,22.825232817260538
3743.69,3.617922396558469,15.073465748744168
3744.5532,3.606290694799133,26.271643596032284
3745.4148,3.5965894721457516,30.884658658689187
3746.2786,3.591789698802005,20.372968454368774
3747.1404,3.5931944703669676,22.07178367166254
3748.0044,3.6003280608617985,20.951054921609344
3748.8667,3.61131477480207,13.39575087087146
3749.729,3.6236680638717758,22.760415465031787
3750.5938,3.634946556863247,24.724907615838603
3751.4565,3.6428360747299413,19.353108411955883
3752.3215,3.6451448805540974,26.554527563674824
3753.1848,3.639699031987327,20.99855904818828
3754.0503,3.6250953760629905,20.23338489314088
3754.9138,3.6022211819172147,20.130767804252013
3755.7776,3.5752545661912305,24.614659932753685
3756.6438,3.551207327421763,19.78406344635248
3757.508,3.537173561701983,27.267726676367438
3758.3745,3.536178772110874,25.426722123731235
3759.239,3.54580812591636,27.71798781738977
3760.106,3.5601280054485334,26.362573467276405
3760.971,3.5733965562141257,19.848069819206394
3761.8362,3.5828746186608234,27.524420652863625
3762.7036,3.588338477571631,23.710457532901522
3763.5693,3.5898766496811723,16.58128335584382
3764.437,3.5863285267805765,24.009878721149523
3765.3032,3.575718296302682,20.465729479108372
3766.1714,3.5572745629882347,18.605482382483537
3767.0378,3.5334787982409157,25.577093233094455
3767.9043,3.5095631565794445,24.13035453193458
3768.7732,3.490868930926384,25.51084588081411
3769.6401,3.4797357139370075,23.20296182506077
3770.5095,3.4741752556472214,22.34139808458811
3771.377,3.4702196193765356,21.28186792726313
3772.2466,3.4648978698745823,22.818056552255026
3773.1145,3.4576851729632856,21.1817515184626
3773.9824,3.449409623004219,21.47746827134745
3774.8528,3.440705009660401,27.50269157860371
3775.721,3.4317094625102045,17.834191638884818
3776.5918,3.4226475576572084,21.526821305371033
3777.4604,3.4147618035683487,18.585163139231057
3778.3315,3.409971373216579,21.864981412453254
3779.201,3.4099431288560575,22.38304823831865
3780.0703,3.414728157439365,24.209536818824912
3780.942,3.422508687793227,24.878924237453205
3781.8118,3.4304747280018995,24.183585414548393
3782.6838,3.4362121258973732,15.597124771423198
3783.554,3.437886225306393,27.535514944942076
3784.4265,3.433965301846322,14.880860009044039
3785.297,3.4235936614864837,17.1655383740115
3786.168,3.4078177503318656,21.488301200646738
3787.041,3.3900505859669097,22.44172524129448
3787.912,3.3748132905060837,21.110690956935656
3788.7856,3.365183209269224,28.202529240050094
3789.6572,3.3617580202902384,28.478923763366215
3790.531,3.3626304256761754,23.45690222488877
3791.403,3.364504969519737,18.63514115044646
3792.2754,3.364067572328173,23.782320603567033
3793.15,3.359416541455136,22.489957044004193
3794.0225,3.351083671258262,26.456422282071834
3794.8972,3.341839167788652,22.847566642138926
3795.7703,3.3355319894304465,22.066681896169037
3796.6455,3.335038247552701,25.06277472592724
3797.519,3.3408068420871926,24.012116779612775
3798.3926,3.3505166799419928,25.87487734486364
3799.2686,3.3600356372506712,26.20950128463971
3800.1426,3.36480960332582,21.037136941659597
3801.0188,3.361692599074457,23.72470464355161
3801.8933,3.350419381580751,22.038900166740852
3802.77,3.3341328918556434,29.586863693292024
3803.6448,3.3183880205167724,23.287430527818717
3804.522,3.3083657494375958,27.643365019704813
3805.3972,3.306737132666632,31.24495670846067
3806.2727,3.3124609524291753,26.74877350693187
3807.1504,3.321623946830153,26.857755211067175
3808.0261,3.3293583151172115,18.825537040746642
3808.9043,3.3325750571440502,23.194329657685618
3809.7805,3.3315155687383,22.890046880465402
3810.659,3.329285804630745,30.608627333898127
3811.5356,3.3293519613462053,41.54374684803625
3812.4126,3.332979088281876,26.547547413264425
3813.2917,3.3385802132943843,20.167920553991628
3814.169,3.3430225760006893,22.98195120854069
3815.0483,3.343780728501773,23.00930363034584
3815.926,3.3401470453442283,19.83614857732009
3816.806,3.333201487532717,26.007562439436953
3817.684,3.324968122239234,25.87369318934158
3818.5623,3.317389503822696,24.76348941504159
3819.4429,3.3118064250918255,27.432758757268015
3820.3215,3.3085138656714514,23.15719227881274
3821.2024,3.3060035657256877,22.869542278503527
3822.0815,3.300949665112071,30.357735149671065
3822.963,3.2895722510162364,26.213884276676367
3823.8423,3.2702186495183496,24.8348841510944
3824.722,3.2447241024744584,29.42184380269721
3825.604,3.2177133328516505,23.269674965681588
3826.4841,3.1944117912583043,22.16383613925267
3827.3665,3.1776495144347425,32.83802682213387
3828.2468,3.1671238039506653,28.67913668178427
3829.1296,3.1598194130981723,26.01866268035358
3830.0105,3.1521323941036985,28.071460616437854
3830.8916,3.141352692405225,40.314345947637094
3831.7751,3.126294026928832,30.10200787736371
3832.6565,3.1074802468519405,25.265950955705836
3833.5403,3.086929531904165,28.495605822080332
3834.4224,3.068216457037399,21.068225303082354
3835.3064,3.0546196030709547,29.388197386226647
3836.1887,3.0471994372941262,27.80235593094597
3837.0713,3.043645969951644,30.023893338096343
3837.956,3.040108184098271,28.54906260612562
3838.839,3.0344551142859593,27.214297542152966
3839.7244,3.0283197617100575,28.965749443267057
3840.6077,3.026371328459967,38.06311424516122
3841.4932,3.033156658106099,24.074846140647967
3842.377,3.0499818363452627,28.435895496151836
3843.261,3.07403122130028,32.0757859859355
3844.1472,3.1002355105072823,30.011087303819462
3845.0315,3.1240175173665374,23.550439409354336
3845.9182,3.1433236426695634,25.027805807133873
3846.803,3.1575966955071513,27.080962817980957
3847.69,3.1669819919919115,29.724523324177454
3848.5752,3.171980988786925,23.215836795372667
3849.4604,3.1742823847341337,30.277705185735147
3850.3481,3.1766731909756873,28.05693473956459
3851.234,3.182056539912528,29.18195830319314
3852.122,3.1923314241362464,25.728067965742174
3853.0083,3.207389981789175,32.028736312609084
3853.8967,3.2248301708501828,24.061473225443674
3854.7832,3.240155649942682,25.593328492215292
3855.6702,3.2490401166867193,30.648912918365028
3856.559,3.2499114263334308,25.266780288571475
3857.4463,3.245491816663073,35.77853693588525
3858.336,3.241518176878074,22.285198753513292
3859.2234,3.2435013092302927,25.058977881764264
3860.1135,3.2536622994409004,28.14515127329491
3861.0015,3.2698107176634483,30.73186698075954
3861.8896,3.286659129140467,28.434519502408953
3862.7803,3.2981429826290514,25.835919791562763
3863.6687,3.2996931260628743,23.884216032101627
3864.5598,3.289746645070476,22.36023400394767
3865.4487,3.269743962734587,23.16551432122875
3866.34,3.2429400313196384,29.737675101327056
3867.2297,3.213427508454711,22.456777315428017
3868.1213,3.1844824756883963,34.7699242136417
3869.0112,3.1581773010602023,20.77245555690241
3869.9014,3.1346998594498503,35.213872359924395
3870.7937,3.113138190726722,29.76456974929185
3871.684,3.092882160577792,29.188059906292327
3872.577,3.074353124925169,23.79921641303288
3873.4678,3.059092609035725,26.706811903848315
3874.361,3.0477111705473843,26.48171712466035
3875.2524,3.038674168461614,23.791172415724283
3876.1438,3.0283727695528637,30.977832774184037
3877.0376,3.0130120977688355,28.857030002377407
3877.9297,2.990524091438182,30.731478868108933
3878.8237,2.9609739081753683,27.521979788606803
3879.716,2.9266319420604354,33.91771084797811
3880.6108,2.890687054294043,37.45649171687588
3881.5037,2.8566617320813177,31.440219114045856
3882.3965,2.8263913545167503,31.56273108457325
3883.2917,2.79926341286631,33.670860403174245
3884.185,2.772669761834767,37.82821361808147
3885.0808,2.743329524462017,30.901402160575998
3885.9746,2.710184534665163,40.64777366853734
3886.8706,2.67484776209468,42.76590220335325
3887.765,2.641012339744017,47.638501214729715
3888.6592,2.611850374753588,46.292137591099255
3889.556,2.5894756734856945,35.177036731734006
3890.4507,2.5758842602912826,44.562823467637294
3891.348,2.573124251191008,38.166692420029285
3892.243,2.5826441438927548,42.319207706876526
3893.1406,2.6041363565363516,34.877675600762544
3894.0361,2.635419029187781,34.76072481131291
3894.932,2.673691622810575,50.72502014350891
3895.83,2.7159511390264846,40.3394254163238
3896.7263,2.758750692559229,37.28939346442281
3897.625,2.799517847098813,33.35652879240302
3898.5215,2.836625638767406,28.977062661714623
3899.4207,2.870351452445137,28.771063361197097
3900.3176,2.9012127208983824,30.427226985126282
3901.2148,2.9297701628003674,32.29551059063041
3902.1145,2.9562251424416957,37.24999810818443
3903.0122,2.9805034202729517,29.012787602195072
3903.912,3.00272293940012,29.42187184433443
3904.8103,3.022934716257762,42.38088068981127
3905.7107,3.0421283933040852,31.11558564881374
3906.6094,3.061953777696955,31.20006910980479
3907.508,3.083728322115952,29.70306246607036
3908.409,3.1068084951498958,28.3472107494033
3909.308,3.1286131832988033,30.364667147898754
3910.2097,3.1469853661155063,24.658621390455366
3911.1091,3.1614687626969173,34.73303375137149
3912.011,3.1733069676061603,31.715901605219386
3912.9111,3.1835477661377873,18.584172658095664
3913.8113,3.19239138804267,31.778590937232234
3914.7136,3.199724129702397,27.439662962126636
3915.6143,3.2062326234262937,26.12935566267148
3916.517,3.2138437342559434,28.840855734775023
3917.4182,3.224673467118351,30.60888147763723
3918.3215,3.2397769909566656,25.5201329538796
3919.223,3.2581738005798875,24.31355278365088
3920.1245,3.2773523481378812,26.570814209776206
3921.0286,3.2941367052285426,26.524240394263764
3921.9307,3.305783286340182,23.144894560054812
3922.835,3.3114806386161457,22.536579656405202
3923.7373,3.3128504090913804,24.861533887201855
3924.642,3.313326558088591,23.56490886616796
3925.5452,3.3158704332673516,28.21690371616829
3926.448,3.320982393378967,19.937360837670035
3927.3535,3.326872302409199,27.44654550586351
3928.257,3.331284079058858,26.8603697289535
3929.1628,3.332866870144402,31.65521357668018
3930.0667,3.3305405048153385,29.783742011919525
3930.9731,3.3226318572650713,24.000815010599034
3931.8774,3.307729760752956,21.17137584378611
3932.782,3.286516721856875,26.310352949732156
3933.6887,3.2625348953669664,32.09321132539386
3934.5938,3.240668021899053,23.031426726747693
3935.501,3.22388208797633,27.18826132325161
