wavl,flux,ivar
3566.9744,3.700268137544242,12.236421279470962
3567.795,3.671220885361515,14.93171346788347
3568.6177,3.655427642341297,28.331426669205932
3569.4385,3.654151958082319,9.85090396325803
3570.2617,3.6600117720581222,27.006386973239046
3571.083,3.6603035881863577,18.25435483550546
3571.9065,3.6452957461984106,10.790366297788397
3572.7283,3.61606893760981,12.278463885323184
3573.55,3.5846490079140994,15.69961286206231
3574.374,3.5660282115956146,12.56890167890432
3575.1963,3.568363736880702,15.890170723018077
3576.0208,3.588620272535426,8.673592879269307
3576.8435,3.6162830822322602,9.895300424413865
3577.6682,3.640941164500555,23.4684205805061
3578.4915,3.657562727192622,24.049696642394444
3579.3145,3.668291546460374,16.53577500312967
3580.14,3.679156484712076,21.910123829439932
3580.9636,3.694103465120162,24.089387713253334
3581.7893,3.7110089527185504,11.131282048872325
3582.6133,3.7229186368963627,9.991582422477606
3583.4395,3.7241076132340343,17.7435500931267
3584.264,3.7144261864669397,30.582280778815402
3585.0884,3.698756792339882,15.214632505830444
3585.915,3.682533330961384,13.300653310109457
3586.74,3.667852086701127,13.91692042854505
3587.5671,3.6524110808666133,18.854882618502796
3588.3923,3.6325844634731954,19.957296466481864
3589.22,3.607129494958992,35.520337633881475
3590.0457,3.5797913629807407,21.98251715665912
3590.8716,3.5574557686139276,30.276897612196564
3591.6995,3.546444497961604,23.213782390836627
3592.526,3.548588000759426,34.42254105765818
3593.3542,3.5598980226709847,13.037272114552367
3594.181,3.573369212906162,25.96836109128665
3595.0098,3.5843176126857967,14.083278071846928
3595.8367,3.593548361551552,19.98353526923281
3596.6638,3.606138737204783,14.251895131889167
3597.4934,3.6266349403139904,11.245320139629419
3598.3208,3.6548279175302376,18.727724692688767
3599.1506,3.6857598333612764,9.778041612270128
3599.9788,3.712218699253272,13.527814127123447
3600.8088,3.7294725910245803,22.46193900158533
3601.6372,3.7370959318677146,16.680319851359336
3602.4678,3.73808335964181,20.14029402831455
3603.2964,3.735744786977335,16.86569482393615
3604.1252,3.73221110856839,19.077816674726904
3604.9565,3.7288453702477002,20.150729093045424
3605.786,3.726435140359534,11.446631643692154
3606.6172,3.7240303397952905,11.600071147781073
3607.447,3.7188004910234125,15.044986137389278
3608.2788,3.7081580232959452,13.670653072327864
3609.109,3.692238248296372,25.546422406561806
3609.9392,3.673335631376614,17.27455364821727
3610.7717,3.653218434347142,18.433375723088723
3611.6023,3.631416137112574,8.969716659209011
3612.435,3.605714675310872,19.46116506875174
3613.266,3.5751789203310564,8.288569444647317
3614.0994,3.541500238446576,9.377525735993409
3614.9307,3.5093315142807993,16.301939738016824
3615.7625,3.4840542256560374,14.889624099803651
3616.5962,3.470334038159459,20.38175814599009
3617.4282,3.470426256176511,12.275812450865182
3618.2625,3.482495442256869,20.76435091624358
3619.0947,3.50009388124416,20.202519904209304
3619.9292,3.5141750258754065,17.985764758449232
3620.762,3.516807973228348,25.003127072967043
3621.595,3.5052936456423684,13.540130079131568
3622.4302,3.4832596755765266,26.35983522959298
3623.2634,3.4587750223917593,27.419195757124868
3624.0989,3.4396012238954787,17.455505320234536
3624.9326,3.429738417403098,15.263876918086561
3625.7686,3.4281767309472997,15.383083198333628
3626.6028,3.4314528176375863,19.034323542444618
3627.437,3.437053110396067,17.528812078399287
3628.2734,3.4450929361078804,11.677985635321004
3629.1082,3.4571020772287837,28.391030188549735
3629.945,3.4741795875678347,12.719933393611798
3630.78,3.496032990888728,36.735261238229384
3631.6174,3.521876824434802,37.43847373404302
3632.453,3.5503386477969707,13.386554052048236
3633.2883,3.5795879148714635,20.25394050549617
3634.1262,3.607300678769313,21.07408622743789
3634.9622,3.6317198155343715,20.904154257628083
3635.8005,3.653409944059325,17.893626151304225
3636.637,3.6741288061061446,18.483599341414926
3637.4756,3.6951484870412687,13.567973022750964
3638.3123,3.715467042440248,21.692359312262877
3639.1492,3.732639405935983,24.093105759244295
3639.9885,3.7432771114514214,20.363409595758394
3640.826,3.742947137490789,17.325256377735492
3641.6653,3.7274582866953803,11.004649410668284
3642.5032,3.6968603023284605,11.606419761091495
3643.343,3.6588697402558763,15.87252522177788
3644.1812,3.6273606151919178,14.679621151609176
3645.0195,3.6142010541739116,17.905322371848342
3645.86,3.6229892630861595,12.854404247289365
3646.699,3.6486087354353285,10.348476294455486
3647.5398,3.681913926306748,62.217491805571434
3648.379,3.7132600567443856,19.6435690206304
3649.2202,3.7347029839947385,26.4910453085884
3650.0596,3.7412441948200343,13.90713341369019
3650.8994,3.7331312559403127,14.61000100730709
3651.7412,3.715072313855229,14.232674228549698
3652.5813,3.6931665010603587,11.834404296711902
3653.4236,3.6715194165735014,11.276229466445093
3654.2642,3.6520676574819544,10.774972918935504
3655.1067,3.6352390501805334,32.04964696141546
3655.9475,3.6214498650797036,13.304658030892215
3656.7886,3.612052479777084,15.93111095638221
3657.6318,3.610315983793381,15.091112371944048
3658.4734,3.62037144112866,20.984270033122492
3659.317,3.6446665645839356,11.995378205549347
3660.1587,3.6822201023594094,22.233534832985676
3661.003,3.729798989350319,16.09436833362294
3661.845,3.782127311370909,28.347095840746533
3662.6875,3.832033821558333,43.6468764593671
3663.532,3.8692180677234775,13.223101001978426
3664.3748,3.882518950000439,14.94913613786799
3665.2197,3.8658145138408453,11.923890019249729
3666.063,3.8225894807811214,14.690269709206683
3666.9084,3.765672649271293,15.700619901868842
3667.752,3.7125917930535617,9.261354551501977
3668.5977,3.6769014614204245,36.611215611026424
3669.4417,3.6631934995517854,10.18481045062201
3670.286,3.6654273254405934,20.237421039211114
3671.132,3.671447699818769,12.456756404631793
3671.9768,3.669362214570738,10.406665444797742
3672.8235,3.6529114120839368,14.061171544710426
3673.6685,3.623508697019342,14.43052662261939
3674.5156,3.5885157325362935,18.143062954801007
3675.3608,3.5578158975889833,29.43659924248044
3676.2063,3.5382953720712513,13.877609818614498
3677.0542,3.530733733125003,14.605620719621863
3677.9,3.5301309974003994,22.025288978146506
3678.748,3.529701439094615,22.92298972937
3679.5945,3.5258394186476716,16.52093094318383
3680.4429,3.5205206947673937,16.928398881603385
3681.2896,3.5199749386904258,12.031224444886378
3682.1365,3.530462642458955,19.136552895346053
3682.9856,3.5542895466159354,15.984419235352494
3683.8328,3.5879553085697458,25.215889961968735
3684.6824,3.6238280940706566,13.695241419451259
3685.53,3.6523146454529196,12.375277190112076
3686.38,3.666079741636874,12.433440980690474
3687.2278,3.663022573635318,15.10073925651444
3688.0762,3.647556647922979,12.146041394401207
3688.9265,3.627427059337906,15.822712000484131
3689.7751,3.6093649470065166,13.906388511470574
3690.626,3.5966520850256383,14.876353809366387
3691.475,3.5904723600399118,14.287187933396783
3692.3264,3.5910289272958233,25.681595621337777
3693.1758,3.597313056620215,13.32277517540682
3694.0254,3.6063993353032275,13.935308892617979
3694.8772,3.614126231008691,10.629562820930305
3695.7273,3.6165258083838214,15.679395899447053
3696.5793,3.610929860819273,16.631221459940306
3697.43,3.596220540941475,17.605900356907572
3698.2825,3.572715046404363,18.25565954197048
3699.1333,3.542215799411288,20.346608028918947
3699.9841,3.5074026430977443,22.108102168793234
3700.8374,3.471740541052689,18.6773464592887
3701.6887,3.4397619441609604,35.43150239275901
3702.5425,3.4158770044807913,12.702240560980115
3703.3943,3.403340312446699,29.19926302200218
3704.2483,3.401742580871925,17.879510500827763
3705.1003,3.40691838386453,26.858469544481306
3705.9526,3.413583912838348,16.228088381945497
3706.8074,3.419305482731601,22.07886665949893
3707.66,3.4256279320286542,17.982324928290478
3708.515,3.434948776900742,15.378750636390837
3709.3682,3.4455249192090402,35.099321150289015
3710.2234,3.4502450277120444,28.47109065284961
3711.0771,3.4410727277989603,14.431658499443188
3711.9307,3.4165503245072304,16.882325933873265
3712.7866,3.3849713214824604,29.868129788840903
3713.6409,3.3599852703176807,29.450408986104453
3714.4973,3.3507686904632292,33.125713371955186
3715.3518,3.3569233637533786,16.216767509865054
3716.2085,3.3709278716115434,18.396217799437952
3717.0635,3.3847470111087787,14.537001132326708
3717.9185,3.394032721371054,19.183412087015025
3718.776,3.39763995014295,23.596592995227684
3719.6313,3.3957965703674273,24.150175555447138
3720.489,3.3894118712128676,34.60084878799587
3721.345,3.3803974507052805,39.87638863364465
3722.2031,3.3720560919423774,18.516679319825066
3723.0593,3.369228114842048,21.47119496432155
3723.9158,3.376592086704662,24.224086362090237
3724.7747,3.3953805991593304,20.82147195264437
3725.6316,3.4203215517851664,20.499811608262988
3726.4905,3.4413794839593987,15.530422691267784
3727.348,3.4489952982683008,20.015202790129937
3728.2073,3.439662027223951,18.43881913152115
3729.065,3.416741449161933,14.449650152843354
3729.9229,3.3871104136870813,14.376862066051704
3730.783,3.357352159789635,9.182352102558484
3731.6414,3.33243712131789,34.49080239772768
3732.5017,3.3156037664431985,24.20716272593468
3733.3604,3.3090054959615203,36.208252251924904
3734.2214,3.312570368112399,22.656925844557477
3735.0803,3.3231267928332033,12.580722782812131
3735.9417,3.335181250634334,21.603414295018336
3736.8013,3.3436543378048844,18.349430203989165
3737.661,3.347317927844577,21.607384142185065
3738.5227,3.349437571939227,16.313919311657035
3739.3828,3.354824201426616,16.475477177104157
3740.245,3.3653131765629114,15.492454364439496
3741.1055,3.377543916538125,10.8206969990155
3741.9683,3.385569286590132,23.50042228850651
3742.829,3.385445343042225,14.165950126796284
3743.69,3.3784357727500045,12.99241990649816
3744.5532,3.3702177195043395,35.497428551704694
3745.4148,3.3675099992119732,22.76152487775698
3746.2786,3.3737817937847456,22.235337231609986
3747.1404,3.3866894347032863,14.820189859834338
3748.0044,3.3988430649555172,31.770529627297236
3748.8667,3.4012783998990033,16.431752350601737
3749.729,3.3881664406691048,18.143641926443312
3750.5938,3.3595592145884643,15.231288861648036
3751.4565,3.32180231040373,30.679305405516605
3752.3215,3.284009065945654,25.62701015111038
3753.1848,3.2540824114634885,19.982605835145662
3754.0503,3.23459244300616,17.416750737775615
3754.9138,3.2230958766965863,21.417272074305995
3755.7776,3.214945048510491,14.257986779739266
3756.6438,3.2076317033479427,12.561060371405219
3757.508,3.20268573436502,16.956249834336
3758.3745,3.203508601685637,47.65557206543654
3759.239,3.2112619543708756,15.54288267953518
3760.106,3.22281460221064,21.43737694676215
3760.971,3.2329630752112863,18.05936205436905
3761.8362,3.2390474886281013,23.990915594354707
3762.7036,3.2427335397877943,14.198427354745064
3763.5693,3.2474989070289277,21.468324428108275
3764.437,3.254549958869587,21.88286579258059
3765.3032,3.2611492450390416,17.25724778414601
3766.1714,3.262722442332043,23.562615882405545
3767.0378,3.2558524734674545,27.073696141163776
3767.9043,3.239908134034714,14.346672329761292
3768.7732,3.217021153993765,15.66806566741952
3769.6401,3.1919473273813503,40.394561217688874
3770.5095,3.1707642671616867,15.495736243570782
3771.377,3.159489833478188,18.668073207819802
3772.2466,3.1614242356132656,19.241618864849308
3773.1145,3.175691014077267,16.419799507578816
3773.9824,3.1971229631743205,14.783310400480797
3774.8528,3.2182745567215716,16.24697958997409
3775.721,3.232637286421262,32.021086429877215
3776.5918,3.238105506594324,22.61557992836047
3777.4604,3.237151697065453,42.469897248741994
3778.3315,3.2345356966597163,22.637743205108432
3779.201,3.2341589359778706,25.675956333414323
3780.0703,3.237424108818419,30.041608033783096
3780.942,3.2430749916252175,22.327706072197618
3781.8118,3.247410197227269,24.159319770956397
3782.6838,3.245437725765276,21.940616689471547
3783.554,3.233366494203274,14.58052909107192
3784.4265,3.211213406272554,19.13767998901083
3785.297,3.183560239957798,16.174946456672476
3786.168,3.156947581089967,21.12724020504605
3787.041,3.1368239754849596,22.55072213536281
3787.912,3.125500982524704,25.493856099378284
3788.7856,3.1213113759507936,27.232540851077832
3789.6572,3.1197114431340998,17.510680957216753
3790.531,3.115333970605009,15.182194573053216
3791.403,3.1049599332834625,30.469365241496263
3792.2754,3.0892283724701755,19.429826765570205
3793.15,3.0716564166248443,22.443858171805495
3794.0225,3.0557367885463407,29.905578294026977
3794.8972,3.0422912121549137,24.710379140460116
3795.7703,3.0303456539013136,17.060407131094006
3796.6455,3.0194976527291746,32.18927476829667
3797.519,3.011616872764337,37.762056083884325
3798.3926,3.0092881669849536,16.770299329500453
3799.2686,3.013466771131548,16.514253201895176
3800.1426,3.0227784747855777,22.544348304289638
3801.0188,3.0353073572234335,23.902279180866703
3801.8933,3.0501865681761937,17.276173990410562
3802.77,3.0674870228533915,15.212673133800171
3803.6448,3.085883575309988,43.961003656704364
3804.522,3.101555579009118,18.007283765163514
3805.3972,3.1093066556461553,19.988845551958992
3806.2727,3.1067272754401247,15.294091595775553
3807.1504,3.0969382524799625,20.078220620293315
3808.0261,3.0875581636542297,15.356659128029625
3808.9043,3.0858130215992214,42.68983880943527
3809.7805,3.094287061476178,23.30535746980218
3810.659,3.1100360784605305,19.771057509420075
3811.5356,3.126822901346354,27.571281966204022
3812.4126,3.1387172793587013,17.535313275952827
3813.2917,3.142479088788556,26.395783674957713
3814.169,3.1382007961803975,15.139516853513907
3815.0483,3.1280409300257435,26.813329790483223
3815.926,3.1143606757252287,19.65952377538916
3816.806,3.0987369698497083,20.720829810781034
3817.684,3.0828325436502464,22.130005592049063
3818.5623,3.0690317814521473,20.45688005698582
3819.4429,3.060304838038389,25.165231960362437
3820.3215,3.058800919297338,20.18061430729057
3821.2024,3.0640133504802844,20.728879111628792
3822.0815,3.0721147922624787,33.43108568507049
3822.963,3.077195734745133,28.03491765512811
3823.8423,3.0740894904626495,17.495117032206092
3824.722,3.0613728877310913,25.60406986851539
3825.604,3.0418860911656984,20.9001681417554
3826.4841,3.020569881780758,27.73615947060633
3827.3665,3.0005482697143457,26.39177340650501
3828.2468,2.9817331090538053,18.705455552230873
3829.1296,2.961572437000925,25.938144637128104
3830.0105,2.9378132463197058,25.815142506391513
3830.8916,2.909789588216691,30.07473281146738
3831.7751,2.879175473925251,24.289075120342055
3832.6565,2.850156189287204,20.85949736929504
3833.5403,2.8273711541340663,31.835421246790766
3834.4224,2.813535921898037,30.360080630616082
3835.3064,2.8069281732584637,23.292837508797913
3836.1887,2.8026811158762555,32.222998124967454
3837.0713,2.7960543399800164,20.34408146296346
3837.956,2.785343509565139,44.113120386147074
3838.839,2.77271963039854,27.364814516715473
3839.7244,2.76317433132026,20.39053082840243
3840.6077,2.762852382989307,22.921700630550323
3841.4932,2.77618836306512,24.275998618561374
3842.377,2.803001811232525,40.73884312167298
3843.261,2.837835098014965,27.453394588365494
3844.1472,2.8727093754447193,23.520384423307064
3845.0315,2.901585623154439,18.667775151060717
3845.9182,2.9238679820132596,24.605302303491072
3846.803,2.942861964797205,20.12691202050211
3847.69,2.9629082666898228,16.402779988086298
3848.5752,2.986265409030717,25.80197233950624
3849.4604,3.0125072844867398,26.042773436484467
3850.3481,3.0389578603645395,18.526298162466432
3851.234,3.0620981356630463,19.200588944842508
3852.122,3.0802660346920248,14.998264416485812
3853.0083,3.0945914329626105,20.557526621717706
3853.8967,3.1087816530817354,19.534799694494108
3854.7832,3.1269425741684045,16.98306650482118
3855.6702,3.151944103595052,19.799652811740657
3856.559,3.1835985770662605,21.28512520949018
3857.4463,3.2166498765969074,22.178780733023636
3858.336,3.2409622323927754,24.30478608613961
3859.2234,3.244739296963357,15.487435194040271
3860.1135,3.2219147321672437,14.639466539564493
3861.0015,3.17727670280089,26.29003267182874
3861.8896,3.1244862453672897,23.902020117792645
3862.7803,3.078739341848228,20.66297363802636
3863.6687,3.0497032587747075,29.183592594205514
3864.5598,3.037824182668052,17.449142997489982
3865.4487,3.036861982231897,23.78380298483757
3866.34,3.0380186619292133,23.1776475149799
3867.2297,3.0344526026898317,24.014756760856596
3868.1213,3.0237879608671645,13.502024329625415
3869.0112,3.008187559142121,21.803337508265255
3869.9014,2.991971108910306,25.772865104246492
3870.7937,2.9785106119617066,24.639472480422654
3871.684,2.9680933962591496,26.13574100471682
3872.577,2.957746817426073,31.684615632488022
3873.4678,2.94358879662653,17.77465519432274
3874.361,2.923157175563034,22.971335367799572
3875.2524,2.8968628231939606,46.24954268546428
3876.1438,2.8667089077333454,24.283784777617655
3877.0376,2.834443052451675,30.425059966982197
3877.9297,2.80094582230758,21.022217299219662
3878.8237,2.766478859743489,23.00907474049875
3879.716,2.7322187743473547,26.60514232431079
3880.6108,2.699169298739305,33.191512611821715
3881.5037,2.667150167167071,40.839317438416224
3882.3965,2.633442880772498,28.565977031006565
3883.2917,2.594081507248989,38.64019113556769
3884.185,2.5464457651983303,23.80460401514517
3885.0808,2.4905878628358242,26.99771552154631
3885.9746,2.4310393092523124,29.877473985665247
3886.8706,2.3747960066628986,30.963084099059145
3887.765,2.3295106909191836,54.47528496296978
3888.6592,2.2995530867137672,34.3498513571314
3889.556,2.2855318769636876,33.97342176098973
3890.4507,2.2858200985850097,27.40388461950777
3891.348,2.298121841250635,61.352603564755654
3892.243,2.3194757236793704,42.66913172761251
3893.1406,2.3456381857520903,44.33682841688881
3894.0361,2.371274620371625,29.891226846322603
3894.932,2.3929357851166584,23.477454500946475
3895.83,2.4111682034901505,23.87308199214983
3896.7263,2.43019356657724,51.268935504974365
3897.625,2.4551715794956155,34.267546497613154
3898.5215,2.4883457146674726,26.184500425599218
3899.4207,2.528757110701322,28.991430491371847
3900.3176,2.5734625673332903,28.479393568927442
3901.2148,2.6204304425109988,43.33678159981183
3902.1145,2.6686664201587718,26.181140617626415
3903.0122,2.7170445642382646,28.144652554049337
3903.912,2.7646113645560866,35.78770974779404
3904.8103,2.8099369535762833,20.36831623227997
3905.7107,2.8523245315229766,40.7012702506931
3906.6094,2.891177332310567,27.23907850633259
3907.508,2.9267303847434736,20.03343239664844
3908.409,2.9597486927408827,22.021427780666937
3909.308,2.99069290050265,24.657523227295147
3910.2097,3.019114816393558,32.87475131027161
3911.1091,3.042656193627157,33.75599202313427
3912.011,3.05866952688542,19.26882372501121
3912.9111,3.065533064958424,16.51561198335137
3913.8113,3.0639672924009065,25.41250850701989
3914.7136,3.056824677053955,25.845756920195797
3915.6143,3.048941653330872,20.859826159645124
3916.517,3.0465708266253326,24.887563363853605
3917.4182,3.0557625186961603,26.387516231963748
3918.3215,3.07940957485562,21.015133885740866
3919.223,3.114919439868315,20.703359947965478
3920.1245,3.15552671004062,16.384112653271238
3921.0286,3.1937625772622593,19.124131230108475
3921.9307,3.2243732752663,19.323774320388303
3922.835,3.245714370262289,25.423438403892348
3923.7373,3.2580381318419307,18.023825477242262
3924.642,3.262656089606707,19.183169876641212
3925.5452,3.2613959537066863,15.048292260664418
3926.448,3.2570091210798346,21.0357483418772
3927.3535,3.25300354652557,20.165861433446302
3928.257,3.2525956078986424,23.369429078903494
3929.1628,3.2569066323004843,19.584908543775995
3930.0667,3.2640265515683375,16.445816928923513
3930.9731,3.270158894217969,25.223792685180154
3931.8774,3.2721418243838305,19.331830086579178
3932.782,3.2697601217936363,19.172797482861206
3933.6887,3.2656088750852166,16.627839833209933
