wavl,flux,ivar
3566.9744,10.477152194311449,13.023984854973635
3567.795,10.450410464274489,9.952842373131421
3568.6177,10.422287061429596,10.575537889802126
3569.4385,10.394592346732269,13.008367889170554
3570.2617,10.369238201029845,13.62119784531817
3571.083,10.351266462901041,12.431090722137592
3571.9065,10.346582142596795,16.1907327323606
3572.7283,10.35604712219161,13.306890026213043
3573.55,10.371459185832023,13.036286745499543
3574.374,10.379921516575422,9.69664952398548
3575.1963,10.373248900304802,10.093250960322711
3576.0208,10.353905228418432,10.114344129250306
3576.8435,10.331946163752749,10.864700443091916
3577.6682,10.316338289669558,11.725756735262719
3578.4915,10.30971757406514,11.85993149075073
3579.3145,10.309270755476177,10.913395882154722
3580.14,10.31138944842919,10.505998785439434
3580.9636,10.314196970350725,12.120818416156796
3581.7893,10.316809762141808,12.232435154976805
3582.6133,10.317577833867105,11.827551659673517
3583.4395,10.313827166791329,14.31073326904142
3584.264,10.302969522164174,14.32506355134723
3585.0884,10.2837425950901,12.286965482107785
3585.915,10.257101791631428,11.084368555065266
3586.74,10.226959715466672,13.560172645679033
3587.5671,10.198862664276383,14.360226648303556
3588.3923,10.17795661666355,11.881455667246765
3589.22,10.165904900544188,10.654685953358063
3590.0457,10.16096795629974,11.352724911221266
3590.8716,10.15980124547119,12.413467011522906
3591.6995,10.159950400566242,13.486911491685486
3592.526,10.160370051885891,11.615931051709543
3593.3542,10.160129578473772,11.639350411359489
3594.181,10.15704861925999,12.56118664801276
3595.0098,10.148124703976737,11.294203481919887
3595.8367,10.131814793108202,13.366015586501954
3596.6638,10.109543760983986,14.346054993408337
3597.4934,10.084772512314517,14.33933636297473
3598.3208,10.060318717129157,11.180005375693863
3599.1506,10.035774217212904,13.366016442223152
3599.9788,10.009067979889604,15.05920462212951
3600.8088,9.979044019216804,13.420948005713164
3601.6372,9.947580527617848,13.452149013784181
3602.4678,9.917540549989,12.530131981180435
3603.2964,9.890964667159956,14.358883809622856
3604.1252,9.868247489813216,11.678486554473261
3604.9565,9.84976109130033,13.582223030700487
3605.786,9.836514424856233,15.22850399129103
3606.6172,9.82903150383049,10.755784889664696
3607.447,9.826965083086057,12.273578183991011
3608.2788,9.829216811837881,14.022524272735824
3609.109,9.834155476674036,12.438432820907906
3609.9392,9.839266110604992,14.128086320669844
3610.7717,9.841336198243164,14.45032374495674
3611.6023,9.837864771434573,12.610626543319121
3612.435,9.828517392345022,13.892897606490827
3613.266,9.81532939333158,13.565538639084409
3614.0994,9.80154411378821,13.347693604848505
3614.9307,9.790540671721098,14.86689064143154
3615.7625,9.784293298280497,14.233852623595435
3616.5962,9.782353366882589,13.555499242124464
3617.4282,9.781641487240792,13.067928952515645
3618.2625,9.777943102080844,12.925265769256441
3619.0947,9.768220607627565,14.545052780376054
3619.9292,9.751594417174138,16.0049184470333
3620.762,9.728895934494329,12.573039706725261
3621.595,9.701392082996534,15.237146454669174
3622.4302,9.670735492815014,14.492004073624008
3623.2634,9.639662756485759,13.96325217724416
3624.0989,9.611100562521687,13.723652074903088
3624.9326,9.587323636892782,15.396348595836779
3625.7686,9.568348649988236,13.222839941746292
3626.6028,9.55309555622331,14.111878329037234
3627.437,9.54114163273167,14.165087177454936
3628.2734,9.534138120590372,14.073183076791516
3629.1082,9.534548328535045,12.203921722903592
3629.945,9.542513683861037,16.64558873048028
3630.78,9.553934137749387,13.18852934558502
3631.6174,9.562349419568164,16.977915192142465
3632.453,9.563454393616885,14.639256084384709
3633.2883,9.558901584317132,13.807837855012242
3634.1262,9.555329524449764,14.363681353994625
3634.9622,9.55967382868941,14.962449417396993
3635.8005,9.574393676537928,13.865346844385037
3636.637,9.596228354958434,14.475654280400658
3637.4756,9.619470546345205,12.853034323576953
3638.3123,9.63996352441505,16.278544662895033
3639.1492,9.65746887101014,13.641231009691973
3639.9885,9.673666477356866,13.293415429410846
3640.826,9.68886346169697,14.256401036329924
3641.6653,9.701159533325635,14.333922024884389
3642.5032,9.707772688863551,14.099363109944418
3643.343,9.707131121461412,11.914177897082054
3644.1812,9.6990253368675,12.852642412750244
3645.0195,9.683688375558555,14.651902542729779
3645.86,9.661271616599477,15.983903612086925
3646.699,9.632840009461804,11.614550360479063
3647.5398,9.601125649718073,14.314463159439692
3648.379,9.570888486684684,14.610789633181334
3649.2202,9.54633002026344,13.072860235750426
3650.0596,9.528923995196001,15.032956563538393
3650.8994,9.516110133812939,14.709959916860756
3651.7412,9.503525869213677,14.447741572610537
3652.5813,9.48826143740946,14.788574754650236
3653.4236,9.470476538697335,15.333356358829466
3654.2642,9.452904957735207,14.46780234195029
3655.1067,9.438211177207583,12.36413319495326
3655.9475,9.427054225318882,13.027919182659815
3656.7886,9.416991660714066,13.461409231126689
3657.6318,9.403957561843972,15.738791212202424
3658.4734,9.385814061406254,16.41618404302536
3659.317,9.365185639092893,16.67877290895051
3660.1587,9.34895216370057,16.120466294880174
3661.003,9.34309731200309,18.196828220961276
3661.845,9.348260117910025,13.542714451932444
3662.6875,9.359432339971097,13.560552304659389
3663.532,9.370195653633479,16.45150355559505
3664.3748,9.37709346485927,13.283394616291691
3665.2197,9.381132946732885,14.358575404853493
3666.063,9.385360499507323,15.418912042049081
3666.9084,9.391045672107538,12.858823923918957
3667.752,9.39510405429335,15.606189570436719
3668.5977,9.391369853155812,12.620499666933547
3669.4417,9.375035363442525,13.751652854629937
3670.286,9.347036501066784,15.491136858175505
3671.132,9.314588258568673,14.479579084230775
3671.9768,9.28730142277357,18.19564866060005
3672.8235,9.27091242714904,15.771223729004985
3673.6685,9.264836537418368,14.433575278347487
3674.5156,9.263950951898059,15.245854532995313
3675.3608,9.263113216404635,15.438795446234277
3676.2063,9.259751099636059,13.3100585518652
3677.0542,9.253396442011976,14.178775887050264
3677.9,9.243923870975225,14.620503450833795
3678.748,9.230256971007483,14.752211868142226
3679.5945,9.210725298925523,14.99805558255008
3680.4429,9.183887698986162,16.420144591575504
3681.2896,9.150357359833286,13.31373948276078
3682.1365,9.113287741685506,15.723470133987739
3682.9856,9.077714186396324,14.441168992933363
3683.8328,9.048515857810045,14.674861456932243
3684.6824,9.02774341501594,14.32817490740969
3685.53,9.015064987942683,17.38804996877385
3686.38,9.009100134700377,15.426124881845553
3687.2278,9.009384028720287,17.092447669187933
3688.0762,9.015883791175861,14.874298737075739
3688.9265,9.026967579140411,16.33816195870747
3689.7751,9.03802036291092,16.32699248773432
3690.626,9.043519673947035,12.216802988869745
3691.475,9.040930298029588,13.786374878965024
3692.3264,9.033184137574326,15.38080660767402
3693.1758,9.026952866613907,17.341788804852445
3694.0254,9.028129844250484,15.214558083103304
3694.8772,9.038522524588712,14.834534063246652
3695.7273,9.055299844115526,18.021464701467448
3696.5793,9.072933663568262,16.66769542290816
3697.43,9.0851668328993,13.340477005574277
3698.2825,9.087100506785266,14.874175881141147
3699.1333,9.076421302470237,16.297854344740934
3699.9841,9.0539555300754,16.175065850704737
3700.8374,9.022786464400681,15.062896455808902
3701.6887,8.987064415823848,15.199168561373842
3702.5425,8.94976188064273,16.85439964033265
3703.3943,8.912428957670826,16.91860661420774
3704.2483,8.874745007910017,16.796487856086326
3705.1003,8.83643400265449,15.540047217799358
3705.9526,8.797522382392456,22.176411459988522
3706.8074,8.7586986449475,20.241384787630686
3707.66,8.721721619940944,15.020270105690289
3708.515,8.689429191069555,17.006021961335865
3709.3682,8.666640621167724,18.348085624142094
3710.2234,8.657664540291572,15.925310546401738
3711.0771,8.663770951638611,16.268543059562475
3711.9307,8.681641136531068,13.91459779511293
3712.7866,8.704452708259971,18.89750728675992
3713.6409,8.72319919389247,15.660418495250156
3714.4973,8.728814426724558,16.168759932896847
3715.3518,8.714943030368229,16.6229338954996
3716.2085,8.68184980735888,16.454757427908348
3717.0635,8.638239874860162,19.271615257362434
3717.9185,8.597480520310016,15.547749225426424
3718.776,8.571143084510162,17.125528152450027
3719.6313,8.563990338278009,18.744603281030884
3720.489,8.572924949830087,14.829791233031568
3721.345,8.590385637936677,16.213290195295965
3722.2031,8.608609534977022,15.510522969393223
3723.0593,8.622440641398851,17.949360800622443
3723.9158,8.630787916708522,19.42786368579223
3724.7747,8.635856295541148,14.805605299795923
3725.6316,8.641362909493411,17.123678780330813
3726.4905,8.650210949345476,18.509664114392343
3727.348,8.662036109824488,18.479969015824032
3728.2073,8.672508998363483,19.78088803437687
3729.065,8.675293084070129,13.803043998203046
3729.9229,8.666388266266324,17.181366710581727
3730.783,8.646793125155433,18.50457423022437
3731.6414,8.621696411230854,15.462297152134981
3732.5017,8.59648641399116,16.34750877267186
3733.3604,8.574105728137114,16.279543240345525
3734.2214,8.55406593135533,15.601952454930915
3735.0803,8.534158261339647,17.56330060765521
3735.9417,8.511651912070555,17.686116826579696
3736.8013,8.48479260229978,20.036780198828183
3737.661,8.452990948762112,16.196233650894296
3738.5227,8.417452013318874,17.169430957026
3739.3828,8.381761732076498,17.796532596420654
3740.245,8.350442412672562,19.03484368507003
3741.1055,8.327540741237865,17.089059221020705
3741.9683,8.314531872829008,18.037327814473663
3742.829,8.311008968716196,18.96763948517125
3743.69,8.31564189209593,16.44572911747787
3744.5532,8.326795484594658,19.302614438996017
3745.4148,8.341621436163816,16.960374981002605
3746.2786,8.355963190815128,17.978992947757213
3747.1404,8.365561657999434,16.540908036703353
3748.0044,8.368515165330983,20.49901960221602
3748.8667,8.36597098524273,18.611831984339798
3749.729,8.360846895543006,18.359041139630925
3750.5938,8.355806119753602,16.756569986891666
3751.4565,8.352803660590528,20.313632058531347
3752.3215,8.35376599379322,16.865742217653523
3753.1848,8.360540753637592,17.682932834353398
3754.0503,8.373057426158768,17.877330113426606
3754.9138,8.387553491113177,17.626013150533808
3755.7776,8.397841674299762,16.873494664542413
3756.6438,8.398601507331785,20.19090326044088
3757.508,8.38820251254651,16.388554970359518
3758.3745,8.368741890478832,20.03714814859605
3759.239,8.344325484811424,17.914479043519503
3760.106,8.318669245458624,21.708465644445283
3760.971,8.294310404159514,19.937552892236962
3761.8362,8.272176939733745,20.546758494507014
3762.7036,8.252994593752124,15.74005758631674
3763.5693,8.238186078734904,21.61413707853304
3764.437,8.228287740835885,17.361499124321732
3765.3032,8.220988322384875,18.53111875852661
3766.1714,8.211194566553676,18.865903363585428
3767.0378,8.194639460076987,19.40479001823393
3767.9043,8.17088599604757,21.22527638210222
3768.7732,8.143019774493364,17.314498105381084
3769.6401,8.115256309671777,19.741901868882913
3770.5095,8.090222808655598,18.663211648481017
3771.377,8.068753026258584,19.124768288068832
3772.2466,8.049571547061936,21.323913874478386
3773.1145,8.030889540717387,18.441583982866103
3773.9824,8.012447210721529,18.59098053473887
3774.8528,7.997534108056539,21.061992360136006
3775.721,7.991984715332065,19.07925432059493
3776.5918,7.999853574478514,20.15103860780865
3777.4604,8.019859286455624,18.82937746358793
3778.3315,8.045765693703052,19.446146133829384
3779.201,8.06968299936643,19.890069650390327
3780.0703,8.086126952379791,16.03938768564143
3780.942,8.092983498310327,21.933440722906532
3781.8118,8.090697070453016,18.019970141439728
3782.6838,8.081407872704839,17.73318040558498
3783.554,8.068449654870609,21.462111397035812
3784.4265,8.0551648720331,19.983988241970074
3785.297,8.04340736516293,20.022859980827388
3786.168,8.032434791924853,20.982892073447122
3787.041,8.020157666918475,21.930038838580312
3787.912,8.005373881553275,19.240037521047125
3788.7856,7.988641393991912,20.599929366074672
3789.6572,7.971888275754315,21.193890156482325
3790.531,7.956678614213474,22.429026093766836
3791.403,7.943420578843539,22.047755892565338
3792.2754,7.930559087054141,21.012875216836616
3793.15,7.914794653936244,21.467218518946854
3794.0225,7.892450182977003,20.036729268022373
3794.8972,7.8613206956153885,21.887427072665307
3795.7703,7.822797843379143,21.836112527718292
3796.6455,7.781192595185809,18.756009756552437
3797.519,7.742383109405393,21.222255859183893
3798.3926,7.71071257465653,24.335445200947845
3799.2686,7.688150505353707,20.868850886961418
3800.1426,7.675148795750401,21.95503174619787
3801.0188,7.671444982775782,23.558131692042977
3801.8933,7.676302813033019,22.083019823628597
3802.77,7.687600199390071,20.189087970890082
3803.6448,7.701970851613898,19.351545544940564
3804.522,7.716821105199817,22.135127062990456
3805.3972,7.731771431076894,20.816275734926297
3806.2727,7.748533182782151,20.368593780042257
3807.1504,7.768594196248341,22.668790962193818
3808.0261,7.791200565278938,22.785515103537225
3808.9043,7.81409055989293,20.240448069748947
3809.7805,7.835424998084514,19.590759952742577
3810.659,7.856102027440388,21.70816752300866
3811.5356,7.878371983538285,19.984663466741136
3812.4126,7.902854948559045,19.181195913437833
3813.2917,7.926266667709941,19.73637727509752
3814.169,7.942979999307191,16.34203159815005
3815.0483,7.94938636893693,17.67615157218836
3815.926,7.945675161355585,22.59384022718305
3816.806,7.934178759834371,21.24274664541559
3817.684,7.9161654507087205,18.433997108896957
3818.5623,7.8904778800258235,20.593031174443972
3819.4429,7.855186578797903,19.992723069691014
3820.3215,7.810692746424663,19.68792808814599
3821.2024,7.76030045158905,20.43377042855544
3822.0815,7.709419124710491,24.72193377494085
3822.963,7.661427044052166,20.00758951620253
3823.8423,7.616681164850666,21.63942589045512
3824.722,7.573254711317482,22.017262010007325
3825.604,7.5302997493603705,22.718305910466
3826.4841,7.488897607514718,23.472816170863272
3827.3665,7.448630925980124,23.95356134495696
3828.2468,7.406252041176326,23.06953777899999
3829.1296,7.356853442461152,23.8404660371537
3830.0105,7.299159471614471,22.95827303510157
3830.8916,7.236527263873461,26.645783617340406
3831.7751,7.1744934416962565,26.330402972621965
3832.6565,7.117090457687159,24.26821462206339
3833.5403,7.06436227114221,24.652158354140532
3834.4224,7.015672106461728,25.2841530533236
3835.3064,6.971485911106852,28.568253591109645
3836.1887,6.935033453008395,31.492146265305152
3837.0713,6.910568622528674,27.258409251121215
3837.956,6.9024278659459375,25.49060867483833
3838.839,6.914085252030276,26.954058802331524
3839.7244,6.947157136078199,26.95037659342121
3840.6077,6.999878762051994,27.527989268344143
3841.4932,7.067063635414025,24.826031710351742
3842.377,7.140169067903148,25.380743626216066
3843.261,7.21083266955955,24.56470087107592
3844.1472,7.2734391856348415,25.258383689534657
3845.0315,7.326522165211294,24.087760217730736
3845.9182,7.3732001256826125,20.04063435029342
3846.803,7.417560777145671,19.216787055282204
3847.69,7.462831573367959,24.101449530261526
3848.5752,7.509124546962224,21.036511457682188
3849.4604,7.554502194416218,21.45884491370919
3850.3481,7.596235238256825,20.253092497404964
3851.234,7.632318055026042,21.503048527239073
3852.122,7.663375779250222,22.751228350838804
3853.0083,7.691544820179516,22.14382009237409
3853.8967,7.719338944815666,17.499591550618497
3854.7832,7.747543415665537,20.707051508838294
3855.6702,7.775653113465666,23.20042567571683
3856.559,7.802706462591126,19.77514634670591
3857.4463,7.828009573010758,20.26382590776968
3858.336,7.851338741723892,19.240593073618935
3859.2234,7.871557415755983,22.68244575351596
3860.1135,7.886383120521277,20.268841573932296
3861.0015,7.892326261403265,23.40807115348146
3861.8896,7.8862968627207,20.148893405056775
3862.7803,7.866664993783742,17.508501997276593
3863.6687,7.834167064941253,21.96529309028627
3864.5598,7.791339615929671,20.50848469031724
3865.4487,7.742580451335642,21.32156855117861
3866.34,7.692341536153519,24.38724807029454
3867.2297,7.645004890656128,25.331776553442023
3868.1213,7.602878772095984,23.640525376929403
3869.0112,7.565826744419514,21.63298773150698
3869.9014,7.529993350677705,26.85975131368497
3870.7937,7.489298343798138,22.295009238178277
3871.684,7.439283143239384,24.418515669520293
3872.577,7.3800135257004555,25.763233537454344
3873.4678,7.3171779315900976,28.436775796075732
3874.361,7.256904103907148,22.18445473943734
3875.2524,7.202120081398082,22.15363852627253
3876.1438,7.149932640330296,22.614216302159697
3877.0376,7.094143115070578,26.203943558091584
3877.9297,7.029033253277298,23.948006601164447
3878.8237,6.951044713622677,28.39837212392195
3879.716,6.861274209546672,29.079437161570596
3880.6108,6.763939423388891,25.665415634760954
3881.5037,6.665558962301324,28.485317187654523
3882.3965,6.569504266473074,32.69864335186931
3883.2917,6.474280827116709,35.707127732718874
3884.185,6.375858122893721,27.01742011769298
3885.0808,6.27035885005079,32.60585115748152
3885.9746,6.159499664740147,33.845700530013026
3886.8706,6.048732246662206,38.12600495115263
3887.765,5.947105169464866,35.31453270629723
3888.6592,5.863388254179366,36.73762934067883
3889.556,5.805408041631331,41.63554973331395
3890.4507,5.77904192869577,36.32575371096366
3891.348,5.7860379799933925,40.13895622142863
3892.243,5.824027215768613,42.23577864155276
3893.1406,5.887592892987631,35.08693402062929
3894.0361,5.969178631134653,34.97061474302977
3894.932,6.061616275895361,39.375735013157886
3895.83,6.158755841249617,30.662921334036906
3896.7263,6.255686339988784,34.36476651495195
3897.625,6.3514277543625095,34.19383134242435
3898.5215,6.446872657506521,35.33185988826765
3899.4207,6.544647200653232,26.977101180408376
3900.3176,6.644216038419442,29.023198355212468
3901.2148,6.742934101795231,24.179663325012946
3902.1145,6.837577936448137,30.52963267559852
3903.0122,6.927075525441672,27.183040798656332
3903.912,7.014948287995897,29.9967333922144
3904.8103,7.104803182636725,24.462031723908012
3905.7107,7.197965464728664,21.454608353888727
3906.6094,7.290428641246426,25.01148623134291
3907.508,7.376414772543958,24.75342077339414
3908.409,7.451669566695433,19.88882263575546
3909.308,7.515550143345705,22.727749935923075
3910.2097,7.571864400685419,22.327146801146103
3911.1091,7.625190819530067,21.138461198131388
3912.011,7.679507359042593,22.058128837925484
3912.9111,7.7359342355399825,18.437213017448606
3913.8113,7.793852407514331,20.610623008402975
3914.7136,7.851559888314667,21.006337080252056
3915.6143,7.90696620134581,21.28496422537126
3916.517,7.959055937315837,19.06528810683128
3917.4182,8.006445250468214,19.670563463827207
3918.3215,8.047412275036013,17.39633289252834
3919.223,8.079431342325602,20.311952471122392
3920.1245,8.101609544899532,18.466489896076762
3921.0286,8.11564694359092,20.261248168934614
3921.9307,8.125167898351094,20.306130907945867
3922.835,8.133890312847125,17.21593398777829
3923.7373,8.143763852595232,18.30510386054931
3924.642,8.154709724805935,20.8626616629338
3925.5452,8.164871847012256,19.55228806904942
3926.448,8.171829573257575,17.50185776782169
3927.3535,8.173896168694434,16.86484345619231
3928.257,8.170928878947059,20.274008992658786
3929.1628,8.163797001655935,18.65727498168312
3930.0667,8.153121864592668,18.333055470031372
3930.9731,8.138521748316624,19.88581463955922
3931.8774,8.119234106907207,19.999941999622845
3932.782,8.094459062954646,20.1254428694678
3933.6887,8.063792626850596,19.637406971860056
3934.5938,8.027922576655545,20.883542242680182
3935.501,7.988659112829802,21.22128875582381
3936.4062,7.949487429454348,18.505059752546746
3937.3142,7.913767981956236,20.018749840674626
3938.22,7.883571859810673,20.87030006659812
