wavl,flux,ivar
3566.9744,11.491461316206237,11.585209171045529
3567.795,11.472795541829857,12.123191900156074
3568.6177,11.451136772798971,13.619860795900065
3569.4385,11.429195736389886,11.58980869370393
3570.2617,11.408082009181483,10.98679491180914
3571.083,11.390041694820162,13.742078258058042
3571.9065,11.37766834543516,11.770413662259697
3572.7283,11.37092961335218,13.237663838886304
3573.55,11.365457663965222,10.65515104025075
3574.374,11.355650606442815,11.989899784355307
3575.1963,11.338755708000326,14.195912357948979
3576.0208,11.315507439188249,13.130403993228425
3576.8435,11.288923858812492,12.355219923142114
3577.6682,11.263276503164523,12.908118366360663
3578.4915,11.244718929320566,12.338239330317169
3579.3145,11.239325031816875,11.174193347363644
3580.14,11.249747886686709,14.099259790641865
3580.9636,11.272402025629242,10.72820125002849
3581.7893,11.298591878513607,12.164808677005711
3582.6133,11.318203818235986,13.813556225603493
3583.4395,11.324371485664583,10.612802217739574
3584.264,11.315200318218123,14.52798609929761
3585.0884,11.293013290286154,12.568552298586798
3585.915,11.26184746372478,11.35260157509698
3586.74,11.226188452726493,14.36686179745695
3587.5671,11.18980588009721,14.731380058750851
3588.3923,11.155567733465208,12.200984315736463
3589.22,11.1236820238578,12.091731024237337
3590.0457,11.092996992166642,11.72815745883627
3590.8716,11.06339822634468,12.341672497035704
3591.6995,11.038836394578965,12.772738405527479
3592.526,11.026010354943267,14.969374429041011
3593.3542,11.028324567258432,12.216600735555646
3594.181,11.041427070979703,14.48667362932202
3595.0098,11.05558105177619,10.77812522222137
3595.8367,11.063559198246574,15.91614639543227
3596.6638,11.06630674065998,15.036320557878955
3597.4934,11.070083555585164,14.385232670874348
3598.3208,11.079437380899906,12.401193605123494
3599.1506,11.093521714500294,11.969436154536043
3599.9788,11.107674611922528,14.103644195617248
3600.8088,11.11750583878834,11.411403477323812
3601.6372,11.121177088609992,14.937351104332754
3602.4678,11.11978071323815,11.640818242459106
3603.2964,11.115604517924536,17.519652167289053
3604.1252,11.10970386122088,15.252704893057183
3604.9565,11.100714636823048,16.02904403691667
3605.786,11.086230979771676,15.257603509306142
3606.6172,11.064785725641451,14.181562008114245
3607.447,11.036390893155788,9.614620879512564
3608.2788,11.000386430963086,12.931689409768675
3609.109,10.955268290571668,12.298693149915163
3609.9392,10.900898346477282,11.012207009206369
3610.7717,10.842304118727872,11.904977689051169
3611.6023,10.789962564759211,15.33575879885296
3612.435,10.753688112853391,14.92198597191261
3613.266,10.737713633839306,14.30164133552789
3614.0994,10.738416521273512,14.399070284781372
3614.9307,10.74805299588262,13.559599163570997
3615.7625,10.759585486995508,14.54573538269212
3616.5962,10.769072805469241,11.015036206411231
3617.4282,10.774614712521403,14.49347731184162
3618.2625,10.774620608014892,13.89551138262645
3619.0947,10.767656347648941,12.538921832364903
3619.9292,10.754078755882233,17.1587451184799
3620.762,10.737405197058859,14.786239087682702
3621.595,10.72348256777055,12.757814126421946
3622.4302,10.71853447326852,14.354195857656846
3623.2634,10.726885240141351,10.995367279548503
3624.0989,10.749291120985308,13.591128289406043
3624.9326,10.782091001705483,13.627468041506994
3625.7686,10.81832535789675,14.985515807704235
3626.6028,10.84997666644107,12.975766126068123
3627.437,10.8727562849558,9.999194252148785
3628.2734,10.888490604085911,13.300025761511604
3629.1082,10.902888258326508,11.826918974115435
3629.945,10.919815192551786,15.59862300928048
3630.78,10.9371100638218,11.958207035809217
3631.6174,10.949333842585247,13.20806157339949
3632.453,10.953076857150014,12.62909313293562
3633.2883,10.949640506844753,13.492375198053857
3634.1262,10.942620414341892,15.642299047969445
3634.9622,10.93497025069303,14.491451580850708
3635.8005,10.928010203248594,12.127348187102635
3636.637,10.922417111852795,13.413432907468493
3637.4756,10.919350377757079,11.884792798582957
3638.3123,10.921543773844308,12.820561614384664
3639.1492,10.93270079142286,14.630382914413618
3639.9885,10.954854185120285,13.174511907118891
3640.826,10.985289708820783,15.472613648407306
3641.6653,11.017329988203912,15.454606998237102
3642.5032,11.04330662877799,12.82160236524724
3643.343,11.058338700300043,13.466701276843265
3644.1812,11.060823642334165,10.981831386324991
3645.0195,11.05164839808045,14.240438212442323
3645.86,11.032685545344897,13.935345653499963
3646.699,11.006388306868752,12.601611954677336
3647.5398,10.975329068069115,13.362940123658205
3648.379,10.942548078108734,11.433559315740585
3649.2202,10.910764862848167,15.173020569555312
3650.0596,10.882934229498147,12.75495641478823
3650.8994,10.862240493084329,12.571270887245138
3651.7412,10.852623924160724,13.460108024738107
3652.5813,10.857111684741115,13.381543966580473
3653.4236,10.87497231071922,14.973201891545001
3654.2642,10.900595544963142,12.811785896040535
3655.1067,10.92610198079643,12.650371116803273
3655.9475,10.944537382993076,16.592908432838282
3656.7886,10.951901351596405,13.855148169541911
3657.6318,10.946583229286194,14.91159153239065
3658.4734,10.929561629718268,13.095901499565532
3659.317,10.904967011876161,14.040007908542188
3660.1587,10.879347549387544,14.57815950756407
3661.003,10.857864168844507,12.628514603733338
3661.845,10.841860478528282,13.002928769055714
3662.6875,10.829227371833689,12.972489676162557
3663.532,10.818082621181821,12.082924175307063
3664.3748,10.809155557722782,11.985382499247695
3665.2197,10.804732262315634,12.226742016125685
3666.063,10.805558880374774,18.558345798158847
3666.9084,10.808157037404905,13.171127570148476
3667.752,10.805751344304756,13.945979177027994
3668.5977,10.792913301873435,10.90636643011762
3669.4417,10.770333730432403,13.171994055431995
3670.286,10.744607459957034,15.118359305993025
3671.132,10.723145030664126,13.180950173981428
3671.9768,10.708911938706327,12.345431199101826
3672.8235,10.699395947171533,14.705014844473558
3673.6685,10.690736685863111,13.39303541873514
3674.5156,10.681710028581858,15.17271953847833
3675.3608,10.674520154138888,12.871030561373345
3676.2063,10.671749377912551,14.413204644830989
3677.0542,10.673130239821617,14.630515531045509
3677.9,10.674567644461389,15.567820987302522
3678.748,10.670233569514494,14.669241383493064
3679.5945,10.656175577070828,13.341627865955726
3680.4429,10.63272919482383,13.357960764045133
3681.2896,10.604230861243428,14.77172533498702
3682.1365,10.57570089455174,14.653713833073935
3682.9856,10.550357679083275,12.549065245354383
3683.8328,10.529330585999578,17.372136471516054
3684.6824,10.511857870979009,15.759235986393568
3685.53,10.49597645148991,15.228143436854111
3686.38,10.478833679384381,14.197564436712131
3687.2278,10.45946296438474,13.611121544402598
3688.0762,10.441174568599228,14.216647725928846
3688.9265,10.431225050961558,17.30579419327879
3689.7751,10.436013334616051,16.794996360228286
3690.626,10.455568177249697,14.003420637123732
3691.475,10.482485855800975,15.801070903277886
3692.3264,10.506809896947832,16.826704428083595
3693.1758,10.521549003264887,13.792677642011983
3694.0254,10.525279531104559,14.549293348154924
3694.8772,10.519657904211666,15.465123336444838
3695.7273,10.506663899494573,13.812136494693503
3696.5793,10.488174934720668,15.479268650665563
3697.43,10.46752822181132,13.284688614096277
3698.2825,10.448961740892129,16.26620111761426
3699.1333,10.43521248523746,15.856421517634747
3699.9841,10.425145449798178,16.449461300272908
3700.8374,10.415078661178516,12.151179071823513
3701.6887,10.402156505137814,14.807396633168368
3702.5425,10.386089923878979,14.523025192002557
3703.3943,10.368142296551559,16.482255045986413
3704.2483,10.348110911421696,13.761530387916057
3705.1003,10.324068252776172,17.432367025076886
3705.9526,10.294752225698767,15.06301312024127
3706.8074,10.26286124450873,17.599942492510184
3707.66,10.23489082767197,15.835902945302163
3708.515,10.215960912764121,17.475443463183275
3709.3682,10.205938440443292,14.38416612602647
3710.2234,10.199425420487277,16.276199608741916
3711.0771,10.191034444216912,14.28662272357596
3711.9307,10.180148286056601,12.716546864117447
3712.7866,10.171204794056733,17.632967202740694
3713.6409,10.16950173114747,15.40432453494591
3714.4973,10.176138531437363,15.381630904850532
3715.3518,10.186644754511564,14.114363588892557
3716.2085,10.19423834193218,15.825957175074587
3717.0635,10.19438890458576,14.189840421999476
3717.9185,10.18700754169821,13.578506782553026
3718.776,10.174652074815711,13.030356862876292
3719.6313,10.160117974767301,15.356375859267578
3720.489,10.145668464287578,14.801809865271101
3721.345,10.134515624974549,12.536237717006896
3722.2031,10.13094473279085,17.177001035959414
3723.0593,10.13850421270886,18.798383549549087
3723.9158,10.15717650040214,14.181504053089856
3724.7747,10.182487264114279,14.943593894087094
3725.6316,10.206554332986945,14.905928250952448
3726.4905,10.22117505144183,15.48499696574399
3727.348,10.220424947166984,15.4671755277877
3728.2073,10.203365198907926,14.450146940841941
3729.065,10.174578225364902,14.919236023902906
3729.9229,10.141277301766483,15.563022374760399
3730.783,10.108801500838636,14.915408571019334
3731.6414,10.078123222656433,16.06493860737208
3732.5017,10.04710544025785,14.369968544027323
3733.3604,10.015822923769576,15.010959028331715
3734.2214,9.988767748451162,17.99685068043421
3735.0803,9.972778834008897,17.894218435269664
3735.9417,9.971005288120447,16.092406657991916
3736.8013,9.980461033354509,16.269215769796432
3737.661,9.994278714533065,14.860730328738535
3738.5227,10.006237297433074,16.174231727156133
3739.3828,10.012886630976777,15.267545066445862
3740.245,10.012893385940984,15.606115851430818
3741.1055,10.005280610562963,16.18702015009789
3741.9683,9.989152948326995,16.03195014781465
3742.829,9.965204146553473,16.449723930508405
3743.69,9.936709347379955,17.095445812739396
3744.5532,9.908745236885078,16.066897513623044
3745.4148,9.885560707154829,17.07092853312439
3746.2786,9.86754566490388,15.940396042813726
3747.1404,9.85191972906195,18.321263296804645
3748.0044,9.835190468609609,15.851503965024698
3748.8667,9.816317085739996,18.165715427717668
3749.729,9.79730432583949,13.87762054077037
3750.5938,9.782155976100508,17.69918431620289
3751.4565,9.774844461547657,19.486136802142948
3752.3215,9.776970489092518,15.97205668867572
3753.1848,9.786870848352894,16.488864984609737
3754.0503,9.800342348823383,15.895118437338231
3754.9138,9.81254060475838,17.87399508337838
3755.7776,9.820167365492612,15.497211155625878
3756.6438,9.822014589873287,16.384891846523207
3757.508,9.818228621212624,16.94584221329698
3758.3745,9.80929545637622,21.668030048355018
3759.239,9.796276120149935,14.531801182193236
3760.106,9.781643826575882,18.80769737962021
3760.971,9.769195706827693,18.339649614258093
3761.8362,9.761399882444465,17.657564439730635
3762.7036,9.757466052533296,14.44789239323797
3763.5693,9.753978892337718,19.059597748840076
3764.437,9.747308795687445,15.320748382570471
3765.3032,9.735377796714062,16.852289868943018
3766.1714,9.71751855131907,16.673701883077737
3767.0378,9.693921067231456,17.153622490519535
3767.9043,9.664779517910468,15.993797385929303
3768.7732,9.630353866239028,18.941182727570972
3769.6401,9.592348541308553,18.10434672575664
3770.5095,9.554454281777298,16.968478348354058
3771.377,9.522576208042487,17.26545134535391
3772.2466,9.501732921401947,16.912105227042055
3773.1145,9.494528974032796,19.598481076722962
3773.9824,9.500770322223723,17.97814513963676
3774.8528,9.519056107750599,17.136925142526355
3775.721,9.547264520858043,14.07548275701867
3776.5918,9.582669384697656,15.371220734359554
3777.4604,9.62103956945653,15.97124831658196
3778.3315,9.658161865398672,15.35753159373431
3779.201,9.69075425011298,17.18591007967977
3780.0703,9.718209757325583,18.02639309613382
3780.942,9.74170866127676,19.482138559188748
3781.8118,9.762215222621819,19.051129140983353
3782.6838,9.779177712439337,14.527986801541457
3783.554,9.789609971662129,17.41335563184967
3784.4265,9.788998759938245,17.534534473778805
3785.297,9.773081703149435,13.947000151109641
3786.168,9.740853089275253,16.05920439016437
3787.041,9.696353347585326,17.97906749353374
3787.912,9.64739790307316,16.881104785919774
3788.7856,9.59986052876804,17.342277069335587
3789.6572,9.55488245528809,19.39782852991168
3790.531,9.509072317049565,17.556037144092098
3791.403,9.459658801975841,16.166340564259997
3792.2754,9.406209439560536,20.919826330216356
3793.15,9.349351123500902,19.094555982780037
3794.0225,9.28834188010364,18.131503836275346
3794.8972,9.219865678207501,18.07523685300557
3795.7703,9.14245125220983,16.070820664214708
3796.6455,9.059242075036877,20.64058838507003
3797.519,8.980718359063417,20.456285364271192
3798.3926,8.920774233384599,20.86888839989106
3799.2686,8.891981205327461,19.541488398268125
3800.1426,8.90034512064342,21.414566078900748
3801.0188,8.94261813012347,21.319322879689363
3801.8933,9.008332653699195,20.146850272125285
3802.77,9.08539472275832,20.495243987404848
3803.6448,9.163462935315659,19.164480519198293
3804.522,9.237233468375429,18.474720622973514
3805.3972,9.304686540703917,16.46710014968227
3806.2727,9.36677023566825,19.288889803427747
3807.1504,9.424059489137205,18.664946196768256
3808.0261,9.473875045413319,19.491834825464576
3808.9043,9.511389282648011,17.100059205684182
3809.7805,9.532731956628506,16.60951830494047
3810.659,9.540356321350009,17.959196536967447
3811.5356,9.542769910579462,16.069650794711624
3812.4126,9.549202406899278,17.675724623828387
3813.2917,9.563118003866549,15.524696170800327
3814.169,9.580682512458012,17.106567008751767
3815.0483,9.595535085770742,17.157865711639417
3815.926,9.604088287203957,17.14471197505803
3816.806,9.607099163911629,16.47482753758258
3817.684,9.606155366273114,16.932951552449197
3818.5623,9.599828061219212,17.42750328829125
3819.4429,9.58320196711829,16.14089245893644
3820.3215,9.551423694067624,16.01825667073354
3821.2024,9.503034028076431,18.112136931252948
3822.0815,9.441454216079299,16.94309085875192
3822.963,9.372145167664224,17.6653572033942
3823.8423,9.300821552884567,18.268687660286552
3824.722,9.23034875643032,21.904238723261557
3825.604,9.160650889349562,18.199275333193015
3826.4841,9.090242816792198,18.001263037632718
3827.3665,9.017088795373256,18.120601938512863
3828.2468,8.941239417810742,22.907025951074676
3829.1296,8.862339782774528,19.91490287111391
3830.0105,8.778771621705621,21.235905107233123
3830.8916,8.68575458060371,20.65037318610758
3831.7751,8.578617936224717,21.20084435991453
3832.6565,8.458150532086398,19.23408424645972
3833.5403,8.33155201855568,22.720687399272993
3834.4224,8.214436501735875,24.216215967104304
3835.3064,8.124644448364311,26.557676319726042
3836.1887,8.077955331866978,24.358175171753132
3837.0713,8.081408036797885,25.39138226101261
3837.956,8.132665062643728,25.02447862457206
3838.839,8.221359315785392,22.20475927709611
3839.7244,8.333868753999381,20.666392831355072
3840.6077,8.455631207596438,20.956954567285
3841.4932,8.576300782819358,18.602648977847586
3842.377,8.68916341300874,21.94811579222366
3843.261,8.79203542805434,18.883890753162415
3844.1472,8.884347593920682,20.030515985453725
3845.0315,8.966213771543725,19.05758642625949
3845.9182,9.040920508889956,18.95765966737969
3846.803,9.112575513582128,19.266045155525116
3847.69,9.184011289468367,18.686451407651205
3848.5752,9.252346882382703,17.458428912690295
3849.4604,9.311481235010204,19.989634796171867
3850.3481,9.356652844638678,17.884387470137916
3851.234,9.388149483284563,17.970998211331963
3852.122,9.411435254697556,17.085905928120418
3853.0083,9.432176644300876,16.77282220067129
3853.8967,9.452847358500216,16.041281811117077
3854.7832,9.471894574471882,20.66608159138481
3855.6702,9.48677639533881,18.662824114860342
3856.559,9.496613579760194,18.33055583589899
3857.4463,9.502845626778038,16.865435208296667
3858.336,9.507871745782744,18.849897232443823
3859.2234,9.513101653409988,19.114364258725573
3860.1135,9.518380300512726,18.003185459096688
3861.0015,9.522278730119318,17.18786511048667
3861.8896,9.522920161369598,17.586212135812076
3862.7803,9.518652267841826,17.39219479302946
3863.6687,9.508924040301803,17.772383160376695
3864.5598,9.494442699826504,20.362764375323557
3865.4487,9.476436599682126,19.88047795979784
3866.34,9.454874645731822,18.6313000774323
3867.2297,9.428389987727977,17.094550751049976
3868.1213,9.394857865371819,21.190326583049146
3869.0112,9.353065641302605,16.90248423622245
3869.9014,9.302850500308933,19.7378761723268
3870.7937,9.245628309667596,17.61236962008409
3871.684,9.18521928100405,17.23929812790836
3872.577,9.126141459082168,19.78341119176114
3873.4678,9.072143182697527,20.402156479460615
3874.361,9.022140818999217,22.819267955673283
3875.2524,8.970746222264415,20.44163479903496
3876.1438,8.910137565073338,20.814800523616736
3877.0376,8.834122053484878,20.694652053287435
3877.9297,8.740931485944751,22.603073574994472
3878.8237,8.63168322317597,23.69220629884318
3879.716,8.510559822548132,21.605985147029745
3880.6108,8.381440674930094,27.25008754090089
3881.5037,8.248173441836158,25.38632242080611
3882.3965,8.110492578046449,22.757030427274824
3883.2917,7.964317026606598,23.857166526246914
3884.185,7.804995990056359,25.268771873251143
3885.0808,7.628048342911711,30.485716259866887
3885.9746,7.435218544676258,27.853892668146273
3886.8706,7.2329188504940305,28.426552213072675
3887.765,7.036971599565601,30.90258099767138
3888.6592,6.869454677847637,35.66504146328306
3889.556,6.756357912101925,37.57629040598364
3890.4507,6.719992143194864,38.593956392974775
3891.348,6.768052038526682,35.397270667044545
3892.243,6.890074402482358,33.30036203274842
3893.1406,7.062813982181234,33.063867650316865
3894.0361,7.257646099886354,29.197545034300042
3894.932,7.4525662616749,26.22790721057375
3895.83,7.6352330621345486,23.93782366327357
3896.7263,7.801531481141348,24.767671667969367
3897.625,7.955654709336707,22.636003683883047
3898.5215,8.102484759049435,23.51272421472236
3899.4207,8.24671000489839,25.05298124038338
3900.3176,8.387243428417742,23.09999338057048
3901.2148,8.520451755972575,20.01418030347854
3902.1145,8.641814603708148,21.65673027399899
3903.0122,8.74850558472203,18.10611845211051
3903.912,8.84248877893817,24.169632209861913
3904.8103,8.926756865467992,20.815107290106855
3905.7107,9.00441390121129,19.1635931868809
3906.6094,9.07611256110516,19.650981259207235
3907.508,9.142021184162925,18.389840051182343
3908.409,9.202379591473404,18.74121453235206
3909.308,9.257249258213557,18.498617434050086
3910.2097,9.3069834953111,17.15805629490382
3911.1091,9.351291471695008,18.6627402929863
3912.011,9.391066459319466,17.69906736804508
3912.9111,9.427832646766088,16.82645049117613
3913.8113,9.46326237331737,14.706348285797057
3914.7136,9.497282893574328,19.07881218108301
3915.6143,9.52791339299334,18.043832390235167
3916.517,9.55396572048151,15.411283366733038
3917.4182,9.57666638560614,15.219924325660564
3918.3215,9.599824075503244,16.94077226301189
3919.223,9.62658566527327,18.72031548914439
3920.1245,9.656751707485173,17.53184059790246
3921.0286,9.68599714649706,17.827890884452728
3921.9307,9.708375945903555,16.399627307906073
3922.835,9.720999624497063,17.375511653575803
3923.7373,9.725884303204202,16.852158686004273
3924.642,9.728594636137528,15.920568825997558
3925.5452,9.734146709353125,17.762730965983444
3926.448,9.743997499606037,17.353826830814167
3927.3535,9.755882032623623,15.332503037012817
3928.257,9.765728791059589,15.777856374539095
3929.1628,9.77002931419556,15.489349585451759
3930.0667,9.766530903712392,15.077438823136665
3930.9731,9.754066304797732,17.13186432049811
3931.8774,9.7325247392824,15.740064191504656
3932.782,9.703241143585194,16.22729580161863
3933.6887,9.669820758379917,16.477501411904253
3934.5938,9.638152220855558,16.291897139163066
3935.501,9.613697865699905,18.763598648500707
