wavl,flux,ivar
3566.9744,3.2238232978709713,56.81241805915022
3567.795,3.227075624779648,22.490975868301533
3568.6177,3.2300504882577816,38.633550679645055
3569.4385,3.2362770693402894,42.13035546594931
3570.2617,3.2472129929438833,49.4274572973532
3571.083,3.2616404516598894,48.46387544858293
3571.9065,3.2767080348520916,27.68465854371711
3572.7283,3.2886819652608965,44.67688022519673
3573.55,3.2944294179383267,77.65189004874368
3574.374,3.2925772784159975,36.851131033786956
3575.1963,3.283662900428722,36.28203831146844
3576.0208,3.268333436003957,47.33857354158751
3576.8435,3.246013545163793,37.04304173545538
3577.6682,3.216072097368191,28.144863124868927
3578.4915,3.181743797604816,52.957242101284294
3579.3145,3.150877214976793,41.98950653773543
3580.14,3.132148530351763,25.22024727617043
3580.9636,3.1291518171941877,52.90130343106661
3581.7893,3.137422623459597,40.55732042488378
3582.6133,3.1475164743497213,30.404289150565372
3583.4395,3.1507178412863928,57.12077780313723
3584.264,3.142856646696164,38.13137508245727
3585.0884,3.1246102596582324,44.24292797000374
3585.915,3.098983086095696,44.53760003398004
3586.74,3.069071699065513,36.756260449287794
3587.5671,3.037042185136124,48.47730281900724
3588.3923,3.006235628344042,37.08998002752746
3589.22,2.98200767819517,39.139061104803005
3590.0457,2.9711132892014227,60.93429051433795
3590.8716,2.97770882590679,113.1402573707947
3591.6995,3.0010056157045564,42.81408092867552
3592.526,3.0352580775311626,28.057311204932727
3593.3542,3.072519304391809,73.19295864785745
3594.181,3.104470083828824,35.16976782860565
3595.0098,3.1245314189215003,72.04114772400932
3595.8367,3.128540504412599,39.25587446698574
3596.6638,3.116022134133338,38.025960839010565
3597.4934,3.0900336728070346,44.72456408437133
3598.3208,3.0569451809616153,19.418312676163065
3599.1506,3.02442469479304,20.888821687997222
3599.9788,2.9996752175071273,62.55920947512436
3600.8088,2.986154511876463,28.36776460162277
3601.6372,2.982670222910306,36.90894175324206
3602.4678,2.984369897587101,27.720762304618383
3603.2964,2.9859149138776315,47.76176740228252
3604.1252,2.9842961670394157,41.99897561208976
3604.9565,2.9797062870353335,73.69891024090815
3605.786,2.9744558584162943,39.66814516224715
3606.6172,2.970793747200396,36.51228526340807
3607.447,2.969471391137586,37.22267763122869
3608.2788,2.9697033008009566,52.57030080513575
3609.109,2.9704226096241237,25.202792781606774
3609.9392,2.971357391142436,36.66039035407763
3610.7717,2.972958983639152,37.91610162730672
3611.6023,2.975676599484406,38.289511314436474
3612.435,2.979817797364208,48.5619106398336
3613.266,2.9857806240710234,39.00798645793539
3614.0994,2.993781743782152,36.537968365636715
3614.9307,3.002739788798196,68.5408367918882
3615.7625,3.0103381628490182,48.583035722093925
3616.5962,3.014683259766685,24.585131343871826
3617.4282,3.0163129658679733,45.77035762746084
3618.2625,3.018095814998166,35.369804836881
3619.0947,3.022605362240502,23.167177216733375
3619.9292,3.0297177414576786,60.13933248141407
3620.762,3.036605227661848,32.323179762092586
3621.595,3.040167872355543,42.00436603093779
3622.4302,3.0390204416650977,41.71889563915434
3623.2634,3.0334508448725956,54.42956587065676
3624.0989,3.0237880980210137,84.24518846051532
3624.9326,3.009669887606201,40.56388695228574
3625.7686,2.990889095665448,86.9910369328678
3626.6028,2.9692848247517203,32.72633499569782
3627.437,2.9487418286646707,34.29366685641979
3628.2734,2.933886690533477,35.8401387271138
3629.1082,2.9282804729013137,37.668780486354095
3629.945,2.9329109431860556,45.11199046516068
3630.78,2.945769000879401,41.02783156249994
3631.6174,2.962266131072786,44.19881687404028
3632.453,2.976478595980455,59.077765076279746
3633.2883,2.9836503096805043,40.720642236991196
3634.1262,2.9816375011033256,39.81813177440465
3634.9622,2.971103935243293,38.46328372364239
3635.8005,2.954665964399684,56.291353844449674
3636.637,2.9363874411844693,34.18616253375854
3637.4756,2.9205877585907727,173.4740871708282
3638.3123,2.910239147224658,47.24498441446408
3639.1492,2.9045758828211237,61.87855961253295
3639.9885,2.899233403527038,39.901278400846564
3640.826,2.8893279840915342,38.62442762260393
3641.6653,2.873567807488463,45.103094705857515
3642.5032,2.8562932411953432,42.0449087056392
3643.343,2.8448507895667627,44.73473139818464
3644.1812,2.8447011462767775,54.05563223903413
3645.0195,2.855333232485233,28.19843016649382
3645.86,2.8705578938406906,39.44238535798551
3646.699,2.8820989384133813,43.49003344599603
3647.5398,2.8846576753650006,69.52480102511242
3648.379,2.878883528435069,25.58115892618949
3649.2202,2.8708861745504515,62.54033997287812
3650.0596,2.8679467270682264,52.01582865745135
3650.8994,2.8731569351151047,60.91053661993045
3651.7412,2.8838505285916463,48.67579782066838
3652.5813,2.8947184730258915,49.68026631474765
3653.4236,2.902335443079771,41.48226721812852
3654.2642,2.905719068541087,79.97269163674622
3655.1067,2.9037056968791455,40.19456665312328
3655.9475,2.893283182831152,48.71401306983347
3656.7886,2.871860129800273,38.915878123825394
3657.6318,2.840744108101459,59.91321458883452
3658.4734,2.806106470608208,52.72614861119459
3659.317,2.7755979250170184,71.9381444143979
3660.1587,2.7554423434038897,63.31454558967867
3661.003,2.7484280139659214,44.87571914360027
3661.845,2.7544089900005564,78.91288948816302
3662.6875,2.7705608926513103,36.962860995181444
3663.532,2.7916308673928936,75.58965265756258
3664.3748,2.810420137406276,55.45448794252053
3665.2197,2.8205375125077823,54.74271914668065
3666.063,2.819613226852284,91.00784652575885
3666.9084,2.811108722390665,48.80586099457334
3667.752,2.802002036246412,61.34919670312796
3668.5977,2.7980285349908764,70.72700253929435
3669.4417,2.8006053264277906,43.25076500245585
3670.286,2.8070516524359137,45.595570334804506
3671.132,2.8132756452914105,46.62256113953249
3671.9768,2.816346445110243,54.069591912136694
3672.8235,2.8157850070309443,51.49774900814792
3673.6685,2.813099469855386,48.0934704740678
3674.5156,2.8103804311056453,73.26296835413147
3675.3608,2.808977198672296,57.79417832373005
3676.2063,2.809001255971329,50.36355318220318
3677.0542,2.8100621512638617,56.35495006797241
3677.9,2.81253128847696,51.674307688373986
3678.748,2.818087809894323,55.30851785340557
3679.5945,2.8282874927770174,51.41058290295132
3680.4429,2.8423296378407805,50.31387577096394
3681.2896,2.8562772874312974,57.77565501437918
3682.1365,2.8657484691902506,45.31960161259426
3682.9856,2.868981411874878,49.27460782642285
3683.8328,2.8669973997387177,65.68405741497371
3684.6824,2.8603858849999764,33.959406040857274
3685.53,2.846717851781136,49.913470231366034
3686.38,2.8219760465886132,39.449672693352824
3687.2278,2.785390082244353,75.76614041948338
3688.0762,2.741802150371918,74.29744515333819
3688.9265,2.7001181642830723,103.52553463839622
3689.7751,2.66907726169896,113.92231022419553
3690.626,2.6530498922550145,62.7798927824929
3691.475,2.6516400062505796,68.96636744942795
3692.3264,2.6608294972948485,51.521411142974294
3693.1758,2.675526182688845,43.42814218711863
3694.0254,2.691720020257568,61.45522008038725
3694.8772,2.706889920516529,51.57634091184112
3695.7273,2.718832038826193,75.5414368206807
3696.5793,2.724939882775059,56.66805690125434
3697.43,2.7227182951259206,52.660224746260916
3698.2825,2.7117105463559805,37.050629178523664
3699.1333,2.694371395742099,45.846706708682866
3699.9841,2.6745312296795065,78.2633588835117
3700.8374,2.6551592383695395,54.44915482220539
3701.6887,2.6377609618001094,39.565089479174326
3702.5425,2.6230834891725756,59.947254440186036
3703.3943,2.6126550624348277,55.429221162635216
3704.2483,2.6084172863713864,67.35020560669874
3705.1003,2.6118782685784745,43.78205132004698
3705.9526,2.6230540763867864,62.53751589449239
3706.8074,2.640179364152155,40.75592698406686
3707.66,2.6597748162274755,35.39163727290835
3708.515,2.678086217068842,65.61894851112778
3709.3682,2.6922041648141284,42.09202052026479
3710.2234,2.7010583595342013,42.55942613408705
3711.0771,2.704243807047488,87.95239083027897
3711.9307,2.7007230802925712,54.844540060067956
3712.7866,2.6887389085179465,33.24222257628164
3713.6409,2.6680496778711777,47.24339720895869
3714.4973,2.641970169081714,69.54275951031828
3715.3518,2.6175779635233525,53.18629737415662
3716.2085,2.601891867936782,62.47919384143764
3717.0635,2.5976985253785148,87.99412856452501
3717.9185,2.601307643550933,47.760077707619224
3718.776,2.605641074699086,37.37954367186805
3719.6313,2.605685341299469,79.65829127947576
3720.489,2.6016999644555066,38.00600593519681
3721.345,2.597337717716545,67.4855824502091
3722.2031,2.5954003093010285,64.70382758387638
3723.0593,2.59581572058153,37.193626747452484
3723.9158,2.596944404773642,75.33028358480364
3724.7747,2.5980479606644264,73.76051436569313
3725.6316,2.60029752820536,62.80055443815457
3726.4905,2.6059076592204433,59.15351774247466
3727.348,2.6162845486300723,104.69941244024237
3728.2073,2.6307738464190864,67.90498974215429
3729.065,2.646478971336676,49.16893091159976
3729.9229,2.659647185390803,66.93183265155845
3730.783,2.666990970147629,59.029488703058625
3731.6414,2.6667387034184653,49.465875881225884
3732.5017,2.659490741048266,53.37710006521584
3733.3604,2.6483426282519327,70.5982820388202
3734.2214,2.6374150397673777,69.16444141980216
3735.0803,2.629433488998161,58.01337790158177
3735.9417,2.6236727851907062,65.88851802717637
3736.8013,2.6167494402888845,53.88140814296721
3737.661,2.605137055239377,57.770441994035124
3738.5227,2.5877138159033857,52.43700664826113
3739.3828,2.5666043447678337,44.107212920009225
3740.245,2.5454554976695993,60.84903997608899
3741.1055,2.527573294678719,72.84660647965295
3741.9683,2.5143586395101045,58.92600649910798
3742.829,2.505987195266318,42.755277819059295
3743.69,2.501851821030703,81.80750530888491
3744.5532,2.500822303739892,48.71201393010144
3745.4148,2.5015269209937734,108.4798777546016
3746.2786,2.503794667881602,46.84242318296347
3747.1404,2.509865929571546,98.72606896902445
3748.0044,2.522948649673332,215.61856484751465
3748.8667,2.5430822559073563,83.67620060098017
3749.729,2.5647597540106863,52.78412717560964
3750.5938,2.5792184620319696,57.764994041296085
3751.4565,2.5802936177071327,57.56819863629882
3752.3215,2.569111337757065,71.68364843542858
3753.1848,2.55318100496056,160.1096669666546
3754.0503,2.5411732147701875,66.91765981535058
3754.9138,2.538199940865382,109.65192445362604
3755.7776,2.544028806513069,55.02954781410672
3756.6438,2.554756415329831,63.71746277134133
3757.508,2.5653319591515125,55.167301169292465
3758.3745,2.572169723289378,127.1378674829223
3759.239,2.57426153449748,77.2571064069672
3760.106,2.572795698923959,62.13862814460393
3760.971,2.5692658223677043,45.02829576547938
3761.8362,2.5639169919740405,51.93406712925691
3762.7036,2.5556943451620877,44.370441979633796
3763.5693,2.5434757523025677,72.42638278067778
3764.437,2.5272418997656403,80.587670251054
3765.3032,2.508956654222408,68.49061016364625
3766.1714,2.491797311597974,78.87782834455524
3767.0378,2.4786130236865653,78.83491945757082
3767.9043,2.4698009697996333,73.02238075003778
3768.7732,2.46320926978431,70.63164668598141
3769.6401,2.455810036432193,64.70815468284933
3770.5095,2.445571087833321,63.120907570609944
3771.377,2.432659460519834,62.701909832995035
3772.2466,2.4193235599482317,46.21193198763006
3773.1145,2.409385310631651,61.98123138375892
3773.9824,2.4061052179873306,99.40682257839151
3774.8528,2.4098676295524664,59.33937139733732
3775.721,2.4174401403447128,64.15186664829683
3776.5918,2.4245396007774755,41.21766595956747
3777.4604,2.42928748750965,60.48374957769056
3778.3315,2.433495027927934,52.86080643808666
3779.201,2.4403516403651,91.48325253098399
3780.0703,2.451434220144441,72.63216203080952
3780.942,2.4654381728987977,56.22549706899954
3781.8118,2.4786948749377262,73.06932600308984
3782.6838,2.4865704094514522,45.42132818910626
3783.554,2.4845286472912695,70.92045098065346
3784.4265,2.4701948499395754,55.43120044865574
3785.297,2.4457332872533137,51.175745269247216
3786.168,2.418074834550674,98.88905881289243
3787.041,2.3960396346820154,77.94897110833533
3787.912,2.3858032720847646,103.55042911241203
3788.7856,2.387703424156596,90.05048252346127
3789.6572,2.3971964048122563,66.10296554783295
3790.531,2.4078510199194056,89.8112584421946
3791.403,2.413898249675434,61.44957975901316
3792.2754,2.4116494828320882,60.91352248701853
3793.15,2.399909776361194,52.684713160756345
3794.0225,2.380472308590364,68.7512822705601
3794.8972,2.357468406481112,99.17648597588031
3795.7703,2.3360302894296257,62.00664023489394
3796.6455,2.319721099284692,66.02038224373311
3797.519,2.3095275383871123,57.2479912568207
3798.3926,2.303879153176732,74.23312504868028
3799.2686,2.300354905959186,56.97140081690758
3800.1426,2.297470673407392,82.70620085666732
3801.0188,2.2957202455307737,76.07523560100269
3801.8933,2.2974740274306913,76.17731025836025
3802.77,2.3056924645776418,58.54791906045956
3803.6448,2.3222478138730818,130.5752704689708
3804.522,2.346945392044873,70.92382422432665
3805.3972,2.3766845376513364,75.06439364691738
3806.2727,2.406143710521656,79.94815235657616
3807.1504,2.429217242876896,80.95856358445118
3808.0261,2.4417621154159233,62.447770948831725
3808.9043,2.4443524446275275,78.3024318506334
3809.7805,2.4417929686725337,59.82303599275678
3810.659,2.440180408018617,100.69798928562241
3811.5356,2.443317716429636,70.73246502692234
3812.4126,2.451102871437161,81.3070209212539
3813.2917,2.460615676898588,40.104382557067524
3814.169,2.468476928815069,81.43234194307549
3815.0483,2.472931593036736,72.6242357807834
3815.926,2.4738175883521394,74.58097933888584
3816.806,2.4713185477357738,108.18241214144787
3817.684,2.464998983311634,56.47122821992079
3818.5623,2.4544713581802493,62.908182824516835
3819.4429,2.44076083904514,56.21480074100753
3820.3215,2.4264976730997616,64.42098563293393
3821.2024,2.4138346633854084,78.11358954021942
3822.0815,2.402834761661775,69.08697277715909
3822.963,2.3914037276401743,70.44214250230257
3823.8423,2.3774285169612397,61.30338963265457
3824.722,2.360226730798754,78.26807015565063
3825.604,2.340605890720684,82.28733799843545
3826.4841,2.319975727943549,68.17932862604037
3827.3665,2.2992220056099812,79.80870778723947
3828.2468,2.2791529105146804,67.91250818865035
3829.1296,2.2604237187257596,88.7511182058495
3830.0105,2.243672054882097,97.58928059697467
3830.8916,2.2284660914723755,80.59888674024725
3831.7751,2.213205115707092,51.616719912632554
3832.6565,2.196044843692761,69.53303655480414
3833.5403,2.1760108769460196,84.80336335969807
3834.4224,2.1542895186984987,59.42152504028537
3835.3064,2.1336327465184093,110.44626499940907
3836.1887,2.1173476756549934,111.29792954368867
3837.0713,2.1073655742067774,83.98293763586399
3837.956,2.1037448859715746,99.40724590670978
3838.839,2.105471539068437,96.98313168982898
3839.7244,2.111936504940195,75.55322159077068
3840.6077,2.123675608242966,136.9793163967862
3841.4932,2.1421261237674476,98.91164090515223
3842.377,2.168612507488495,65.00456192300568
3843.261,2.2038271436415715,82.1546125554557
3844.1472,2.2467019609675964,102.91070649967867
3845.0315,2.2928811738206263,76.44608037261297
3845.9182,2.335873640511962,83.92514261369739
3846.803,2.3692806381334743,71.63278806135776
3847.69,2.3913670864908596,79.12107091004303
3848.5752,2.4053384983126085,86.71133834541045
3849.4604,2.4165348216276445,79.91750178807777
3850.3481,2.42798844721131,73.39244281636343
3851.234,2.438996155785696,82.74074573476527
3852.122,2.44750692334819,68.44794873154899
3853.0083,2.452767428603379,59.444930627615925
3853.8967,2.4560368099874044,60.84831723424822
3854.7832,2.4587848748153425,97.91683544991835
3855.6702,2.461314959507322,81.68105968670203
3856.559,2.4632696718225118,66.91699434034432
3857.4463,2.4651569559178594,66.1516473931983
3858.336,2.468729745679728,68.22149713829552
3859.2234,2.475644476455182,75.93192851954052
3860.1135,2.486226385375084,79.96884394677026
3861.0015,2.49917712474056,67.6813841932706
3861.8896,2.5123216840353253,86.10107972140933
3862.7803,2.522865838797963,52.75721334478444
3863.6687,2.527617448944141,53.398656024547826
3864.5598,2.5240661534820212,54.4866631879341
3865.4487,2.511582905705368,65.50673538086943
3866.34,2.491795379107281,63.18345607734674
3867.2297,2.4678790373793738,63.722452120394536
3868.1213,2.4426559712156313,72.0034883670117
3869.0112,2.417963094055263,72.08638403109673
3869.9014,2.3943484800535835,66.33392464887451
3870.7937,2.3718983313541386,74.3357882086016
3871.684,2.35091225888003,52.481237925967996
3872.577,2.3315110763261147,96.4562157753044
3873.4678,2.3134963350599342,58.62031324981029
3874.361,2.2954167206043437,64.20494256579701
3875.2524,2.275099887158798,89.6400496624561
3876.1438,2.250438976157578,49.89188161201811
3877.0376,2.2206901329063813,103.85010048808432
3877.9297,2.186961368954046,90.39806052351301
3878.8237,2.150802995304598,96.48675978041393
3879.716,2.113779143660352,126.58479678695646
3880.6108,2.0766726919993035,132.07595444558746
3881.5037,2.0404093055901984,83.50602778624872
3882.3965,2.0054423266583337,76.9613479453437
3883.2917,1.9716984082763862,116.07038951279893
3884.185,1.9386221053262995,93.61298708629259
3885.0808,1.9046597743688918,60.9983121728404
3885.9746,1.868262230547191,149.73059830973406
3886.8706,1.8278999036434933,118.8614515811919
3887.765,1.7839399033605423,137.92015824721994
3888.6592,1.7393012214491654,165.01750703429715
3889.556,1.6997903594804997,108.3379061969624
3890.4507,1.6726389822856167,183.10088074781788
3891.348,1.6629570326035077,124.14565125336281
3892.243,1.6720047665974256,125.86724586917876
3893.1406,1.6968437261260023,174.77513211198854
3894.0361,1.731883560283663,178.38400300266872
3894.932,1.7718047046193965,110.8556639192058
3895.83,1.8134366067576533,111.58937538840172
3896.7263,1.855991255399658,156.63617142222316
3897.625,1.9008949347447464,170.19081694668515
3898.5215,1.9492544731253536,73.80521542840485
3899.4207,2.001360828791057,94.27892867619795
3900.3176,2.0552595954264743,111.94029327562657
3901.2148,2.1085777555622935,68.3791747773268
3902.1145,2.159464726491349,79.80101106010396
3903.0122,2.206967051912782,93.07122944664133
3903.912,2.2514809024121507,73.23140071198743
3904.8103,2.2931088103957644,86.51297682647285
3905.7107,2.3321733254774646,72.1746416077259
3906.6094,2.3684790034430248,62.73899051833976
3907.508,2.4014354254109667,56.790092896408666
3908.409,2.4291299919764318,39.80364831202276
3909.308,2.4486137662902774,123.63079078448965
3910.2097,2.45839308548264,78.38618529903056
3911.1091,2.4603509205179805,78.40205267452227
3912.011,2.460174942706942,74.90713302493822
3912.9111,2.4648595418395,79.60294981815233
3913.8113,2.4792524268541944,100.64006695290779
3914.7136,2.5038021144843334,82.35740497594377
3915.6143,2.5343527318575596,51.38764488169608
3916.517,2.5648718134365422,93.66472588817025
3917.4182,2.590367283695526,49.72340906105144
3918.3215,2.6100510448314327,61.870255912846126
3919.223,2.6274363012174446,56.877608927631435
3920.1245,2.648630274731007,69.03998318797477
3921.0286,2.6782020376550024,51.182368650326254
3921.9307,2.7146062139492324,53.38936565900859
3922.835,2.749186234293644,58.18381040847309
3923.7373,2.769741148048493,44.88290032546522
3924.642,2.7693578318496908,59.587846802511514
3925.5452,2.7520234741093623,51.63172722848111
3926.448,2.7306742682046545,55.74204389723893
3927.3535,2.7184626827315714,54.82866454786399
3928.257,2.7206313633086547,52.92938940609707
3929.1628,2.731980651563453,69.04482512823424
3930.0667,2.7412915096808455,21.25834556155502
3930.9731,2.7389619803479643,51.70348709902358
3931.8774,2.722513312865784,42.31034464990681
3932.782,2.6968760343102947,55.08409939080621
3933.6887,2.6701004561705193,56.73651528361691
3934.5938,2.648581074637973,59.75021133068313
3935.501,2.6342020509556416,66.2571347213134
3936.4062,2.6256128654529713,58.13726944095718
3937.3142,2.620553031459427,80.60543317717472
3938.22,2.6176850280528687,71.26789898907089
