wavl,flux,ivar
3566.9744,3.597598780722821,26.135915258944053
3567.795,3.5767964750010157,29.278408277736215
3568.6177,3.549782781324518,17.370658851714357
3569.4385,3.523796245951139,15.932675337174995
3570.2617,3.506885710813203,20.638479256355623
3571.083,3.5055032906392123,23.35677012930358
3571.9065,3.5212658570986357,21.158070966590337
3572.7283,3.5495959098459853,19.28308826206026
3573.55,3.5814640692662323,22.423386852259664
3574.374,3.607653678223256,20.825624434375136
3575.1963,3.6231498936127706,17.028390416517336
3576.0208,3.62923865384885,21.935901517114967
3576.8435,3.6304788735583777,22.24277298006262
3577.6682,3.6297657936845735,15.3401749203608
3578.4915,3.625040490020717,11.721839890249553
3579.3145,3.6107257589775905,16.91331859199863
3580.14,3.5827350437980012,18.850720149102266
3580.9636,3.543764360905022,15.378463256806643
3581.7893,3.503519552120142,22.64396353284385
3582.6133,3.474561208126618,15.298759183863284
3583.4395,3.46463840345606,22.033121014172373
3584.264,3.472940053422935,23.67782897533846
3585.0884,3.491250108940012,16.92225676524007
3585.915,3.509430154537558,17.83603828800795
3586.74,3.52039717564479,18.09010074765141
3587.5671,3.5227363915535617,15.395155346359683
3588.3923,3.51952350176956,16.205976248312208
3589.22,3.5154423142780082,17.84555086852573
3590.0457,3.513838389824371,24.66529653502969
3590.8716,3.5151172893581606,22.02256684508317
3591.6995,3.51702446456241,19.333977342303022
3592.526,3.516168469791801,38.71178713886444
3593.3542,3.5102716415711512,17.547028334899988
3594.181,3.500152515388434,21.212149220644587
3595.0098,3.4896961881283635,21.646716117649376
3595.8367,3.4831872344378807,26.7833153716702
3596.6638,3.481070139150483,23.506831633816706
3597.4934,3.478708391735814,16.056800613291756
3598.3208,3.4698888185422634,21.214045161845192
3599.1506,3.4520608956438963,19.84486932479064
3599.9788,3.4281392196713996,18.017645636118583
3600.8088,3.402606202199603,20.22761264603168
3601.6372,3.3777501509409396,14.005980425633783
3602.4678,3.3534118741584398,25.01659147510936
3603.2964,3.33106937271528,26.795216424212924
3604.1252,3.3153834236780755,22.320340898465172
3604.9565,3.312101602290131,19.41707056079397
3605.786,3.3237278319365675,34.20882140731692
3606.6172,3.347456011964799,22.622043145186584
3607.447,3.376675225730266,20.607979005838317
3608.2788,3.4048279464053337,21.264727535967502
3609.109,3.427577796422873,17.769514777786508
3609.9392,3.4437136439415004,19.23472835957904
3610.7717,3.45409103981407,13.251640445338921
3611.6023,3.4606394819479456,25.765086024822935
3612.435,3.465493209764538,14.566794077808222
3613.266,3.469719205375497,19.060208447326715
3614.0994,3.4729377577162217,23.748890041284557
3614.9307,3.4741097692907434,15.050923699602764
3615.7625,3.4732340943640265,21.036540659174737
3616.5962,3.472166777797651,16.816527577086628
3617.4282,3.47368482864286,27.958449241413415
3618.2625,3.4792517627476953,19.10787646602965
3619.0947,3.487374639707617,21.321199928639235
3619.9292,3.4943575821875745,22.032734960997185
3620.762,3.496496466947878,27.238829589878833
3621.595,3.491770269643907,20.348519303087965
3622.4302,3.479282677901429,23.624876215966903
3623.2634,3.4584125522273803,27.059881998102966
3624.0989,3.4290053039199684,16.277108187784933
3624.9326,3.393455809640518,25.50132995969758
3625.7686,3.3569218820768674,16.768518307558992
3626.6028,3.326362978559712,41.14880284116391
3627.437,3.306791879181118,26.94437065355524
3628.2734,3.29885367606974,26.24110209472262
3629.1082,3.298398800442482,23.965744406693798
3629.945,3.29919257964124,18.435678711767554
3630.78,3.2976700975934996,37.81473877344683
3631.6174,3.2958647284564666,18.712085091291005
3632.453,3.299622877770439,32.572846051474365
3633.2883,3.313052524877333,45.71494971301654
3634.1262,3.334234878823702,20.04904996934705
3634.9622,3.355701228958654,16.569864592743745
3635.8005,3.3700855491566055,26.285990118775032
3636.637,3.3752024963925185,26.18039657043589
3637.4756,3.375802344466042,21.7605969917179
3638.3123,3.379938869446238,18.775373997933656
3639.1492,3.393215248930677,12.747248497829554
3639.9885,3.415021817120183,19.841769300343575
3640.826,3.4390928517879407,20.5245925796944
3641.6653,3.45814386079186,16.925109747197943
3642.5032,3.467436682151409,21.347844131374536
3643.343,3.466224193107488,34.77645254983371
3644.1812,3.4566291665741065,18.34029330389483
3645.0195,3.4422803054040507,17.046837765721797
3645.86,3.427061092055833,15.139206325383155
3646.699,3.414028461769915,44.68739384414708
3647.5398,3.4043717744602446,18.192623569653776
3648.379,3.3980441387056577,22.226095440633916
3649.2202,3.3949310344629597,26.77108480831173
3650.0596,3.3959472790644782,16.2505059157794
3650.8994,3.402609222997147,29.061987924842146
3651.7412,3.4154173554928806,26.25551649664169
3652.5813,3.431799378454435,21.81128248344532
3653.4236,3.4459542764770927,17.157405257780205
3654.2642,3.4508229997554802,14.246988754992387
3655.1067,3.441872357077176,32.01758538421437
3655.9475,3.4193631625561376,23.019690798295848
3656.7886,3.3879947077396477,31.965389542588063
3657.6318,3.3549961357630003,13.771007244065036
3658.4734,3.328182722370153,24.386347025898015
3659.317,3.312890653896524,18.10365305439524
3660.1587,3.3098088706488595,14.104835433205048
3661.003,3.3141383356661924,14.696139502865632
3661.845,3.3187337485084214,25.322151085838218
3662.6875,3.3191595882900846,31.446483053092248
3663.532,3.316489772855716,25.61443491334392
3664.3748,3.315698996351891,15.824922453908025
3665.2197,3.32110205362154,20.93622848562647
3666.063,3.3328922487637302,35.154687000434755
3666.9084,3.3476042426045542,17.2798967921809
3667.752,3.361219486829742,26.044011364733258
3668.5977,3.3722368770326807,20.265536594238895
3669.4417,3.381364929570769,22.612405513396343
3670.286,3.389667650576366,26.49270487534872
3671.132,3.396954492921096,23.0408873597572
3671.9768,3.4018133328715203,19.686552125550268
3672.8235,3.402431141438453,29.594482660330275
3673.6685,3.3969484701561434,17.53318363112924
3674.5156,3.3837533591079074,19.05434093032567
3675.3608,3.362641111372281,25.072042113795433
3676.2063,3.3363580318381234,26.535244434488856
3677.0542,3.3115115295535,18.036648283851136
3677.9,3.296841304740394,21.217211928990817
3678.748,3.2984662049132623,21.57699586982765
3679.5945,3.3166914157188327,18.680944704063634
3680.4429,3.345983898704837,17.051777621568124
3681.2896,3.377244703219492,33.659670491035676
3682.1365,3.400993094445925,17.275179081354384
3682.9856,3.4099884172846986,22.3665256305705
3683.8328,3.4031203956820026,20.076303530472103
3684.6824,3.3897067123159617,16.107672029894246
3685.53,3.39260383866867,20.472587390687497
3686.38,3.449667385575023,25.289668618894055
3687.2278,3.610484369391435,18.68747280471974
3688.0762,3.920149211792718,36.59558137777139
3688.9265,4.38021834764211,19.34417095594348
3689.7751,4.900660157430105,14.894616745762372
3690.626,5.30995982590459,16.324163739662044
3691.475,5.4317816300060295,0.22659740048072358
3692.3264,5.2081647571794285,36.98229724642895
3693.1758,4.743430560473198,20.257833165864238
3694.0254,4.227917841020608,27.4685930016084
3694.8772,3.817188374986637,17.250645019421523
3695.7273,3.568529325923105,27.703239704151656
3696.5793,3.452866181886139,27.09730826654523
3697.43,3.414214834814312,25.317937704147425
3698.2825,3.4059546282898037,16.793071308843246
3699.1333,3.4017229286009636,12.28391796654942
3699.9841,3.390207493530338,27.37450036373327
3700.8374,3.3694946599949307,21.88015953321709
3701.6887,3.344006312722811,20.804411086745866
3702.5425,3.3208988763993506,27.5312520311978
3703.3943,3.3064431029829455,33.86783927894615
3704.2483,3.30252536791053,54.65229647281432
3705.1003,3.3065507564434666,23.698153107467427
3705.9526,3.3133947364743612,29.832072342954692
3706.8074,3.3183389047780603,15.035804588498943
3707.66,3.3190800518176116,20.347570893973597
3708.515,3.316083212324149,17.956007775174662
3709.3682,3.3110625311107587,33.784564911695874
3710.2234,3.3050143106944376,19.723743250449886
3711.0771,3.297542710471981,31.292754717868227
3711.9307,3.2877326250858165,17.94854336453197
3712.7866,3.275859473019567,26.899267483944772
3713.6409,3.264311760578545,27.030237936063116
3714.4973,3.256022575855453,35.50578791205301
3715.3518,3.251844851094693,32.737718011475124
3716.2085,3.2487990461449,22.810403182263734
3717.0635,3.241726501915219,29.081985124948325
3717.9185,3.2269501745117717,25.392360619945798
3718.776,3.20523148239306,17.5234467635321
3719.6313,3.1821060052539467,17.73814085001857
3720.489,3.1646669283095585,27.32490070511381
3721.345,3.1582969081328263,23.515963838762023
3722.2031,3.1645781843241516,23.044864583409712
3723.0593,3.182098468998555,14.443483909148014
3723.9158,3.2080014259053717,31.756864934013613
3724.7747,3.2384739953744486,20.79084662622697
3725.6316,3.2682245509121985,21.461604702117175
3726.4905,3.29193039907375,23.523961047242363
3727.348,3.305965812209277,37.212316303923004
3728.2073,3.310325187816139,16.675264794388422
3729.065,3.3077610734318106,22.831483533735135
3729.9229,3.301812265629166,20.771835002002756
3730.783,3.295149392586972,19.295044554335178
3731.6414,3.2892849787058305,28.230455177361335
3732.5017,3.284638598319691,20.400953574547948
3733.3604,3.2807604634029786,25.030133695840497
3734.2214,3.27667604071368,21.193042784381372
3735.0803,3.272021333272078,19.39899399763933
3735.9417,3.2678258500525414,26.017625655491678
3736.8013,3.266140977320135,24.61373316521042
3737.661,3.2684161679479105,43.55205696662014
3738.5227,3.2745177978782785,19.763346451782276
3739.3828,3.282925003494663,19.09861550995646
3740.245,3.2915402462343066,18.10655519449746
3741.1055,3.297766334863804,20.42757264549922
3741.9683,3.298782583267098,21.560104183211486
3742.829,3.2922069314742055,17.505740518882945
3743.69,3.277147742371576,17.814658127713823
3744.5532,3.254579907252017,20.673327746742128
3745.4148,3.227415281142739,25.312628795894472
3746.2786,3.19948379094573,19.165681653359407
3747.1404,3.175039660655751,25.46418401869384
3748.0044,3.1571410759161322,29.25219660974718
3748.8667,3.147166041935678,26.266944487226937
3749.729,3.144201085383432,22.666591776155865
3750.5938,3.145818092808123,19.470413455409354
3751.4565,3.1494646120054965,29.86730360792709
3752.3215,3.1542592962143883,18.446289151336483
3753.1848,3.1615805421150247,26.45555397678341
3754.0503,3.1735284064659828,19.889168271527392
3754.9138,3.189788994098329,18.98675135313654
3755.7776,3.206526118833657,25.933008572063763
3756.6438,3.218681033407596,23.69044583429919
3757.508,3.224147360574463,17.774152218276413
3758.3745,3.2258189221230813,19.437576458654682
3759.239,3.228692784159812,21.05940947126742
3760.106,3.2351052127156787,23.40441048318195
3760.971,3.24240823540479,27.280520908474344
3761.8362,3.2454916787678956,21.558148262885524
3762.7036,3.241302020506633,21.8557275122596
3763.5693,3.2313179437909842,20.33712341839627
3764.437,3.219624037532009,31.83864302578724
3765.3032,3.209113032051975,19.0654416487033
3766.1714,3.1992918185383146,19.286609654257365
3767.0378,3.187820831936827,28.669723855366176
3767.9043,3.1731046867319352,34.97134364735585
3768.7732,3.1558402947583724,24.874972687562828
3769.6401,3.1389981787145818,22.593243313268758
3770.5095,3.1264165806181534,38.045614626597896
3771.377,3.121491451455262,24.571950812446776
3772.2466,3.12495539322684,21.721516890306596
3773.1145,3.133336948388558,31.89590111269741
3773.9824,3.13918161612946,23.692099628155336
3774.8528,3.134155569265906,24.96791004750807
3775.721,3.114392085255397,40.026889016768436
3776.5918,3.0842183128851506,23.066345190956703
3777.4604,3.055052711739043,25.149252559469247
3778.3315,3.037910347505715,794.9418067643392
3779.201,3.0369551502838137,27.378657215885386
3780.0703,3.0481514831201317,27.254405584017732
3780.942,3.0643707456078966,25.337490838870636
3781.8118,3.0802816411854783,19.894034629292435
3782.6838,3.093755176140166,22.528637453276644
3783.554,3.1038792050625506,24.909715996387728
3784.4265,3.1098578293299814,26.417480564339023
3785.297,3.1110609897226977,36.917492830444644
3786.168,3.108076802867403,23.955172902280438
3787.041,3.103087970268701,22.45732389428854
3787.912,3.0992440082198125,37.43495287536692
3788.7856,3.098843810360341,25.377985766680094
3789.6572,3.1020012308364424,26.25148800324923
3790.531,3.107059987130718,27.90893476931352
3791.403,3.112260253493191,29.098383545998768
3792.2754,3.116769176680543,26.49778085722922
3793.15,3.1199768077433045,19.87224246082619
3794.0225,3.120446046282075,28.428061956911314
3794.8972,3.116165921438347,24.51973111887804
3795.7703,3.1061620057237853,19.698824393580225
3796.6455,3.0920083410372823,26.780259679463583
3797.519,3.0780108456254034,24.75813667766073
3798.3926,3.0691651662606225,22.267221564472248
3799.2686,3.068804180413078,17.106057021310068
3800.1426,3.0769429506660355,26.47983401920452
3801.0188,3.0901569106830733,22.38193035138274
3801.8933,3.102639452355196,21.59471636767082
3802.77,3.1085268558681474,24.763254366716936
3803.6448,3.1043033082684874,21.62381219905427
3804.522,3.0907484326381707,18.517179622022056
3805.3972,3.0728752056229847,19.632073464920413
3806.2727,3.0571332246515937,20.820571115237907
3807.1504,3.047863893411642,23.65581806418364
3808.0261,3.0453020300938576,29.964166482216978
3808.9043,3.0467030095347134,21.534594275137145
3809.7805,3.0495928097800293,26.616185040533498
3810.659,3.0535807426571724,34.02598798571949
3811.5356,3.0591710383358626,22.640570283152407
3812.4126,3.065678997986955,35.433115830535435
3813.2917,3.070952111224698,25.067717581708752
3814.169,3.0730760270891286,25.769354358029425
3815.0483,3.0717134382376514,27.480302932989627
3815.926,3.0674234394055526,24.66800411964243
3816.806,3.0606091587441147,24.0822145236635
3817.684,3.052055195759161,23.119381852357304
3818.5623,3.0439644136244546,29.054070897778715
3819.4429,3.039453584173072,35.36084932246548
3820.3215,3.040134977699308,22.305884547999128
3821.2024,3.0441287714483254,28.72507295007441
3822.0815,3.046797703437033,22.7269131169777
3822.963,3.0437610400789357,26.535199319438917
3823.8423,3.033997628034519,29.535347389697566
3824.722,3.020839017305001,22.638181945769496
3825.604,3.009988166669871,27.028374507842432
3826.4841,3.005691349692705,37.982108072839104
3827.3665,3.007474590041017,32.29191852087684
3828.2468,3.0104611519400537,28.717341049821552
3829.1296,3.0086439976690977,26.226948457520706
3830.0105,2.9984058916383725,25.122577614165
3830.8916,2.9799263559735465,33.428336931016105
3831.7751,2.956588167849539,24.82263258167699
3832.6565,2.9338386318336176,44.91605821874198
3833.5403,2.916579423316224,29.7016670952314
3834.4224,2.906634563165818,24.95844173072522
3835.3064,2.9005059913315216,22.770752932661374
3836.1887,2.891087031656924,28.13041028660625
3837.0713,2.872431812298494,30.549341324199812
3837.956,2.8446710179308896,27.339618654368184
3838.839,2.8154502378051958,31.585700232743243
3839.7244,2.79584598032464,45.508192537160404
3840.6077,2.7948100960273643,32.325128342737656
3841.4932,2.814565765768367,27.20746325306307
3842.377,2.8501886687902993,26.52490262955215
3843.261,2.8928924741438244,28.304910748822522
3844.1472,2.9344075159961105,24.204031114153107
3845.0315,2.969962585640932,19.494738093339592
3845.9182,2.9995822928628706,23.534638772112537
3846.803,3.0255408159153023,27.774160968848733
3847.69,3.0503894251729564,28.99163912880656
3848.5752,3.074936198397578,19.870307940707885
3849.4604,3.098601538699472,32.631527552105666
3850.3481,3.119923941812595,20.6000030178068
3851.234,3.1371214730678276,28.37444480017754
3852.122,3.1492353817729093,24.06436146950201
3853.0083,3.1564781130335544,24.183569940318897
3853.8967,3.1603653783249923,24.00470187311376
3854.7832,3.1624532587052667,20.021291782363914
3855.6702,3.163360909891467,25.941044506953453
3856.559,3.162982849983035,19.35240022356864
3857.4463,3.161847115340587,19.68620172105083
3858.336,3.161877234825764,19.786587899556455
3859.2234,3.1655431659672124,21.77669782702701
3860.1135,3.1742162897935833,18.861863603692267
3861.0015,3.187069257479707,24.861918671934802
3861.8896,3.201402642705653,26.33681222945983
3862.7803,3.2134252237634704,26.771117439255157
3863.6687,3.2192163451151443,23.17562420765598
3864.5598,3.216135375589716,25.417220815569944
3865.4487,3.2037367650458206,24.55938915871552
3866.34,3.183681465314945,24.589634665214756
3867.2297,3.158829701144074,18.849268430196908
3868.1213,3.1316742059939933,22.770407142979668
3869.0112,3.104188937202615,28.135669450644734
3869.9014,3.0774775395423415,26.144287536555964
3870.7937,3.052162113850191,25.013162101807886
3871.684,3.028784430234153,30.235630539856842
3872.577,3.007370238040494,34.02234779366612
3873.4678,2.9873696533767693,23.689129682037045
3874.361,2.9667981674216173,26.726805349640856
3875.2524,2.9431969844907835,29.926879389733564
3876.1438,2.914787008387674,26.089434411851926
3877.0376,2.881953226036892,22.5848732725473
3877.9297,2.8478321294853157,29.438877311876926
3878.8237,2.8167405504328866,30.910740285911217
3879.716,2.7926579108825216,33.203573415561756
3880.6108,2.776433394994711,37.75726007697812
3881.5037,2.764924421879932,20.767521721068302
3882.3965,2.7517300792458514,59.910112034293206
3883.2917,2.730357450717315,33.131973625736556
3884.185,2.6973553070776277,31.945394214168005
3885.0808,2.6527922740624286,36.72257124163251
3885.9746,2.6000129305595827,25.69935148022886
3886.8706,2.5437505266001414,30.413598830172923
3887.765,2.4904859536486414,51.375971702331036
3888.6592,2.4468753593799075,44.700481008643585
3889.556,2.4187594992478676,41.209539141693476
3890.4507,2.409754994052667,51.245534444156945
3891.348,2.419958225768798,37.07226381539308
3892.243,2.4461869428486183,32.19518683636212
3893.1406,2.483104220858761,45.874434451065454
3894.0361,2.524198048110386,31.630276358361
3894.932,2.5641015306219015,25.740877058211638
3895.83,2.599869757437363,47.38973600864603
3896.7263,2.631624093648688,31.450012778394612
3897.625,2.6623858350003924,44.731962063149616
3898.5215,2.694798302564385,26.32679071377759
3899.4207,2.7291625932557353,43.67128809657153
3900.3176,2.7626441485111854,44.95582581509673
3901.2148,2.7925798866491083,48.774673708480776
3902.1145,2.8188315996654882,24.44106319911368
3903.0122,2.8436661192937986,35.92502712844371
3903.912,2.869979274815799,44.33892278983437
3904.8103,2.8989511938529255,25.848598497548164
3905.7107,2.930399874120928,27.843603540518732
3906.6094,2.9627877162135596,24.106715786023237
3907.508,2.993796834474104,22.62333991446636
3908.409,3.0207658794096153,24.492713810009374
3909.308,3.042406180011431,29.315085197577783
3910.2097,3.0606818706848653,28.706729395419316
3911.1091,3.079190015211652,25.819999257512062
3912.011,3.1003265990052076,21.87412940608374
3912.9111,3.122893879265737,27.218272614197524
3913.8113,3.143752141760664,21.51876568174281
3914.7136,3.160861892580365,32.92165832039974
3915.6143,3.1748405742912813,22.75976311612032
3916.517,3.187836695231089,21.44752522820992
3917.4182,3.2007544554788403,23.539647082704978
3918.3215,3.2128329557972366,21.729986876563068
3919.223,3.2231264008333635,26.137275002939987
3920.1245,3.23250949056867,21.595035764466655
3921.0286,3.243421352002866,23.14086654389915
3921.9307,3.257853868136427,23.232248455071357
3922.835,3.2757555727174155,19.620025541930424
3923.7373,3.2946763319134544,19.99228457491902
3924.642,3.311432905342801,18.683133060938857
3925.5452,3.3231663672628198,18.207383915528528
3926.448,3.3282588454648434,25.366865252938194
3927.3535,3.3264916122944945,23.52153227680091
3928.257,3.3194870339007605,18.67541336235307
3929.1628,3.3104434003765175,26.251935219677453
3930.0667,3.302690153634815,21.11242034316705
3930.9731,3.297456807248147,26.240745090477596
3931.8774,3.2932276120269064,19.579674027295564
3932.782,3.2870756725822465,20.742984987159588
3933.6887,3.2771232753216384,22.820081882320927
3934.5938,3.2639253301791356,19.174544778144305
