wavl,flux,ivar
3566.9744,4.116849665030318,3.6551823789802507
3567.795,4.1037717734330315,3.077773192459449
3568.6177,4.086759950443196,1.8924521642307364
3569.4385,4.0676561276713255,2.7546516422044087
3570.2617,4.046226718520772,5.387899803146841
3571.083,4.020887574751815,2.9868550554535673
3571.9065,3.9908321897605212,17.649915729936634
3572.7283,3.9584844636559597,4.373678708759847
3573.55,3.928712753188348,4.039087952055974
3574.374,3.9068911605577057,5.010257513032901
3575.1963,3.896679499757052,4.256659192375292
3576.0208,3.8991791502247084,6.405903714416303
3576.8435,3.9149967594645823,4.2943252252698025
3577.6682,3.9459215698255727,5.693497681204038
3578.4915,3.9924418057546784,8.848289458447534
3579.3145,4.048879677096977,5.4350141330322
3580.14,4.101301580755252,4.82145156325474
3580.9636,4.13255179533983,4.699539445019911
3581.7893,4.133264983139325,2.984051677136387
3582.6133,4.107509765621518,2.8326217019689257
3583.4395,4.069903567969409,3.726164688061502
3584.264,4.037070594827239,7.656443168959403
3585.0884,4.019104623223297,3.4111968298645765
3585.915,4.017222396089802,3.714170805500517
3586.74,4.026230547027155,3.4885570665747943
3587.5671,4.039695542915236,5.254985471844245
3588.3923,4.053898011056279,4.876567228257485
3589.22,4.068310521127995,4.086218335809001
3590.0457,4.082632382984706,3.4495683315738908
3590.8716,4.095362397926962,3.722270624413292
3591.6995,4.105046829813055,2.538495506264693
3592.526,4.112043827843568,5.871895242044932
3593.3542,4.117330777665946,5.328719207002884
3594.181,4.119206667898535,4.619302930500627
3595.0098,4.11305523383162,9.541569660862848
3595.8367,4.095106831005063,2.0576705313534713
3596.6638,4.065853365431221,5.129475797527714
3597.4934,4.029525907856382,4.682496441373494
3598.3208,3.991544958413777,15.991370304947592
3599.1506,3.9556745085914216,7.7587131542189995
3599.9788,3.924157794770695,5.298470848417923
3600.8088,3.896550661063558,7.181988012335271
3601.6372,3.8698966298610205,4.4110204551640635
3602.4678,3.8388962489224796,3.415316320678224
3603.2964,3.7987134349022615,6.038508868198485
3604.1252,3.7478299565290523,2.5239519005815776
3604.9565,3.691587350100868,7.110151678092481
3605.786,3.643567262880787,9.107814535189355
3606.6172,3.620048039498658,7.265307084242421
3607.447,3.631827858860982,6.085178176435983
3608.2788,3.677014249087625,5.568604940637861
3609.109,3.7420269050336485,3.875817229709142
3609.9392,3.810389990541104,3.5898683644013394
3610.7717,3.8705033221761083,3.3063182716190793
3611.6023,3.9173139274320126,3.750042652829375
3612.435,3.9504882367149086,4.817402554114267
3613.266,3.970480081830541,3.7824900182856855
3614.0994,3.9785139213024143,5.809592884246437
3614.9307,3.9764718636002647,4.9121114632491825
3615.7625,3.96654096178575,4.1436055036614405
3616.5962,3.950342865918198,4.290038480566465
3617.4282,3.929568014883575,4.022962389954318
3618.2625,3.906928115973125,7.024218301661725
3619.0947,3.886694394321612,4.7849072024197445
3619.9292,3.8724561033234925,4.995457108310485
3620.762,3.8648277856475928,5.316116148198816
3621.595,3.860097505266742,4.943604475333988
3622.4302,3.8522081421449865,3.463569908138396
3623.2634,3.8365850921872564,4.012025462237592
3624.0989,3.8132716972181377,4.854362783162456
3624.9326,3.788278833744291,3.2721954822504746
3625.7686,3.77114017073673,5.330728699305169
3626.6028,3.7698499316231002,4.870197941527362
3627.437,3.7839246457583386,8.615699935808928
3628.2734,3.8023800601076005,5.081980279648921
3629.1082,3.809560403948723,3.741399769067862
3629.945,3.796400317641466,2.6866900947477492
3630.78,3.7672318334078936,12.349966349065665
3631.6174,3.7366620189023423,17.572782976539287
3632.453,3.7206806214713777,3.964688178780276
3633.2883,3.727935374836407,8.853629919217141
3634.1262,3.7577924806747833,4.414245256498821
3634.9622,3.8024924746635023,11.964757989037327
3635.8005,3.851938016965339,4.554757662719818
3636.637,3.8957856940236315,4.73103193481009
3637.4756,3.9259114332584923,4.294714572577138
3638.3123,3.9373235193926583,7.803528295120902
3639.1492,3.9305419796512107,5.939732311169595
3639.9885,3.9109260970436894,4.561794407968972
3640.826,3.885938663141485,4.18260038207506
3641.6653,3.8614132996783357,4.483196257980358
3642.5032,3.8408748486789954,3.023051729105328
3643.343,3.825671788114136,7.94480774687546
3644.1812,3.8154122870564384,3.789498420898771
3645.0195,3.807663793415311,3.497394021687633
3645.86,3.7992850455884914,9.111109555378025
3646.699,3.7885157207762497,6.322922717792545
3647.5398,3.7759533955334055,3.888795943543647
3648.379,3.764136101978382,9.759920836668108
3649.2202,3.755531865118701,10.500433533390556
3650.0596,3.750766816810136,2.8895501816631253
3650.8994,3.7481125496062084,2.825597705960236
3651.7412,3.7459861015540947,2.9288821930632714
3652.5813,3.7462483906966964,2.9545330372440732
3653.4236,3.754371868497461,4.069917388807172
3654.2642,3.7747332309219104,11.609023768721789
3655.1067,3.8047922681729247,3.767766059382217
3655.9475,3.833321842112167,5.042857981376961
3656.7886,3.8465204109830906,11.37370825456735
3657.6318,3.836919279880116,4.646391813394136
3658.4734,3.809238179897489,5.655271807479225
3659.317,3.7774740527796915,8.71798158312664
3660.1587,3.755924078411061,6.625863654573333
3661.003,3.750049896552951,3.4111042087554164
3661.845,3.755372090937865,4.727686505134759
3662.6875,3.7633165174957766,5.3443165739250516
3663.532,3.768474170950043,11.186655023811653
3664.3748,3.771243820165102,3.1867470906243094
3665.2197,3.777178155907391,5.848373966563578
3666.063,3.797946892737417,2.7095564054917607
3666.9084,3.8560900307502965,4.2507179750478326
3667.752,3.985027027957078,7.198870022476919
3668.5977,4.214885857971134,6.445673246735236
3669.4417,4.53535722029945,7.847830703582642
3670.286,4.870714617391501,2.7798304050266145
3671.132,5.096614755043415,10.211833418125105
3671.9768,5.11103488632948,4.253915486160668
3672.8235,4.908242028571193,5.171265773769008
3673.6685,4.581460061123848,4.068182884165496
3674.5156,4.252009769621283,6.077881052011939
3675.3608,4.001156772191162,2.843953096411644
3676.2063,3.8432467541779753,5.093003742578038
3677.0542,3.754833341281635,3.2978893202033333
3677.9,3.7082357966423722,3.5362746253335513
3678.748,3.6860065858552695,4.091967333803909
3679.5945,3.6804102742710345,5.42725259109381
3680.4429,3.685595565781965,10.059353660371503
3681.2896,3.6938437671637465,7.187416615869873
3682.1365,3.6966790685624855,3.087871049157659
3682.9856,3.6886765969110993,6.494195174205257
3683.8328,3.671118577467747,5.350344936776377
3684.6824,3.6522010185706906,3.9395686497625464
3685.53,3.6429398969611393,19.42404399949651
3686.38,3.6494971419463234,3.59335991289401
3687.2278,3.6683196714189026,12.650444374051478
3688.0762,3.68829252850276,10.760931981800345
3688.9265,3.698225824497909,3.7909485786550214
3689.7751,3.692995031359988,8.954759146942248
3690.626,3.673961425633735,3.390549115154502
3691.475,3.6458307898505424,4.98332990108195
3692.3264,3.61415223447344,9.58923113531937
3693.1758,3.5851318233643643,4.527958705251153
3694.0254,3.563379136314954,3.499855297086606
3694.8772,3.549290544787986,6.064531135362849
3695.7273,3.538250978486668,4.036826488406623
3696.5793,3.523521473817325,4.370553173831508
3697.43,3.501216132673652,6.539433903850833
3698.2825,3.4729336715195047,5.416276055431403
3699.1333,3.445846854416603,7.13049212887012
3699.9841,3.4293308714153157,5.11774603593094
3700.8374,3.4304466644284846,8.981403280537693
3701.6887,3.4491237850536045,5.36372861453197
3702.5425,3.476897081257216,4.282072114689496
3703.3943,3.500964797976611,6.5991836745694945
3704.2483,3.5124470711205342,3.308038940198598
3705.1003,3.511284224140187,7.858834496625237
3705.9526,3.505136980875004,6.005463070093855
3706.8074,3.5030836508689576,6.072991389317234
3707.66,3.5096926979145806,3.3920336053378555
3708.515,3.5224521780308833,7.655964747709873
3709.3682,3.532851903819175,4.587158422052126
3710.2234,3.530502781080442,5.26055887223354
3711.0771,3.508167417771983,5.201081385040818
3711.9307,3.465737544644316,21.603365536186747
3712.7866,3.410894738660031,5.288022835758674
3713.6409,3.3571726411076317,7.007134893826053
3714.4973,3.3176332199425045,20.201387917169797
3715.3518,3.2997649730931573,3.649732509352951
3716.2085,3.302048430323777,5.564510170476363
3717.0635,3.31715254147807,3.2832145416539382
3717.9185,3.338024229803176,5.835873395284073
3718.776,3.3620814558973167,6.99602820042279
3719.6313,3.3896591361891844,4.434906176500494
3720.489,3.419830093051931,6.938125748084563
3721.345,3.4470080794970794,7.488470328099173
3722.2031,3.4636120669340973,3.9464853544100156
3723.0593,3.465430307531833,10.406632436399583
3723.9158,3.4562284823119183,5.838673200155309
3724.7747,3.445928378962785,5.573723130325624
3725.6316,3.4440624079835986,4.559269272363318
3726.4905,3.4532729758714735,5.496150327607298
3727.348,3.468227913894915,8.92540550385386
3728.2073,3.479655293133763,6.719312397749196
3729.065,3.479612060566972,9.009291189955896
3729.9229,3.4656122428235134,7.00714291283191
3730.783,3.441948754151105,12.011665489478775
3731.6414,3.4187526144747915,6.99245345315681
3732.5017,3.407606543060183,5.295787695417756
3733.3604,3.416299215677013,9.348162156776185
3734.2214,3.444439519629787,5.5166837526643855
3735.0803,3.4827380252029605,4.9669789237720945
3735.9417,3.517207398577405,7.632674109107777
3736.8013,3.534509641435893,5.950928940372059
3737.661,3.5280879858643033,4.237543827069621
3738.5227,3.500549361079699,5.696010001686646
3739.3828,3.463017640451134,4.6964324067709695
3740.245,3.4294598997642534,6.384468940750365
3741.1055,3.4095828675340716,7.183682278484051
3741.9683,3.402735189936571,6.346987761358114
3742.829,3.3995360841989135,3.469930651935636
3743.69,3.389458103863904,4.250669191933565
3744.5532,3.368896877060769,5.62545691083064
3745.4148,3.3432860428691606,43.61091010338984
3746.2786,3.3219662211468233,4.488299069862879
3747.1404,3.3120044164652467,13.433099042569205
3748.0044,3.3145375723388835,10.569780136552001
3748.8667,3.325924612367119,5.053725832283138
3749.729,3.3407810223539114,8.442910959110586
3750.5938,3.354640735294478,6.533178607502137
3751.4565,3.3648846038061935,4.0474607866764805
3752.3215,3.370762811633015,4.825145604023807
3753.1848,3.3723505327288503,3.3967802130143783
3754.0503,3.3698509859359227,4.685786451153523
3754.9138,3.3632326440420424,6.877193454225499
3755.7776,3.352125935138232,4.462666840269799
3756.6438,3.335646166735616,4.531913194469685
3757.508,3.312970774477383,5.485913656125086
3758.3745,3.2846117725220476,5.398289682771869
3759.239,3.2543784048341227,5.888607015824661
3760.106,3.228027018721245,7.645949253559058
3760.971,3.210547133554133,10.233883748792051
3761.8362,3.202859204535333,5.971349534228938
3762.7036,3.2021385783579936,8.402470690789942
3763.5693,3.2041445522192094,7.477392139978333
3764.437,3.2058212823656733,8.231931838024348
3765.3032,3.2064226434870386,5.794485029398176
3766.1714,3.206885257097078,4.4354430929171595
3767.0378,3.2080905329109264,9.064729472662568
3767.9043,3.209451184767712,6.849914823498983
3768.7732,3.2091606262644006,5.944908293356699
3769.6401,3.205997936194395,5.0268813383190425
3770.5095,3.200566563294606,9.794102231971447
3771.377,3.1943867076084107,5.143809439449859
3772.2466,3.187850364831976,6.245838665321936
3773.1145,3.179959405729538,5.193472476838749
3773.9824,3.1697282517653886,9.347699116924797
3774.8528,3.1575256763644517,8.148871167599838
3775.721,3.145079362813529,5.082947956746335
3776.5918,3.134442373841999,7.642271468585105
3777.4604,3.1278191172867276,6.004476005744142
3778.3315,3.126992686713747,13.624843814226994
3779.201,3.1322329689548276,5.912473019230061
3780.0703,3.1407674040670748,4.065570225886446
3780.942,3.1475002021309586,3.6165272926223433
3781.8118,3.1488183630112836,4.31673021050027
3782.6838,3.1465676709172734,10.6841783669257
3783.554,3.147081393853898,69.84516371614777
3784.4265,3.155289821947778,10.356557901825283
3785.297,3.1696012305550805,3.54112256356349
3786.168,3.1830148461487275,7.575902805992591
3787.041,3.1886832831961445,8.761678180542587
3787.912,3.1844423729848947,8.533372248990666
3788.7856,3.172969328196765,8.78528554121835
3789.6572,3.1587984550573225,7.192932371012951
3790.531,3.14487133823501,5.738538265688781
3791.403,3.1310749870524415,6.606409062952061
3792.2754,3.1145590865829167,5.1867137200642075
3793.15,3.0924359028648394,10.072558258018905
3794.0225,3.0652089280960677,6.476980458402833
3794.8972,3.03766210633703,11.66209158808319
3795.7703,3.017158841747279,6.8690734001408185
3796.6455,3.009080724877294,14.529078695520917
3797.519,3.014261901054982,6.692456868613257
3798.3926,3.0290635340733867,6.566792778113525
3799.2686,3.0479742935363396,8.717681767952898
3800.1426,3.065918401176985,5.870596332509539
3801.0188,3.0801942613591313,4.588777804144
3801.8933,3.090648289000454,5.580248778378014
3802.77,3.0989013848970988,5.792595807041371
3803.6448,3.1057574779209376,7.7704828364703635
3804.522,3.1096249591734315,5.554732657957232
3805.3972,3.1074888390562365,4.370413383715252
3806.2727,3.0979944065874037,13.634243739515627
3807.1504,3.082910479905887,12.287231445325824
3808.0261,3.0660643632729867,18.10916856478032
3808.9043,3.051153327830231,6.149586417850346
3809.7805,3.0413554213873013,9.139764105390427
3810.659,3.038883717120418,6.50716336357461
3811.5356,3.0442186986644444,10.197856236974884
3812.4126,3.0549272322853755,13.248966210854663
3813.2917,3.065805210385708,8.255996938518134
3814.169,3.0703619303351233,5.794712756128799
3815.0483,3.0635990860015236,8.341551127346595
3815.926,3.0448813740811445,6.423212436936272
3816.806,3.0195233582967975,6.355253893264839
3817.684,2.997658429524762,10.183279482859156
3818.5623,2.98900720153668,8.992884080736165
3819.4429,2.9976677128531035,5.179515198880357
3820.3215,3.019980164468933,6.323309775758347
3821.2024,3.0476273261205704,6.806600250883226
3822.0815,3.0721375975404643,8.573824315217687
3822.963,3.0881623123126536,9.533321238271466
3823.8423,3.093193147941316,8.498101556383679
3824.722,3.087009647389972,6.1023612485622305
3825.604,3.07115404645002,7.764115011838692
3826.4841,3.0492247583799235,6.405871006387683
3827.3665,3.0261201643001705,6.514248582939851
3828.2468,3.006995833771221,5.809906168985049
3829.1296,2.9949512693323923,14.385437029083247
3830.0105,2.99010416483114,18.43018001221739
3830.8916,2.989785409446231,5.2819607030109275
3831.7751,2.9905559567183713,18.397825858086144
3832.6565,2.9899352235789696,8.418501025541802
3833.5403,2.9867095356185644,8.657444136439198
3834.4224,2.9799259271929865,7.181610340417347
3835.3064,2.968085645018806,7.985645009706433
3836.1887,2.950217959289413,6.903536029600718
3837.0713,2.927644955182446,6.832265800844617
3837.956,2.9044606110678277,7.372062813602566
3838.839,2.8854913722072473,10.595654289294634
3839.7244,2.8729183531649043,5.72916441775021
3840.6077,2.8654741315447936,11.777769900343609
3841.4932,2.8594342288568266,10.304642587455882
3842.377,2.8509688314062585,11.809360199658617
3843.261,2.8382292286464477,8.704287851845459
3844.1472,2.823036251767368,6.642365395677102
3845.0315,2.810795021489166,9.98803525836773
3845.9182,2.807260419139809,10.232998628744317
3846.803,2.8147072193895286,5.824984996441984
3847.69,2.8302793986573285,13.4835970263087
3848.5752,2.848158896618172,12.110730737527364
3849.4604,2.8638572858296634,6.321141971060737
3850.3481,2.8767730081819147,5.0932382956745945
3851.234,2.889672680465474,9.006960292984683
3852.122,2.906269868697379,7.102950711597758
3853.0083,2.9280050094603762,16.723123652467518
3853.8967,2.952948321568468,8.510518614309987
3854.7832,2.9762027480913114,8.784455482759588
3855.6702,2.992677381224502,6.4033165947963955
3856.559,2.999153350892363,9.294158661713436
3857.4463,2.9953436298894505,7.138857426081218
3858.336,2.9835163085010024,8.303829804281987
3859.2234,2.967394858074467,7.485788014009288
3860.1135,2.9506868821523704,6.90936341273535
3861.0015,2.9365824351801084,8.02925777714777
3861.8896,2.927140489993659,8.155753347670416
3862.7803,2.922953357170589,8.925223144520038
3863.6687,2.921920370664334,6.991507794910916
3864.5598,2.9185863003600923,7.058108614013552
3865.4487,2.906429495039143,14.134864524775388
3866.34,2.882617953480532,8.313855926740267
3867.2297,2.851968151181808,12.653869972592409
3868.1213,2.824803310773532,10.909939125483291
3869.0112,2.8104802456982796,8.793341450260579
3869.9014,2.810583532483665,6.265466008960702
3870.7937,2.8186823082174968,8.80471325391049
3871.684,2.825476551397891,8.90318569624484
3872.577,2.8250043925939314,9.52268863104608
3873.4678,2.8166211897352302,8.22880444972641
3874.361,2.8029297903484385,7.681203022977915
3875.2524,2.78745695796038,8.157268179865147
3876.1438,2.774091314525978,6.430085662990374
3877.0376,2.7673717567861975,6.890498863668074
3877.9297,2.7705851855884207,8.072761213511246
3878.8237,2.782425787744434,7.365030310437678
3879.716,2.7961267659824425,7.914628572925341
3880.6108,2.802894946330225,9.2991705178309
3881.5037,2.7967165696871996,9.225195934813744
3882.3965,2.777521412107809,12.720614374119807
3883.2917,2.7504939771724164,10.793694221977411
3884.185,2.7232165952261784,11.521501364545207
3885.0808,2.7013030412314882,8.189454731879664
3885.9746,2.686378775863656,14.55697926946484
3886.8706,2.6757577597671207,7.16103725772483
3887.765,2.6650670292163396,7.522150069701357
3888.6592,2.6510547815947807,8.447233303833254
3889.556,2.633447578391263,11.611776951902295
3890.4507,2.614824749892261,9.632851760117324
3891.348,2.5984943989438016,10.316736690525733
3892.243,2.586935820590484,10.338847743681649
3893.1406,2.580704493932378,8.132236977019643
3894.0361,2.5793645519352584,7.803929415409632
3894.932,2.5827697531742553,6.885635777634702
3895.83,2.591606106015087,19.103363772825432
3896.7263,2.6057149894758282,10.161634812790995
3897.625,2.622303607286387,6.732684478449978
3898.5215,2.636123250883568,12.08926408192183
3899.4207,2.642925479856309,10.135384072449389
3900.3176,2.642135193920159,10.682503397527547
3901.2148,2.636820216525851,17.226437862565383
3902.1145,2.6308570360723667,18.457055897625608
3903.0122,2.626779806305822,16.382759151172028
3903.912,2.625671281181606,10.31206980798072
3904.8103,2.62838701042593,8.36272849281603
3905.7107,2.635944109513495,6.894647050842146
3906.6094,2.6485917278788507,10.020194775421214
3907.508,2.664580368261139,11.096258710315588
3908.409,2.679501283237649,8.266136148341937
3909.308,2.6873723096783024,11.91180758287707
3910.2097,2.6844250035599138,10.130519906509022
3911.1091,2.6729305530283787,8.994539813582872
3912.011,2.6613017505853334,13.679101475403057
3912.9111,2.6591900821517975,50.13817237513247
3913.8113,2.6713436689322023,7.825611195125127
3914.7136,2.6964387445004925,8.169266562847174
3915.6143,2.730024805662722,8.559761432903871
3916.517,2.7677509293244085,17.816802174892093
3917.4182,2.8043009985524114,11.477205167132418
3918.3215,2.8326133760660817,11.843900995453266
3919.223,2.8446805222415756,7.8364202208115135
3920.1245,2.835883561556962,12.811746115431845
3921.0286,2.8075144402801615,7.06284978227338
3921.9307,2.7668997004488,9.715931010808628
3922.835,2.724168640919406,9.855901216798323
3923.7373,2.689926177575788,8.296391267859663
3924.642,2.6723001931746433,8.016395026722076
3925.5452,2.675475884744688,13.542874072986615
3926.448,2.6976884585725576,8.339289689602747
3927.3535,2.7315965333450607,7.525341005875139
3928.257,2.7661398076914385,7.401561556845733
3929.1628,2.7909066016991386,7.735363370077735
3930.0667,2.799227801981995,7.069073267748504
3930.9731,2.7906370230199244,6.929854619945203
3931.8774,2.7703702799999492,13.985081098873295
3932.782,2.7466029082125596,13.29878078621813
3933.6887,2.7268054622612667,7.345876217929281
3934.5938,2.715131397066572,7.658508023050033
3935.501,2.7117051479533014,9.975530246519677
3936.4062,2.714660082216135,7.7527812459217875
3937.3142,2.7222871365553405,6.992322993965601
3938.22,2.733326353780934,10.101163053666351
