wavl,flux,ivar
3566.9744,5.277802746480871,8.186408427535488
3567.795,5.253887899094587,7.822290173742916
3568.6177,5.217915818279731,7.3877313744191415
3569.4385,5.178031630981599,11.108715869446023
3570.2617,5.141570137319209,8.671350427433055
3571.083,5.114480287604808,10.215844834429387
3571.9065,5.099615441067161,9.142530222910134
3572.7283,5.0962291819259695,8.779280085704675
3573.55,5.099588597093715,12.393895477225376
3574.374,5.103072663949065,12.681475337250832
3575.1963,5.101325567657026,14.979357367948165
3576.0208,5.092751116658954,11.607888893028182
3576.8435,5.079718297114805,14.77914867605711
3577.6682,5.066500555274412,12.223016262348724
3578.4915,5.056856073927642,9.950999583058572
3579.3145,5.052017539488497,12.538830546635014
3580.14,5.050654077938331,12.142242787012899
3580.9636,5.050398715416367,12.222922708041775
3581.7893,5.050195581556826,9.677172372401504
3582.6133,5.052193275682822,12.98155843112897
3583.4395,5.061652292330075,9.947337025783607
3584.264,5.083796150511423,16.79183093153887
3585.0884,5.119136882779728,8.932576273678585
3585.915,5.160919154706913,8.626729686941905
3586.74,5.197505736020604,7.513706028563211
3587.5671,5.219884643684804,9.963812871010079
3588.3923,5.226073244394101,7.746946790221125
3589.22,5.220192542932382,10.676354299496587
3590.0457,5.206489834833862,9.348892104433281
3590.8716,5.185312051095488,7.649201964523062
3591.6995,5.154718504455765,9.220819736803493
3592.526,5.115345971618111,14.650469445242564
3593.3542,5.071821526528934,11.684397726256538
3594.181,5.0307162272160495,11.093647406005974
3595.0098,4.996331820982677,8.329708754768596
3595.8367,4.971095677839556,10.426981028600563
3596.6638,4.956931468282983,8.799303006760171
3597.4934,4.956047230772807,15.654957685275031
3598.3208,4.96844876177286,14.204638393988455
3599.1506,4.990145151572501,11.661356244986811
3599.9788,5.014553787638308,14.141445594049623
3600.8088,5.036368306047346,9.530457980958522
3601.6372,5.052684512277258,11.012886982394196
3602.4678,5.061893391143896,10.458849805954078
3603.2964,5.061860650229767,7.985521783916312
3604.1252,5.05102007458756,10.171361057823095
3604.9565,5.030589980575169,11.958616464386871
3605.786,5.006174104132194,8.373899776402533
3606.6172,4.98642849911608,12.78940525713041
3607.447,4.980353619883997,14.08536095038039
3608.2788,4.992423176586852,12.187423364092885
3609.109,5.018566292323569,15.294770474125599
3609.9392,5.046726921349027,11.656359634191954
3610.7717,5.0632663903464525,7.393138964329854
3611.6023,5.060669159247943,11.37097866814339
3612.435,5.0401326895465814,16.26619251264321
3613.266,5.00788835750764,11.923248025101199
3614.0994,4.97090575657699,15.1398621196719
3614.9307,4.9367573175223605,13.374315638893636
3615.7625,4.912804717970071,10.816552552164131
3616.5962,4.903827135941963,10.865489304754716
3617.4282,4.908943423252712,12.170048483147431
3618.2625,4.9225559776660965,11.438391880370641
3619.0947,4.9387002877567845,10.341136265565826
3619.9292,4.954474954857181,12.234260999600027
3620.762,4.969182816982736,17.982574193188828
3621.595,4.982091041114614,11.681903563371622
3622.4302,4.9910610717072394,10.902289998914764
3623.2634,4.993637847054148,10.944669244917177
3624.0989,4.989286154138743,13.117664656695327
3624.9326,4.980017458153329,10.910609198578674
3625.7686,4.968282396209063,13.889932579114951
3626.6028,4.954138862545876,12.850669356006833
3627.437,4.934809979430648,9.577842221443426
3628.2734,4.908211294461931,8.883575574545192
3629.1082,4.876929482049203,14.245304718927084
3629.945,4.8472461584936335,11.46776333217298
3630.78,4.824885713930042,13.377492985228113
3631.6174,4.810195299426307,10.858372090144872
3632.453,4.799046337403374,8.41375956933827
3633.2883,4.787063623889404,9.31158398042173
3634.1262,4.773656689731917,12.50543169129791
3634.9622,4.761619008009914,14.205321838221254
3635.8005,4.752774945835677,10.318747415650934
3636.637,4.744892914424873,9.73591722510169
3637.4756,4.732294751515367,11.96865762982195
3638.3123,4.710216118462586,11.59089874501736
3639.1492,4.678459735664004,10.471154191539748
3639.9885,4.642125545421559,12.58270313454152
3640.826,4.609336114589746,19.158830286200292
3641.6653,4.586497872448339,12.800457317729517
3642.5032,4.5758027006494375,13.245246980652555
3643.343,4.574576558862228,9.26427018871918
3644.1812,4.577929977508243,11.819269080792703
3645.0195,4.581849871727965,10.434587062110497
3645.86,4.584447373735543,13.499346840258847
3646.699,4.58475120970358,12.460381326852401
3647.5398,4.581526716607652,13.39926788058509
3648.379,4.574105866639228,14.820500197054157
3649.2202,4.563934765077403,10.97581051676746
3650.0596,4.554350773625536,11.600908760284549
3650.8994,4.548071435373855,16.376426736832617
3651.7412,4.545758386217671,12.61026545480983
3652.5813,4.546675188844417,21.771562012910643
3653.4236,4.549743739493415,16.32141803692434
3654.2642,4.5531573795304805,15.226424994696506
3655.1067,4.553951932152832,10.614455551756036
3655.9475,4.549569377496527,13.592887455586228
3656.7886,4.540300686139679,10.909114137790631
3657.6318,4.529211951587808,21.565963263286243
3658.4734,4.519500790439726,14.111497526034219
3659.317,4.512283194386655,11.096232200914624
3660.1587,4.507631719500962,11.770167878984921
3661.003,4.506129589565476,15.4281091361023
3661.845,4.5083156338496355,14.375307093171294
3662.6875,4.512313331397365,16.426517796714588
3663.532,4.513509273780859,11.859640943971716
3664.3748,4.507858003562125,16.27740229702872
3665.2197,4.495687171145987,13.593639094263864
3666.063,4.481587126280109,14.454177346054747
3666.9084,4.469919750317499,14.314402380387397
3667.752,4.461471800729763,12.297391083861239
3668.5977,4.454167836900164,9.424010772343221
3669.4417,4.446695462833474,16.9418169253452
3670.286,4.439722262390802,13.555608626592168
3671.132,4.434223725087583,12.067024908349136
3671.9768,4.429813015751308,13.36202230135084
3672.8235,4.425037262435794,14.174490340540556
3673.6685,4.418430823578919,10.691845574961034
3674.5156,4.408421195813515,13.388773810608974
3675.3608,4.393717983500929,12.183080282395942
3676.2063,4.375058310357663,12.300890964015725
3677.0542,4.357083487714793,15.67697985121013
3677.9,4.347006787852235,15.802388267431317
3678.748,4.349386603035541,11.453389592017409
3679.5945,4.362143824458478,11.309776205528877
3680.4429,4.3772776180039665,10.697516302413634
3681.2896,4.385832774820433,14.642181929194605
3682.1365,4.383142939696702,12.57684555632842
3682.9856,4.37003619897034,18.27615303681314
3683.8328,4.351006119386876,18.320731320213113
3684.6824,4.331147054265091,9.88278354846486
3685.53,4.3146691624967595,13.652753325893396
3686.38,4.303603989548159,14.384780660378096
3687.2278,4.297803074108581,13.82970324774883
3688.0762,4.295642440257578,16.11726505711714
3688.9265,4.296204000052812,14.08371599119702
3689.7751,4.3004364279210066,16.301096972054747
3690.626,4.3097225221910485,13.697031358192472
3691.475,4.322743203647753,13.297316719085059
3692.3264,4.334442089434385,10.363778557511665
3693.1758,4.338563605375518,18.03123082036184
3694.0254,4.332580371798876,10.819312159485243
3694.8772,4.319848901401749,13.930381723278138
3695.7273,4.307162641864001,19.370935896798454
3696.5793,4.299240449405257,15.196568639025056
3697.43,4.296088446415623,15.362485909531754
3698.2825,4.2949299574769055,13.55084370268284
3699.1333,4.294080190381133,16.08189789549376
3699.9841,4.293846381670575,16.45007297811787
3700.8374,4.2942163086767104,21.010275582146715
3701.6887,4.293005087327572,13.990530308206417
3702.5425,4.287144333715965,13.643161572909206
3703.3943,4.275613945197707,12.93275146810571
3704.2483,4.260359422351398,13.234132099177664
3705.1003,4.244691955067467,15.48290485820357
3705.9526,4.230436150321765,15.839804371533816
3706.8074,4.217008532141199,14.38995092501489
3707.66,4.202480415334291,17.455859364251843
3708.515,4.185001948301164,88.26794095098991
3709.3682,4.164284169286247,12.476471082655138
3710.2234,4.141684093240757,14.264174880524923
3711.0771,4.120339281407077,22.34773431083287
3711.9307,4.103760419718905,16.69539592549969
3712.7866,4.094196487020657,16.28107483746479
3713.6409,4.0915644595333305,18.296126300691817
3714.4973,4.093839003631524,16.30237409547105
3715.3518,4.098652255166679,14.717069871862078
3716.2085,4.104195140607438,20.73860807210846
3717.0635,4.10883511161786,16.467980734763863
3717.9185,4.110876461424662,18.651361172121568
3718.776,4.1093697172107895,14.279551230794507
3719.6313,4.105434935613321,19.98472963572458
3720.489,4.101884489120135,17.35121530490387
3721.345,4.1009424825570715,18.29924236552195
3722.2031,4.1023811395874175,22.946624908046168
3723.0593,4.1044939191075605,16.73181322109725
3723.9158,4.106646026531067,17.828978709090944
3724.7747,4.110102118763039,17.276900694207708
3725.6316,4.116126526558248,12.404663519386645
3726.4905,4.124164082273383,13.11653248336587
3727.348,4.132447606874791,21.172771840891365
3728.2073,4.1401855750619925,16.385567388780913
3729.065,4.147553945319071,14.900150043404313
3729.9229,4.153501906894559,14.695498471897688
3730.783,4.154317328361131,18.02037560775646
3731.6414,4.1459467233861895,13.367596374252134
3732.5017,4.1280724474561,20.62481917888498
3733.3604,4.105617295149096,14.976133062228694
3734.2214,4.085186785936089,18.35271735758646
3735.0803,4.0704484243955905,19.492828826309815
3735.9417,4.059634640246924,17.424269755679553
3736.8013,4.048240608926391,24.351514259359064
3737.661,4.033172254487203,14.331209247426344
3738.5227,4.015349552787967,17.829824644093016
3739.3828,3.9989162751464065,23.168377100316505
3740.245,3.9878565223762035,16.210864951333154
3741.1055,3.9836573740673074,14.915838741422037
3741.9683,3.984566150313037,14.934355096708616
3742.829,3.9868386615784424,20.366568150955562
3743.69,3.98654679990449,16.2471612457781
3744.5532,3.9813645601743914,18.282392301468846
3745.4148,3.971938777015905,13.055290775848936
3746.2786,3.962010498602573,14.124156747681425
3747.1404,3.9572691144281733,21.204486040903287
3748.0044,3.962766773770737,15.427455554844993
3748.8667,3.9804250736313844,14.920398133264007
3749.729,4.007762580962038,19.574780344091966
3750.5938,4.038717745003236,19.47985063334806
3751.4565,4.065857568303454,28.098860792238625
3752.3215,4.084014099223361,15.694115946601709
3753.1848,4.091583409826005,15.700019908609441
3754.0503,4.090103891940847,15.352341268046233
3754.9138,4.081752888962444,17.16893819084672
3755.7776,4.067622991848282,23.389671095814407
3756.6438,4.04769070922978,14.19880888759312
3757.508,4.022080018652878,18.585154935219492
3758.3745,3.991713352419545,18.35771454032102
3759.239,3.959566479548264,17.580275499591526
3760.106,3.930255562739417,13.832971462685249
3760.971,3.909249626001734,17.97587411617519
3761.8362,3.8995224890331706,18.069671670071376
3762.7036,3.899694312498253,18.16926124374602
3763.5693,3.90466481892111,15.876231753683108
3764.437,3.9090370251457065,16.44539411569596
3765.3032,3.9101087388236477,16.270596026343064
3766.1714,3.907932198368665,19.621498243912658
3767.0378,3.90312265524889,19.921372240366956
3767.9043,3.895644669039816,18.901080202157154
3768.7732,3.8859853349634483,15.533947441793888
3769.6401,3.8766595783798654,17.20930531785182
3770.5095,3.870960522450494,14.725048342662227
3771.377,3.8702604323080068,19.7971720695214
3772.2466,3.872666970403213,18.69925122892577
3773.1145,3.874981594105135,13.252138370149526
3773.9824,3.875656498320529,23.60250545656314
3774.8528,3.8758565627935164,19.56524578260597
3775.721,3.878268813582649,21.68996466518882
3776.5918,3.885146627685367,24.734567205699864
3777.4604,3.8967829035094357,20.688707276681683
3778.3315,3.911269407055928,14.743793450508488
3779.201,3.9249376605192254,15.405244690262512
3780.0703,3.9337076833425857,14.932312749499609
3780.942,3.9338760719711447,22.616031586515565
3781.8118,3.923026453275276,14.07358329078683
3782.6838,3.9012424734873825,23.27872952953556
3783.554,3.8722621365818837,19.1397241882782
3784.4265,3.8422547036761636,15.916645987803426
3785.297,3.817588051192219,15.760248727029913
3786.168,3.8015915311657533,17.232370020906615
3787.041,3.7941948130742773,17.029817509958594
3787.912,3.7931764965939445,22.57651145138771
3788.7856,3.7955870259684468,20.125565155669268
3789.6572,3.798549454005546,18.311656102586795
3790.531,3.7997608161201426,24.37225872947027
3791.403,3.7979817942044107,18.54052259058746
3792.2754,3.7928890096169,19.834436902038387
3793.15,3.7839041442264545,22.724500735512688
3794.0225,3.76948429822446,31.73610900757537
3794.8972,3.7478622547248377,24.21128118443607
3795.7703,3.719575597095117,23.014062569765596
3796.6455,3.6885553937828894,16.759511487031784
3797.519,3.6615780460072926,20.106704692424724
3798.3926,3.6447117068120765,20.2295255504317
3799.2686,3.640478275195594,24.40687959219
3800.1426,3.646566790576936,27.34444160196862
3801.0188,3.6570121626148473,31.192282226856467
3801.8933,3.665114674000004,19.752651901905086
3802.77,3.6667434878820404,19.20745880228099
3803.6448,3.6621866320887646,16.75442912138851
3804.522,3.656192766799417,13.561589391428614
3805.3972,3.6558803794481562,20.581010868525
3806.2727,3.6666777155871975,21.97371451475515
3807.1504,3.6885996209579055,17.864787167207187
3808.0261,3.715491563220446,19.49282411807586
3808.9043,3.7394919480388635,14.561418625130829
3809.7805,3.756056867537775,18.550190492784015
3810.659,3.7665397200872235,17.385608545439553
3811.5356,3.7753506924339573,24.72714005414334
3812.4126,3.7859367214819115,20.543786974696435
3813.2917,3.7983993299087104,18.074215078388377
3814.169,3.8101886750446665,19.08004688989008
3815.0483,3.8188274583584163,16.42521536812736
3815.926,3.8235655496492633,15.664200019854443
3816.806,3.8250943495076952,14.892117266277063
3817.684,3.823395286114672,23.853304932843912
3818.5623,3.816486169609687,18.61204867946192
3819.4429,3.8013590635183276,20.482530089801315
3820.3215,3.7766199506239944,21.62602064143257
3821.2024,3.7439965590748465,17.319212369485186
3822.0815,3.7085773644351594,23.31922748200378
3822.963,3.6761924976177642,22.335269882949405
3823.8423,3.6512208075172756,16.141332988601206
3824.722,3.6341620058182604,17.585832140756995
3825.604,3.621898800359581,19.308254679279692
3826.4841,3.609565488332382,18.025826537904
3827.3665,3.5932538553451536,24.08980017148444
3828.2468,3.5725882747790494,20.44084912290758
3829.1296,3.5502084127147047,22.50373223871453
3830.0105,3.5292193724467382,24.52906261137953
3830.8916,3.5095790298188905,21.985876374226187
3831.7751,3.487918514501142,19.86209027499978
3832.6565,3.460883425502048,16.95952772188419
3833.5403,3.42846958307713,23.64120726358891
3834.4224,3.395263487250096,23.83026530698663
3835.3064,3.3670172460840146,25.133943282329508
3836.1887,3.3477360038945823,21.50774772270192
3837.0713,3.3381987080506006,21.65730472195412
3837.956,3.3375455197238133,23.073935685798187
3838.839,3.3449522590854257,28.817390100314114
3839.7244,3.3604668992332303,26.27152820673872
3840.6077,3.384427755376034,25.59684939632023
3841.4932,3.41645709058384,21.824317501230652
3842.377,3.4538980204898895,22.694009576328586
3843.261,3.4925171968972157,21.472894911775274
3844.1472,3.5280380604306885,24.846973291831496
3845.0315,3.557807184268521,18.486344918340084
3845.9182,3.5819629425510113,22.01310901512877
3846.803,3.6018593619854316,24.80492165290165
3847.69,3.6190091323800293,22.19847718989098
3848.5752,3.6340571127513766,16.102312378213917
3849.4604,3.647743223265365,16.333699987766625
3850.3481,3.661590363253111,20.39282983882663
3851.234,3.6773345838915,18.095032836318804
3852.122,3.6956660029588555,28.195076486262597
3853.0083,3.714914665619498,13.91863637542303
3853.8967,3.731905780106609,14.376037272320763
3854.7832,3.743089786710562,19.07568169354824
3855.6702,3.7462196822516063,19.354154956502146
3856.559,3.7411544103985017,18.159209483533694
3857.4463,3.730512192524181,18.39868426223794
3858.336,3.7189359945674547,24.609277117153578
3859.2234,3.711055713654825,16.13508001147565
3860.1135,3.7087958056924135,22.079344559455976
3861.0015,3.710788235849329,23.11084614091576
3861.8896,3.7138552403639213,20.43979039041896
3862.7803,3.7152183441061846,23.539341879182665
3863.6687,3.7134005119268862,19.402047016610368
3864.5598,3.7076002452207883,19.996796989133152
3865.4487,3.696740092572586,21.89002026830194
3866.34,3.67932257160095,20.695047639571136
3867.2297,3.6548891683903517,18.508566221131165
3868.1213,3.624987469155202,22.33044370259686
3869.0112,3.5934290463889718,20.967218069126332
3869.9014,3.5642315025749234,19.37768927480938
3870.7937,3.539954736045285,28.091836312443668
3871.684,3.521079565022431,24.551909392597207
3872.577,3.5063408650366212,18.80294570819541
3873.4678,3.4944378432523986,23.503039337063473
3874.361,3.484268093061401,22.25953091134792
3875.2524,3.474332206238008,17.681823904189542
3876.1438,3.461527190088696,24.045426061371543
3877.0376,3.4417263303178234,19.08651977784951
3877.9297,3.412240980095695,33.86353528470377
3878.8237,3.3737419781565827,27.258633221591147
3879.716,3.3309189158334256,26.86100805742233
3880.6108,3.2893073643145225,33.19892455208326
3881.5037,3.2522479153960995,42.751361829736915
3882.3965,3.2181208560539156,29.403916075517188
3883.2917,3.1822858000477443,27.57506849732721
3884.185,3.1415301169890477,21.522214775692877
3885.0808,3.0964133265440927,31.993322369928464
3885.9746,3.0510836092066604,28.59814647326695
3886.8706,3.00865187968802,22.525886401280058
3887.765,2.969400529586016,33.439441710481795
3888.6592,2.931418921094193,29.401836293023933
3889.556,2.8946112562855566,42.12212865817508
3890.4507,2.863234420090775,33.021274513116964
3891.348,2.843719788665319,43.31525502702033
3892.243,2.8413674366461636,29.998262964850188
3893.1406,2.8573682013437387,48.44845140438214
3894.0361,2.889129678959092,35.23396645999984
3894.932,2.932414666230513,28.01241024674057
3895.83,2.982662010698229,35.22824764705959
3896.7263,3.0346304605729055,29.352173770680956
3897.625,3.0836468127764696,23.901206857243842
3898.5215,3.1263491322120123,26.421115061097005
3899.4207,3.163375404741924,26.718356163950716
3900.3176,3.1978772916163094,33.049459971806236
3901.2148,3.233414953009317,24.010380003460266
3902.1145,3.271117747595761,21.899082132019952
3903.0122,3.309211738917857,17.209573073659765
3903.912,3.345219393877176,23.560000624612385
3904.8103,3.3770001664284286,22.86312392509001
3905.7107,3.404514116235996,19.54322203199979
3906.6094,3.4297373750205735,23.644089914626626
3907.508,3.456386114117982,25.321435658197565
3908.409,3.487602384272224,27.616699314677675
3909.308,3.523074079290246,21.016881330287035
3910.2097,3.5584551788686976,25.375053520087924
3911.1091,3.5868510129373203,18.78739088737498
3912.011,3.604349752494043,20.770440212638043
3912.9111,3.6139272528019473,18.016177192099697
3913.8113,3.6253398471831697,18.182392813279055
3914.7136,3.648352289198444,20.669379410647355
3915.6143,3.6846289278720414,21.44237702747725
3916.517,3.7262490443811442,17.801261702516076
3917.4182,3.761045787934279,23.556517086348435
3918.3215,3.781018543624057,16.569195519709453
3919.223,3.785104794257981,24.015428196555433
3920.1245,3.777747819489021,14.958590104150124
3921.0286,3.765271804906066,19.77666479980302
3921.9307,3.7537108406658874,19.63377723218371
3922.835,3.747379792315688,17.525371684439648
3923.7373,3.7486739649122445,19.280006875122314
3924.642,3.7583630781114343,20.088741839341136
3925.5452,3.7760076523882873,17.348917802312933
3926.448,3.7997652576071492,23.773089605063774
3927.3535,3.825832346665136,18.033312084753256
3928.257,3.848585740269846,17.83984655377101
3929.1628,3.8629272378645165,18.422887716429788
3930.0667,3.8658911046327304,21.603231314951824
3930.9731,3.857331616267531,17.050506162237674
3931.8774,3.8388439759294535,22.397022477817547
3932.782,3.81272471127873,18.519154839258846
3933.6887,3.78225349573033,20.925391473152835
3934.5938,3.752570227706913,21.691346600686213
3935.501,3.729286758580124,26.445980789404498
3936.4062,3.7161670686717208,20.65367546384188
