wavl,flux,ivar
3566.9744,4.556279754567581,9.577272978854184
3567.795,4.500668755744909,17.49177455290418
3568.6177,4.442624640954671,10.169328785867291
3569.4385,4.395720837830631,8.427367256794112
3570.2617,4.367968215902206,22.876817997034827
3571.083,4.362631812822872,9.978346964590896
3571.9065,4.376381123411965,13.951679178432787
3572.7283,4.398413180186482,11.315058425393985
3573.55,4.413370031377598,8.716325200662862
3574.374,4.408245264373044,18.347120160768352
3575.1963,4.37942971774845,11.790997334339616
3576.0208,4.334215338897671,14.736872363597168
3576.8435,4.286489270552318,26.992985457844977
3577.6682,4.248666756777169,10.29743254294901
3578.4915,4.22771486577579,19.807101755158275
3579.3145,4.224435322457988,15.7452586825613
3580.14,4.236468673136783,14.077410999403725
3580.9636,4.260777370392235,12.95960200957089
3581.7893,4.295122514022312,12.496693310737598
3582.6133,4.336819462134846,8.437627795061939
3583.4395,4.381264316161195,13.716265842084368
3584.264,4.420579564986638,11.995155028310213
3585.0884,4.4469070799872465,9.823187348475651
3585.915,4.455694818400997,12.209731734239634
3586.74,4.447074695721265,15.057296802052779
3587.5671,4.424730567370797,13.336438469782816
3588.3923,4.394821107752175,15.500091672227311
3589.22,4.364936975813602,12.206284921321725
3590.0457,4.3425290740859905,14.746856842398923
3590.8716,4.330640016047129,10.667531261865365
3591.6995,4.326022257870871,15.605942487221764
3592.526,4.320691900796664,14.534138925258945
3593.3542,4.305992648266174,11.95141905799937
3594.181,4.276599735837577,14.099223049331673
3595.0098,4.232441025259381,30.88295555629894
3595.8367,4.180101622097713,10.880107007842541
3596.6638,4.131161081711115,11.052487342680243
3597.4934,4.098823249389905,11.262040000069792
3598.3208,4.091964239127175,20.51182414940276
3599.1506,4.109051625236463,17.241232095657224
3599.9788,4.137300007402353,37.894189685860916
3600.8088,4.158506032245573,9.762133446682865
3601.6372,4.159044451444004,13.493703829767481
3602.4678,4.138611977818962,18.885956742736706
3603.2964,4.110332208954486,10.92647440093061
3604.1252,4.091789776243881,14.710466182163536
3604.9565,4.094602420221055,13.414539874268455
3605.786,4.118905375807062,9.316276808590288
3606.6172,4.154945779292842,15.999910716667422
3607.447,4.188290274172167,14.932038187433532
3608.2788,4.207016319236408,9.974124814522773
3609.109,4.207116074773296,13.223615228037469
3609.9392,4.194730517793382,15.582858535959184
3610.7717,4.181680899529275,15.409633143711181
3611.6023,4.177594566456476,18.898924971545696
3612.435,4.183849247395435,14.862521099922432
3613.266,4.194242858638179,23.163817381210407
3614.0994,4.200645301351296,15.854189707700318
3614.9307,4.1985424346082745,18.90885136740191
3615.7625,4.189028828701033,16.49651413000264
3616.5962,4.176478406213735,17.34391235430888
3617.4282,4.164674848027363,12.168692617137362
3618.2625,4.1538808209797455,11.179176270788536
3619.0947,4.141456960642117,29.205417573666686
3619.9292,4.124600780385583,13.253656174649699
3620.762,4.103525726483594,15.461195913225382
3621.595,4.0813879735917356,12.573448261145481
3622.4302,4.061703172031518,14.114329166377294
3623.2634,4.045671414546116,15.01602716748427
3624.0989,4.0316231575037165,11.38355034538985
3624.9326,4.017299005817332,17.616582861146515
3625.7686,4.001056526161962,24.85979415522817
3626.6028,3.9821262573868403,7.787506161704911
3627.437,3.960262604370825,11.218586363406494
3628.2734,3.936744959712965,38.7622673559426
3629.1082,3.9153761351341014,9.78552301118303
3629.945,3.9011093706978315,21.761054540727766
3630.78,3.8978356531883205,8.398559663132648
3631.6174,3.9058525861230664,14.924928995011015
3632.453,3.921483530967994,16.422031872726926
3633.2883,3.9389540168202815,22.07458224373957
3634.1262,3.9532604434310867,14.855738109068765
3634.9622,3.961884116441201,13.135104365989621
3635.8005,3.964456166057573,17.739522267762133
3636.637,3.9604969637900624,21.45192265744313
3637.4756,3.948375320563056,13.35027046904722
3638.3123,3.9265857986887704,22.21196066857066
3639.1492,3.8956527845013893,17.60387408196089
3639.9885,3.8588299344985795,26.26212194958349
3640.826,3.821273950598814,18.619220323096524
3641.6653,3.787602706453871,17.447859453237804
3642.5032,3.7614993199099684,16.640636287866556
3643.343,3.7449691940849354,27.729884401108574
3644.1812,3.738687269760736,18.99727568155019
3645.0195,3.7414105671463997,18.950483454519457
3645.86,3.750134596011062,13.409033851204263
3646.699,3.760824664331163,18.637426786493084
3647.5398,3.7699190674237486,20.024674274999178
3648.379,3.77470524058668,19.96617410670852
3649.2202,3.7729601142987037,20.173337630651464
3650.0596,3.7628207268859066,15.482161824250726
3650.8994,3.7440075975538183,18.096191279615862
3651.7412,3.719120813808734,27.033509095691173
3652.5813,3.6934028727892483,23.902373908589006
3653.4236,3.6719388562907427,17.948166716066474
3654.2642,3.6575561076853664,13.665310097715668
3655.1067,3.6496186690701444,16.78730268284805
3655.9475,3.645292868311057,18.02839116067032
3656.7886,3.641250803444558,26.365756708397836
3657.6318,3.6355578786656992,20.371337532309404
3658.4734,3.6288153364305256,15.240287018642611
3659.317,3.623762093814014,26.075197554067152
3660.1587,3.623607253817796,16.919092404333256
3661.003,3.6300253032201293,18.53561361583146
3661.845,3.642541402371884,14.723153865740766
3662.6875,3.65964469939048,23.14143735345575
3663.532,3.68005619378608,18.72057143789702
3664.3748,3.702642460489221,11.518987272740393
3665.2197,3.725211082337045,25.78916841458033
3666.063,3.74235538543186,17.359695003682834
3666.9084,3.7464713714455016,20.3610008332859
3667.752,3.731955478672193,16.413989950255324
3668.5977,3.7003400918415554,47.8409507263828
3669.4417,3.6608614607028196,25.148453595206313
3670.286,3.6243327337298097,22.47887594581336
3671.132,3.597032135557874,17.747194060404457
3671.9768,3.579549470407231,16.4630199100199
3672.8235,3.5697744156117834,24.727075494695313
3673.6685,3.566338755165988,11.790246733200567
3674.5156,3.5683221244688936,15.431156032572613
3675.3608,3.5733653345243153,14.919553066406086
3676.2063,3.5771535955845355,32.561318364079305
3677.0542,3.575579790055853,17.23016085414767
3677.9,3.567922129582756,27.810133903356856
3678.748,3.557892808189768,20.28491557431224
3679.5945,3.551359270778539,33.899105484131674
3680.4429,3.551619243260647,38.601200670165454
3681.2896,3.5561768308755872,19.737404276836553
3682.1365,3.5580227593638414,19.22311322983017
3682.9856,3.55138067799353,16.14299562570326
3683.8328,3.5370818050789756,31.765248797514346
3684.6824,3.52168630853623,23.180381422975397
3685.53,3.5114338440667208,48.32826996528921
3686.38,3.50686829547863,10.93868952479533
3687.2278,3.504096204798775,23.14233341590407
3688.0762,3.499559934468466,25.00305149822155
3688.9265,3.492982386684258,22.82722996556422
3689.7751,3.4864374567845857,18.510268991015774
3690.626,3.482085559512644,17.964499836251328
3691.475,3.4811955136212402,25.672418202575606
3692.3264,3.483614663764476,33.81606106642074
3693.1758,3.4875021787101264,16.944270012395727
3694.0254,3.490554901773901,13.771682665045127
3694.8772,3.492692814007824,27.187944464308643
3695.7273,3.4972439304392964,27.34485879461041
3696.5793,3.5085506062535354,32.67026161812296
3697.43,3.528244844384022,21.935760957512315
3698.2825,3.554490199420301,22.254082802943238
3699.1333,3.5832422564677744,24.53936677020658
3699.9841,3.6096404641098623,18.727905708017087
3700.8374,3.6276221995165483,13.650429071784528
3701.6887,3.6307532255520005,20.167419032089207
3702.5425,3.615800808595774,17.565869842401725
3703.3943,3.5858036343302615,18.808014197032865
3704.2483,3.549206846321153,36.21641895868981
3705.1003,3.515921396365508,23.296631029325177
3705.9526,3.4916581321770095,13.810628181117803
3706.8074,3.475829666659877,24.2039043333922
3707.66,3.4630215373554383,14.076324275653487
3708.515,3.447137034455271,16.38759644320878
3709.3682,3.4265218254036127,35.35827212653852
3710.2234,3.405309793859886,20.888174014638818
3711.0771,3.3903829529696954,24.344636242922927
3711.9307,3.384763317483776,19.283270766032953
3712.7866,3.3838896875791074,26.684384878223895
3713.6409,3.3783372695221066,18.649024400057208
3714.4973,3.361636435971942,31.961879530957198
3715.3518,3.336445557635455,27.010668987292295
3716.2085,3.312748790972851,26.882811417439495
3717.0635,3.3010231694900956,22.707834249872985
3717.9185,3.305641736940959,23.708906532866735
3718.776,3.3238810840582724,29.34290333215402
3719.6313,3.3478979673844624,23.047553046553105
3720.489,3.368431576961307,17.14784681685391
3721.345,3.3783213635131273,28.973684462072676
3722.2031,3.376362067116851,16.188297810282663
3723.0593,3.3678044494200643,51.15839859582607
3723.9158,3.360787471111841,18.10168916638671
3724.7747,3.3610973438411635,23.242556416032055
3725.6316,3.369340413508216,29.88484267784949
3726.4905,3.381818604838453,34.531020690453985
3727.348,3.392687625050776,26.45625889366969
3728.2073,3.395793760161212,20.25198007115448
3729.065,3.3863964678869953,12.90179809527917
3729.9229,3.3640798827565828,18.38501176066038
3730.783,3.334624520938215,24.652423290592623
3731.6414,3.3085265833197908,19.15269608597072
3732.5017,3.2950415568188642,17.6465406567844
3733.3604,3.2972531178337117,26.902966255747618
3734.2214,3.310861402923191,18.883968021145318
3735.0803,3.3278297821183482,27.07194053501566
3735.9417,3.341656909311434,21.749295440067154
3736.8013,3.34965082829152,22.156302763696544
3737.661,3.352126876049042,21.588088820256765
3738.5227,3.3498093067781687,23.22492773534458
3739.3828,3.3430653849722547,19.520289013321143
3740.245,3.3332575860505163,14.084643772236198
3741.1055,3.324021932327084,23.206259602628553
3741.9683,3.3193792523285235,20.412781266894022
3742.829,3.3201379991430673,26.001209184598416
3743.69,3.3221285062171932,21.84807796109339
3744.5532,3.3190974949082825,20.542116897568267
3745.4148,3.3077241569867275,22.661660771275084
3746.2786,3.2901526659154117,21.207051305515137
3747.1404,3.272474466035343,27.914752498207942
3748.0044,3.2603004608643293,20.36834414138041
3748.8667,3.255473687996633,26.52772462171091
3749.729,3.254850266444086,25.977004586244384
3750.5938,3.2527307144683615,22.15602764175327
3751.4565,3.245500666407198,24.43622672227352
3752.3215,3.2352502595710044,17.32161734968241
3753.1848,3.228797926700506,24.72392503982573
3754.0503,3.231701862888703,32.27002976965493
3754.9138,3.2426919400835548,27.31762317515233
3755.7776,3.2538258859488187,21.550884900526412
3756.6438,3.256403122932629,26.993900102245686
3757.508,3.247320337724034,28.409537374776733
3758.3745,3.2307502314215406,21.955192453970845
3759.239,3.2148356730044583,22.957384921928035
3760.106,3.206215575909796,25.16814990497201
3760.971,3.206681275087617,28.82342091676005
3761.8362,3.2127088013928295,24.684292525930374
3762.7036,3.2181364600791302,31.176041477491193
3763.5693,3.217492984221051,25.46512323900321
3764.437,3.2082740609548166,34.86314585479892
3765.3032,3.191440219111268,22.123271134960078
3766.1714,3.1706293079788987,39.5417321020158
3767.0378,3.150963005158531,29.69314914665291
3767.9043,3.1366116325456,34.65828111606592
3768.7732,3.1290270363369355,48.147817512991395
3769.6401,3.126661584843276,21.95307109350628
3770.5095,3.1262614073501114,30.66913218269455
3771.377,3.12478142861583,26.796624216089775
3772.2466,3.1206495751773615,25.41097381585179
3773.1145,3.1147624392189552,29.04704668997486
3773.9824,3.110955228015179,40.16273145005422
3774.8528,3.11493152186422,28.06853094981632
3775.721,3.13053692271424,39.94758514089044
3776.5918,3.15547878045125,44.391340309503576
3777.4604,3.180002211041087,28.7004335042946
3778.3315,3.1922463408498505,21.13933764739718
3779.201,3.185607386258778,23.295059262805612
3780.0703,3.1629757248210892,29.167603535785638
3780.942,3.1334543176180754,24.123261389344304
3781.8118,3.1063732665567563,24.128936744181537
3782.6838,3.0870387510981616,47.97572868164734
3783.554,3.077364861126255,20.122504725766234
3784.4265,3.0769545292440212,23.635898666442657
3785.297,3.083834225141091,18.717046272784078
3786.168,3.094741579025614,14.843508308417249
3787.041,3.1062065651567017,26.346927033523905
3787.912,3.115420908416466,29.843401010575963
3788.7856,3.1204968314601293,21.247365211051246
3789.6572,3.1199671476336523,26.857887466330418
3790.531,3.1130232125640234,27.40204826257324
3791.403,3.100020637807108,36.024199183111904
3792.2754,3.082290715072718,22.915159053775184
3793.15,3.061157438949221,27.844719832910354
3794.0225,3.0373890088809445,25.672788800719918
3794.8972,3.0115234676936797,22.31868665587184
3795.7703,2.985846687889212,24.346771866002545
3796.6455,2.9641682738439297,30.1582020969676
3797.519,2.9500808899903026,26.533323915159382
3798.3926,2.9439368645986024,23.784698333632175
3799.2686,2.9427806600047908,32.519767972078874
3800.1426,2.9429101257628525,23.687527989480675
3801.0188,2.9427674389797414,31.5993267340783
3801.8933,2.943454144304216,70.62549184215257
3802.77,2.946963231229073,22.09588738220635
3803.6448,2.9543770911600005,16.494591600990795
3804.522,2.9655713670388004,31.049431322228322
3805.3972,2.979547774201925,24.841709679096553
3806.2727,2.9951965107132485,24.64996173642624
3807.1504,3.011906026190207,20.852308868170738
3808.0261,3.029968342957549,33.9562179677923
3808.9043,3.0505535083958413,28.85664009642231
3809.7805,3.07417070300467,39.742690984653905
3810.659,3.100106486177341,36.43954611601971
3811.5356,3.126013520468932,37.837011888607805
3812.4126,3.1490103650649357,29.66065675138644
3813.2917,3.16616524625676,19.766908433957727
3814.169,3.1749606933956747,30.078033960925843
3815.0483,3.174242701327413,19.47093757547546
3815.926,3.164843694110234,24.360288099716172
3816.806,3.1496880839472077,32.144340970174255
3817.684,3.13272877192962,24.901535066889014
3818.5623,3.1167606053953514,41.70286298831051
3819.4429,3.102338339755255,21.615773661001384
3820.3215,3.0885981429526206,24.68772734172399
3821.2024,3.074719393090575,27.443507146190505
3822.0815,3.0610955927188908,31.048907433148432
3822.963,3.048505017134087,25.868232149576805
3823.8423,3.037217829517301,39.913918450813334
3824.722,3.0262685629210146,29.02350815014534
3825.604,3.013971186199113,28.56306301047759
3826.4841,2.9989324328211016,26.193426102743025
3827.3665,2.9804072860268778,28.72036995288393
3828.2468,2.9582776410047127,31.07202309800242
3829.1296,2.9319179533086315,41.19939511526237
3830.0105,2.90044338597253,33.371545874066285
3830.8916,2.863049646284535,30.4766546829161
3831.7751,2.820269100018216,48.91613117434542
3832.6565,2.7751119302047873,26.868183987650298
3833.5403,2.7324330863768327,35.48598132911526
3834.4224,2.699135202164323,35.408608182150644
3835.3064,2.681462582793002,47.53625761302458
3836.1887,2.682545713979851,42.192494566078544
3837.0713,2.6998892804094243,30.266379718877616
3837.956,2.72629343000951,49.712207697406264
3838.839,2.75319138804711,35.63331185961778
3839.7244,2.775415968512957,24.062378748907605
3840.6077,2.7928973569534783,49.52009320389045
3841.4932,2.8099186113933117,43.18150453396843
3842.377,2.8317715149554243,37.80139221992363
3843.261,2.8623147722048934,33.650743513360716
3844.1472,2.9021262852198757,40.64451101857402
3845.0315,2.9470623738055832,41.18690602338102
3845.9182,2.9895537874164027,23.446595164091153
3846.803,3.0214020958073053,27.255362174537197
3847.69,3.039477568969203,31.373602709660215
3848.5752,3.047091160075918,29.98189579982476
3849.4604,3.0511809336902895,25.51433377604088
3850.3481,3.056824686726313,21.076334687996265
3851.234,3.064503272688847,22.838205517889676
3852.122,3.071542152381629,26.818689686253972
3853.0083,3.074943920195022,27.220724062033085
3853.8967,3.0732519016281916,22.41018629123805
3854.7832,3.066593626606405,30.02864827738216
3855.6702,3.0562038985749984,25.32462412322485
3856.559,3.0440692901177506,27.508825730283466
3857.4463,3.0326789918940724,27.66876551149247
3858.336,3.024378535219304,30.49134995088974
3859.2234,3.021204814754639,26.57596191603131
3860.1135,3.024698841008981,35.2502479723385
3861.0015,3.035800497849636,24.73204892121842
3861.8896,3.05399677353034,30.012639632258704
3862.7803,3.07607378423737,34.53808468304116
3863.6687,3.0957856293723927,28.650994130991403
3864.5598,3.1064127751416497,19.680855471543435
3865.4487,3.103586801951086,26.820505718910464
3866.34,3.0872130682360517,46.74991638550386
3867.2297,3.060959696003327,20.31508755970333
3868.1213,3.030206482495845,24.135703798773424
3869.0112,3.0002152186269107,35.21583328212305
3869.9014,2.9735400714710774,25.848477576582088
3870.7937,2.949273599068012,32.96369730257972
3871.684,2.9246800821642625,23.12402064251455
3872.577,2.8978404037053753,33.190482038388055
3873.4678,2.8698909896691216,34.33807696803459
3874.361,2.843399066699047,29.87916932269794
3875.2524,2.8204285985310116,38.16586398945326
3876.1438,2.8006367530677037,37.23660146882819
3877.0376,2.781687557514439,23.186666887458998
3877.9297,2.760542194210698,39.577948995929056
3878.8237,2.7347011367557514,42.89496057416547
3879.716,2.70398968184885,33.268886416147055
3880.6108,2.6702789335455703,53.80885149595046
3881.5037,2.6364416574659097,35.78655366045433
3882.3965,2.603654588781493,40.7209454409001
3883.2917,2.5708109580838356,52.242900525941664
3884.185,2.535842336411659,31.512356049482204
3885.0808,2.4969348247920684,33.33719140971347
3885.9746,2.4544244451041872,36.439530316814164
3886.8706,2.4101771725102568,39.745713564445744
3887.765,2.367809253023035,44.319615678881526
3888.6592,2.331238583871241,63.91607206186132
3889.556,2.304051742606651,51.26097364850027
3890.4507,2.288699632425011,38.13737653166556
3891.348,2.285588563292003,44.535102128365715
3892.243,2.29377534414639,71.56419717869719
3893.1406,2.31186282864352,68.66469178211032
3894.0361,2.3385681451387756,53.65368842789402
3894.932,2.373018942241978,29.080663862305034
3895.83,2.4139917095226235,58.415310904233095
3896.7263,2.458608903636862,44.60850864531767
3897.625,2.502963853486138,27.212936376415648
3898.5215,2.5428566091283953,40.81230200175671
3899.4207,2.577099060715526,24.43035666901391
3900.3176,2.607836938199562,30.91474355247863
3901.2148,2.6398075284516795,25.49677245949604
3902.1145,2.6768885168329604,43.00167490764196
3903.0122,2.719084187262382,46.50027974271678
3903.912,2.7627708071271955,28.15507501723455
3904.8103,2.8022678430810655,23.205532875826
3905.7107,2.8338896768573028,18.797316637318573
3906.6094,2.857318000389288,27.474931497419732
3907.508,2.875835685263707,29.883537864497676
3908.409,2.8943089943827274,32.524340796815856
3909.308,2.9168929913049,31.893680897404444
3910.2097,2.9454415435459813,53.01289761791387
3911.1091,2.9782840750077866,21.37746323226134
3912.011,3.0118866187196587,33.841676427284796
3912.9111,3.042633226360012,25.811743779876128
3913.8113,3.069069630000693,25.14356999064898
3914.7136,3.09106835833963,23.550008786409705
3915.6143,3.107486120590376,28.483419268315583
3916.517,3.1153447994270187,27.74064671152563
3917.4182,3.111445019459255,26.49662514958097
3918.3215,3.095878235348691,32.162630993268394
3919.223,3.073452125485829,30.01015839105057
3920.1245,3.051215987664748,30.601531645105474
3921.0286,3.0350380574294435,34.97155039398494
3921.9307,3.028279860914149,25.2982295003652
3922.835,3.0325238770747696,24.150365818138958
3923.7373,3.0484535546380425,28.195319864580824
3924.642,3.074867820607997,22.803790914376844
3925.5452,3.107099004243371,28.94301819935899
3926.448,3.1383544641059378,22.854346024761835
3927.3535,3.1626270269340515,27.530860952592818
3928.257,3.1767968247126,22.19383322174406
3929.1628,3.1809754122821072,19.99851176009772
3930.0667,3.1767100429920654,16.90385143156717
3930.9731,3.165935272228872,25.251006167539376
3931.8774,3.1507658673874235,27.5164605821618
3932.782,3.133309875406662,26.745511925855944
3933.6887,3.115709234427288,25.763046182931202
3934.5938,3.1003016016809593,26.258821520100526
3935.501,3.0890197936388337,25.354962275110882
3936.4062,3.0824459342388617,22.63109114998551
