wavl,flux,ivar
3566.9744,6.071032251563455,22.09871668969155
3567.795,6.0510591738542585,19.818771804584248
3568.6177,6.029137727855321,27.087631167362844
3569.4385,6.009905508505277,22.602430096188495
3570.2617,5.997630642836651,26.841773001326068
3571.083,5.994940191710927,16.83132612590521
3571.9065,6.0012198937983126,31.95046679558001
3572.7283,6.012583742892579,23.137483869987022
3573.55,6.023342937893411,20.180385594956835
3574.374,6.028542568861308,18.243230856967664
3575.1963,6.026448484426947,19.45790293409909
3576.0208,6.0191188611403295,16.91710290084797
3576.8435,6.010075035633588,20.484776371797555
3577.6682,6.00112182427097,24.237120245416577
3578.4915,5.991732163091003,25.685177574931775
3579.3145,5.9806852011635305,19.167655665053204
3580.14,5.967694880990251,18.110525799819527
3580.9636,5.953332315170252,17.388544129314578
3581.7893,5.937833869316253,17.90637742561297
3582.6133,5.9210770429309205,23.322108779185257
3583.4395,5.90247248241268,25.8181788895495
3584.264,5.881559289206699,25.454642509371205
3585.0884,5.858793680078691,17.136134607425312
3585.915,5.8374123512164635,21.75273863480458
3586.74,5.823831460273783,20.961945844678237
3587.5671,5.824160036279957,28.799842800144763
3588.3923,5.839383662812891,20.810221673841518
3589.22,5.862877457954975,19.57886025085349
3590.0457,5.883029173870647,24.990960848626198
3590.8716,5.890422005664441,21.42833854145846
3591.6995,5.883335283837352,22.268807679058945
3592.526,5.86829241493848,21.519650037910566
3593.3542,5.854679554446425,25.720907981641837
3594.181,5.848251335396097,20.416393895539393
3595.0098,5.848222858787863,23.61979124381734
3595.8367,5.850314014391925,22.83050633242243
3596.6638,5.8520591643426565,18.084246443704828
3597.4934,5.855642997568991,23.031557122576196
3598.3208,5.86597301977487,33.69817321518662
3599.1506,5.885961406141075,17.940576844068797
3599.9788,5.912173462863982,24.06628554971966
3600.8088,5.934887856089742,20.811978373805964
3601.6372,5.9422402659292075,17.37278492681628
3602.4678,5.927562645972199,16.019110604188896
3603.2964,5.894136522841868,27.136050607887356
3604.1252,5.853744234672928,21.711236511276066
3604.9565,5.820241321678639,17.74817284529196
3605.786,5.802745027678125,25.294497681944993
3606.6172,5.801412059641395,26.626850807844992
3607.447,5.809193734309697,18.72954299839351
3608.2788,5.817094477593874,17.4333067908262
3609.109,5.819936939529827,18.100278201328294
3609.9392,5.818439577059892,22.985280561321453
3610.7717,5.816262781685169,17.891231895416723
3611.6023,5.815811136073665,29.60586696432271
3612.435,5.816574002089878,20.00890435086048
3613.266,5.816581455165448,22.24547670046001
3614.0994,5.814415070387481,19.571542212397
3614.9307,5.809757932129775,27.122897750788415
3615.7625,5.802542741159334,24.225416251092135
3616.5962,5.792276032234639,22.471412216472956
3617.4282,5.778761070224134,19.553787984116983
3618.2625,5.763407084956058,26.415865298967695
3619.0947,5.749810460592343,22.708699853936263
3619.9292,5.741349649334391,26.12979586466418
3620.762,5.738347171554685,22.86420577662433
3621.595,5.737051805430222,19.31022209648976
3622.4302,5.731951967481038,24.114431665130734
3623.2634,5.71880219097131,21.612988541003173
3624.0989,5.696026620114862,24.69847995402404
3624.9326,5.665405633554078,25.3415380751632
3625.7686,5.632106339224966,21.318118635825318
3626.6028,5.605027837445685,20.346012381299637
3627.437,5.593947929245495,20.80854493715392
3628.2734,5.60557978034786,22.50200880516895
3629.1082,5.639478059691125,23.863219030982012
3629.945,5.687490949132038,25.931329142924646
3630.78,5.736118921408281,25.443310106445214
3631.6174,5.772659967595884,18.70041054996727
3632.453,5.789712509624788,19.52217967615503
3633.2883,5.788779813208625,24.94533717408861
3634.1262,5.778287786159909,23.298426546717334
3634.9622,5.768292651437387,28.92522296986428
3635.8005,5.764334137925225,31.798968460322236
3636.637,5.76587226394739,24.030729654635074
3637.4756,5.769774924812481,20.25195746590195
3638.3123,5.774862532703581,22.417924700184745
3639.1492,5.782539434786419,18.600208636674246
3639.9885,5.793648252511657,22.99372793417924
3640.826,5.806031745829994,17.612483191444905
3641.6653,5.816050976535075,20.31741224724007
3642.5032,5.8214326334725115,24.877859291158522
3643.343,5.822843800599949,25.26747827239845
3644.1812,5.822854556739383,23.4648373755807
3645.0195,5.824176324637778,22.40056536447686
3645.86,5.828276992991945,22.51084539473955
3646.699,5.834651216432134,25.115270987194418
3647.5398,5.841061137808523,25.12233743699229
3648.379,5.84455600983023,24.159373174305774
3649.2202,5.8429604883173045,21.831734261314434
3650.0596,5.835626793593989,20.558420192566807
3650.8994,5.823503603892966,22.72819929416078
3651.7412,5.80904104508881,25.70769040726522
3652.5813,5.7960981652762955,18.903215159110136
3653.4236,5.788694984680279,22.02248116543431
3654.2642,5.789223841888989,33.277085756901236
3655.1067,5.796819707106671,17.075271310614433
3655.9475,5.807988211723255,23.6638450025153
3656.7886,5.818949700205069,22.111922914550725
3657.6318,5.826937771968867,21.14979069030122
3658.4734,5.8293497493445585,20.789767866406887
3659.317,5.822851134390259,25.835801086242796
3660.1587,5.804564199223226,24.72889191646827
3661.003,5.774575884197105,16.895065413598285
3661.845,5.737332169086309,22.862095195374508
3662.6875,5.699041022798934,18.38928800214596
3663.532,5.665057352573312,21.954807770180164
3664.3748,5.639186860588831,21.069930468368778
3665.2197,5.624170005240958,22.48875732269149
3666.063,5.622058773524564,25.887905295512326
3666.9084,5.631942911659554,23.193679009329202
3667.752,5.648692702184267,25.681966042664907
3668.5977,5.665079588017174,24.45968295896755
3669.4417,5.675473979881923,19.20911948781179
3670.286,5.678331769537566,23.65128403885693
3671.132,5.6749105534166535,22.715019265704587
3671.9768,5.666734693469414,23.12918667439449
3672.8235,5.6541256682081285,22.641540937901382
3673.6685,5.637272215762335,17.500564745127573
3674.5156,5.61823801986271,21.48832165932365
3675.3608,5.602385838931097,19.311272433009865
3676.2063,5.596116996002337,27.52998388162607
3677.0542,5.602774735902441,18.709228967419627
3677.9,5.6193842616418115,24.745769911274614
3678.748,5.638163627548184,24.69869013029523
3679.5945,5.651108965334028,27.50394237061286
3680.4429,5.654342219253522,20.0635400921843
3681.2896,5.648255076526533,24.739965671288093
3682.1365,5.6354864606189,24.851164773466575
3682.9856,5.619343473118555,23.84465971641478
3683.8328,5.603856788381835,19.976205137498162
3684.6824,5.59286241546079,27.51461158211578
3685.53,5.588165221150684,22.538177476356992
3686.38,5.587802481573919,25.53106206350842
3687.2278,5.587571736358644,23.90501448231089
3688.0762,5.584313062824175,20.207832442406975
3688.9265,5.577674178772024,33.18940231665338
3689.7751,5.569046501517978,25.203416099561622
3690.626,5.559582709643481,29.62637669509787
3691.475,5.549952943793406,19.521265683972015
3692.3264,5.540634020694379,27.052038095961105
3693.1758,5.531916506123123,22.394977560577228
3694.0254,5.52358640315244,19.319018957851142
3694.8772,5.516113438517687,19.721295630829648
3695.7273,5.511925729067645,23.79111474663929
3696.5793,5.514281643208454,21.448561313722127
3697.43,5.524250883060218,25.466454568598877
3698.2825,5.538835196518739,19.4869369589591
3699.1333,5.552315652892276,19.659720298672177
3699.9841,5.560006450989261,27.02002382636843
3700.8374,5.560442518751267,26.234370986731346
3701.6887,5.554863478579354,25.654528056838146
3702.5425,5.545114851459948,20.117651074521802
3703.3943,5.5324928600686984,23.231448812100787
3704.2483,5.51786055590908,25.08679427031338
3705.1003,5.502561703629726,23.35228308751121
3705.9526,5.488109529811992,19.769896037290348
3706.8074,5.475640083599323,24.59064621757042
3707.66,5.465596355122362,21.407033859764084
3708.515,5.457708819330585,26.982080691760938
3709.3682,5.451536408219328,26.730603642927697
3710.2234,5.446258114875917,29.39369890415037
3711.0771,5.440706742407707,29.4148146558963
3711.9307,5.4338445236296815,27.700679986948394
3712.7866,5.425746512326581,23.150211101271214
3713.6409,5.417860674275705,21.713712815500067
3714.4973,5.411621318513246,19.71970014025546
3715.3518,5.407064147850897,25.208664216821088
3716.2085,5.402727078966791,26.77012800782805
3717.0635,5.397534350753009,23.39854866050646
3717.9185,5.3926173602359615,26.319854482866244
3718.776,5.3915199011658865,25.268110039543448
3719.6313,5.398128863398883,27.261879850233836
3720.489,5.413516917446651,28.29807256641314
3721.345,5.43388830197381,24.690218750925446
3722.2031,5.452138419864706,25.177838150641765
3723.0593,5.461710221110796,21.864263741122503
3723.9158,5.4606831488287595,26.658490304004935
3724.7747,5.4518482363043415,25.722119945885
3725.6316,5.440024443479483,27.298882822975273
3726.4905,5.428946504330734,19.360555928757712
3727.348,5.420422525815278,20.98542271224461
3728.2073,5.414368059847457,29.395961720662527
3729.065,5.409361071049137,22.637507526748973
3729.9229,5.403567914791234,24.63616162541655
3730.783,5.396462408774136,22.29878045366462
3731.6414,5.389707174207997,33.5965041605467
3732.5017,5.385875093269517,23.20766804847887
3733.3604,5.38640541657529,27.832810547331817
3734.2214,5.3904250438312875,22.48202726412111
3735.0803,5.395286870963394,27.36949727517132
3735.9417,5.398144581413661,23.027762634167843
3736.8013,5.3974284997139135,21.624141590121603
3737.661,5.393713625254049,27.98632635578541
3738.5227,5.389025774685835,29.749145145878046
3739.3828,5.384961452026327,24.13749018527806
3740.245,5.381081828677967,23.879842456189788
3741.1055,5.375543130068514,31.84322401986411
3741.9683,5.367029764503893,24.466515267316375
3742.829,5.356143879675211,25.617243864905998
3743.69,5.3447340499988085,22.503422396939737
3744.5532,5.3345357363435815,19.97937433707144
3745.4148,5.326107783951022,30.03015855016286
3746.2786,5.318108949208529,25.756346360162183
3747.1404,5.307819136798586,23.558493955390258
3748.0044,5.292499912709204,28.232624311397323
3748.8667,5.2717367734077785,22.59627954116299
3749.729,5.248481035999123,28.48718229156338
3750.5938,5.228490668795361,25.858302279824592
3751.4565,5.2180848973747525,25.778243341869707
3752.3215,5.220599744577318,28.178186865074156
3753.1848,5.2342784013670896,24.534415559177802
3754.0503,5.252641824970494,24.59639388497426
3754.9138,5.267435736572015,20.955430640942293
3755.7776,5.272861263086725,25.384468873122934
3756.6438,5.267728691941197,22.284770079678868
3757.508,5.255367227349058,24.2573594422003
3758.3745,5.241403971317226,25.04351171941562
3759.239,5.231384704761048,26.295968021128935
3760.106,5.228724665036017,25.911615362298996
3760.971,5.234149828622083,29.089444333940204
3761.8362,5.245794879522604,27.9411361397971
3762.7036,5.259887051266095,23.078367175921905
3763.5693,5.27127793654092,24.184010300313258
3764.437,5.274592449927562,33.101189431751344
3765.3032,5.265683284056412,26.33878663796157
3766.1714,5.243633000783619,28.45911587618698
3767.0378,5.212007465739758,28.970028615526687
3767.9043,5.177593503090188,24.520452662800743
3768.7732,5.147670030735107,31.975211792752486
3769.6401,5.127332383375143,27.76901406588864
3770.5095,5.117720311829991,28.261590149914543
3771.377,5.117288491932525,20.062355650084157
3772.2466,5.123381300623259,33.09158763658801
3773.1145,5.133528443376991,26.203883057410625
3773.9824,5.146073746800166,27.33506022295562
3774.8528,5.160575907326694,33.431976391801605
3775.721,5.177338307355965,27.493771193774474
3776.5918,5.1960097720643015,24.564352335978853
3777.4604,5.213520183655823,25.245599264445197
3778.3315,5.225282459975636,30.099118457524614
3779.201,5.228388146681762,25.245774043444094
3780.0703,5.224896548941519,29.28822643247515
3780.942,5.22096527955997,23.787585829914963
3781.8118,5.222527665065847,31.37547445777828
3782.6838,5.230650457768271,29.459411500465496
3783.554,5.240460984851735,27.577373179447342
3784.4265,5.244659306625086,27.90576595927506
3785.297,5.238589862844337,30.230394864673833
3786.168,5.223343816017304,25.400789817742805
3787.041,5.204409474825209,28.826579682722688
3787.912,5.1877868658102555,23.534712635214067
3788.7856,5.176128249939724,25.794224207372693
3789.6572,5.168345692750141,26.15249905409361
3790.531,5.161020223228808,32.61286589992023
3791.403,5.1505965669079705,25.25296057257815
3792.2754,5.13448946176069,30.453244454305374
3793.15,5.111722490954791,26.15796315250743
3794.0225,5.083294265088685,26.725630887340287
3794.8972,5.050972310101357,33.509941029494016
3795.7703,5.016323102101115,27.447831417159442
3796.6455,4.979691424543038,29.363717183636645
3797.519,4.942588752434582,33.25338337438431
3798.3926,4.909529565252409,26.07593980813166
3799.2686,4.888100859404783,30.436625196962908
3800.1426,4.885297799091427,28.299729168926103
3801.0188,4.902516303118649,27.64481445737816
3801.8933,4.934024356404296,28.80304716094552
3802.77,4.970193578010084,29.358301998754744
3803.6448,5.00234059457361,34.425233115046936
3804.522,5.0271400077358575,25.648439964666196
3805.3972,5.046104404293214,27.128585748707962
3806.2727,5.0631160889147,29.48274243734324
3807.1504,5.080683478036715,35.64658422396677
3808.0261,5.09792855945165,26.562140829350916
3808.9043,5.111490003867896,25.980315068521204
3809.7805,5.1178181852429,28.809534659995457
3810.659,5.116107678688758,26.08916688842737
3811.5356,5.10905233337589,32.54327782030921
3812.4126,5.101571753289236,26.960332211698102
3813.2917,5.098638796189576,27.158981193406035
3814.169,5.1034313243405585,32.13543866251462
3815.0483,5.116066192323327,27.90896673853206
3815.926,5.133058552644042,27.319731433570535
3816.806,5.148485824969993,29.55002237500392
3817.684,5.156252650630046,24.63747349410007
3818.5623,5.153067366637552,23.29041412400224
3819.4429,5.139456796543531,24.207650310500263
3820.3215,5.1190170452326855,26.13784521977085
3821.2024,5.095896360344498,28.711236961866927
3822.0815,5.073111818277677,32.24217372196697
3822.963,5.051395610774646,24.762716535877427
3823.8423,5.029839008602723,32.71749536722495
3824.722,5.0060440739613545,27.77556203177561
3825.604,4.977024168052798,28.136126241902144
3826.4841,4.940871833911921,26.30805558256316
3827.3665,4.897705607015628,33.46413543884138
3828.2468,4.850506017751867,31.731233711769814
3829.1296,4.802707342232012,29.792295857807428
3830.0105,4.756755934350205,29.55431418586725
3830.8916,4.711714006839254,33.634821551709514
3831.7751,4.663859050156694,33.55474372889226
3832.6565,4.609551366434903,38.95326195046623
3833.5403,4.54837176579034,34.1345103011545
3834.4224,4.487357279781706,34.41966756409736
3835.3064,4.438945590468767,41.06605896512052
3836.1887,4.415964386368055,33.82172494651178
3837.0713,4.423714002424526,38.86295659618708
3837.956,4.457829654918753,27.78445125946014
3838.839,4.5077804949336056,36.84182030499067
3839.7244,4.564405332041915,38.42557265428844
3840.6077,4.623044822532928,41.84166499379346
3841.4932,4.683208326336682,32.179618315377105
3842.377,4.743752363386074,32.66243332993193
3843.261,4.801909002130298,38.46772326125563
3844.1472,4.854076662199515,32.927594180609745
3845.0315,4.897612491395282,28.139645844549484
3845.9182,4.932114693605581,29.315451438602206
3846.803,4.957457287200287,29.512455546119988
3847.69,4.973799962974225,28.041048189861467
3848.5752,4.981964986901291,36.197236746312655
3849.4604,4.984987805723327,29.60944857681045
3850.3481,4.987829339941808,36.91987272549016
3851.234,4.99548230375724,34.355838202485856
3852.122,5.010646493192422,27.000691295190347
3853.0083,5.032443877202221,26.956388783029755
3853.8967,5.057569196967883,33.15045945925205
3854.7832,5.081814747410065,29.110829356678984
3855.6702,5.1020096857138375,28.20071364986425
3856.559,5.116479177133536,30.382416139984514
3857.4463,5.1251801776606545,23.902143061287504
3858.336,5.129646867905083,27.251845772928778
3859.2234,5.131985083691123,23.34941116572165
3860.1135,5.133505381978778,30.38854561057893
3861.0015,5.133416427216902,25.58456506077756
3861.8896,5.129262433162726,28.07713488202135
3862.7803,5.119293676788913,25.7925289418149
3863.6687,5.1052052323586565,24.7439343408249
3864.5598,5.091919660482335,30.764887430192772
3865.4487,5.084506012993709,27.5929265331065
3866.34,5.0841001377203785,24.855710870838205
3867.2297,5.087154685448624,32.716633340317195
3868.1213,5.087846539918093,21.95038267933392
3869.0112,5.081308507019453,36.16383242487869
3869.9014,5.065366544350967,28.576387422251777
3870.7937,5.040701703288948,28.685332616903167
3871.684,5.010689286443727,31.843986837609425
3872.577,4.979767367063351,32.23995492019601
3873.4678,4.951744027721671,32.399972782246635
3874.361,4.927128571698594,26.399050151580965
3875.2524,4.903376740082748,29.709885330627095
3876.1438,4.875982095387379,32.9706971076084
3877.0376,4.840449250705307,29.190946175484537
3877.9297,4.79392514279734,31.761909664742557
3878.8237,4.735635143009484,31.483564361691013
3879.716,4.668293142017551,33.26957043083456
3880.6108,4.596406065735041,30.0790039910488
3881.5037,4.525058689590262,30.24353412833084
3882.3965,4.455845831029846,36.28883935150311
3883.2917,4.385877263707813,39.0736647021638
3884.185,4.309464789270765,33.31469033776745
3885.0808,4.22020392968882,49.946470253301015
3885.9746,4.116392580943208,37.4822835370936
3886.8706,4.001678137805937,44.79467193014075
3887.765,3.8870802360173258,51.63145594573767
3888.6592,3.78765005856191,59.31997307147465
3889.556,3.720065813532805,54.7672181530512
3890.4507,3.69810324879015,66.06641807489133
3891.348,3.72614095889686,54.188772910018
3892.243,3.796949606867447,53.11804284932037
3893.1406,3.895318341255663,50.602911135794486
3894.0361,4.003438877486824,45.776442253176604
3894.932,4.108214838517776,40.70517746088464
3895.83,4.202296572136884,39.30313814443106
3896.7263,4.28279449871677,47.15273186340024
3897.625,4.35158936505855,43.85489671701407
3898.5215,4.412186588400339,34.20911343518287
3899.4207,4.469195577833107,35.681685838829424
3900.3176,4.525296891555674,36.131178871604035
3901.2148,4.581712614580168,44.069450728142165
3902.1145,4.637918563578891,31.003423533423632
3903.0122,4.691778248176458,34.95914722001932
3903.912,4.741282326670166,32.65070929135104
3904.8103,4.784676201873324,32.73143202814249
3905.7107,4.822109538852772,30.933361803886044
3906.6094,4.854566010450947,28.63906042470454
3907.508,4.883323140891714,37.55277599230525
3908.409,4.909167908674066,25.37655255176282
3909.308,4.933049543111749,30.830547469589852
3910.2097,4.957334840684312,29.0814212719383
3911.1091,4.984466594079287,34.04912504749252
3912.011,5.015322626193546,28.752209448179865
3912.9111,5.047724604909628,28.344468197707613
3913.8113,5.078553490429207,26.41077657545935
3914.7136,5.106045418977328,27.069543741328445
3915.6143,5.130230204778811,28.663640964283292
3916.517,5.151859912569281,27.011893736782593
3917.4182,5.170689360704192,29.880039890066968
3918.3215,5.186345504205799,29.869462223164668
3919.223,5.199209531778579,30.962167459826325
3920.1245,5.210738817275039,27.383035712222622
3921.0286,5.222189726545143,26.32289881992358
3921.9307,5.233601260282386,28.861786878139156
3922.835,5.244131062169797,24.307906261580513
3923.7373,5.252646298642942,24.558259395335977
3924.642,5.258376250955748,26.557384142595723
3925.5452,5.26049644011144,29.04482857452062
3926.448,5.257852820423113,27.0213491092395
3927.3535,5.249362275432142,27.45898083850073
3928.257,5.2355699426140285,26.666393569403603
3929.1628,5.219355304108293,25.57547072436396
3930.0667,5.204674972585118,22.784417921301426
3930.9731,5.192891917335591,29.34684623728412
3931.8774,5.180888238314447,23.645215202158344
3932.782,5.162936886133664,24.686180353067428
3933.6887,5.1360958038663656,23.39282881270225
3934.5938,5.104017190060737,25.99127268597319
3935.501,5.074543943693674,26.98100196674085
3936.4062,5.054556464156943,26.403747938144978
3937.3142,5.045738834781275,28.929103735843647
3938.22,5.04570113443631,26.35732926526144
3939.128,5.050699439132684,28.359286998927608
