wavl,flux,ivar
3566.9744,2.0902054783803328,31.285388437986633
3567.795,2.067152822628397,34.8042663735277
3568.6177,2.048204052543651,23.618809416879476
3569.4385,2.0363231099102457,21.44867495736612
3570.2617,2.03086903055938,29.68516188671587
3571.083,2.0309945841205352,40.771126254082944
3571.9065,2.0368125889466002,32.77680367637314
3572.7283,2.047872336028754,27.75567353677766
3573.55,2.0615381942734308,21.86334709586095
3574.374,2.073867682078119,19.597757365994095
3575.1963,2.082505069467637,38.81624919254723
3576.0208,2.0889058338281545,17.899051716852043
3576.8435,2.0967035786695396,71.20929167808336
3577.6682,2.1078341178577507,71.19703447107212
3578.4915,2.119611420253475,19.867732985407358
3579.3145,2.1265229323256207,51.66343047621287
3580.14,2.1252602298406478,33.62541720046467
3580.9636,2.118540925809716,31.461610286529645
3581.7893,2.1132659004331784,28.746733780491645
3582.6133,2.1141311891089227,17.568611432256375
3583.4395,2.1187733146258836,16.14289014311455
3584.264,2.119751435577711,25.78044395108643
3585.0884,2.111632467265632,20.924393761870075
3585.915,2.0959437775382384,48.99502827656597
3586.74,2.0797117836537136,48.93231933612617
3587.5671,2.068925873221692,29.38245754323457
3588.3923,2.064092983160013,27.86072760118811
3589.22,2.0610291292383796,16.639407710763933
3590.0457,2.0561785942158197,72.7956135469471
3590.8716,2.0507231964536654,30.445879851892588
3591.6995,2.049899206020985,34.28832013814785
3592.526,2.0582047919516446,21.06231317379866
3593.3542,2.07525344168898,18.87190441906112
3594.181,2.0960328734110174,22.38983750054328
3595.0098,2.1153446042729795,35.15083546148853
3595.8367,2.1308865145267255,30.710341906870156
3596.6638,2.1432733689336985,12.998401823841515
3597.4934,2.153419876769236,18.465520223360947
3598.3208,2.1612541986746336,14.134606510046412
3599.1506,2.1665724165637483,27.2019616435366
3599.9788,2.1696725062068327,38.45875330038197
3600.8088,2.171263512128507,19.348426004173312
3601.6372,2.1716734015458514,16.88062372598337
3602.4678,2.170331101877068,13.7768079437753
3603.2964,2.1657190003401317,56.358760601677986
3604.1252,2.15608950666182,24.18863072660388
3604.9565,2.1406455044631993,43.652089689880725
3605.786,2.120372491404208,41.2239752853517
3606.6172,2.097375074123615,28.41665503567091
3607.447,2.074681871937209,16.447400605642514
3608.2788,2.055593901552049,19.999623441382244
3609.109,2.042997449044448,37.36779880183421
3609.9392,2.0371255189055524,41.28272672843101
3610.7717,2.0350652804473537,17.6318997428613
3611.6023,2.032894927477158,47.741484608453476
3612.435,2.0288048624989856,16.50503619695514
3613.266,2.024070414944112,32.99123604397636
3614.0994,2.021325678569456,17.595764951002327
3614.9307,2.022670708467781,40.26072032313444
3615.7625,2.0287759771440275,37.42995434036725
3616.5962,2.038718424307,18.677518430246835
3617.4282,2.0498516394560884,28.801290138337233
3618.2625,2.0585707701166265,40.38766607339052
3619.0947,2.061504715068972,32.88603202355631
3619.9292,2.057089234934881,34.55773272861137
3620.762,2.0464065848677104,31.632597954500117
3621.595,2.033204427270004,32.79564312969492
3622.4302,2.0226109838924655,52.16137911509701
3623.2634,2.018482032420849,35.334838160750536
3624.0989,2.020801172229532,27.71773944598769
3624.9326,2.0261597147636046,17.755054192386932
3625.7686,2.030825602225718,23.519530842210607
3626.6028,2.032978944659137,39.14615619302323
3627.437,2.0320837723987175,31.516256587852567
3628.2734,2.027226405241507,30.411060577590888
3629.1082,2.0180982148926114,28.565240700851273
3629.945,2.0080217480086016,26.697075308782296
3630.78,2.0051221676016016,51.21160257760698
3631.6174,2.0178512569644864,69.31374819152292
3632.453,2.047568208297352,105.17675076633232
3633.2883,2.0854320036628544,19.66921777518877
3634.1262,2.1177504863125036,24.699864478513884
3634.9622,2.1355158649634194,21.816749333251416
3635.8005,2.140467552804489,69.66621164746253
3636.637,2.141488788462519,45.91097263192289
3637.4756,2.1466156239111505,43.963935438739384
3638.3123,2.1565305675392987,42.37254030303042
3639.1492,2.1641887485112754,13.385745452495097
3639.9885,2.1603206594923456,29.636406944916907
3640.826,2.1413979982367106,47.21637136157212
3641.6653,2.1133645125272134,35.126237356916576
3642.5032,2.087612189144618,31.399647731087658
3643.343,2.0716271800460277,32.082725734279464
3644.1812,2.064198821806844,31.13853464464369
3645.0195,2.0584828614959876,45.9006653276566
3645.86,2.0495775578521527,38.03382773535523
3646.699,2.038330698185364,47.84071453540238
3647.5398,2.028874262394935,31.623000543599595
3648.379,2.0246435994566045,47.50193276751046
3649.2202,2.0268273079627828,59.94559080892504
3650.0596,2.0353895768054877,29.6856148737618
3650.8994,2.049297621192658,47.90194276904716
3651.7412,2.065136094582562,32.840458624550834
3652.5813,2.0767105299754047,52.050916803162494
3653.4236,2.0785620901607573,24.038585601376653
3654.2642,2.0707239038958254,15.797403669982081
3655.1067,2.0601836138032588,39.448588363365936
3655.9475,2.056400677150863,28.423484788097017
3656.7886,2.0643414009005223,57.60068165374132
3657.6318,2.081727276564754,15.211480600071365
3658.4734,2.101931533028651,41.36378678630198
3659.317,2.1194799582073385,20.651189365125884
3660.1587,2.131954600395593,41.16958851068849
3661.003,2.138725240345145,25.713123486575483
3661.845,2.1388357213190625,21.643189606358465
3662.6875,2.13151592771421,54.221534838841684
3663.532,2.1176278666148627,21.12254500784039
3664.3748,2.100120799275035,27.040189991362368
3665.2197,2.0821539848307555,25.250826017060298
3666.063,2.0654371339231714,42.30340076815578
3666.9084,2.0495796091584806,13.49414934996736
3667.752,2.0339679547368106,31.641768643313064
3668.5977,2.0193491251864035,44.97194915961618
3669.4417,2.0085244293705435,20.292722569101066
3670.286,2.00484339282969,31.9171164061551
3671.132,2.0108603618384358,46.95139464213425
3671.9768,2.0273308823300344,31.87511116958299
3672.8235,2.0525727863012277,61.27998878116423
3673.6685,2.081616593426378,21.752585956270224
3674.5156,2.107838826792783,38.117662987074894
3675.3608,2.1262837270249832,32.266767237482945
3676.2063,2.137503880468473,30.316838341614684
3677.0542,2.146329000213672,24.402554147405255
3677.9,2.1569169368211276,25.141616693147604
3678.748,2.1690172084811534,18.238658571402254
3679.5945,2.1786215448330926,30.830234418448764
3680.4429,2.1821043963127136,49.228382731670294
3681.2896,2.1787268750328046,76.45520554990925
3682.1365,2.170136327314889,52.47659892640193
3682.9856,2.1580400049203647,32.28433800542531
3683.8328,2.1428061058227237,50.50019199480978
3684.6824,2.1235661965051116,20.34075229179528
3685.53,2.1002676237618583,134.9310848498501
3686.38,2.074861274628967,35.39248751374843
3687.2278,2.0517865779651676,42.757279807105704
3688.0762,2.035917470861855,78.1202369608765
3688.9265,2.030525660011281,18.58378636497446
3689.7751,2.0354029085855116,21.063500424834647
3690.626,2.046482964232697,32.32748991472964
3691.475,2.0573374742258617,43.64244141164712
3692.3264,2.062232330948518,26.980777219013934
3693.1758,2.0587098201826177,125.42494437091415
3694.0254,2.048503336363605,30.923843494641154
3694.8772,2.035968361000312,39.57490608929526
3695.7273,2.025699117147468,23.894207871132124
3696.5793,2.0204053797458195,18.401686237173642
3697.43,2.020432743091282,56.361989759169504
3698.2825,2.0240708615428553,22.890246484920503
3699.1333,2.0287359453941365,51.24603066797132
3699.9841,2.0327427461838576,23.50230698057829
3700.8374,2.0368776955398595,46.24624501389032
3701.6887,2.0451741489588167,64.28571038041599
3702.5425,2.0651665394458862,21.197123825614135
3703.3943,2.1062643551790567,31.111113825108145
3704.2483,2.174678276418926,36.92351503130418
3705.1003,2.2628224740467604,19.970094046677524
3705.9526,2.344862561389492,24.904604091705945
3706.8074,2.38574408716782,28.536371379825617
3707.66,2.36362320272109,27.898799984243624
3708.515,2.2867959425897864,41.066675191124816
3709.3682,2.1879168229384853,35.46283380618829
3710.2234,2.100559482409344,21.737842358547802
3711.0771,2.042659819226466,50.16049289863555
3711.9307,2.013350743092501,48.261872501062
3712.7866,2.0022843850668286,46.790890197937074
3713.6409,1.9986372571822697,33.958959573947766
3714.4973,1.9958627741898805,33.933469558155345
3715.3518,1.9925779551566318,33.31978511350466
3716.2085,1.9902997686358732,23.532767255742478
3717.0635,1.9905220110010915,31.196614531179005
3717.9185,1.9932583897468004,54.417952241563384
3718.776,1.9976620313701166,34.25204749783713
3719.6313,2.0029566602969275,38.03120425781966
3720.489,2.0087798765616136,30.10082623244641
3721.345,2.0151908646810166,19.036187745448075
3722.2031,2.0233115149600143,44.0695192792032
3723.0593,2.0352330109593804,19.224306920277716
3723.9158,2.0526503958978157,25.85759781734938
3724.7747,2.0747842831729075,40.27201183014817
3725.6316,2.0977994462119143,27.019560843248186
3726.4905,2.117280428238859,18.623312363019615
3727.348,2.130319391364796,52.7062299575044
3728.2073,2.1362970875187197,27.111056501557144
3729.065,2.1355247332847003,19.472965347592176
3729.9229,2.1285843284429116,34.37391709967857
3730.783,2.1164459679639025,30.238975854668162
3731.6414,2.1007074844443467,42.777361031706825
3732.5017,2.0829379798079426,22.2483385440828
3733.3604,2.0648332924418358,23.218383459096863
3734.2214,2.0484757829422295,26.590071555790836
3735.0803,2.0367808620092323,32.37990715500701
3735.9417,2.0320097193850577,27.819326191191642
3736.8013,2.0342762988065033,41.24218913602487
3737.661,2.040840296407525,28.325254729377466
3738.5227,2.0474797696729725,22.936476497977583
3739.3828,2.0505106770511476,43.00237227360425
3740.245,2.0481738066235096,21.26847454202377
3741.1055,2.040666773405459,26.242420359630074
3741.9683,2.029718635138044,31.6556143388323
3742.829,2.0182776290758566,21.535615048914764
3743.69,2.0093287279469796,26.1926747462798
3744.5532,2.0044519244154877,37.38741696458382
3745.4148,2.0029324569769775,24.266240638679694
3746.2786,2.002320805544613,36.899122078241795
3747.1404,2.0002875094478414,22.74728747520224
3748.0044,1.9963340992851952,45.50623077515782
3748.8667,1.9923606121628659,71.98585383055163
3749.729,1.9912726847701494,48.736821978243896
3750.5938,1.9944209602515222,53.91394976060035
3751.4565,1.9999004558824245,36.813315757845714
3752.3215,2.0040382993984616,29.048605713958082
3753.1848,2.0049714275446364,50.414713722724
3754.0503,2.0048337754193994,49.23473788384752
3754.9138,2.007901688577312,19.719674783864615
3755.7776,2.016630119165873,46.45120768807396
3756.6438,2.02943743189109,44.629417958111375
3757.508,2.041756396830616,26.6406326276319
3758.3745,2.049469120380048,31.36591130889862
3759.239,2.0512445272780626,31.788357777355092
3760.106,2.048885710525517,34.34371874798429
3760.971,2.045537228758099,34.155348454801214
3761.8362,2.0438352680574816,29.753157908250948
3762.7036,2.045551705519754,45.532088856618785
3763.5693,2.0519452446821367,28.08142634388001
3764.437,2.06289235531706,42.60623336188394
3765.3032,2.0746806111368765,26.264235237687195
3766.1714,2.0801439096633425,17.550502076802378
3767.0378,2.0727121122178795,31.46236420225513
3767.9043,2.0517622664005453,22.369193809451424
3768.7732,2.0235716498418372,49.833801946323106
3769.6401,1.997623997289829,42.151735515153064
3770.5095,1.9808869411589045,46.5781330218197
3771.377,1.9758559387354524,56.69004267060874
3772.2466,1.9810365605340106,22.648225515966153
3773.1145,1.9929187758188884,32.477360032103626
3773.9824,2.007382879271093,48.93574245246031
3774.8528,2.02073072130674,22.26686906494869
3775.721,2.030786377535515,17.722253783539582
3776.5918,2.038302413925387,44.757549849111186
3777.4604,2.0464916892374867,23.941642712934385
3778.3315,2.058796266252654,20.39330171080572
3779.201,2.075507164479857,24.821326405088975
3780.0703,2.0930221239574616,37.804562053459904
3780.942,2.1063674878432024,17.191677684538416
3781.8118,2.1127513279091037,22.945959900349234
3782.6838,2.1127884761687628,42.235910753908136
3783.554,2.1082847416348804,39.7949897327196
3784.4265,2.1001467830190634,17.73853440636148
3785.297,2.088790119826932,23.869030463826174
3786.168,2.0754382073924043,30.849243417257732
3787.041,2.062171417922881,28.502996372686198
3787.912,2.050746885499852,25.89594150888487
3788.7856,2.0417826537435912,20.694850665584656
3789.6572,2.0354287462107092,37.49124563626061
3790.531,2.03115549666505,32.707179765784026
3791.403,2.0269027932828583,29.071296736987502
3792.2754,2.0188532951573954,27.49187732821174
3793.15,2.0035458992949295,33.20987618015596
3794.0225,1.9811063648728142,21.357108621807175
3794.8972,1.9560950249665712,26.24046371730509
3795.7703,1.9357688437202565,36.77186616585907
3796.6455,1.9259193951111344,48.238707974765155
3797.519,1.9283068683366476,19.57647756527672
3798.3926,1.9399309129481277,44.930146187307585
3799.2686,1.95487583362081,33.91172661202176
3800.1426,1.967013738053144,20.931906057848025
3801.0188,1.972958627062212,44.15097637186171
3801.8933,1.972971496555171,38.4038476746936
3802.77,1.970089560786763,58.33526900997384
3803.6448,1.9679581989536632,14.398901759127327
3804.522,1.969047402865582,32.167259235876074
3805.3972,1.9741071706636868,20.490659672766963
3806.2727,1.9825449494920617,37.28743774863252
3807.1504,1.9929918037431924,46.75596557875499
3808.0261,2.0034724433040747,20.772065658743486
3808.9043,2.0117390066379115,39.08073181348746
3809.7805,2.0156255301848915,24.92034507426375
3810.659,2.0142476411171253,27.663587576096745
3811.5356,2.0087681334048946,37.60462183352552
3812.4126,2.0020342384148164,44.4215012928942
3813.2917,1.9972407420218268,26.813278130147886
3814.169,1.9970836220117496,38.14384179784496
3815.0483,2.0037020156185883,58.45729162420319
3815.926,2.018231927715806,35.353462930045744
3816.806,2.039397989091352,28.711279955805672
3817.684,2.062311258244902,48.42693054903613
3818.5623,2.08038877007672,19.763738963158794
3819.4429,2.088710049041732,26.15914458507838
3820.3215,2.0863521008010495,30.06963211792108
3821.2024,2.07561027148308,44.67916005959609
3822.0815,2.059131470667666,37.36579665694167
3822.963,2.0381716126838474,35.014550274026966
3823.8423,2.014057077263452,35.058017420650835
3824.722,1.9897946508531739,37.31007909712814
3825.604,1.9700640757675243,35.089144979694545
3826.4841,1.9587943099143748,39.50277295060525
3827.3665,1.9561781743336166,25.25648936794493
3828.2468,1.9583069164487183,33.64873356753907
3829.1296,1.9589858276690053,21.150928962772706
3830.0105,1.9529396126734888,27.234657125369505
3830.8916,1.9383974632477838,28.11739889166603
3831.7751,1.9173573090769098,26.91539651582117
3832.6565,1.8937400355953045,106.33071865360968
3833.5403,1.8701331109939736,32.034877972327834
3834.4224,1.8469668915328914,26.314676970986422
3835.3064,1.8232544400501367,33.582269796400475
3836.1887,1.799240306415143,22.332953936520894
3837.0713,1.7773172791402922,40.05216740968102
3837.956,1.7617970555287181,21.240815108370885
3838.839,1.7575107175104248,73.21674453725089
3839.7244,1.7676690563453803,23.91932796428959
3840.6077,1.7918434894253688,83.91360879138036
3841.4932,1.825074072631155,57.0774600174676
3842.377,1.8588636468247959,27.002741125178922
3843.261,1.885568907650239,23.633206366869015
3844.1472,1.9023030457539623,34.32278259396311
3845.0315,1.912312468179738,25.334742762882666
3845.9182,1.92285898556352,31.84727058290416
3846.803,1.940501775307546,37.38734399313
3847.69,1.9676754311801832,28.758590801611543
3848.5752,2.001363310943909,24.96324488775432
3849.4604,2.035360349908306,21.20691191915638
3850.3481,2.063527450530925,27.16593522532098
3851.234,2.0823733211583684,38.502319063804244
3852.122,2.0922627244163037,21.595976229528627
3853.0083,2.095658415699527,31.925416400866375
3853.8967,2.0951451232066978,25.25877945563407
3854.7832,2.092049693619241,28.700246427928075
3855.6702,2.0868491486032834,30.927523459193587
3856.559,2.080351295847911,24.43269939461803
3857.4463,2.0742041488351544,32.57364830629524
3858.336,2.070113773208843,35.72699785629222
3859.2234,2.0691171131041872,32.325124502594626
3860.1135,2.071418947737734,28.624495638386392
3861.0015,2.076726579649076,36.60727644041667
3861.8896,2.084409031424128,22.09716898003634
3862.7803,2.0935167418064164,38.46900159026472
3863.6687,2.1028099935394136,31.401304881958456
3864.5598,2.1109072583321185,20.554496017562226
3865.4487,2.1157514948224776,22.20994867712348
3866.34,2.1146668182709867,20.653025355718114
3867.2297,2.105171534042744,27.163653226537335
3868.1213,2.086504369903737,25.72331635161552
3869.0112,2.0606426003080522,30.363925474795323
3869.9014,2.0313531090231334,28.123483201081093
3870.7937,2.002520191380273,49.66337273845661
3871.684,1.9767117631780844,48.06599084691213
3872.577,1.9538647458006182,39.93207257801457
3873.4678,1.931956440522197,33.27909853879287
3874.361,1.9078687374331127,24.893648094119953
3875.2524,1.88011496720008,34.838870013439866
3876.1438,1.8503004621767583,46.32151226953206
3877.0376,1.82279230860587,35.30795858044298
3877.9297,1.8018086691835604,29.268376529074526
3878.8237,1.7877953994748896,30.4171210935182
3879.716,1.7777601151125622,36.11863997087711
3880.6108,1.768078401452312,20.734632065622268
3881.5037,1.7574672362030397,40.099848080292396
3882.3965,1.7467508742464093,77.84061875707415
3883.2917,1.7368792341397015,56.19092412872691
3884.185,1.727353696276316,64.57598485918406
3885.0808,1.715877161859495,55.438890337767425
3885.9746,1.6994341767408134,57.624670716350984
3886.8706,1.6753910720422422,41.17706877973498
3887.765,1.6436200458276007,64.81661419526775
3888.6592,1.607986712381403,52.118566921416296
3889.556,1.5766913727416179,39.7518962008891
3890.4507,1.559651184453561,55.408731718504605
3891.348,1.5628433085603948,47.97009060340579
3892.243,1.5847958231405581,53.26361871451026
3893.1406,1.617643634815756,64.91724479406766
3894.0361,1.651818473134115,54.87755532249738
3894.932,1.6815942507551596,39.85947507135632
3895.83,1.7062246712965436,32.49637649283481
3896.7263,1.727764774975949,37.654230929418524
3897.625,1.7485766862296217,60.51281975067776
3898.5215,1.7693009480451918,66.05873474491872
3899.4207,1.7894694665841209,66.85492007853445
3900.3176,1.808296002596622,54.86801376639083
3901.2148,1.8263105242663584,29.87792773755286
3902.1145,1.845371888159329,41.596638282094375
3903.0122,1.867349008875298,28.06124583369297
3903.912,1.89302197427761,69.53794828410597
3904.8103,1.9214945663801928,49.945676098131095
3905.7107,1.9516180259682916,37.88296117416613
3906.6094,1.982149293312134,28.854088312492124
3907.508,2.011804178738176,36.49818369007564
3908.409,2.038663021046857,22.594172427602725
3909.308,2.06062683635365,47.029781485391766
3910.2097,2.0771445341716532,53.77870697221404
3911.1091,2.0895233033847633,23.142989862786784
3912.011,2.100520231281955,29.294100982818446
3912.9111,2.1122185532937707,28.19934299723202
3913.8113,2.124568256807159,18.053835308713836
3914.7136,2.1352264497415088,33.11964918000818
3915.6143,2.1413110967253437,23.501057030924947
3916.517,2.142058475208016,27.36468444956276
3917.4182,2.1398350843537757,20.622258210153834
3918.3215,2.1388172281858684,21.281253524845223
3919.223,2.1424119703526365,37.24129254515644
3920.1245,2.1518165457903367,35.00846224190356
3921.0286,2.166723812826573,37.30552143626483
3921.9307,2.1864396397530963,25.743223894379536
3922.835,2.2103155993507286,34.28097999049509
3923.7373,2.2364292127667,25.08472292685195
3924.642,2.2614185063309376,25.522028680498753
3925.5452,2.280895692799263,23.43691597621521
3926.448,2.2917049681634523,27.011291195128177
3927.3535,2.293108278938634,28.15303969270126
3928.257,2.2868737475067697,33.86593196609033
3929.1628,2.2761428774181747,31.39753004411874
3930.0667,2.2640126212631166,37.46129040754657
3930.9731,2.252323328957563,38.92160280628674
3931.8774,2.2416460639276568,23.01576129524986
3932.782,2.2314381714743114,16.842152935270782
3933.6887,2.2206409063038643,19.63625488800352
3934.5938,2.2081072956958,25.643657722520377
3935.501,2.1928526313912564,23.212095790853063
