wavl,flux,ivar
3566.9744,16.928113234978273,3.1623429596001884
3567.795,16.863291350986504,2.7402951137014457
3568.6177,16.772461321871372,3.303605304108553
3569.4385,16.677210511174994,2.77930442612956
3570.2617,16.593521710996775,3.1476949181814344
3571.083,16.53226124908001,3.0129838868448813
3571.9065,16.497173972649673,2.8299686693922723
3572.7283,16.485005025299998,3.192305442072322
3573.55,16.484829222097723,3.1732559835731626
3574.374,16.482392393091303,2.7934283423387316
3575.1963,16.467566667836987,3.1533295427012527
3576.0208,16.440222123195863,3.3130817998378146
3576.8435,16.40867613139688,2.822902867091634
3577.6682,16.37974117714077,2.7734136668565657
3578.4915,16.350500942491184,2.7809636587213005
3579.3145,16.308879636919485,3.138451531191098
3580.14,16.24413850709828,2.9819922814823787
3580.9636,16.158765280513478,3.1418567638847503
3581.7893,16.07019874390477,3.4864273886715225
3582.6133,16.004818601367692,3.490599635764997
3583.4395,15.984089682437366,3.4033344249007786
3584.264,16.014946797244285,3.0470977556743972
3585.0884,16.08563588778411,3.199596095372235
3585.915,16.171326288603698,3.0201264876459004
3586.74,16.24392229512613,3.240168524298848
3587.5671,16.284082965913857,3.384980156818238
3588.3923,16.28494862599823,3.021251663230279
3589.22,16.250991687371087,3.106864251785073
3590.0457,16.192964605007116,3.086298172284928
3590.8716,16.122888145925558,3.574897572972458
3591.6995,16.051211157288854,2.9379852551425754
3592.526,15.985529744125403,3.1510561947700695
3593.3542,15.928465155933496,3.1524210142725617
3594.181,15.878179383132727,3.3324622438630067
3595.0098,15.82799445815435,3.282099401404853
3595.8367,15.770669561717487,3.1010995866981155
3596.6638,15.702931957991009,2.985450666065453
3597.4934,15.629106317588889,3.6327205504755637
3598.3208,15.558722986500646,3.3783709616882605
3599.1506,15.497268407430997,3.549759818651367
3599.9788,15.442609274415366,3.199943440750502
3600.8088,15.387300084845853,3.7786853307401533
3601.6372,15.329707578306998,3.640050441343222
3602.4678,15.281029278162496,3.2873868217946063
3603.2964,15.264279782069579,3.6699472264782456
3604.1252,15.300786987660294,3.5552494532086594
3604.9565,15.396266308139353,3.433964180085668
3605.786,15.533915811196241,3.7753558809986805
3606.6172,15.684016902185904,3.3572749477886727
3607.447,15.81565992608219,2.904394008196148
3608.2788,15.908717335209804,2.98240218680198
3609.109,15.953969056507304,3.651477275538692
3609.9392,15.952858854022987,3.3035419191633446
3610.7717,15.914215337078279,3.2791717193366257
3611.6023,15.852074711319426,3.3925426127774783
3612.435,15.780221756225822,3.585031098107077
3613.266,15.70872028354624,3.270038086511271
3614.0994,15.641216690075009,3.302665024980041
3614.9307,15.578323681875407,3.438359540914184
3615.7625,15.519599447218498,3.841475925643155
3616.5962,15.46592038995451,3.1206143776987085
3617.4282,15.419282149107305,4.181420548100375
3618.2625,15.380442954541106,3.151463619926236
3619.0947,15.348643070057587,3.6608311748728037
3619.9292,15.321481538368994,3.2635981175577404
3620.762,15.297527282129531,3.772422999516694
3621.595,15.27669009854991,3.4315938485453734
3622.4302,15.258735972993092,3.3221477539511253
3623.2634,15.241247475982963,3.5109512551472166
3624.0989,15.220248560833566,3.3640837722550274
3624.9326,15.194482679144638,3.9505291301955503
3625.7686,15.167555538498945,3.251352205865523
3626.6028,15.146211288292196,3.6076274228768894
3627.437,15.134374500449779,3.9118688469252603
3628.2734,15.129019007625656,3.4851946209064235
3629.1082,15.120653753136166,3.240480011981103
3629.945,15.099162616880534,3.477838515822532
3630.78,15.061964533655736,3.491324784313302
3631.6174,15.016999064018332,3.1722757626227676
3632.453,14.978276117786075,3.9941219665359524
3633.2883,14.954688852560327,3.4231462921667193
3634.1262,14.943996769873735,3.5842047013321756
3634.9622,14.936051657970275,3.3107814791071277
3635.8005,14.921735109573653,3.384404562263638
3636.637,14.899207583275581,3.635508942063369
3637.4756,14.871817117757901,3.747111052906502
3638.3123,14.84248898187828,3.828614315071616
3639.1492,14.8097531013002,3.7070424268832673
3639.9885,14.770010151731723,3.8294864501637718
3640.826,14.722959845119856,3.97974028161982
3641.6653,14.673465305554801,3.4937799174048645
3642.5032,14.62946067674332,4.520170658275381
3643.343,14.595231432146633,3.853177360621163
3644.1812,14.56879783305316,3.6168835752112165
3645.0195,14.543904921490327,3.9852816598234995
3645.86,14.516032767392646,3.7718753112112453
3646.699,14.486134537413168,3.5436100350264965
3647.5398,14.458757568295615,3.6643035659909473
3648.379,14.437868523049584,3.955782406852243
3649.2202,14.422695819494386,3.9756976665324437
3650.0596,14.408407770473715,3.7148174667069878
3650.8994,14.38962071593803,3.790119412326608
3651.7412,14.364114897012731,4.1431039531737675
3652.5813,14.333605587390823,3.8895689547464007
3653.4236,14.301951720683316,3.680177973650237
3654.2642,14.274751355931484,3.913759627203844
3655.1067,14.258190908871999,4.852043250235471
3655.9475,14.257947944685931,4.0644395717925015
3656.7886,14.27750732671881,4.559101546221803
3657.6318,14.318322236228063,4.12640078511869
3658.4734,14.378319321977656,4.165529178648485
3659.317,14.448715330823115,3.6286817875828947
3660.1587,14.510420961530428,4.101622811861839
3661.003,14.540998959243899,3.5780128570255907
3661.845,14.527458678149236,4.689454670520762
3662.6875,14.476651540767286,4.314274060609355
3663.532,14.410344133284307,3.996163909549288
3664.3748,14.351519839082016,3.8980682498819985
3665.2197,14.311736304842315,3.9890126215297492
3666.063,14.29032927685895,4.740048122273033
3666.9084,14.27896643846748,4.2432118181959195
3667.752,14.26888564217133,3.981213558773634
3668.5977,14.255540899350947,3.2397600416136734
3669.4417,14.240128229137218,3.8392226906843705
3670.286,14.226800095402663,4.20886110926435
3671.132,14.218925042478352,3.707532374564353
3671.9768,14.216994389047274,3.959521648844784
3672.8235,14.218609342861738,4.224289058975362
3673.6685,14.21979645555511,3.873289504370624
3674.5156,14.216828053687367,4.1554626291424865
3675.3608,14.207668010039637,4.4405973209651
3676.2063,14.191698090867455,3.992175373197965
3677.0542,14.16857567077292,3.8481191258438345
3677.9,14.138870401405859,4.275769722029729
3678.748,14.10530773116227,4.135116503626522
3679.5945,14.073533982525662,4.607325912853075
3680.4429,14.048728870654443,3.797631695904127
3681.2896,14.032721836190996,4.315879153942498
3682.1365,14.02274640429831,3.806892907331328
3682.9856,14.013951204878202,3.969724102876303
3683.8328,14.002911203063547,4.56761059350479
3684.6824,13.989565139861734,3.926599746412049
3685.53,13.976743481948295,4.085661548794808
3686.38,13.967405175412464,3.5064569612755982
3687.2278,13.963045513154519,3.918817849232668
3688.0762,13.963607147808034,3.921938950102526
3688.9265,13.968130623460794,3.817203936454609
3689.7751,13.974080769628147,4.374652540581994
3690.626,13.976802389919028,3.617841017940299
3691.475,13.971065113803691,4.452325173482427
3692.3264,13.954394371607101,4.2501325770284355
3693.1758,13.928937178537286,4.432705957690758
3694.0254,13.899384974312719,4.2470446416074354
3694.8772,13.86967442821295,3.757837651206281
3695.7273,13.84165871030373,4.428737976558533
3696.5793,13.815670473221436,3.961055254520538
3697.43,13.792368326625786,4.300381955728728
3698.2825,13.771780072053804,4.214435565672185
3699.1333,13.751848977115614,3.828691165141771
3699.9841,13.727796435442796,3.6775508317884595
3700.8374,13.694966225295092,4.156182661065417
3701.6887,13.653043029220349,4.2565945661203815
3702.5425,13.60644310708946,4.073717546409795
3703.3943,13.561765247152191,4.3305284909509405
3704.2483,13.522209604516298,4.855088131773409
3705.1003,13.486726884909725,4.488307195288877
3705.9526,13.451555945424403,4.977814233812925
3706.8074,13.414054659901225,4.470683295199621
3707.66,13.375025803466345,3.6290785196614785
3708.515,13.337530969063272,4.287312676561624
3709.3682,13.305158835009534,4.630018695540589
3710.2234,13.278516066685196,4.556419841541878
3711.0771,13.255132188910899,5.748914485500037
3711.9307,13.231297557242335,4.928264550626523
3712.7866,13.205048837755477,4.943871875395108
3713.6409,13.177137214421007,4.862737669693344
3714.4973,13.14882540784782,4.472691728625045
3715.3518,13.120272205382191,5.0191063974998285
3716.2085,13.089660037652841,4.908784311674347
3717.0635,13.055896411117656,4.539581600322923
3717.9185,13.021395540968438,5.044812639029034
3718.776,12.993527555916783,4.691042293515758
3719.6313,12.98147214537397,4.762401649546939
3720.489,12.989056713655888,4.170472264200852
3721.345,13.010383114211972,4.4426349822458
3722.2031,13.032039441514238,4.984689626384353
3723.0593,13.040283715952535,4.1584001485335875
3723.9158,13.02831853694888,4.970157844788927
3724.7747,12.998115161914338,5.962087318911278
3725.6316,12.958467499020326,4.747951014044174
3726.4905,12.919952390763898,4.987585013407035
3727.348,12.891073202570128,5.4575361959265996
3728.2073,12.874859316756117,4.391323051421093
3729.065,12.869158170070596,5.386437871386562
3729.9229,12.868491027930975,5.159115485382171
3730.783,12.86651654992114,4.989390231377215
3731.6414,12.85718816917373,4.624442979994503
3732.5017,12.835677498310867,4.681624271990271
3733.3604,12.800468435987568,4.7354859916699095
3734.2214,12.754742885114542,5.477173625276287
3735.0803,12.706644289867272,5.127834411265079
3735.9417,12.665181994006813,5.360549209202563
3736.8013,12.636793608235397,5.258827173449775
3737.661,12.621782767977702,4.860178522149707
3738.5227,12.61534286947961,5.041644145603039
3739.3828,12.611104753035955,5.757108727306315
3740.245,12.604810881770653,5.811239331001364
3741.1055,12.595415871968777,5.196235756718765
3741.9683,12.582895868019374,5.68568180783919
3742.829,12.566272798667462,5.590062843645017
3743.69,12.544173468934797,5.169087795515249
3744.5532,12.51805200841073,4.497663660280216
3745.4148,12.494215859577162,5.839907232397862
3746.2786,12.480970288575259,4.851185936691794
3747.1404,12.484028229717874,5.31541245132068
3748.0044,12.502962918599454,5.543168056328872
3748.8667,12.531275440032216,5.38806803178595
3749.729,12.559190043736201,5.50070790545288
3750.5938,12.577169980598974,4.851070265596532
3751.4565,12.579180307392528,4.696076009863259
3752.3215,12.564559976772165,4.713866342718785
3753.1848,12.536840905318414,5.779908721904484
3754.0503,12.50097366072014,5.373599682595815
3754.9138,12.462079413655037,5.446477341596538
3755.7776,12.42458211021659,6.031261254160622
3756.6438,12.392243696793809,4.407091816628579
3757.508,12.367190819672164,5.073426264843744
3758.3745,12.348121270199188,5.299739389787487
3759.239,12.33142140341916,4.709729608304378
3760.106,12.313614930584992,5.849944460205133
3760.971,12.294614680678233,5.392599854552427
3761.8362,12.277603060014549,5.117623181240373
3762.7036,12.266276573338192,5.5783104402621015
3763.5693,12.260994833341089,5.726343565637054
3764.437,12.256830964601356,5.481001346752576
3765.3032,12.246058226087518,5.430146415219715
3766.1714,12.22348010449343,5.544991572457757
3767.0378,12.190963391993124,5.520411668138399
3767.9043,12.15634325353756,6.647049851724767
3768.7732,12.128307149308913,5.754739745598092
3769.6401,12.111792927614282,5.719472748013626
3770.5095,12.106420871916828,5.282920707497035
3771.377,12.108505048385936,5.521218893192548
3772.2466,12.112651350361293,5.534180833469147
3773.1145,12.112908566850015,5.610521607693962
3773.9824,12.104429236575115,5.599246200350241
3774.8528,12.0856640391302,6.269030938147046
3775.721,12.060154345769588,5.649376907282643
3776.5918,12.035358953176091,5.146305693086267
3777.4604,12.01987183321944,5.5515584175864845
3778.3315,12.018811588865509,5.296045417796306
3779.201,12.031457331923852,5.598300581116913
3780.0703,12.051575519357385,5.900066464700596
3780.942,12.070670793970395,6.19118569149827
3781.8118,12.081699422260535,5.594437978935913
3782.6838,12.081836954029203,5.634156243943579
3783.554,12.072083133792832,5.678728301097218
3784.4265,12.054719493676295,5.705834469587437
3785.297,12.030940558221923,5.514655740885734
3786.168,12.000256776151941,5.17361180791337
3787.041,11.96216223714343,6.000530240250938
3787.912,11.917918719123126,5.3219533053324435
3788.7856,11.870048484507628,5.834008717852845
3789.6572,11.82263925151342,6.3368166574868745
3790.531,11.77961027840621,6.445713893504266
3791.403,11.744191637257273,6.214171316665442
3792.2754,11.716754649149907,5.866521175006476
3793.15,11.695012984401883,6.215134080408388
3794.0225,11.675671696463082,6.209280986437921
3794.8972,11.656112028405394,6.109566696454258
3795.7703,11.635846374978604,6.240720766147678
3796.6455,11.616083282715152,5.9500090471409255
3797.519,11.599289596840592,5.789639282683996
3798.3926,11.587545074733233,6.143813656255887
3799.2686,11.581271720018513,5.900636698052014
3800.1426,11.578842485890144,5.609668625267819
3801.0188,11.577503453455687,6.6474104573512705
3801.8933,11.574513872473927,6.171091132536809
3802.77,11.566928556498755,6.557118086668232
3803.6448,11.55154819404575,6.4817143480371735
3804.522,11.52680243363513,6.256025445946345
3805.3972,11.496383804159581,6.209952259030806
3806.2727,11.469107749840495,5.624848195051665
3807.1504,11.454004277405263,7.137966209366397
3808.0261,11.453586579874766,6.6702864359528435
3808.9043,11.461752002545019,5.973174467949495
3809.7805,11.468842473974115,6.203295644546709
3810.659,11.468942396727662,6.916566232900205
3811.5356,11.463001948156238,6.679316920662426
3812.4126,11.456238215677493,6.570471737783927
3813.2917,11.452903841719142,6.615189782553092
3814.169,11.452865586008043,5.929829335838965
3815.0483,11.451917899978397,6.878369544178126
3815.926,11.445149515578397,5.674787613386052
3816.806,11.430441068007452,5.513909923810048
3817.684,11.409558028518024,6.831597148170576
3818.5623,11.385779762634554,6.619701646258638
3819.4429,11.36127299961314,6.121979658817933
3820.3215,11.336833992300823,6.623533541702918
3821.2024,11.312368427375096,6.398412878513833
3822.0815,11.287288315585458,5.937898733606363
3822.963,11.259204625045498,6.548563479474712
3823.8423,11.225237229988403,6.608482152555216
3824.722,11.184544719808017,6.713087902733787
3825.604,11.140577620720942,6.836019191978745
3826.4841,11.09986556081136,7.440562120684334
3827.3665,11.067018188259377,6.644137074030435
3828.2468,11.04242556411816,6.443479912799204
3829.1296,11.022290027664056,6.951918108400356
3830.0105,11.002222959674288,6.925499738040153
3830.8916,10.979508460030013,7.079560654252544
3831.7751,10.954057577985651,6.294084376994422
3832.6565,10.928112755000374,6.9213132048705015
3833.5403,10.904734500826942,7.000064721881467
3834.4224,10.886957129363195,7.053980397580698
3835.3064,10.875943037774885,7.058344939620407
3836.1887,10.870505291538786,6.90795427942809
3837.0713,10.867605034703933,7.037174382311651
3837.956,10.864345737321797,7.56503242085194
3838.839,10.859571786193852,6.7297599909359835
3839.7244,10.853809502133009,6.996934877611138
3840.6077,10.848081009271032,6.751886719627127
3841.4932,10.842821897632529,7.245395070555762
3842.377,10.83832305951001,7.611995847335383
3843.261,10.835839630514698,6.335071001291663
3844.1472,10.838116555093963,7.308027452541818
3845.0315,10.847863015876888,6.733973437849244
3845.9182,10.865103623466224,6.941403357702371
3846.803,10.88559939281025,7.059891918122194
3847.69,10.90317518306811,5.385638470646537
3848.5752,10.913473515341781,7.207477792007397
3849.4604,10.916192322207264,6.950576621352641
3850.3481,10.91259329526073,7.455522258302003
3851.234,10.90189884944547,6.670554887572199
3852.122,10.880610792095904,7.241657470079194
3853.0083,10.845919824028712,6.386488560780742
3853.8967,10.798517415963756,7.811784053302622
3854.7832,10.743400036273393,8.074157537964892
3855.6702,10.686785012331605,6.877839895663406
3856.559,10.634409948836275,7.25722380024534
3857.4463,10.591295117920001,7.050937468476413
3858.336,10.560945300758835,7.337590894519279
3859.2234,10.544851310267727,7.641380414011766
3860.1135,10.540268733615017,7.205086703788141
3861.0015,10.540953252301698,7.790293577407142
3861.8896,10.540115782596928,8.20257344982483
3862.7803,10.534066815699072,8.19041343506575
3863.6687,10.523536671301462,7.624504062089889
3864.5598,10.51187174273934,7.7115781050635865
3865.4487,10.502232733838156,7.17304849699352
3866.34,10.49502303522322,7.925025534372623
3867.2297,10.487569844225206,7.711580557647791
3868.1213,10.475492392849064,7.282252691614998
3869.0112,10.45552447892747,7.4064644512875715
3869.9014,10.427328802747647,7.176154121417582
3870.7937,10.393531071605096,8.11590523505898
3871.684,10.35857431662001,7.877366122334604
3872.577,10.32682078390323,7.24801806056811
3873.4678,10.302639833992915,7.861102828937997
3874.361,10.289230103370093,7.843991239184392
3875.2524,10.28769308130487,7.851338353021518
3876.1438,10.295455102044324,8.52585048631265
3877.0376,10.306818032915656,7.377439458222541
3877.9297,10.315084058685118,7.592317487215746
3878.8237,10.31535398678269,7.450570252442054
3879.716,10.305398441223874,7.703672770504307
3880.6108,10.28484225131769,7.18765893314991
3881.5037,10.255171062828339,7.888484193228727
3882.3965,10.222172102537504,7.616020107903591
3883.2917,10.201284006410033,8.39913690718846
3884.185,10.221081400209961,8.943538559565509
3885.0808,10.31663963670954,8.796764534794862
3885.9746,10.506193484123523,7.6451813902875765
3886.8706,10.762242788052585,8.424953566497926
3887.765,10.997612775897174,8.228668405531085
3888.6592,11.105239766882537,8.097154733438519
3889.556,11.024490726837477,9.44653166450722
3890.4507,10.787139482576874,8.575265326621675
3891.348,10.49186845530872,7.883270659734831
3892.243,10.239115221857771,7.8311820747726575
3893.1406,10.074426978483132,7.65844397059818
3894.0361,9.992114664829495,8.044831976333239
3894.932,9.96154308066285,7.891729356775353
3895.83,9.955317881959793,9.522490206317958
3896.7263,9.957428326282356,8.35901858692505
3897.625,9.961150436219706,8.50074118221216
3898.5215,9.965343683311898,7.742384919495564
3899.4207,9.971566498299627,8.613019217450132
3900.3176,9.981039216676438,8.821075188069022
3901.2148,9.992462951440297,8.79121261118413
3902.1145,10.002061508980045,8.529507035648631
3903.0122,10.006173094920008,8.477292332016752
3903.912,10.004620905739376,8.774452625195273
3904.8103,10.001734346862095,9.316253599297458
3905.7107,10.004324314871313,8.205264430607464
3906.6094,10.017895067181847,8.446949078322536
3907.508,10.043607559614761,8.407948945408059
3908.409,10.077565070109717,7.480745738736758
3909.308,10.112031255430841,8.57257088697596
3910.2097,10.139179803674983,7.717509027787168
3911.1091,10.154015609362292,8.62127995682203
3912.011,10.156684634746666,7.600394485153389
3912.9111,10.151190152388274,8.04450121011196
3913.8113,10.142344290812861,8.490974837682188
3914.7136,10.13227453173449,8.356027945942627
3915.6143,10.119127779866531,7.744449051249653
3916.517,10.098602465266278,7.682664985885425
3917.4182,10.067970161193418,8.70191121778514
3918.3215,10.028711225470575,7.977505952990875
3919.223,9.987046467964936,7.973935530216681
3920.1245,9.950464854148244,8.205363594148139
3921.0286,9.924570615816632,8.204609818051221
3921.9307,9.9113929145119,8.12314780750677
3922.835,9.909283779021957,9.163315793947236
3923.7373,9.914478230287388,9.15722121897542
3924.642,9.92217997416363,8.086898001529015
3925.5452,9.927377315976736,7.9855669725852465
3926.448,9.925960689480227,8.989366789570532
3927.3535,9.915906655613604,8.82848111600196
3928.257,9.898424604673762,7.764436593229316
3929.1628,9.877612996281195,8.980405874743674
3930.0667,9.859094310497298,7.878896610781048
3930.9731,9.847263398583527,8.743518080326448
3931.8774,9.843900121593885,8.959643962719383
3932.782,9.848111255257573,8.632217489369312
3933.6887,9.858146927855751,8.327385346470175
3934.5938,9.872375329353412,8.873015678901496
3935.501,9.88878468816539,8.973885598486389
3936.4062,9.903557139324063,7.590961124501064
