wavl,flux,ivar
3566.9744,3.859053502561335,16.116867470342772
3567.795,3.8534194443008993,15.61607434721198
3568.6177,3.841597176013957,20.341155518504596
3569.4385,3.8243754359721507,17.834292823390136
3570.2617,3.801325790482434,14.890231243888483
3571.083,3.7734204673302876,16.226342460991955
3571.9065,3.7450401504330992,11.818875534689582
3572.7283,3.7234821953538897,23.060767472073373
3573.55,3.7141716740591764,33.65193445358044
3574.374,3.7171950764221577,16.24104433530492
3575.1963,3.727457036639923,17.991483262091414
3576.0208,3.7386251156867454,11.486606024108594
3576.8435,3.746864363844093,17.225532459721517
3577.6682,3.751913646862617,17.60329138887272
3578.4915,3.754973949167581,17.273616263948966
3579.3145,3.7562991051318413,15.53679201126979
3580.14,3.754608990110425,24.917849689588394
3580.9636,3.749349289340982,26.691944507564767
3581.7893,3.7438061619237875,14.482230633133023
3582.6133,3.745775016588929,22.440232198700933
3583.4395,3.76361900527145,19.22105459024631
3584.264,3.799619507167758,17.256811892666367
3585.0884,3.846246785361015,15.018309604235837
3585.915,3.8889422057176835,12.206067153279504
3586.74,3.9139796353244987,10.978537925255926
3587.5671,3.916873045764648,25.22107552247792
3588.3923,3.903377109803998,19.140909079482483
3589.22,3.8839562683136926,17.530491219623205
3590.0457,3.866042740650578,17.03710761334087
3590.8716,3.849589273563044,19.392010776871253
3591.6995,3.8293589749000736,13.418829673455122
3592.526,3.800847520706147,16.752094247987394
3593.3542,3.7644957050111105,18.535333252362868
3594.181,3.7263298270552814,18.224895496816323
3595.0098,3.6938122889268814,17.819312411019588
3595.8367,3.672303383008363,25.493268164785405
3596.6638,3.6625392545125868,16.33572544982883
3597.4934,3.6619505979892897,19.643592359312066
3598.3208,3.6664998891891756,15.386006191684553
3599.1506,3.6713210059180517,34.86921691731473
3599.9788,3.6705689539550246,27.90422121147124
3600.8088,3.660732367174886,24.61769099679984
3601.6372,3.650998698857271,22.373825586361665
3602.4678,3.6801148332984477,23.27945349913505
3603.2964,3.833620881314259,18.593450336800352
3604.1252,4.246285018558218,21.020159173832884
3604.9565,5.061308905881285,20.61723865612021
3605.786,6.309198174682042,21.477247913293976
3606.6172,7.791458372820089,18.737933155567767
3607.447,9.04537285795952,36.56980554577537
3608.2788,9.572144546287543,0.11787600407018506
3609.109,9.144665598810018,10.789334895814694
3609.9392,7.977834805382727,21.738075932658628
3610.7717,6.5591432310514515,22.1939356004602
3611.6023,5.342529791771269,16.214065883826223
3612.435,4.518073310085098,12.803084172094497
3613.266,4.054911450294927,26.82040386280754
3614.0994,3.8229806630105334,23.865352373327713
3614.9307,3.7120165722767258,26.44245178611046
3615.7625,3.658712838228052,13.677320570610506
3616.5962,3.636260672537231,17.742329643405167
3617.4282,3.6333270712207866,23.959964550968675
3618.2625,3.64196135812154,14.428046394920921
3619.0947,3.6548418265636693,19.63443846609423
3619.9292,3.6674851512433753,15.261431584129983
3620.762,3.6795805834184554,18.232083283840566
3621.595,3.692611634641686,18.65110554078627
3622.4302,3.7050173919594647,22.55089418683147
3623.2634,3.7103519793450057,14.188285100180323
3624.0989,3.7008702362607213,12.971518377826012
3624.9326,3.6730475124304167,18.24981975918852
3625.7686,3.630418519840322,12.04187255477716
3626.6028,3.5825255606971935,24.92862797951104
3627.437,3.539422038202738,28.928994137449198
3628.2734,3.5070499763049683,38.07490319674559
3629.1082,3.485848482630615,28.690080578675502
3629.945,3.472670499212465,20.610938889625295
3630.78,3.465034958367188,15.466904282988876
3631.6174,3.4625459158708183,28.72673164255612
3632.453,3.4655644176430562,22.09387463429001
3633.2883,3.472369112181093,22.803756275570134
3634.1262,3.4779618402947,16.925287610789283
3634.9622,3.4756728854353582,23.319980099721974
3635.8005,3.460864258836908,15.179425801243811
3636.637,3.433842501675819,17.192808734760273
3637.4756,3.3992690973188493,19.53059555851126
3638.3123,3.3638304705185327,16.019313360553745
3639.1492,3.3331808956369953,15.497912835813812
3639.9885,3.3118238187527655,16.854128125479342
3640.826,3.3037374951723875,26.607687684587123
3641.6653,3.311330931037573,36.32566047619431
3642.5032,3.333532897957647,28.654131393027747
3643.343,3.364721356053304,29.277142067575397
3644.1812,3.395887741536643,14.743620452871923
3645.0195,3.418389854466347,19.495658922153005
3645.86,3.4267305311627703,15.515869924366159
3646.699,3.420309473956078,17.052641831139383
3647.5398,3.403626020225479,19.567878462679865
3648.379,3.3843385291109795,24.37561899464768
3649.2202,3.369126481281625,13.312358566691621
3650.0596,3.360378055366109,20.515251201319057
3650.8994,3.355467009458921,18.37710126684982
3651.7412,3.3498140506549325,17.442281854197795
3652.5813,3.3403961237016575,26.600443867456367
3653.4236,3.3271593741686596,35.06322514773882
3654.2642,3.3128577455003123,24.330773887536463
3655.1067,3.302215247561924,11.388992025993716
3655.9475,3.3011842956466686,57.56195791274238
3656.7886,3.314143926063235,20.27891615307767
3657.6318,3.340274475633477,26.093151561929073
3658.4734,3.371456605993471,18.806622745810962
3659.317,3.3954450835149563,18.87491038057992
3660.1587,3.401370889321047,26.021440264835345
3661.003,3.385116992068869,29.83971267839844
3661.845,3.35104726788062,22.497886089757305
3662.6875,3.3105225704283243,44.99074082075052
3663.532,3.2785520439827116,12.76922423176798
3664.3748,3.2683421563261916,25.41660617203926
3665.2197,3.2846543082578994,25.79918790792103
3666.063,3.3210130248719247,14.685129166745938
3666.9084,3.3632148115446916,15.555000010384012
3667.752,3.396550623959475,14.16439969349042
3668.5977,3.413521398532179,24.310272921258957
3669.4417,3.4150873486932105,20.704950016197515
3670.286,3.407178260186197,35.77644598177965
3671.132,3.3947285621238388,20.971868709540292
3671.9768,3.379155177344057,21.68548801964679
3672.8235,3.360060060465271,18.752420549693415
3673.6685,3.3387247413220247,20.804920587186512
3674.5156,3.3183046454045857,25.750131174302716
3675.3608,3.301901659408205,19.592079961835218
3676.2063,3.290319541369711,16.502237979551253
3677.0542,3.282626364037034,19.004753736165036
3677.9,3.277578324516737,18.948134852457876
3678.748,3.2743058217973218,20.30629195822652
3679.5945,3.272733832751376,22.277280837569457
3680.4429,3.2739768343889835,30.398325247999423
3681.2896,3.280343428746677,34.636270887321274
3682.1365,3.2936826961101775,17.165560484274035
3682.9856,3.3128524973141213,37.582846826769604
3683.8328,3.3327045376774014,40.50845596463379
3684.6824,3.3468455046342003,17.369199623230344
3685.53,3.3509727427768414,17.57075175292917
3686.38,3.3446011362183277,24.330680210204623
3687.2278,3.3296763911642375,24.483822624472214
3688.0762,3.3090319833611086,13.195584767072676
3688.9265,3.2865110904871404,39.94121352950364
3689.7751,3.2673979222272034,26.29117552773587
3690.626,3.2565707602476386,25.847686600479413
3691.475,3.256327307788633,15.904383442437625
3692.3264,3.265393701923697,37.19054290834403
3693.1758,3.2806891506211926,19.39445631281866
3694.0254,3.2998847612521547,19.018644948628562
3694.8772,3.3218592299353302,21.442475902826025
3695.7273,3.3444837411780317,21.95457540749706
3696.5793,3.3630896142374254,24.63422544955708
3697.43,3.37167830195509,17.16101997827698
3698.2825,3.3676302887592575,27.67199598623554
3699.1333,3.3541740075412574,18.88618375796941
3699.9841,3.3377693205920993,17.7608569721729
3700.8374,3.3228934916352166,19.302975034721065
3701.6887,3.3097321749681425,14.768132914007161
3702.5425,3.29579679708425,24.01279744590383
3703.3943,3.2793962954363898,42.61090054520714
3704.2483,3.260473740405086,16.67300556233963
3705.1003,3.2399297766523425,26.80128180791092
3705.9526,3.218154362943319,26.974295889659132
3706.8074,3.19516065390343,23.987182842051674
3707.66,3.1717327985526658,15.777689621959114
3708.515,3.1498006407376202,22.88122208966745
3709.3682,3.1325597956224773,37.1420571501789
3710.2234,3.1224426120343716,60.170191907928285
3711.0771,3.1196381745421164,28.926560605147934
3711.9307,3.121484584895843,44.64603340631584
3712.7866,3.123818122434153,23.17394857804554
3713.6409,3.1229032773940584,20.66893280493303
3714.4973,3.1170715795959762,20.803003977294743
3715.3518,3.107314636380207,19.923320669487236
3716.2085,3.09643944715598,37.24979261753148
3717.0635,3.0876881662461857,20.592539273935248
3717.9185,3.083325939424337,27.426228313749135
3718.776,3.0843383632773116,25.642825447174257
3719.6313,3.0904774307163203,21.108224512746027
3720.489,3.1006265427867183,24.703343185586544
3721.345,3.1134210130211755,29.195513109300094
3722.2031,3.128315375398446,34.146479571227005
3723.0593,3.1455313856781117,24.41353684499418
3723.9158,3.1650821186275606,19.811335844138142
3724.7747,3.1846693643175206,34.76222209093119
3725.6316,3.198801623110643,17.750065944620363
3726.4905,3.201564955497092,21.44335245199322
3727.348,3.19084570852008,34.52809013243273
3728.2073,3.1706281005870203,26.560992350974924
3729.065,3.1485236941884986,37.261062972284535
3729.9229,3.13035653327912,23.70429605356113
3730.783,3.117596552887839,26.350737071150622
3731.6414,3.1091847973975444,21.07084034076481
3732.5017,3.1049277561230464,25.562830381050688
3733.3604,3.1068587700426824,44.86176618380712
3734.2214,3.1168643493766743,32.73776223858943
3735.0803,3.133440696092565,25.28929864114702
3735.9417,3.151233888132139,17.600427454151227
3736.8013,3.1631927261881208,24.797035621334498
3737.661,3.1642457901076693,17.199372611474402
3738.5227,3.1531886465397996,30.22565826720438
3739.3828,3.1330867702291143,18.156055781547472
3740.245,3.109707446480881,31.15857099169257
3741.1055,3.089293032585152,30.62885654288903
3741.9683,3.0754412271143097,23.58235985303814
3742.829,3.068227696559604,19.84467888638098
3743.69,3.0652038502678844,17.05523443838675
3744.5532,3.064307885005945,23.097891926439196
3745.4148,3.0655119877602335,21.275255745577887
3746.2786,3.0698279955865684,19.926441761008082
3747.1404,3.0769431437457557,23.46939884340124
3748.0044,3.084656017591412,22.571530434343142
3748.8667,3.0909153184247105,26.56325450482564
3749.729,3.096567238447715,28.392468509509285
3750.5938,3.105365478120335,23.28432741527713
3751.4565,3.120966178454042,45.321113199445875
3752.3215,3.1435950189995836,23.052326863738877
3753.1848,3.168400826691251,12.50305151428179
3754.0503,3.1878182423869608,19.844816126599117
3754.9138,3.1956248563325964,30.414925913890215
3755.7776,3.191206134699268,22.35722530467537
3756.6438,3.179557802208666,36.78031167676398
3757.508,3.1677979642208483,29.766234229292643
3758.3745,3.160589625920159,23.240877969137998
3759.239,3.1586617491678997,22.354504607444532
3760.106,3.1598162607790377,35.85002644848012
3760.971,3.1607974905456957,42.78506828852556
3761.8362,3.1585108688417147,31.834076703751997
3762.7036,3.150808683930655,22.650068695495037
3763.5693,3.1372851724532116,32.0602268618689
3764.437,3.119408220018152,22.905537165636332
3765.3032,3.100143099823085,26.247275763275177
3766.1714,3.0823975253108267,30.04437008792423
3767.0378,3.0681034798407065,28.277569071615105
3767.9043,3.0576870997906935,27.91498148447346
3768.7732,3.0507724291062237,24.081817046989457
3769.6401,3.0465466326156303,15.650451144255914
3770.5095,3.0431774203830035,33.490438838885005
3771.377,3.037652634328652,31.73784970388888
3772.2466,3.0268740580339206,38.82200466091978
3773.1145,3.009959469596705,34.0406121084549
3773.9824,2.9894516435141476,27.983086687917865
3774.8528,2.9707643953981844,22.94277336175633
3775.721,2.959989868152107,28.148283272759084
3776.5918,2.960352557585118,29.077479460173038
3777.4604,2.9702379421119716,20.479590934984113
3778.3315,2.9842140287679833,22.16486014456862
3779.201,2.996996237647735,26.948435331916
3780.0703,3.007541103659079,27.502044845773668
3780.942,3.019188445047335,33.67884293841093
3781.8118,3.035928928326576,28.143696646148456
3782.6838,3.058284517340096,33.69778904109482
3783.554,3.081717322681277,32.234756309656014
3784.4265,3.099791091613175,20.016312515229068
3785.297,3.108083197907185,15.267187460669613
3786.168,3.1067957068541325,25.37810400185439
3787.041,3.099361526478289,17.53299199975642
3787.912,3.08954687719467,41.15512962111287
3788.7856,3.07900152026819,28.5991477137161
3789.6572,3.0672830645442453,32.45693967500043
3790.531,3.053001019062572,33.45333615114189
3791.403,3.0352057327689392,21.720094767442617
3792.2754,3.013326581500424,25.77468303732935
3793.15,2.987158823220888,30.588720701339604
3794.0225,2.9576322261669734,31.94977900784809
3794.8972,2.9269791085290424,35.74397115988121
3795.7703,2.8988457504394822,31.22910302857251
3796.6455,2.8762788729601465,23.81169429814226
3797.519,2.860721376535573,44.92559386759953
3798.3926,2.8511807293016083,44.705422261979784
3799.2686,2.8450947140520273,22.8714631695834
3800.1426,2.8396498137461386,47.77299354436914
3801.0188,2.8331559523926124,36.20815188510772
3801.8933,2.8264153063966786,32.276136141356616
3802.77,2.8229101953397735,32.68991656809382
3803.6448,2.8274434248134876,37.91599006141676
3804.522,2.843306901437432,40.710388777357224
3805.3972,2.869800727627662,23.705457936785592
3806.2727,2.902325965661699,51.37685503291256
3807.1504,2.934580785082862,29.022353042551327
3808.0261,2.961642017366809,22.947861748892713
3808.9043,2.9827396709224674,36.64358521930644
3809.7805,2.999989577400372,31.28528514601486
3810.659,3.015515637121921,28.046342876597297
3811.5356,3.028466424770252,30.28201876183447
3812.4126,3.036116275075468,19.919655898502675
3813.2917,3.0370713692084115,24.873932047821903
3814.169,3.0337509532487754,25.679422909648444
3815.0483,3.0316869658252252,22.8724060225718
3815.926,3.036199223812966,17.196112653654268
3816.806,3.048666451766503,31.375562621871584
3817.684,3.06485699674733,33.15233504619184
3818.5623,3.077141551015973,22.12474626341634
3819.4429,3.07874384187417,29.234626060531287
3820.3215,3.067030864173913,21.139108337392717
3821.2024,3.0435494074973723,26.238056054005597
3822.0815,3.012086590548809,29.944718070838167
3822.963,2.976346013802334,25.71982936032962
3823.8423,2.9396160273562146,33.87763086061132
3824.722,2.9037100363815402,53.00999406677978
3825.604,2.8686966000963294,30.08506715070582
3826.4841,2.833564050959487,38.837107969562155
3827.3665,2.7976692605221576,36.9468805476533
3828.2468,2.76346896490336,31.861047299306293
3829.1296,2.7350720598326608,39.870216535187296
3830.0105,2.7150309067905476,45.43710149541346
3830.8916,2.700714323748555,66.4543032706788
3831.7751,2.6860317914175837,27.850780512813685
3832.6565,2.6666646481558276,30.1313455240305
3833.5403,2.6436789751372745,41.82806196595926
3834.4224,2.6229046691699733,50.32041530019772
3835.3064,2.6100080438663946,30.284531656178
3836.1887,2.6069386761053877,49.132837436164834
3837.0713,2.61140631684092,43.43989949033981
3837.956,2.6199943930331626,26.007961945139762
3838.839,2.6317757135254496,47.99523569212277
3839.7244,2.6499489852413514,32.92804391909229
3840.6077,2.6792808445421947,51.98638524898299
3841.4932,2.7220761442843804,38.39252651408675
3842.377,2.774780334872464,25.78904960228566
3843.261,2.8295659309274543,64.36237352592534
3844.1472,2.8778791862186512,34.79123768734729
3845.0315,2.913992381035914,20.475372867797557
3845.9182,2.93750072427887,18.12649494035757
3846.803,2.951745441025768,25.09585183693183
3847.69,2.9618362807669705,25.121098795474865
3848.5752,2.9719477537364103,27.744804472689403
3849.4604,2.9842649919533395,34.87892675729275
3850.3481,2.9988395842195597,27.859594545843386
3851.234,3.014237967807794,28.76256961859251
3852.122,3.0291586617973585,21.01595210595617
3853.0083,3.0431907091650294,31.864869500680378
3853.8967,3.0567814150376096,23.975271270878686
3854.7832,3.0694725903602325,24.33819465870292
3855.6702,3.0792201167036497,21.3778873014405
3856.559,3.083439059440586,25.798143158645942
3857.4463,3.0815784302865574,26.30631168336516
3858.336,3.0764136669115696,23.267545835594888
3859.2234,3.072264893568409,29.689163428674465
3860.1135,3.071364415447876,21.019863119163723
3861.0015,3.071855820375689,24.36460468967183
3861.8896,3.069259870093711,25.72696421959356
3862.7803,3.0603661392089343,29.148616772042953
3863.6687,3.046354530818673,38.677261912369474
3864.5598,3.032048977292279,30.2558308739089
3865.4487,3.022340113426946,26.015254528266002
3866.34,3.0180398887892737,29.723905994835
3867.2297,3.015470688134845,20.470107718385993
3868.1213,3.0093696868985784,34.70961715086227
3869.0112,2.996846803617805,32.536706604237956
3869.9014,2.9788177870089854,24.994551829412746
3870.7937,2.9584624292550803,35.51540435149457
3871.684,2.9386174640028426,32.30033626279559
3872.577,2.9196799525454415,26.240626279741917
3873.4678,2.900299568955345,23.38530096477066
3874.361,2.8788170231082804,20.430526136341275
3875.2524,2.8554194217971496,21.408829075060055
3876.1438,2.831943361503505,41.01110687118786
3877.0376,2.8103810290059883,24.267113474464562
3877.9297,2.791099055212798,30.065001242212233
3878.8237,2.7719446898540148,30.499498836514352
3879.716,2.7497556348572667,31.35399053118567
3880.6108,2.7217143292820563,31.843745392579343
3881.5037,2.686906419824007,28.19844929437044
3882.3965,2.6461741594710104,32.32788289814913
3883.2917,2.6019274914374697,41.926039732914354
3884.185,2.5576117493638315,28.460592470766155
3885.0808,2.5151424067169392,55.29925765766662
3885.9746,2.473899999748059,45.7010619757281
3886.8706,2.4299491325432605,41.136029057104395
3887.765,2.379941203727843,38.765328299717
3888.6592,2.324780926070282,43.12833481635216
3889.556,2.2716234705752547,45.37864053246449
3890.4507,2.2316005098148977,64.25998586363373
3891.348,2.213598720409949,56.89761379658311
3892.243,2.2210287813486262,46.23615956588311
3893.1406,2.2513910310140464,77.10919830397586
3894.0361,2.2984965707651757,51.18995397156805
3894.932,2.3550893633847494,69.13490393936307
3895.83,2.4139210880321538,40.07426140981057
3896.7263,2.468332388722504,44.05627918230839
3897.625,2.514477700492359,32.98136547526728
3898.5215,2.5510239588616668,35.696574339326844
3899.4207,2.5801355061432285,50.383788710058724
3900.3176,2.6062616827625207,48.10150096089891
3901.2148,2.6352443800051155,31.711946779110264
3902.1145,2.671110454236922,53.64361786941019
3903.0122,2.713021634519688,28.978040876787524
3903.912,2.756044902906965,30.946281083985173
3904.8103,2.7938884556991375,36.849852270700424
3905.7107,2.8236636032065854,25.573275704642676
3906.6094,2.8470635126731207,29.382149497537085
3907.508,2.8696671314020823,33.03059206209603
3908.409,2.897706022824352,27.932015252397136
3909.308,2.9345885361861965,30.237470171347113
3910.2097,2.979515370845705,32.7261559818984
3911.1091,3.0273629135205193,22.969192607763787
3912.011,3.072156933088925,29.977906995141616
3912.9111,3.1090684957179464,23.207258867545995
3913.8113,3.1365874510695493,21.014701844258763
3914.7136,3.1556472708845025,22.07336597451416
3915.6143,3.167985517751656,34.788190777321844
3916.517,3.1752766640015406,28.555820582379845
3917.4182,3.179050909456226,25.157914853561177
3918.3215,3.1816399527373775,21.23040404993685
3919.223,3.186089449343023,22.098847870254065
3920.1245,3.1948884149342103,22.903357749991432
3921.0286,3.2084855516113215,39.36376914635318
3921.9307,3.2248833532271783,22.046222781978127
3922.835,3.2409892771942137,26.287624581228847
3923.7373,3.253837365879393,19.035648640473454
3924.642,3.2618844623261998,19.773697038287523
3925.5452,3.2651781422727053,26.714424553619708
3926.448,3.2652114525480855,28.914549441255083
3927.3535,3.263918179587954,25.44891617978575
3928.257,3.2628558954053504,28.813602477420623
3929.1628,3.2630278891135176,23.64738986066365
3930.0667,3.2650369196217595,21.46363369516182
3930.9731,3.268816848163868,24.575058136179685
3931.8774,3.27322253681018,28.103170982959604
3932.782,3.276465194007408,23.360271770897956
3933.6887,3.276934068671198,21.543632288284154
3934.5938,3.2735585112337664,22.89987234834586
3935.501,3.265585384535665,31.5848646838726
