wavl,flux,ivar
3566.9744,9.364009304442602,8.334653900096264
3567.795,9.332467988383389,10.432054259284874
3568.6177,9.299341587523148,8.636847801632248
3569.4385,9.274063564882898,13.16060780651487
3570.2617,9.261285362434519,10.318425454242389
3571.083,9.256494615291746,8.45919915750899
3571.9065,9.248659220297212,9.454477818870753
3572.7283,9.230487655373258,9.982923315777057
3573.55,9.206296371473035,11.434463712477163
3574.374,9.189580471592041,12.512064592642627
3575.1963,9.192025852607697,9.880129732085258
3576.0208,9.213699986760263,9.507036321286781
3576.8435,9.243259456156437,10.225157546314856
3577.6682,9.267095720455155,8.309565126408833
3578.4915,9.27786763628052,9.997689097151525
3579.3145,9.276844897696222,8.881138239183674
3580.14,9.26903494694331,10.159098308079724
3580.9636,9.258064237542262,13.848631040705415
3581.7893,9.24526617489293,9.377949760292696
3582.6133,9.233191364857722,9.592643006549583
3583.4395,9.227831202791164,11.674964660945152
3584.264,9.236237653733859,11.991890661634352
3585.0884,9.260363317888185,9.165882138682012
3585.915,9.293422905202366,9.406259053717548
3586.74,9.32193070488538,8.496189253544728
3587.5671,9.333461023325397,9.468217087964831
3588.3923,9.322815957078516,11.950979111116549
3589.22,9.29339158776036,13.194535754978503
3590.0457,9.253231881271056,9.77063901597659
3590.8716,9.209253942015922,10.180725839810536
3591.6995,9.16506372761785,8.382911591284618
3592.526,9.122260106701846,11.352302090398247
3593.3542,9.081613258695128,13.550132308297425
3594.181,9.044554581850473,8.724595887245027
3595.0098,9.01271400095436,9.270798841075958
3595.8367,8.988849415015922,9.893325351978662
3596.6638,8.975425931559966,13.391474792102846
3597.4934,8.97243255599502,9.182080941187454
3598.3208,8.975410742624172,8.824405470097776
3599.1506,8.977270724430898,10.534314589584667
3599.9788,8.973092846131495,10.168554087896474
3600.8088,8.963324086059473,10.05993803288352
3601.6372,8.952753348874232,11.630360446468398
3602.4678,8.9470925664514,8.546126224506772
3603.2964,8.950682205329052,11.389966960602948
3604.1252,8.964850055622172,13.887774332691306
3604.9565,8.986777252816003,11.385885673934768
3605.786,9.009874225355498,9.529502178542746
3606.6172,9.0278570131497,10.426549799650356
3607.447,9.038124493618945,9.930924901646694
3608.2788,9.042205815486213,12.30995764967678
3609.109,9.042812620543252,13.749821181442801
3609.9392,9.04169172004487,9.211537798224558
3610.7717,9.039323622001433,9.81798328820699
3611.6023,9.035383869038412,12.786254598902673
3612.435,9.028566803586461,10.788484730790856
3613.266,9.016342740022003,10.116653393853072
3614.0994,8.995140486365312,9.106968999429597
3614.9307,8.962023426532424,10.956938180993863
3615.7625,8.916499171323622,11.521771077431033
3616.5962,8.862427826603913,12.946514614255744
3617.4282,8.808098432595358,11.619857726170839
3618.2625,8.762149920268909,12.26434933368503
3619.0947,8.730229528077285,10.548343892625592
3619.9292,8.712264994685981,11.251832889319607
3620.762,8.705013996664281,10.348612766953927
3621.595,8.705291344430604,8.743940238622203
3622.4302,8.712048784011966,12.371436885431432
3623.2634,8.724720221070001,9.224180803797957
3624.0989,8.740056474682495,10.626085954166063
3624.9326,8.750510556762869,10.683952408973177
3625.7686,8.747497121440706,10.353595027700742
3626.6028,8.727094980954647,8.413227592082343
3627.437,8.69351193119103,13.013795283593169
3628.2734,8.65655395247835,13.000762394479745
3629.1082,8.625777459928054,12.204898282430543
3629.945,8.60469645117481,13.693870248499843
3630.78,8.589895496436267,13.188903485836686
3631.6174,8.572591241467592,10.30110031923935
3632.453,8.543757363372428,9.785998230571304
3633.2883,8.500204930589984,9.860567161618983
3634.1262,8.448855159134617,12.304819010636706
3634.9622,8.40460375810257,14.759681631879225
3635.8005,8.379550021479478,13.19459181688323
3636.637,8.374239475665728,13.011698995324432
3637.4756,8.376906919996319,11.130813956298331
3638.3123,8.373354309066793,11.861103098747106
3639.1492,8.35704904213991,11.22763705274677
3639.9885,8.330662869307044,13.405312059812417
3640.826,8.300480906305166,11.423442051669888
3641.6653,8.270267056696753,15.126287732820504
3642.5032,8.241014776298577,16.10899684588135
3643.343,8.212357366524637,12.783548929812296
3644.1812,8.184361213884191,13.789134071129054
3645.0195,8.157976698407614,13.431962250440412
3645.86,8.136477377973293,10.540758359122705
3646.699,8.125201428478546,13.444995449718153
3647.5398,8.127573373085015,15.435139615416933
3648.379,8.141037905614624,12.817438573269337
3649.2202,8.157071649196748,10.906429437462268
3650.0596,8.165931059882693,15.286636510046755
3650.8994,8.162224750391225,10.635314337783889
3651.7412,8.146132592850009,12.370878937483603
3652.5813,8.121599384922733,12.392747282697083
3653.4236,8.09369856506578,12.364831894420272
3654.2642,8.06795799413788,15.59170552746586
3655.1067,8.048974276008448,16.08593501496783
3655.9475,8.03887605861508,12.64143738168008
3656.7886,8.034944167042925,15.574337467511956
3657.6318,8.030046496795974,14.046469520299004
3658.4734,8.016744804581426,11.31795160796644
3659.317,7.993159258581134,12.51305058940871
3660.1587,7.965989639844193,11.333463567501381
3661.003,7.946301113502789,12.537505295292725
3661.845,7.942034688375035,13.035761026092077
3662.6875,7.952502633339144,13.81318299813499
3663.532,7.970665979741896,11.744884022785856
3664.3748,7.989175017001777,12.766234263033404
3665.2197,8.004546394233655,10.675222283354179
3666.063,8.015319231228622,12.84345495509726
3666.9084,8.019316389876987,11.699914331256526
3667.752,8.014269189764107,16.10619488817903
3668.5977,8.001751446500029,13.564180705561707
3669.4417,7.98856412059404,12.160506575956456
3670.286,7.982410923271023,13.919888150653968
3671.132,7.986228890439508,14.654440994568063
3671.9768,7.996529804637081,11.673213671047288
3672.8235,8.007114933618633,13.575067698150644
3673.6685,8.013433147507124,17.13650678981966
3674.5156,8.014093186691618,11.959427873055482
3675.3608,8.009592439036638,13.871095655514804
3676.2063,8.001020141384563,12.07722138993338
3677.0542,7.989234704207468,12.257812947042593
3677.9,7.974391800747911,13.366953218672446
3678.748,7.955609160479825,13.90735262229165
3679.5945,7.932242329222704,12.976985063180882
3680.4429,7.904822755707337,14.097945268238602
3681.2896,7.8759097265282865,12.670715843028313
3682.1365,7.849054468251341,13.278809924264376
3682.9856,7.8278718707981705,11.36751759248521
3683.8328,7.814928362748501,16.775305773764803
3684.6824,7.810276465024543,11.57520804214393
3685.53,7.81139092574371,13.673333620778664
3686.38,7.814430426758528,13.160859252647391
3687.2278,7.816722464672579,15.959021192939852
3688.0762,7.8180711163712,11.936746940990162
3688.9265,7.81945810680516,15.497066984925592
3689.7751,7.820909829041803,14.24839884341567
3690.626,7.821377318177623,12.681448022159325
3691.475,7.8206244224173265,12.111330821515054
3692.3264,7.820145034535838,17.330535857451636
3693.1758,7.8213762869088646,15.355606560530525
3694.0254,7.823384822532986,13.276140497906386
3694.8772,7.822898603909893,14.330122135245466
3695.7273,7.8166014265137775,16.327182247136477
3696.5793,7.803549163031512,12.571845213125968
3697.43,7.786236052693983,16.045930094359232
3698.2825,7.769173040675918,16.920836106698886
3699.1333,7.756134798639298,17.749370132331574
3699.9841,7.747489717534112,14.268214999218703
3700.8374,7.740884150291354,15.019009149103127
3701.6887,7.733965177986919,17.087537553922854
3702.5425,7.725769263047272,15.237638746762805
3703.3943,7.715983836587767,13.763590505628443
3704.2483,7.703809804325317,13.771267751598359
3705.1003,7.6890362566095884,12.055449599786986
3705.9526,7.672995657374202,13.7122919146239
3706.8074,7.657558285870096,15.043696702608065
3707.66,7.642519554200417,14.305220557104121
3708.515,7.6242887812477065,16.58094240555824
3709.3682,7.599091185727545,12.706615835069885
3710.2234,7.567205833431002,16.373022702635314
3711.0771,7.535042012320166,16.92113486974295
3711.9307,7.510790042462568,16.31315845341371
3712.7866,7.497933335998395,14.697198083282283
3713.6409,7.492098066581518,19.70561972369181
3714.4973,7.48461413200515,16.47323718442885
3715.3518,7.470540808965033,11.380063690344464
3716.2085,7.453214802766201,16.841156108585317
3717.0635,7.441768066851118,16.01064213659315
3717.9185,7.443372308218255,20.518396315142876
3718.776,7.457921949081057,16.843550408495094
3719.6313,7.478118598726905,16.134680148461072
3720.489,7.4939450637628156,16.664313956946174
3721.345,7.496510493118486,20.243521387976802
3722.2031,7.481043808397979,12.988731523992008
3723.0593,7.4494063156993775,14.236706441369666
3723.9158,7.411342606229582,18.633965028181034
3724.7747,7.3818306350428,17.462463282354395
3725.6316,7.373709018712065,14.935266058696312
3726.4905,7.3893060538232,20.4234961997206
3727.348,7.418890488034211,16.946403075720248
3728.2073,7.446835108295417,14.918426967344612
3729.065,7.460324661495322,13.480781829759028
3729.9229,7.455589620343114,15.375253001719477
3730.783,7.437537595158431,16.31073375790293
3731.6414,7.415606499121831,13.467389488718608
3732.5017,7.397914163729235,16.144797392511133
3733.3604,7.388032651725068,14.568419622061345
3734.2214,7.384652362649109,18.09936931389433
3735.0803,7.383976511491953,14.574819020175656
3735.9417,7.38163600238461,15.400402204982958
3736.8013,7.373809992275842,14.846431618630291
3737.661,7.358685161761776,13.859266988670939
3738.5227,7.338544262865151,16.982779887989683
3739.3828,7.320062656586226,13.049024791632426
3740.245,7.309938848646099,17.291513631155812
3741.1055,7.309630546591496,13.869387225619283
3741.9683,7.313613867305537,17.011386101933365
3742.829,7.313619298726575,16.40640570327582
3743.69,7.304424075354199,14.351593435819131
3744.5532,7.285918114101239,16.465045229960285
3745.4148,7.261350482068302,14.306849767816662
3746.2786,7.234141909785244,16.155973810101912
3747.1404,7.207121381810798,16.129470398678723
3748.0044,7.182407774134076,17.31531616747488
3748.8667,7.16256019107033,16.651038518521577
3749.729,7.150114531596729,15.726637934426355
3750.5938,7.146523678743364,17.961953518514804
3751.4565,7.150289359918536,13.91709234507838
3752.3215,7.156696371331161,15.176051101361706
3753.1848,7.160653526889534,15.438264265418216
3754.0503,7.160795916441156,19.30584282215674
3754.9138,7.160609332682095,22.774410714858046
3755.7776,7.165047159496021,17.782783764941872
3756.6438,7.175557907316016,18.890943070627497
3757.508,7.188088093200164,15.781253172376552
3758.3745,7.196247603319879,14.696682386325385
3759.239,7.195992642634844,16.512161497746572
3760.106,7.188150797892532,19.0502895153223
3760.971,7.1770711368549485,14.344046353288464
3761.8362,7.167387968080293,15.615627414785566
3762.7036,7.161446701081473,16.673134541671427
3763.5693,7.158238518809524,18.206214162368344
3764.437,7.154312004676769,16.035343563555276
3765.3032,7.146721258618778,15.69448263738129
3766.1714,7.135419988219767,18.43457855357103
3767.0378,7.122833892607658,15.295700131930744
3767.9043,7.110686970953025,16.841838969118353
3768.7732,7.098289662603669,16.646918700857654
3769.6401,7.084380803677017,18.397830167752428
3770.5095,7.06987155898401,17.963743435546935
3771.377,7.058330742058922,19.751713741567606
3772.2466,7.052428765710299,18.19228115734479
3773.1145,7.050864448519947,23.356024460801653
3773.9824,7.0488653318803935,15.690325503410012
3774.8528,7.042479349385928,19.518351600132767
3775.721,7.032306518935693,19.22063890676326
3776.5918,7.022872457344315,17.708638979389516
3777.4604,7.01908423709149,23.231093904346366
3778.3315,7.023108060220407,17.371347612584046
3779.201,7.034330156030317,18.05344904263104
3780.0703,7.050584024678194,16.988931301388444
3780.942,7.068750359952515,17.318088447711784
3781.8118,7.084933501731914,17.933764540878308
3782.6838,7.096150190376643,15.089625139041129
3783.554,7.101763890574592,20.573112914175105
3784.4265,7.103429189065711,17.817584083892513
3785.297,7.102365930491521,13.652197825384146
3786.168,7.097036831224787,15.866294622458842
3787.041,7.083611532812724,16.982141413708625
3787.912,7.0592382980492285,14.18480666462231
3788.7856,7.024644002530187,16.43847689947129
3789.6572,6.984960571480511,15.914610617562502
3790.531,6.94680266781447,22.103042173865866
3791.403,6.915441071835135,16.738114524945846
3792.2754,6.8913783296489415,15.726906685016285
3793.15,6.870406470024338,17.52472857898526
3794.0225,6.8466771500031,17.59746277551102
3794.8972,6.8167314942312185,17.640389873222365
3795.7703,6.782366842183412,20.262250634694944
3796.6455,6.748759560793259,19.259358419349045
3797.519,6.721549534684219,17.30718621667724
3798.3926,6.70385392916837,17.975623116163984
3799.2686,6.696579653743535,17.514922920555318
3800.1426,6.699772178863529,21.47796744917857
3801.0188,6.713124184412524,18.908126934646933
3801.8933,6.734844988256843,21.815908694527558
3802.77,6.76040189092178,19.478364341902008
3803.6448,6.782778676704075,15.35091430267689
3804.522,6.796532493580716,19.360504962165344
3805.3972,6.801539475408284,15.960470905393038
3806.2727,6.8036465609384935,20.537574180918416
3807.1504,6.81003448064161,17.94955949005177
3808.0261,6.82370222316033,17.4541162772354
3808.9043,6.842182613625487,17.551367613290786
3809.7805,6.860796066316198,18.395364930883588
3810.659,6.877354827595278,18.444108779651454
3811.5356,6.892647077737461,17.64925043611247
3812.4126,6.9078074356736625,17.802531135671185
3813.2917,6.921580840174656,20.297730354240983
3814.169,6.931188521683565,14.625705613952043
3815.0483,6.9357228657082155,19.272393637672124
3815.926,6.937300122670762,17.51133989713327
3816.806,6.938959583944726,17.978723025235304
3817.684,6.941433064213289,17.066390757865737
3818.5623,6.942316556900546,20.175756948337874
3819.4429,6.937863266030367,18.644099065211073
3820.3215,6.925403090894389,17.378944475647994
3821.2024,6.904123649509109,15.107135096067832
3822.0815,6.874452752817859,17.869723298975966
3822.963,6.836398352384822,20.32486604628914
3823.8423,6.789905010738455,20.03343300835896
3824.722,6.735379878895359,16.913636244316567
3825.604,6.674917262476745,18.985897736138007
3826.4841,6.612470210523741,17.68466428024179
3827.3665,6.551241710474015,18.271099881629944
3828.2468,6.493246373668568,19.98840784388879
3829.1296,6.437409669757607,24.076626067442188
3830.0105,6.381242654108906,17.656925223030694
3830.8916,6.321774049828208,21.412837492470985
3831.7751,6.258370703794136,26.48349712676301
3832.6565,6.1943872188820635,26.00793153364051
3833.5403,6.134844634670059,18.690099140282484
3834.4224,6.085282439398615,27.935289262120893
3835.3064,6.04902532255505,25.978550892488414
3836.1887,6.027925570780492,22.038001002925714
3837.0713,6.022445459437521,24.458749943769106
3837.956,6.032335741635982,26.345704123611903
3838.839,6.0561002901460625,28.631559989954464
3839.7244,6.090951869611221,29.775445883534637
3840.6077,6.132896777734297,20.778611110414957
3841.4932,6.178590700998565,23.867013866960683
3842.377,6.225872647461289,21.51657606795008
3843.261,6.275001734020726,21.954961667716756
3844.1472,6.328038643156656,20.88931497719266
3845.0315,6.387407024370755,19.27857284026031
3845.9182,6.455271007396375,18.79678221301202
3846.803,6.530767032116571,21.019860898500138
3847.69,6.610517420365319,18.636838429011895
3848.5752,6.687921213195316,19.889027219480717
3849.4604,6.756528869650791,18.6897298626185
3850.3481,6.81233840782817,16.179652513466884
3851.234,6.855087273976071,17.06990743410671
3852.122,6.888212428255033,21.183924845059177
3853.0083,6.914909296173382,19.357072634977225
3853.8967,6.936381863021924,18.604714685215402
3854.7832,6.95155482759321,19.476143818660805
3855.6702,6.959621171867891,18.743598179100356
3856.559,6.9617211903684435,15.788679629764964
3857.4463,6.961507114695799,17.04821778040014
3858.336,6.964196510555055,18.121395192882055
3859.2234,6.974280422899948,18.690915956708658
3860.1135,6.993011886460543,18.84990602867763
3861.0015,7.017101683174855,18.780634256982527
3861.8896,7.040549222459795,14.981387861353609
3862.7803,7.057040332067877,17.658608245646427
3863.6687,7.061371833508884,15.68779997454509
3864.5598,7.050223934658226,15.4866847720661
3865.4487,7.022940055808812,14.233377465661837
3866.34,6.982025900342051,18.318782442877747
3867.2297,6.932666641001479,18.235309714883634
3868.1213,6.879329405086064,19.20994616346146
3869.0112,6.82443829752361,15.655962459381067
3869.9014,6.768224387356678,19.334931837059393
3870.7937,6.71151824496232,16.080960818056695
3871.684,6.657390109229477,20.58383656538792
3872.577,6.608390487025955,18.160930181626835
3873.4678,6.564427615840608,19.901044322004942
3874.361,6.5209761630404595,17.83413718755024
3875.2524,6.472727197810701,14.910444905991337
3876.1438,6.416456659573643,18.256644791225014
3877.0376,6.352234314754794,21.67505887334952
3877.9297,6.281987276476139,18.523321848986246
3878.8237,6.206137514023944,22.216004580606118
3879.716,6.1245014234982,23.24960403410656
3880.6108,6.036265641214384,20.269635437857843
3881.5037,5.9424140553605325,23.14010377012097
3882.3965,5.844218104312434,22.95435511252483
3883.2917,5.743523155517705,26.104686523732042
3884.185,5.643617701233065,27.640862945118755
3885.0808,5.546916317720346,25.86735676661414
3885.9746,5.455307915065023,31.274545072536828
3886.8706,5.36716885589803,26.550899300707908
3887.765,5.2807488986313285,35.2396806578612
3888.6592,5.197246770824133,34.18592201549038
3889.556,5.124755014015678,31.768790900483193
3890.4507,5.0767962265185345,41.51356440168872
3891.348,5.063952732795858,43.79515794579819
3892.243,5.087906954585962,34.51277155020678
3893.1406,5.140812629151922,34.63650618742831
3894.0361,5.21094569422924,29.934911168502865
3894.932,5.2906744207443435,31.626127107261155
3895.83,5.3789165918457895,30.878503973830533
3896.7263,5.477681973584555,36.453736033397576
3897.625,5.588604992466263,36.23875705952934
3898.5215,5.707623698724124,25.873056249185996
3899.4207,5.82768914593055,27.533448859145395
3900.3176,5.939705491561587,21.657746721370305
3901.2148,6.038578187559091,28.843483946157484
3902.1145,6.123788490910316,22.135295338295283
3903.0122,6.197994980420315,24.67684203169382
3903.912,6.266061503768845,20.10352931301704
3904.8103,6.331570094068464,21.548965065271563
3905.7107,6.397187019227041,18.18741418327401
3906.6094,6.463563060974043,20.246027654652927
3907.508,6.530753319409887,20.147405970715784
3908.409,6.598371116390231,19.30109363970974
3909.308,6.665660956053774,17.474971717741848
3910.2097,6.733059686061888,16.56466149462923
3911.1091,6.801021649212612,20.042062301431866
3912.011,6.870788791360079,17.46540941182482
3912.9111,6.941946863643456,16.205816729571133
3913.8113,7.012704805887744,16.424144026821935
3914.7136,7.079598721422212,19.00792742311215
3915.6143,7.138193164891597,15.040580528026423
3916.517,7.185590046340393,17.670377579490797
3917.4182,7.220373257718874,17.5245965967055
3918.3215,7.243378045589653,15.70662983474606
3919.223,7.256536247223626,16.650507388015658
3920.1245,7.262968549373775,13.731404596907028
3921.0286,7.266761323123799,13.592276405663963
3921.9307,7.272701259155323,15.149899945171054
3922.835,7.285113854131901,14.560024098781673
3923.7373,7.305889436495063,16.53320807364816
3924.642,7.333564633688226,17.050892074609937
3925.5452,7.363557707606953,17.817133601302704
3926.448,7.390869032718179,16.958904510916526
3927.3535,7.412272050472363,18.496531012417364
3928.257,7.426765473959225,14.006533976699794
3929.1628,7.434949763405084,15.690476949070682
3930.0667,7.4375483775365785,16.650315360729916
3930.9731,7.435107078546348,16.92628435847101
3931.8774,7.427953758624089,16.474883162601913
3932.782,7.416199200842308,14.695802707153698
3933.6887,7.39970979531769,15.785713364188453
3934.5938,7.378309676966022,18.286465653217775
3935.501,7.351541659838529,14.522147955051446
3936.4062,7.31906428367508,16.015426791495948
3937.3142,7.280254408884484,16.464601711675005
3938.22,7.23517271702511,17.807538969101667
