wavl,flux,ivar
3566.9744,4.770062570446511,10.745216051759098
3567.795,4.7521417321545805,12.93207387402964
3568.6177,4.733331487230666,14.00658061956272
3569.4385,4.718423365924284,18.293808480297972
3570.2617,4.7098280649656035,15.802313998453405
3571.083,4.707701353713781,14.051787633472037
3571.9065,4.711393444612008,13.951847175396257
3572.7283,4.720990473555799,15.425764085340546
3573.55,4.7369140612088945,15.03691967294849
3574.374,4.757995419611701,16.574265417615248
3575.1963,4.779848299671454,14.396710473934284
3576.0208,4.796086666715893,14.063634892766876
3576.8435,4.800872112771018,13.787408726421171
3577.6682,4.7921330059077665,13.063471993799622
3578.4915,4.772335717588661,14.78798789759081
3579.3145,4.7465312979683,10.020107889183823
3580.14,4.719316485952184,10.866554518871615
3580.9636,4.693778767698991,19.949672861175202
3581.7893,4.671934887348741,13.179435395669579
3582.6133,4.656330373472365,16.07578649381017
3583.4395,4.649034989810693,13.830084819768452
3584.264,4.650144597399472,14.620253165418706
3585.0884,4.656915361220596,13.26466634194585
3585.915,4.6648751832217235,17.33801267373497
3586.74,4.669194499530953,13.616436387405932
3587.5671,4.665897177493866,12.811611192537605
3588.3923,4.652712627403578,15.849117023583586
3589.22,4.629743473847692,15.051468475057904
3590.0457,4.6001163656836415,19.45215230637897
3590.8716,4.569440630883335,15.727289097295305
3591.6995,4.545027857304478,11.179323372402566
3592.526,4.53370574924304,19.387238759324408
3593.3542,4.538273732315571,16.81575059224571
3594.181,4.555635925655764,21.052912426645122
3595.0098,4.578134783603324,12.352288303146889
3595.8367,4.597261320079868,16.72882009649508
3596.6638,4.607657235592828,14.398309898898038
3597.4934,4.6076631553569785,13.628949036746617
3598.3208,4.597761025305689,19.363807050304544
3599.1506,4.578934456243643,10.607496610016693
3599.9788,4.5530598076090385,12.543124215285474
3600.8088,4.523650870025357,18.16987848913285
3601.6372,4.496247305352467,22.13505268285038
3602.4678,4.4762736805469725,13.224310814427946
3603.2964,4.467417243586215,26.643736756061763
3604.1252,4.470026757367004,15.536805051319037
3604.9565,4.48133816733571,14.143343278914182
3605.786,4.496347383657048,17.039004836595968
3606.6172,4.510090980685391,12.89289711858218
3607.447,4.519691795172655,15.657377747596954
3608.2788,4.52548327109532,13.82137992740515
3609.109,4.529278452898518,16.502590325610072
3609.9392,4.531403299085473,14.121525856187306
3610.7717,4.529020993289639,12.472188243302467
3611.6023,4.518080066196304,15.507624802093684
3612.435,4.497124856435785,16.778188056590757
3613.266,4.469559935139785,21.31302200702993
3614.0994,4.441446608905831,13.981363035725483
3614.9307,4.41822720746776,14.653859306245273
3615.7625,4.402254045357942,15.343932430380583
3616.5962,4.393926543672435,14.851126160513578
3617.4282,4.39304014481598,17.04740352139443
3618.2625,4.398528803898643,16.867854944904238
3619.0947,4.407588513518733,16.068083845040285
3619.9292,4.416392585285821,15.506850673021843
3620.762,4.4220814165860105,17.406370363453103
3621.595,4.424183363867111,13.639058164903345
3622.4302,4.423768846040642,15.708066672839065
3623.2634,4.42219872012773,16.316659744073167
3624.0989,4.421104210539899,16.418482101127243
3624.9326,4.42317518871191,24.934144131437396
3625.7686,4.431649945481318,15.582223275409106
3626.6028,4.447722108682081,18.78266572337634
3627.437,4.468193054418549,12.603210996445068
3628.2734,4.486038934943642,14.602550851679213
3629.1082,4.494365225902976,13.303971014159426
3629.945,4.49126132707921,23.86725106817591
3630.78,4.48053128409821,28.56666518611072
3631.6174,4.467853655134709,13.546974079067223
3632.453,4.456162477963747,16.532354299602414
3633.2883,4.444206676649806,19.755329430501767
3634.1262,4.429623343857017,14.257491963755607
3634.9622,4.412831504925275,10.709468180978387
3635.8005,4.397435001518772,15.021612568280828
3636.637,4.38752582101062,22.574316598309224
3637.4756,4.383811946831833,19.3615012353274
3638.3123,4.38326425476486,15.894061406244166
3639.1492,4.381885134571571,18.78668792908154
3639.9885,4.378060194932189,18.515675622435896
3640.826,4.3734678544440655,15.254386601797066
3641.6653,4.371053569180854,17.90282631168262
3642.5032,4.372053034616248,18.371061420453046
3643.343,4.374239461452875,17.39300166361114
3644.1812,4.372990937919046,14.197593691454607
3645.0195,4.364458461938178,15.595090639257101
3645.86,4.348177908657709,20.869996364494593
3646.699,4.327564474414746,20.68489187979471
3647.5398,4.3077714655714265,16.30303083427849
3648.379,4.293322556888038,19.111013937330533
3649.2202,4.285595843287381,13.977653212081004
3650.0596,4.282498053073138,19.829068226278537
3650.8994,4.280174633513167,20.39503461474096
3651.7412,4.276362010036474,21.903290596091818
3652.5813,4.2721962461194565,19.970729772672623
3653.4236,4.270381527961622,18.957105401264936
3654.2642,4.2713859618836265,18.15766389965203
3655.1067,4.271661252374684,14.835055648608272
3655.9475,4.266305169940672,16.417748011260244
3656.7886,4.253492437024343,17.09585298656509
3657.6318,4.236115594901458,14.78589348712546
3658.4734,4.219772500212701,19.749615293212344
3659.317,4.209266622060284,15.672113028168017
3660.1587,4.207314012062351,20.246833413142536
3661.003,4.214510053848527,22.577420203180317
3661.845,4.2297713288129355,14.948335363954236
3662.6875,4.250754950416152,18.870837100737223
3663.532,4.27420647175473,15.36608654735006
3664.3748,4.296088617050158,21.744442632932866
3665.2197,4.312190763990482,25.37775517215623
3666.063,4.318576571044825,17.119495531043558
3666.9084,4.313283570807531,19.166315367760692
3667.752,4.297252832896563,17.258337143290767
3668.5977,4.273916957558744,17.19199866961716
3669.4417,4.248338713989836,14.676886501382006
3670.286,4.225775114232403,20.870473506087702
3671.132,4.210680101888519,13.59177294295295
3671.9768,4.205140386584804,18.803401861041856
3672.8235,4.207375348961279,18.803997255060835
3673.6685,4.212235251237877,16.653291972350452
3674.5156,4.213741727990586,14.869333116699424
3675.3608,4.208403381787584,18.72825692507787
3676.2063,4.196932970405824,18.977471557899285
3677.0542,4.182754612202004,22.77063328253784
3677.9,4.168951436870143,18.659818227246415
3678.748,4.15614365722261,16.488908917393875
3679.5945,4.143949523912091,17.629867005921284
3680.4429,4.133039025467654,15.92058329160119
3681.2896,4.125739691945366,24.44111826564152
3682.1365,4.123892141178357,19.599547523854547
3682.9856,4.126917196187734,18.084434983667535
3683.8328,4.131529339556475,22.121629983002975
3684.6824,4.133218110707422,13.994031266555963
3685.53,4.128217744774682,19.514239938854146
3686.38,4.1153128954629254,14.456126034135952
3687.2278,4.096685492294419,16.658570708949224
3688.0762,4.0766797543611,18.23027039375442
3688.9265,4.0597003029170455,21.399247508214476
3689.7751,4.048605151413836,18.64835353529501
3690.626,4.044174194785654,14.498793486156286
3691.475,4.045737352300426,16.672102746810957
3692.3264,4.051360791196805,18.881588448232613
3693.1758,4.0580512593338485,20.226432116497982
3694.0254,4.062788255913709,19.985383800802328
3694.8772,4.064260626422897,19.878926745467574
3695.7273,4.064121289089611,20.673006460375678
3696.5793,4.065993736152973,28.6077708008543
3697.43,4.072446405985431,19.293377595159956
3698.2825,4.082602161105367,19.182298844529672
3699.1333,4.092284247670228,19.86398254661527
3699.9841,4.096672206750064,19.145020774372515
3700.8374,4.092918749535336,17.17924611230691
3701.6887,4.081412585695742,21.692517124018874
3702.5425,4.064822740077968,18.620009489973924
3703.3943,4.046234577145198,18.641352100468172
3704.2483,4.02726591984704,22.29155021253906
3705.1003,4.008510192807933,18.92675423203933
3705.9526,3.9904247409572164,17.682878312157843
3706.8074,3.9742102600972706,25.697682093013942
3707.66,3.961435941932252,21.587793212844936
3708.515,3.95273904538724,23.738356896628808
3709.3682,3.947506857769976,20.875940695566666
3710.2234,3.943799510561252,20.84733213146979
3711.0771,3.9392331073215905,27.86478882100417
3711.9307,3.9322513398265238,22.03963609614385
3712.7866,3.9232538578545455,23.104910650349414
3713.6409,3.9144369149943055,16.40346662479763
3714.4973,3.9078953893703847,17.917418716999716
3715.3518,3.9041732287816897,23.913944914425805
3716.2085,3.90227569439034,25.501191451275687
3717.0635,3.9011518988512885,18.810388183998548
3717.9185,3.9005726788219106,21.062410256672436
3718.776,3.900727253513499,18.06470264897066
3719.6313,3.9011574642208253,22.50644430123835
3720.489,3.900350005663833,20.078584528026038
3721.345,3.8966512870830496,21.907638952847933
3722.2031,3.8897974154866057,20.50429978972248
3723.0593,3.8816042871258425,27.347049390785735
3723.9158,3.8747275703692106,25.113697090063415
3724.7747,3.8709174765894505,19.658959090259994
3725.6316,3.870242741951811,19.2998433567064
3726.4905,3.8716045214446893,18.911301565798382
3727.348,3.873685261026027,18.270580295466303
3728.2073,3.8752766249004367,23.399101316515804
3729.065,3.87504164282295,19.288043867602738
3729.9229,3.8715711116264,22.664283179923082
3730.783,3.8641291931728463,19.854221233014343
3731.6414,3.8536908226771707,25.90529095615065
3732.5017,3.8427104789557105,21.50721939102071
3733.3604,3.8337649059272785,18.7030461599476
3734.2214,3.8276344506644095,24.328341308200912
3735.0803,3.823004019999865,24.74977592128074
3735.9417,3.8175266009732387,23.488353139312785
3736.8013,3.8097722909273357,23.980186702174695
3737.661,3.80014607300588,22.345243278110118
3738.5227,3.7903798114632665,24.36792658629446
3739.3828,3.782056637646869,22.785716231690166
3740.245,3.775136073773088,26.350429389650106
3741.1055,3.768080237405866,17.221987649786595
3741.9683,3.758926072183534,22.12118465049297
3742.829,3.746875646161415,26.02316285783447
3743.69,3.732740926123997,20.050651184272684
3744.5532,3.7185607210496223,21.619632324353038
3745.4148,3.7068518048180796,23.073961552152408
3746.2786,3.699604183158924,28.447904601997198
3747.1404,3.6979452959710173,28.25796599091417
3748.0044,3.701752243129655,23.422096277901385
3748.8667,3.7098947162091758,23.654517447542315
3749.729,3.7209461550446057,27.283289913115766
3750.5938,3.7337122971752073,29.467017448723695
3751.4565,3.7468284405457037,21.42585720384232
3752.3215,3.7585191091671266,19.642335681780576
3753.1848,3.7667254345741115,26.19055006422697
3754.0503,3.7701820779025765,21.85708310964412
3754.9138,3.7683940134027907,27.297812711934238
3755.7776,3.760991065257582,23.065318147545888
3756.6438,3.747532039551267,24.02594684116462
3757.508,3.7288251459517268,27.211592261493077
3758.3745,3.7077973439031187,30.641994188557373
3759.239,3.6894002539301534,23.79823004432903
3760.106,3.678284690313616,28.153233923972977
3760.971,3.6768711625879447,21.897246842129988
3761.8362,3.683935891636876,21.24827731329705
3762.7036,3.695233169836172,21.27987318918537
3763.5693,3.705119230203256,21.880359187182265
3764.437,3.7089250834971947,26.105610353013933
3765.3032,3.7045834130125983,23.479766670389445
3766.1714,3.6933617833678336,21.60562699400661
3767.0378,3.6791582943702212,27.19628659354427
3767.9043,3.6661862476604536,22.078159723590666
3768.7732,3.656461593272375,23.337466181978716
3769.6401,3.6488294155539864,24.65258349165322
3770.5095,3.640487112524445,21.91423392748768
3771.377,3.6303102817918567,22.58583737140272
3772.2466,3.6200972275398007,25.07489267164158
3773.1145,3.6129027038039285,26.336579997360943
3773.9824,3.6098829983201224,25.129779639610227
3774.8528,3.6095497356370925,22.34059175238488
3775.721,3.609559197984914,31.141443898811588
3776.5918,3.6086228468655066,21.706523141248397
3777.4604,3.606410855179107,25.902598068470013
3778.3315,3.6023362564892265,31.682570109586283
3779.201,3.595767652466784,29.81137322491015
3780.0703,3.58784487125638,30.00730149345611
3780.942,3.5826171756155603,27.828986739673926
3781.8118,3.5852818854181017,25.758214829595353
3782.6838,3.5984188457324877,30.565255415013247
3783.554,3.619499426121869,27.040509019432843
3784.4265,3.642032479749243,25.665546983942395
3785.297,3.658512174917862,30.714152851833607
3786.168,3.6641520954705555,24.357779412719022
3787.041,3.658297501000724,23.23723425741181
3787.912,3.644053726809779,24.775837769736057
3788.7856,3.6258886752653865,26.40226735475947
3789.6572,3.6072751524321403,21.420381889911102
3790.531,3.5891197302244158,30.295946256995386
3791.403,3.570835429398334,25.10539860271355
3792.2754,3.55173540419664,26.266202563614886
3793.15,3.532202309038005,23.705899320606136
3794.0225,3.5136543548868766,23.405946467015387
3794.8972,3.4974690811667206,29.083911214718345
3795.7703,3.4848900302143946,26.413605463758564
3796.6455,3.4768663315294055,25.9843802648713
3797.519,3.4743130728116993,24.003465479250185
3798.3926,3.477287679705818,32.33320131500176
3799.2686,3.4840919554584864,29.68538890816532
3800.1426,3.491175594664577,24.831940053691703
3801.0188,3.495006933225682,34.17387612680875
3801.8933,3.4943263052667564,24.450267238735098
3802.77,3.4909985490463096,26.71912363715459
3803.6448,3.4884674671646203,24.843432750539204
3804.522,3.4893524785874654,28.656989382409712
3805.3972,3.4942991965049917,31.030334909094176
3806.2727,3.5024874812284588,30.26266138180952
3807.1504,3.5126891533258062,35.44596214428031
3808.0261,3.5234822966064785,21.142420047304984
3808.9043,3.5328895504065843,26.309007163568648
3809.7805,3.5378032789489824,27.77557426907501
3810.659,3.5350093800042997,28.6699362695778
3811.5356,3.5231446960214474,30.861959805734124
3812.4126,3.5043552355249044,27.466523616467597
3813.2917,3.483912564419001,27.744697231708606
3814.169,3.4678796024320526,25.737359878896815
3815.0483,3.4596598226705035,28.674154271098804
3815.926,3.458700146498412,26.08217824169352
3816.806,3.4613997237431984,39.14801233177374
3817.684,3.4638281807334432,27.010161876202506
3818.5623,3.4637913328107115,26.917109034842028
3819.4429,3.4609333985863984,22.62740115326744
3820.3215,3.455713801388124,23.046705877751176
3821.2024,3.4485445774990335,23.843458046667124
3822.0815,3.4398851462180584,30.181746837566553
3822.963,3.43040827236359,33.94722005151805
3823.8423,3.4210975270291857,29.001829063950197
3824.722,3.412617251932032,28.483810378033734
3825.604,3.404853952674809,27.20749417556235
3826.4841,3.3968524718489626,29.67343430903902
3827.3665,3.3871810103154756,27.425563412129712
3828.2468,3.3749482346667445,24.916504208192602
3829.1296,3.3602254717906357,32.869445770532266
3830.0105,3.344218882434618,30.610206576837818
3830.8916,3.3283416815312625,24.801949388975448
3831.7751,3.3136497267865486,29.728180045767076
3832.6565,3.3009082711935642,30.28935569048723
3833.5403,3.290741896414147,28.640623440926937
3834.4224,3.283853987319134,29.352442226336773
3835.3064,3.279971454204019,38.127817773928854
3836.1887,3.2771982010671388,30.406187391997708
3837.0713,3.2724798892852047,29.097934860472904
3837.956,3.2634273096002673,24.65677646235119
3838.839,3.250264905665059,32.94691601662154
3839.7244,3.2363534487423338,29.013755521505814
3840.6077,3.2272814055634926,26.107252150866998
3841.4932,3.2280077309954063,30.28733932374002
3842.377,3.2401687224572058,29.553420515088305
3843.261,3.261140929437948,32.31099983507032
3844.1472,3.285905076898811,31.033765983084855
3845.0315,3.309652940577698,30.255689504639665
3845.9182,3.329802302280117,34.101678324087665
3846.803,3.3454245580224025,30.690434959500717
3847.69,3.3569263312272972,23.111770200163583
3848.5752,3.365279299350642,29.88065116825027
3849.4604,3.3717182746748673,30.115268471318693
3850.3481,3.3769200171760207,26.872859915575273
3851.234,3.3806493959262154,22.909602008209664
3852.122,3.38240066478064,26.817573417650944
3853.0083,3.382093241240497,28.13125632183599
3853.8967,3.3799532007646116,29.030759141019715
3854.7832,3.3755625920880963,25.081226406329627
3855.6702,3.367579325236762,28.425419072219718
3856.559,3.3551398373189896,26.392050902110565
3857.4463,3.3398821124437648,29.46101047149714
3858.336,3.325883061012337,28.745477427738155
3859.2234,3.317546454162864,29.687928697887955
3860.1135,3.316569133863008,26.572659107843084
3861.0015,3.321447904412634,31.82576387191424
3861.8896,3.329112795901825,31.808487465233362
3862.7803,3.336809158898396,30.92846523426545
3863.6687,3.3423438528871072,32.11089630302296
3864.5598,3.3438177729881184,27.768642526315734
3865.4487,3.340032478107718,23.90613732837613
3866.34,3.3316833304860354,27.788577905219412
3867.2297,3.3214324000376245,32.18133560250786
3868.1213,3.3120387398728472,26.26898874907581
3869.0112,3.3045644821736255,28.56478194137691
3869.9014,3.2977594187826775,25.128174446251585
3870.7937,3.2891512607106645,27.64740430822597
3871.684,3.2768729618069448,30.234781109330076
3872.577,3.261172907583627,30.214398737986286
3873.4678,3.2449909545067794,36.68361518366503
3874.361,3.2317237708546487,32.517496150029544
3875.2524,3.2223934808691017,27.59684304170669
3876.1438,3.2140685155080404,40.28301859072365
3877.0376,3.202007267268227,26.056111658111863
3877.9297,3.183485549924726,28.152744014241872
3878.8237,3.159655443031312,37.27532755149674
3879.716,3.1345372732885872,29.9534435979839
3880.6108,3.1114983679573873,42.68886021094327
3881.5037,3.0916761929033933,33.624999865010736
3882.3965,3.074107419827874,37.663029611132
3883.2917,3.0576855386107913,38.483905511705686
3884.185,3.042271061578276,37.66182791861007
3885.0808,3.028016772374918,32.13029556929609
3885.9746,3.0147717380433465,33.20579753602835
3886.8706,3.001468154880805,33.909469838753715
3887.765,2.986956949129719,34.89061145612093
3888.6592,2.9708743449870574,37.24885964146995
3889.556,2.9543877429984797,37.42425194319546
3890.4507,2.9399571991555122,38.43401506890751
3891.348,2.9298113851699403,40.557837400290175
3892.243,2.925134722696001,40.977737748972615
3893.1406,2.925851186516683,35.4927629658004
3894.0361,2.9315816870399543,34.10844861287943
3894.932,2.9423956074365667,32.26142506447181
3895.83,2.958711764213843,44.95145879409461
3896.7263,2.9800445565097604,37.60171322568317
3897.625,3.004205693969953,36.894738728458336
3898.5215,3.0269644175630916,35.55998210678467
3899.4207,3.044127112536292,37.88598766870174
3900.3176,3.05340797588278,32.3320403263313
3901.2148,3.056287273316183,30.852689082804936
3902.1145,3.057560667037866,35.035096586663784
3903.0122,3.063512956494083,38.22826777523602
3903.912,3.079269770616962,29.078601836051785
3904.8103,3.1063186197062627,31.54539104618571
3905.7107,3.1419808272032568,29.011408092323396
3906.6094,3.1801997711132306,30.32905617130417
3907.508,3.2147245635548223,36.755491770916116
3908.409,3.241503592186826,36.999357824319986
3909.308,3.259621638677993,37.808964730938605
3910.2097,3.270750992485655,33.89342343747906
3911.1091,3.2759377722361585,27.908031974831285
3912.011,3.270021028441038,30.655854198357407
3912.9111,3.229403079688216,33.237295639282046
3913.8113,3.0907581683261527,35.046050371954635
3914.7136,2.728960767835604,31.948057291238417
3915.6143,1.975907716535656,27.184335510651096
3916.517,0.7118584176310268,27.985090852977645
3917.4182,-0.9497370399364393,29.751839116177003
3918.3215,-2.5788789092029347,31.562427486456784
3919.223,-3.545751141206611,205.98059159019482
3920.1245,-3.420313331092522,32.92066842036338
3921.0286,-2.2609679159776324,38.58424901160146
3921.9307,-0.5860324629343767,26.46300132899468
3922.835,1.0060814850981787,25.627838930234766
3923.7373,2.1490331024593066,31.443925969719317
3924.642,2.806951385093853,31.01243286105684
3925.5452,3.1158536026789645,28.7257363338337
3926.448,3.236931913606461,28.85582654577243
3927.3535,3.2757541054525126,32.555218163673395
3928.257,3.2834025494034256,27.913474681068173
3929.1628,3.280467139979562,27.30381609811782
3930.0667,3.274197496924629,32.33108965703292
3930.9731,3.2662668297509083,26.468715449795937
3931.8774,3.2561263512387955,31.649069227848813
3932.782,3.243387518348027,33.30095210445533
3933.6887,3.2296092950425694,34.599966965197325
3934.5938,3.2180603332356887,30.540716363770688
3935.501,3.2113084917581785,38.7052734235019
