wavl,flux,ivar
3566.9744,0.5975609454421758,477.59111209239836
3567.795,0.6124035096095962,834.1246280866546
3568.6177,0.624018181302699,6.916862969195179
3569.4385,0.6308763239438155,96.26483723180323
3570.2617,0.6320978292170312,155.30239771133233
3571.083,0.6274176328645276,47.61938237558617
3571.9065,0.6168147058370894,6.409217710932012
3572.7283,0.6000759071298268,31.593080342885315
3573.55,0.5767042517880397,46.09075455241464
3574.374,0.54707402346457,10.29498867150392
3575.1963,0.5145619348040479,6.0504091323563784
3576.0208,0.48559661749976046,636.739335221286
3576.8435,0.46772447087774427,111.71730049647203
3577.6682,0.4647682601577711,8.136792646270932
3578.4915,0.4744574671971368,81.49270174030988
3579.3145,0.48960239821773005,13.355671934792397
3580.14,0.5024045343041103,68.31396675076512
3580.9636,0.5085609336652612,425.4134202433833
3581.7893,0.5094762388588253,353.33419606195
3582.6133,0.5107896362774138,22.482380519773464
3583.4395,0.5186568415481815,3511.6502220263546
3584.264,0.5359449091539812,44.81051321125278
3585.0884,0.560801324470428,290.969441180094
3585.915,0.5874745804312321,681866.093202661
3586.74,0.6081780061233167,9.032268792699476
3587.5671,0.6165004467380261,19.392710970106517
3588.3923,0.610364266781814,200.81446755863377
3589.22,0.5938611101612761,7.246356555460176
3590.0457,0.5754959273648221,152.41383060487237
3590.8716,0.5630795870634445,363.234240318282
3591.6995,0.559512013341816,49.28937594078918
3592.526,0.5622837879291167,10.805624927502388
3593.3542,0.5671350187699865,1132.6373134488083
3594.181,0.5727522542630743,17.00339898275412
3595.0098,0.5830212680998426,18.11361226259387
3595.8367,0.6054698520451363,5.272154161355851
3596.6638,0.6478458712886072,582.9714352276903
3597.4934,0.7137788714925469,21.131881677654412
3598.3208,0.7968445574108941,160.68034850917735
3599.1506,0.8783004612581831,7.707409315063368
3599.9788,0.929277991081628,83.79919912392316
3600.8088,0.9261053800491931,27.12137690772084
3601.6372,0.8654226792545379,95.6881036231713
3602.4678,0.7676563394593107,22.24596252734503
3603.2964,0.6652370713927631,18.40578149313303
3604.1252,0.5835527830594811,139.98448969256742
3604.9565,0.533458730200369,150.60091341256665
3605.786,0.5142973792030393,618.216011433177
3606.6172,0.5194469464464617,504.77114532779575
3607.447,0.5407080904939272,1102.9373808296796
3608.2788,0.5702263899759338,23.782432501486173
3609.109,0.6019351753842831,52.43626838287568
3609.9392,0.6323623894131212,66.52331624457675
3610.7717,0.6586834546674174,78.63591899705312
3611.6023,0.6770374714649358,11.089527903133753
3612.435,0.6840316822962647,406.16037530646963
3613.266,0.6788639084333339,1338.1453782300152
3614.0994,0.664314233377843,127.68386254451843
3614.9307,0.6452677377928776,212.0812766185823
3615.7625,0.6260791161234387,10.493286040154825
3616.5962,0.6089899319441924,486.17130263571795
3617.4282,0.5938709591436738,18.12142501642011
3618.2625,0.5790800755928014,11.118990355408386
3619.0947,0.5636689840205384,17.92404682327694
3619.9292,0.5484214550783986,43.4101821768659
3620.762,0.5360439886468963,22.25408178046899
3621.595,0.5298124845929053,74.33920535575487
3622.4302,0.5325215389093012,14.694202435127137
3623.2634,0.5452969110956897,23.315184688018633
3624.0989,0.5665731146401348,185.89573355318998
3624.9326,0.5911283806499447,68.94490169658546
3625.7686,0.611374627217126,22.721452118932888
3626.6028,0.6205319305335305,7.1515380771833215
3627.437,0.6173962049038397,7.874109135511766
3628.2734,0.6072359535205225,52.92209246234962
3629.1082,0.5979874431139667,105.1902036141239
3629.945,0.5945732986179936,5.208912521971825
3630.78,0.597310307075156,34.688904412206995
3631.6174,0.6048491277289264,17.03355581481776
3632.453,0.617757588555463,96.00664544360171
3633.2883,0.6389096661060109,301.6275064094099
3634.1262,0.6703178125394761,22.595318117654642
3634.9622,0.7088741624724072,66.75632032972625
3635.8005,0.7454105024023436,168.71629358210905
3636.637,0.7664970384504081,3.3999407787351257
3637.4756,0.7614688239737799,5.351709624996787
3638.3123,0.7296197805472524,800.3082470341812
3639.1492,0.6836216420480965,10.788078194580622
3639.9885,0.6447361784979856,249.26089253360945
3640.826,0.632244551175603,532.1262499755102
3641.6653,0.6528037712477419,63.11387665279384
3642.5032,0.6983263096910822,3.829202606275114
3643.343,0.7524480224157268,179.92594937857334
3644.1812,0.7997698482508863,7.715881264968135
3645.0195,0.8335460747043942,109.76234318818594
3645.86,0.855547739238732,5.762768585849262
3646.699,0.8711000365485514,6.835336435201039
3647.5398,0.8839034153929061,13.02940243421003
3648.379,0.8935993593062506,12.706255724559526
3649.2202,0.8974438157936832,6.848565163871317
3650.0596,0.8927203506643434,2.9311922970906243
3650.8994,0.8786689721693554,35.27243701726927
3651.7412,0.8573434891009258,4211.547556838837
3652.5813,0.8338160994612231,21.029484153030232
3653.4236,0.8142115315480194,11.07153858827147
3654.2642,0.8030508355314221,11.774084479590343
3655.1067,0.8004880871694356,76.12209653970535
3655.9475,0.8026314707815261,38.043128856805275
3656.7886,0.8037948715412025,28.208268249505615
3657.6318,0.7991149285329464,190.385736949402
3658.4734,0.7863888203711246,3.648555872484465
3659.317,0.7669543041892359,3.6048506322143767
3660.1587,0.7456836106241366,10.320310576483138
3661.003,0.7287614810288032,21.59070604023971
3661.845,0.7212811272602346,40.41040180027513
3662.6875,0.7250190028990415,1045.1431251888944
3663.532,0.7381885245092257,50.884080270782974
3664.3748,0.755617850630094,120.42927142061532
3665.2197,0.7704428306824749,6.631943514193659
3666.063,0.776947248220473,2.299592957712429
3666.9084,0.774112586881542,9.83562046910357
3667.752,0.7660936997501632,16.29959111907689
3668.5977,0.7589957035510478,23.394303172028813
3669.4417,0.7568303120142699,361546.8882726771
3670.286,0.7600012969929484,6.333014383381632
3671.132,0.7671435316854465,3.0615088675491426
3671.9768,0.7771410243823871,36.902112547593006
3672.8235,0.7895254644381279,4.291697985246071
3673.6685,0.8034535809212464,2.5549296332740647
3674.5156,0.8176222635615086,5.0447291675849675
3675.3608,0.8304369031460989,190.43290869067687
3676.2063,0.8404259357866707,12.38605414558627
3677.0542,0.8461698088944376,15.112003168604659
3677.9,0.8473026732815888,6.821822233239296
3678.748,0.8461582879993723,20.130346558565602
3679.5945,0.8473789173685822,9.960851446528523
3680.4429,0.8541936687950688,22.856107554053104
3681.2896,0.8638869351293924,77.13668726757743
3682.1365,0.8679322768929962,8.82770227303256
3682.9856,0.8583398657626989,36.968286953788514
3683.8328,0.8356774050886205,147.69520086334177
3684.6824,0.8103805528138226,5.257391328475938
3685.53,0.7956202771146417,74.5855033626286
3686.38,0.7964414228810219,28.614059435779833
3687.2278,0.8062377959959367,36.147262255308526
3688.0762,0.8133983080673091,2.9558215621121944
3688.9265,0.8117633711433492,34.95686596008617
3689.7751,0.8043249049309503,15.076098505455537
3690.626,0.7970520514952817,56.186213961080526
3691.475,0.790864609637038,28.742805909002996
3692.3264,0.780446493302422,11.387201782008944
3693.1758,0.7604900429218097,207.30706538441544
3694.0254,0.7315573131225945,10.06969434098721
3694.8772,0.7008592304423936,180.89241585430747
3695.7273,0.6788252023686931,851.5994247775131
3696.5793,0.6736730105601996,37.169991475474205
3697.43,0.6876277665104092,12.46130651701688
3698.2825,0.7153161333182312,6.714633474260265
3699.1333,0.7464289572115034,21.108895787997497
3699.9841,0.7724496846807571,28.272288397320352
3700.8374,0.7914122507946273,9915.654281805995
3701.6887,0.8066005029714317,314.48010386418264
3702.5425,0.8212828018034084,20.621886900749125
3703.3943,0.834813541445103,11.998343819767358
3704.2483,0.8447536506562203,13.162678688500364
3705.1003,0.8501605110874957,256.23911038846535
3705.9526,0.8518742123932863,6.16297039107146
3706.8074,0.8491736251084759,36.34474926945697
3707.66,0.837925335159705,10.824962461203995
3708.515,0.8129727812214042,12.7266407267652
3709.3682,0.7735425468317305,14.457679682310584
3710.2234,0.7259010161361681,5.45246335587777
3711.0771,0.6818548359305618,32.03866668389849
3711.9307,0.6518167223872378,5942.191985828784
3712.7866,0.639265316270883,30.56438830239364
3713.6409,0.6398013275510163,53.90087619232282
3714.4973,0.6450884033001261,52.020644381852286
3715.3518,0.6484042933824826,9.622623899403532
3716.2085,0.6475346064848537,10.210714345746979
3717.0635,0.6438583909275546,9.002164613270597
3717.9185,0.6390900394376019,17.115386718435843
3718.776,0.6322055083069742,864.5803061614454
3719.6313,0.6196124045118733,10.596074271888387
3720.489,0.59912303311054,40.73420620408794
3721.345,0.5749732932553502,7.016540630622467
3722.2031,0.5576119323530596,200.57321834460146
3723.0593,0.5583156955583214,94.35381328683178
3723.9158,0.5818717685988959,424.56380552855234
3724.7747,0.6239307844778117,38.37699617078411
3725.6316,0.6726854432740443,10.508105399615115
3726.4905,0.7150141551167024,113.30500022775671
3727.348,0.7415352300700263,34.16470376487814
3728.2073,0.7507042254282152,23.068400444321522
3729.065,0.7475391878261445,35.28421217876294
3729.9229,0.7393039115921743,177.86809770804467
3730.783,0.7310449294314769,80.07584897601589
3731.6414,0.7246424812147604,6.735429313065446
3732.5017,0.7203327966496847,16.239456664704154
3733.3604,0.7185267615681988,854.2620010314387
3734.2214,0.7202750041142186,18.681959049694395
3735.0803,0.7271057889052451,73.0258184342872
3735.9417,0.7404417106404638,17.67792769749895
3736.8013,0.7601774226876521,259.996859812959
3737.661,0.7835421876861823,23.481070108330115
3738.5227,0.8049306157957793,35.11684553085792
3739.3828,0.817703922203938,21.672022585387353
3740.245,0.8182581268598054,14.996974075143099
3741.1055,0.8088762719948395,408.4996951808929
3741.9683,0.7966668960397065,58.647977475359504
3742.829,0.7883009583712641,86.26112184052141
3743.69,0.784892491067067,4.213482732332713
3744.5532,0.7823450905907182,85.59241481067161
3745.4148,0.7758746738304281,7.402224145397441
3746.2786,0.7639715039509039,108.67854098249913
3747.1404,0.7490935541700715,19.743001034947614
3748.0044,0.735610453358674,22.877582642996092
3748.8667,0.7281321144484512,6.473929876625139
3749.729,0.7301953034091476,26.366311304684274
3750.5938,0.7436507227379476,11.996683947447213
3751.4565,0.7674036663636606,63.07067783836031
3752.3215,0.7967631715465884,760.9715624185981
3753.1848,0.8234247344330037,2.3349761003356235
3754.0503,0.8382320215458605,10.854413602625629
3754.9138,0.8344516878285388,59.25459495135455
3755.7776,0.8116366694650594,48.807754426499315
3756.6438,0.7769737785818969,40.694288643030816
3757.508,0.7434731655039392,15.000167533412373
3758.3745,0.7231079842364793,22.42733191471342
3759.239,0.720882258143889,17.334061192647916
3760.106,0.7329327748581979,78.11560206362927
3760.971,0.7508424487450865,807.493002149261
3761.8362,0.7675459901444637,6.885711845533932
3762.7036,0.7800058221454443,21.892470251414977
3763.5693,0.7880700845936851,25.159176922844033
3764.437,0.7918061621258592,117.18529981408074
3765.3032,0.7892599802845713,1276.6645855107715
3766.1714,0.7770553488590988,17.248191791354134
3767.0378,0.7539279639657126,15.516415994547675
3767.9043,0.7243784392850878,25.96880139293928
3768.7732,0.6988219413248452,16.758070740578184
3769.6401,0.6889385430396715,36.205787008043416
3770.5095,0.7005708605159774,45.046329623295655
3771.377,0.7305015207003936,12.271109098052634
3772.2466,0.7687459711458887,2195.462522399334
3773.1145,0.8031748148285887,130.76877460470257
3773.9824,0.8245488220221943,93.25973402658816
3774.8528,0.8286936627717599,1754.369540687168
3775.721,0.8171095624565579,232.94755223053545
3776.5918,0.7950088349811851,27.562473703982572
3777.4604,0.7675624078852495,14.941029290232283
3778.3315,0.736725121466055,16.103620880117198
3779.201,0.7033851207473263,5.596492304552307
3780.0703,0.6712885333684129,41.50378652176089
3780.942,0.6489549674563182,15.401396328476354
3781.8118,0.6456078718261757,94.87541191939667
3782.6838,0.6640834906048826,15.63690566316654
3783.554,0.6981103307579954,10.94251714697979
3784.4265,0.7367870299076222,4.691809968111319
3785.297,0.7707542080593011,119.39608918007598
3786.168,0.7958482882295802,659.7341397121935
3787.041,0.8110453330507758,8.41621163230907
3787.912,0.8164490766468953,22.899199203988218
3788.7856,0.8139132720061775,43.3583310224719
3789.6572,0.8072988160800684,108.4134856612433
3790.531,0.7999457479384183,31.661286504837953
3791.403,0.7915748318565842,153.18466213733916
3792.2754,0.779004316718355,7.145034438625144
3793.15,0.76091118482323,47.117979541851405
3794.0225,0.7409474384871358,186.50788856969967
3794.8972,0.7245826756900865,9.830217684708407
3795.7703,0.7140393003832591,11.438199321714507
3796.6455,0.7064433986837837,76.90995597848152
3797.519,0.6977966527885114,11.21095240770752
3798.3926,0.6875408146524397,75.51555421420835
3799.2686,0.6796635337181247,29.532558724327895
3800.1426,0.679708680174986,291.3340292200159
3801.0188,0.6903453146499638,57.153411703432724
3801.8933,0.7091155482825773,1833.1112398762566
3802.77,0.730089045029426,7056.798641637876
3803.6448,0.7475467449231663,273.0197194128559
3804.522,0.759576423895079,1594.0259743081835
3805.3972,0.7680755288958894,3149.2151533277856
3806.2727,0.7769925305607766,137.20147305054428
3807.1504,0.78988028795017,1012.9415168545318
3808.0261,0.8080592122054204,2509.385339988915
3808.9043,0.8300011516525206,13.148697474117206
3809.7805,0.8516579601004821,10.55253486512763
3810.659,0.8690073450837567,26.672432552409735
3811.5356,0.8795234722192545,33.385640627903435
3812.4126,0.8825000703165197,7.675221525148623
3813.2917,0.8779269481488178,5.388086520023423
3814.169,0.8663419784270702,62.385569882067884
3815.0483,0.8491697768872773,8.890448250194765
3815.926,0.8290154762095255,17.349951075158092
3816.806,0.8087889105522509,34.62924788963727
3817.684,0.7911517699331364,182.67609130916915
3818.5623,0.777401019814896,62.761489710379664
3819.4429,0.7673677219447003,19.183040557985564
3820.3215,0.7603128718249932,34.55407528416476
3821.2024,0.7561913889235168,25.93653850054661
3822.0815,0.7561127058557998,36.195242587954496
3822.963,0.7606418112532295,58.20766074777655
3823.8423,0.7677048250841313,33.734490046160886
3824.722,0.7726301544420494,26.092130490161786
3825.604,0.7709503956963394,16.389526560515176
3826.4841,0.7620547200762803,92.14826135882005
3827.3665,0.7500593709308685,65.59935447504962
3828.2468,0.7407933930429439,55.29112662764263
3829.1296,0.7370353381415509,23.348085193709338
3830.0105,0.7368029148341125,896.5172244287764
3830.8916,0.7353871630231814,310014.61584745825
3831.7751,0.7287794568689115,42.839205225909076
3832.6565,0.7154596818245618,5.891603851346419
3833.5403,0.6961026628839906,29.642279774713753
3834.4224,0.6732919009658673,234.7786410654109
3835.3064,0.6507922767617739,9.100972401404533
3836.1887,0.6331291344079744,84.17529139820302
3837.0713,0.6239730914081448,193.52951624387688
3837.956,0.6252617748205956,50.36624582641416
3838.839,0.6370200284011304,31.41444443722805
3839.7244,0.6583687078076065,74.56698795815996
3840.6077,0.6881511716615282,144.7903611155612
3841.4932,0.7247461870926566,224206.5564056669
3842.377,0.7637844943447752,16.410612853089432
3843.261,0.797825870994701,7.398706808464288
3844.1472,0.8181221310140028,29.186525070338092
3845.0315,0.8192612752397717,7.606441061697609
3845.9182,0.8037134146745151,6.708701334599906
3846.803,0.7818833799184746,105.31021506200022
3847.69,0.7666674940503058,14.053846299794635
3848.5752,0.7666041562128222,8.881360258185108
3849.4604,0.7818539533352548,3137.254265007697
3850.3481,0.8061619746968701,79.21453509279792
3851.234,0.8313284173604902,13.433713690634647
3852.122,0.8516570623432624,4.345970895765231
3853.0083,0.8649743029316841,2170.3211387372844
3853.8967,0.8725359545806509,24.40091371918316
3854.7832,0.8775351445360268,112.97176340213653
3855.6702,0.8834754648811711,63.51616968799408
3856.559,0.8917426138118597,12.339239267089233
3857.4463,0.8997453304505972,8.148527089631456
3858.336,0.9016050861095716,7.99613720698153
3859.2234,0.8915418349167765,8.866727088250274
3860.1135,0.8682068325429046,24.755856606426477
3861.0015,0.8369576387841174,30.435217578556216
3861.8896,0.8071500017365723,43.25276509792734
3862.7803,0.7868181837143746,56.264202693462025
3863.6687,0.7780786752093979,6.2128414701486525
3864.5598,0.7766900817490616,7.884877455798288
3865.4487,0.7767074351371835,6.375306922361574
3866.34,0.7752263726905902,1253.5378667309442
3867.2297,0.7734736405646614,81.18086546609658
3868.1213,0.7739385742126239,134.85034979365207
3869.0112,0.7771254526208846,11.00938301336593
3869.9014,0.7810370216521139,11.088002516840552
3870.7937,0.7833636284331551,14.99985491170152
3871.684,0.7839271384521659,57.047297699714406
3872.577,0.7850407066745508,7.690041844948522
3873.4678,0.7890979781375708,33.43323089990991
3874.361,0.795328190828846,2537.0955770720807
3875.2524,0.7986501267593376,31.254718785350562
3876.1438,0.7927114660396544,4.529780749946563
3877.0376,0.7748037529017437,133.82139592677385
3877.9297,0.7487732568273981,496.9769747054274
3878.8237,0.7225953845065245,10.784444758046678
3879.716,0.7039440987977772,17.1803507447138
3880.6108,0.6966178852668049,45.61548034734358
3881.5037,0.700728593922809,91.09613537697967
3882.3965,0.7136446361594485,4848.366235465015
3883.2917,0.7304824184165829,16.53267854494309
3884.185,0.7439585620585436,1110.8556048223525
3885.0808,0.7463719630925206,2.5200422494174575
3885.9746,0.7328534451535194,16.911442404109444
3886.8706,0.7039922894375559,21.175339957646685
3887.765,0.6656682744641927,94.69185670761968
3888.6592,0.6259146325110534,955.9679258748812
3889.556,0.5921802056437337,14.448985102721927
3890.4507,0.5698838254775362,28.372681692687326
3891.348,0.560935186091864,38.15873556961846
3892.243,0.5637148346488977,25.632767061056022
3893.1406,0.5735243350088839,20.875147420187382
3894.0361,0.5846853532938664,154835.67576830997
3894.932,0.593465824276727,32.60579869029834
3895.83,0.6000358322971695,36.62568596184973
3896.7263,0.6086527683396606,14.46225558076788
3897.625,0.6256718564415786,47.586854125908104
3898.5215,0.6551512537713982,283.63332102853246
3899.4207,0.6952691495515936,33.30367799122229
3900.3176,0.7371836663509841,6.361348392106567
3901.2148,0.7698797139790872,195.51475720742644
3902.1145,0.7857190253199695,48.29786954105742
3903.0122,0.7839966396518514,10.19776165633676
3903.912,0.7703999718348818,500.307225810934
3904.8103,0.7530824038477862,23.402307095835667
3905.7107,0.7382451811130013,805.4227132651763
3906.6094,0.7282247752631055,266.6390348143813
3907.508,0.7221482858657149,7.384796264156214
3908.409,0.718677314501299,14.233312963260245
3909.308,0.7179798157507064,16.08438913880587
3910.2097,0.721714217276364,15.831625132943508
3911.1091,0.7317573490198516,7.859275347038989
3912.011,0.7491304484583504,16.875927837862537
3912.9111,0.7729829781483658,18.261025220744944
3913.8113,0.8000082981056488,18.654362686912172
3914.7136,0.8243483063347637,9.772068137575202
3915.6143,0.8395308597712768,8.252693911502417
3916.517,0.8424675179726719,9.916420386753536
3917.4182,0.8354718732793635,35.25538831504659
3918.3215,0.8250558085001735,52.24851083596048
3919.223,0.8183450079521984,26.897486205652502
3920.1245,0.8197490515308983,27.32204315027321
3921.0286,0.8300564372725079,3421.44157460556
3921.9307,0.8471636053206615,29.474483264104208
3922.835,0.868017325411421,21.86199540469905
3923.7373,0.8896910164868621,6.617602835927259
3924.642,0.90994266265677,22.64732562044564
3925.5452,0.9263887220853508,69.15761164359513
3926.448,0.9370337381468969,56.48257773674801
3927.3535,0.9412122056819324,16.12885261420694
3928.257,0.9402752580215135,7.7828835416292605
3929.1628,0.9366635558663344,30.377825767085024
3930.0667,0.9318439181100007,5.432698340193443
3930.9731,0.9251349662831099,17.09254338878593
3931.8774,0.9146440850955173,91.15480627050259
3932.782,0.8989264296974802,34.08480302885693
