wavl,flux,ivar
3566.9744,3.822832444317469,76.54795752595875
3567.795,3.8153277832536494,75.86914372859287
3568.6177,3.8078405668091637,81.0192196776483
3569.4385,3.800736826474813,70.04239317015762
3570.2617,3.794802859392794,80.0650010142079
3571.083,3.7912721255155857,75.79184123855227
3571.9065,3.7907856258733448,80.0143681622874
3572.7283,3.7929129392240295,76.37793726154902
3573.55,3.796447165081998,88.40917889824769
3574.374,3.8000722609899253,85.54811734469766
3575.1963,3.8027106549263836,74.49734455066535
3576.0208,3.803697331773249,83.88715515699664
3576.8435,3.802800884452237,79.16726623649429
3577.6682,3.800344208617063,74.1152343346279
3578.4915,3.7972636011261325,73.90421547300193
3579.3145,3.7948575334774217,73.77121581382036
3580.14,3.794163953715483,77.49622076119047
3580.9636,3.795138279815917,78.32940480501557
3581.7893,3.796242599715189,80.77511197907725
3582.6133,3.79502637253519,78.2509967056542
3583.4395,3.7895312193759545,84.39414197103724
3584.264,3.7796341205474246,76.82306459183893
3585.0884,3.767172834696963,68.80235081990506
3585.915,3.7548438850800245,76.35460834295186
3586.74,3.7446647074302537,77.01809685053443
3587.5671,3.7366492909623936,90.9812467309377
3588.3923,3.729124582170643,91.69279104027443
3589.22,3.719862511783554,91.36455878520957
3590.0457,3.7079238970876482,73.33968474171633
3590.8716,3.6943743033952146,76.99170107262294
3591.6995,3.681756975933617,90.59312686696943
3592.526,3.6724612252544464,84.35023792578598
3593.3542,3.6669924495140096,93.854396034446
3594.181,3.663929318336299,84.22382157353371
3595.0098,3.661032204524096,84.55776458717506
3595.8367,3.6568461680795035,89.06106640729634
3596.6638,3.6513667712854843,74.80155104555828
3597.4934,3.645765851062806,93.40881013527137
3598.3208,3.6416644423377216,93.15449973249456
3599.1506,3.6402391605130626,99.66654262873756
3599.9788,3.64168729369237,89.74888944989804
3600.8088,3.6449876645143338,78.93793602305425
3601.6372,3.648431473342742,87.07549908206411
3602.4678,3.6507668225102576,84.53113850750259
3603.2964,3.651858881109899,91.16087354686142
3604.1252,3.65233666115895,95.376977988052
3604.9565,3.6526204944569325,86.03927236097053
3605.786,3.6525981475589435,82.87454819204167
3606.6172,3.6521683037219677,85.33488072644936
3607.447,3.6517129683005773,87.33209081468904
3608.2788,3.6516428060413055,99.98574888903318
3609.109,3.6513614494867914,82.45172760562166
3609.9392,3.648850232619369,99.13618810353431
3610.7717,3.6416376971963573,80.25450481168427
3611.6023,3.6286977071716304,79.32622622702817
3612.435,3.611427372920174,84.81743710762696
3613.266,3.593342757872587,91.50947098630829
3614.0994,3.5780232391927878,97.2789075318255
3614.9307,3.567770624344632,92.28350176631702
3615.7625,3.5627483435621206,82.76798053140573
3616.5962,3.5615825394383833,101.59363102367871
3617.4282,3.5622217386162496,80.53102663093
3618.2625,3.5629658008660807,89.30807173875405
3619.0947,3.5632692429344757,88.07796368824901
3619.9292,3.5637726221518253,93.91065947759257
3620.762,3.565367119887525,89.9337773867729
3621.595,3.568126434021705,79.78236660344662
3622.4302,3.571144827946139,85.10521770076731
3623.2634,3.573244674631651,102.03804322865776
3624.0989,3.5736040954523505,93.0160452666786
3624.9326,3.5715138511053457,93.3509410174684
3625.7686,3.5660102171980177,90.58962699478974
3626.6028,3.5562821315277993,93.66470207330758
3627.437,3.542506724532058,97.97602981304496
3628.2734,3.5262784108795246,92.62965599710954
3629.1082,3.5101874998690077,92.49732404581273
3629.945,3.4964158516759745,86.83576831112164
3630.78,3.486140006277796,90.57106900144437
3631.6174,3.4790862885198197,96.3691352316651
3632.453,3.474154336278177,82.12455588248426
3633.2883,3.469967246611939,88.38433564080748
3634.1262,3.465593273752545,91.65023962697053
3634.9622,3.4610066580081895,100.98393557812422
3635.8005,3.457186188706714,97.20384250813585
3636.637,3.45594372720735,99.77070743431877
3637.4756,3.458858664188829,106.63494212907638
3638.3123,3.465838560888424,96.46949719828446
3639.1492,3.474520795749604,94.95483168366513
3639.9885,3.481357322741418,89.89109528044084
3640.826,3.4835896881727204,98.66028698639333
3641.6653,3.480594286085177,94.50874134975625
3642.5032,3.4734830705400372,95.21143240751647
3643.343,3.4638492096271447,94.23323016008334
3644.1812,3.4528764744049503,98.52495294919851
3645.0195,3.4409530125464896,91.38642919568855
3645.86,3.4280917331568825,89.23623972289086
3646.699,3.414581879510474,102.96797074004328
3647.5398,3.4011180923967634,104.19846649862384
3648.379,3.3890448745809425,100.08457244748726
3649.2202,3.379898911729281,102.9816127223935
3650.0596,3.3751566225261675,92.15082620092237
3650.8994,3.375445277717272,97.24302554453577
3651.7412,3.3801761142599647,109.07188831493553
3652.5813,3.387473447838331,91.87361540302855
3653.4236,3.3948782713753234,100.77582934357102
3654.2642,3.4001888056588396,97.76261376072331
3655.1067,3.402377935516218,98.95198355930634
3655.9475,3.4017660057674823,91.97128756828921
3656.7886,3.399666508585781,91.27922784740626
3657.6318,3.3975227841171574,91.55190690515512
3658.4734,3.3961362945312787,96.90407934166483
3659.317,3.3953845973167605,89.30800308307353
3660.1587,3.394678168903715,103.76941708244647
3661.003,3.3935539907648056,100.3258870321215
3661.845,3.3918778704677384,110.02244402533756
3662.6875,3.3895775733758287,91.03404318211386
3663.532,3.3865122023948646,93.91723830867069
3664.3748,3.382768621341327,96.03768669327607
3665.2197,3.3789753677433216,106.68824848533556
3666.063,3.3762800902122563,95.29307040843612
3666.9084,3.375563359712723,115.71506969146276
3667.752,3.376483761267939,114.47836036361298
3668.5977,3.3770053895506615,95.57748373265929
3669.4417,3.3741721947979677,99.85745661193899
3670.286,3.365869037567173,100.48955991084463
3671.132,3.352256316638167,92.32361848957085
3671.9768,3.335908885658425,108.65339657313945
3672.8235,3.3201984559979154,94.2340306578329
3673.6685,3.307839160906347,94.7662684838762
3674.5156,3.2997304967192775,106.78558408675302
3675.3608,3.295183345603708,106.38793960949131
3676.2063,3.292384504359541,100.01013868972456
3677.0542,3.2894940059634994,113.06800801214285
3677.9,3.285672722650037,116.39170802361258
3678.748,3.2812850614944042,111.37893496749419
3679.5945,3.277195276889507,123.03361342921065
3680.4429,3.273775755316184,98.397232504168
3681.2896,3.270975649415671,94.73381707574536
3682.1365,3.268900655346226,109.06845198935099
3682.9856,3.267989836893585,113.24614612713653
3683.8328,3.268456341938241,101.18926734881303
3684.6824,3.269943679363937,116.47879758056415
3685.53,3.2719277596119447,118.06668989414773
3686.38,3.2742967680725856,105.21218978839953
3687.2278,3.2773218492878797,91.07755583702856
3688.0762,3.2812538110592504,91.99432471915256
3688.9265,3.2858544426244047,103.68735748678489
3689.7751,3.2901002240376997,105.88689502798474
3690.626,3.292328415652508,108.13016626535136
3691.475,3.2908567522752574,103.49298771084214
3692.3264,3.2851216685840527,106.3188122854903
3693.1758,3.2764871059537954,94.05235453282549
3694.0254,3.2678867997202836,105.09989447929036
3694.8772,3.2625368214245882,106.05848017633001
3695.7273,3.2622488044709828,106.49332483663814
3696.5793,3.266256158960823,103.03580009529668
3697.43,3.2715502858300325,110.71531262847878
3698.2825,3.2745378166677765,111.29057248932028
3699.1333,3.2727937863041885,99.5828117038905
3699.9841,3.265991119268238,109.04475962115649
3700.8374,3.255592023942081,112.33715815565773
3701.6887,3.244084677847305,100.35859404496202
3702.5425,3.2336623221709955,116.98212826456604
3703.3943,3.2255287016516623,102.72510507998912
3704.2483,3.219530905636056,91.40801191546024
3705.1003,3.2149349328459342,99.89671650852982
3705.9526,3.2110459886526415,116.83195245069919
3706.8074,3.207516829611966,115.11686183820993
3707.66,3.2042453279855247,116.07370068672712
3708.515,3.201232794031331,108.48283871327315
3709.3682,3.1986936518701774,111.38066654220614
3710.2234,3.196914986084864,108.86220903407455
3711.0771,3.196024881971256,121.04508755125026
3711.9307,3.1957496342637413,109.38558992108754
3712.7866,3.1954972809296716,102.32747964547535
3713.6409,3.194597342020381,116.68467760503587
3714.4973,3.1924628219940523,119.1523381424284
3715.3518,3.188703367317952,103.1876117840495
3716.2085,3.1832373750532255,103.43085181606564
3717.0635,3.176537189493921,113.97939385555851
3717.9185,3.1695116926339946,118.90768322803827
3718.776,3.1632370744915965,128.60466348126107
3719.6313,3.1586208169554957,113.97886217559885
3720.489,3.1559169775722005,129.65989132523313
3721.345,3.1546190256589886,122.88754319790459
3722.2031,3.1537006993240504,125.82687351557448
3723.0593,3.1524287747024293,130.4528385317371
3723.9158,3.1509399520060075,126.40954644498042
3724.7747,3.1500169612374576,116.79633686604086
3725.6316,3.150223144890226,126.484248643906
3726.4905,3.151186666113295,110.74014000741509
3727.348,3.1516519495491977,109.18387043143986
3728.2073,3.150203827097506,115.8133431647396
3729.065,3.1461238008109214,116.09707580312224
3729.9229,3.1397843040548716,114.39283474358287
3730.783,3.13240029853051,115.51683804734567
3731.6414,3.125451865619909,115.30361420039516
3732.5017,3.119894248987505,115.08655831348419
3733.3604,3.115790678998717,124.43708181394922
3734.2214,3.1121222669973196,108.91940143969099
3735.0803,3.1073902324694624,118.40429527265873
3735.9417,3.100530623770817,102.44113321737122
3736.8013,3.0918378026446676,118.41296949115075
3737.661,3.0828310333072726,124.5506170627634
3738.5227,3.0754498473536924,134.14919723063426
3739.3828,3.071038875086938,133.59298358561836
3740.245,3.0695524658623565,134.02204319154984
3741.1055,3.0697614404102116,125.30840031751437
3741.9683,3.070147948684805,134.56229234947668
3742.829,3.0699516173764607,120.03775406418912
3743.69,3.0694257910249036,122.78995916520752
3744.5532,3.0692360707653132,106.5643714360612
3745.4148,3.0698278129629197,118.36164502708013
3746.2786,3.0713405898958253,118.91130060439997
3747.1404,3.073799621337163,111.04768716017183
3748.0044,3.077136472987133,121.61672955382423
3748.8667,3.0809490604206777,104.05698458670356
3749.729,3.0845716553274363,119.26590814401034
3750.5938,3.0874356005523156,115.47819548195945
3751.4565,3.089456517983629,106.22501410951018
3752.3215,3.091089962439227,114.83209835717136
3753.1848,3.0928365601136107,110.84233536935739
3754.0503,3.0947808666626577,112.60131352728926
3754.9138,3.0964611745251367,109.71247957639369
3755.7776,3.0972043074372158,128.31321778790465
3756.6438,3.0964151228965284,128.60098962358433
3757.508,3.0936403241712367,124.38444543649766
3758.3745,3.088485565489679,123.87192413362936
3759.239,3.080848974978284,113.75961651495551
3760.106,3.071179073675178,115.61418180149546
3760.971,3.060655932642121,136.53406619707567
3761.8362,3.0504551355833303,132.21629800449995
3762.7036,3.0411544452357733,143.79129768781965
3763.5693,3.032800549545863,118.53706174879517
3764.437,3.025471677440062,123.20509476034098
3765.3032,3.019950279399537,106.65821630250672
3766.1714,3.017211211716887,127.04813283488258
3767.0378,3.017447172794446,146.7957717199297
3767.9043,3.019410527413411,127.56021024878866
3768.7732,3.021003738013892,135.48734261771352
3769.6401,3.0205271518379484,116.9598650580171
3770.5095,3.0175664994106266,111.85428360388266
3771.377,3.012857550602623,126.51032751031413
3772.2466,3.007463502600906,135.1195765413763
3773.1145,3.002252304997333,125.10088823747827
3773.9824,2.997734604888521,120.86215425325474
3774.8528,2.9942743595086445,135.59505032711093
3775.721,2.9921728124262454,118.13058562747696
3776.5918,2.9914957894516685,112.23029813980651
3777.4604,2.992039405806366,147.60211475584325
3778.3315,2.9934449278209514,133.71891748222484
3779.201,2.9954626220345,129.9650649130821
3780.0703,2.998096357498426,135.35575572795727
3780.942,3.0013769225010014,128.28686786123112
3781.8118,3.0048732469284167,124.64373765023275
3782.6838,3.007480778879818,129.46265707391848
3783.554,3.007642866034632,122.0961317320886
3784.4265,3.0041004488172427,142.89592382411968
3785.297,2.996673660574003,144.46053202719332
3786.168,2.986612568362086,133.37567620031263
3787.041,2.9762885450482406,136.61703326666023
3787.912,2.9681977676113793,146.95060462245522
3788.7856,2.963481323454903,145.3871088901861
3789.6572,2.9615206173536466,127.8960379574745
3790.531,2.9605837700275774,125.6124242908214
3791.403,2.9593169059911046,132.58970748201295
3792.2754,2.9575715938958127,137.96773776800956
3793.15,2.9560101575466793,133.23284438744275
3794.0225,2.95501999032143,139.13663861534485
3794.8972,2.9540571703563367,133.94764686342822
3795.7703,2.9520999089812388,145.01811607808764
3796.6455,2.9486274137667947,121.50052292592433
3797.519,2.944263910341453,132.73101499526962
3798.3926,2.940406751077435,136.68010843626385
3799.2686,2.938312243964274,134.43451124560767
3800.1426,2.9383400356611205,139.72849254876226
3801.0188,2.939876783105575,112.99947816184233
3801.8933,2.9419568991657723,139.68735829208393
3802.77,2.943965322772021,133.63588103033086
3803.6448,2.945770313913513,132.01896379633916
3804.522,2.947328681959087,127.54819599940699
3805.3972,2.948191684992497,134.13884695884465
3806.2727,2.9476809978931233,148.63735419676826
3807.1504,2.945549408137255,121.29380229466776
3808.0261,2.9424970360610514,122.58123622252954
3808.9043,2.939907314399892,129.8962889637956
3809.7805,2.93918756944764,125.38668901881421
3810.659,2.941032737134199,138.27230575922553
3811.5356,2.944951197051478,134.3663068785273
3812.4126,2.949216855431929,145.81207402282274
3813.2917,2.9515654162642604,133.225138537414
3814.169,2.9505454878764756,127.18183627585722
3815.0483,2.9465590363339627,130.96783327982146
3815.926,2.9415288624247036,137.11855943981178
3816.806,2.93735931109393,149.07801234816
3817.684,2.934698806987503,136.92987925024687
3818.5623,2.9327592053026548,131.71343455494562
3819.4429,2.930207641694982,141.84637853777275
3820.3215,2.926095455790915,139.6823984754943
3821.2024,2.9201492004568146,129.50547818701273
3822.0815,2.9126897682641935,129.01311405273282
3822.963,2.904260680599898,141.02070687370437
3823.8423,2.895600609935557,132.34302389701313
3824.722,2.887375544763217,142.8146269216319
3825.604,2.880026639390889,154.46985949613955
3826.4841,2.873658411613497,135.51234182426708
3827.3665,2.868009843014896,139.58924794632404
3828.2468,2.8628595433299657,149.86367580881702
3829.1296,2.8580959616815798,137.69897228569118
3830.0105,2.853775937743721,144.777505085393
3830.8916,2.8499331693609427,147.3375807314122
3831.7751,2.8466355401943635,137.1730739803476
3832.6565,2.8441320157046484,148.4985081426012
3833.5403,2.842889229824934,150.7139154916357
3834.4224,2.8435364232080125,144.77162686388493
3835.3064,2.8464705413747278,153.75221920144548
3836.1887,2.8513582937499025,146.11192940413173
3837.0713,2.8569997907662454,134.2580376557694
3837.956,2.861780395296123,126.21708891305815
3838.839,2.864505725912147,135.0294267887634
3839.7244,2.8651166765138756,136.09171938251737
3840.6077,2.864619461825472,181.4222653725249
3841.4932,2.864426349809094,159.346522386812
3842.377,2.8654573198892006,168.88721425438789
3843.261,2.8676706061523975,143.73521711913781
3844.1472,2.870387339834237,138.04212224202357
3845.0315,2.872967623249933,137.46273126982646
3845.9182,2.875208813731487,163.3875943047933
3846.803,2.8770986976737287,131.64942608573082
3847.69,2.878554291061181,130.3917318683834
3848.5752,2.8793365029352906,151.40597443351783
3849.4604,2.8791974594315484,143.61437528325243
3850.3481,2.877978172006517,139.73579084469733
3851.234,2.875718904643105,130.94460143345907
3852.122,2.872689685877565,125.3390064467337
3853.0083,2.869351921086225,138.44343277959922
3853.8967,2.866042817029366,145.9666275649735
3854.7832,2.862767477347315,137.97523208863393
3855.6702,2.859168559782665,148.10277069925587
3856.559,2.8549535076161874,137.22714055083443
3857.4463,2.8503560884807477,140.46205446416627
3858.336,2.8460592615070506,144.1387503724259
3859.2234,2.8427843448781847,154.88531999054453
3860.1135,2.8408878787766803,143.71699330710103
3861.0015,2.8409321956627975,140.77487696936618
3861.8896,2.844761089805947,145.8556244938715
3862.7803,2.856015206157274,122.77248724642244
3863.6687,2.878243714895736,151.56290232743578
3864.5598,2.9111785093353397,146.70322638647207
3865.4487,2.9468360710836237,136.44266195085186
3866.34,2.9716325096255356,154.18207622706487
3867.2297,2.973297543166913,150.7613201246646
3868.1213,2.949508319746177,149.5999374075035
3869.0112,2.909448877736544,144.6120921141853
3869.9014,2.867103817442391,157.85800301924994
3870.7937,2.8329263219573533,172.9859153414476
3871.684,2.8102182775560816,148.85993615866164
3872.577,2.796343675467111,139.2507262187848
3873.4678,2.7871635272534916,138.6678257375982
3874.361,2.7796728443592036,134.223726865312
3875.2524,2.7730789278662447,153.47065823088428
3876.1438,2.7678899010303684,156.8792063390751
3877.0376,2.764586062245492,155.87701885871104
3877.9297,2.7626761298034697,156.70209370608646
3878.8237,2.760754540340228,149.72826251923738
3879.716,2.7574457578946325,144.06032258727407
3880.6108,2.752146850583376,162.44160556960605
3881.5037,2.7452025446573485,153.56886145840662
3882.3965,2.7374394995279583,151.46619913063853
3883.2917,2.7297917093146915,166.36330016459715
3884.185,2.7231367190558835,154.43354321229268
3885.0808,2.7179877404878336,162.2963531006786
3885.9746,2.714405090277589,157.36771476011782
3886.8706,2.711741293685555,171.54421605840318
3887.765,2.708863859703682,174.37569039048105
3888.6592,2.7047328435554396,147.49553351445363
3889.556,2.6992311873983965,162.3208946488134
3890.4507,2.693550850257472,155.73145095741717
3891.348,2.6895087554572217,173.8136690323431
3892.243,2.6885431458182927,169.69939971699117
3893.1406,2.6909336296505835,167.9500776476899
3894.0361,2.6958950293515787,169.22191079682474
3894.932,2.7021802757476108,156.62174960286242
3895.83,2.7086647128903887,163.91071309906047
3896.7263,2.7146377107323025,157.57658612570512
3897.625,2.719965089728337,148.3937882461456
3898.5215,2.72474664630389,148.71257400280678
3899.4207,2.7291186207842215,149.78907677618346
3900.3176,2.733051672797467,153.28155901949287
3901.2148,2.736630747877525,134.11919064656178
3902.1145,2.7402448262330603,147.5530413993515
3903.0122,2.7444721373406313,154.96964872891107
3903.912,2.749655682564839,156.26584228322844
3904.8103,2.755336591596376,153.01419920891436
3905.7107,2.7604436749532772,165.8333159893694
3906.6094,2.764018150497208,141.4074494025646
3907.508,2.7661460866337126,136.7860778992567
3908.409,2.767911138059797,165.27883634718611
3909.308,2.7703933263298826,157.21410956749656
3910.2097,2.773622366277778,163.17346384657552
3911.1091,2.7764513318680395,165.96940140254446
3912.011,2.777610789930059,141.137903951704
3912.9111,2.7767355301452747,152.2073792319638
3913.8113,2.7745555975843916,155.03095660849067
3914.7136,2.772149629734664,146.56081347200762
3915.6143,2.770198737495883,148.83524261647742
3916.517,2.7688153799141046,153.13059190615337
3917.4182,2.7680076093307875,140.46915638351027
3918.3215,2.768031387366981,149.4487393598616
3919.223,2.769229061103428,143.34426534212676
3920.1245,2.771440530202925,132.60765260585612
3921.0286,2.7736569354473337,156.7176582039821
3921.9307,2.7743872681199107,152.87296888173938
3922.835,2.772599549058422,137.17405522606757
3923.7373,2.768322611630723,151.1850719475217
3924.642,2.7623528259872745,166.9020465442114
3925.5452,2.755589291760757,142.92168396714803
3926.448,2.7485856922334757,142.19090234686627
3927.3535,2.741801863229173,143.08660643321213
3928.257,2.7358832265240993,150.9920630289676
3929.1628,2.731241447588391,141.1998956410605
3930.0667,2.727735193074586,143.1935520957177
3930.9731,2.724701040217515,155.76787148792266
3931.8774,2.721674400679875,146.53734681183383
3932.782,2.7188175077482644,153.172367342584
3933.6887,2.7167967814356935,184.093168200063
3934.5938,2.7161947164922813,157.95072785605348
3935.501,2.716993989939603,156.77571767799947
