wavl,flux,ivar
3566.9744,3.5266105846659017,87.19455803784541
3567.795,3.5242341107090995,89.13757067929542
3568.6177,3.525944710663952,79.98486641493012
3569.4385,3.5306245722687786,86.51113413353733
3570.2617,3.5358577426897293,79.70815077944803
3571.083,3.5388087073205243,102.5831591774184
3571.9065,3.5375711696594636,89.37999970737408
3572.7283,3.532219902334281,83.19846150828329
3573.55,3.524897916182512,85.5747504339289
3574.374,3.5184385108263387,92.60036508521178
3575.1963,3.5144710162677795,93.60368445534367
3576.0208,3.5124624327012417,75.09017491838655
3576.8435,3.5108759581957054,89.14272501595981
3577.6682,3.508874247407533,100.05128993315515
3578.4915,3.506746336025535,77.35595938854468
3579.3145,3.504600244347078,84.1880052699754
3580.14,3.501257233648673,95.73028523116693
3580.9636,3.4949614948673147,89.75908576778549
3581.7893,3.485141002477011,85.26696271787065
3582.6133,3.4734858866031324,103.78540690507616
3583.4395,3.462873058816324,94.16065022327385
3584.264,3.4557159080074586,90.708204827549
3585.0884,3.4526095047879397,79.23178532378653
3585.915,3.4525161697626983,80.95436479348494
3586.74,3.4534961124231494,89.8309528399403
3587.5671,3.4533996174676984,82.2171395073544
3588.3923,3.4503806288632752,90.79809170919928
3589.22,3.4434680995604676,87.27736780175323
3590.0457,3.4332543013976187,92.90183879977168
3590.8716,3.421851568818881,95.81650273226462
3591.6995,3.4120634900859543,91.01404828381257
3592.526,3.405990101432774,97.52221840174711
3593.3542,3.40378327398906,96.59962046095578
3594.181,3.4037768344874384,97.96695222908512
3595.0098,3.403654275117895,97.852487470611
3595.8367,3.4020849974211425,89.10271973631129
3596.6638,3.3995951838858374,94.67509153578456
3597.4934,3.3979938930620808,98.81176647245177
3598.3208,3.3987308963622223,114.39947477936032
3599.1506,3.4015194791121055,105.87239243802608
3599.9788,3.4045624043742033,90.82640966377708
3600.8088,3.40622264096129,86.38041872743726
3601.6372,3.406398714085617,90.36377833702534
3602.4678,3.4063676156068983,94.5654901528084
3603.2964,3.4072829979068904,96.50394391326277
3604.1252,3.4089409230242507,90.46937591318844
3604.9565,3.4098832180733165,101.57801020980992
3605.786,3.40841776780816,102.35404908663752
3606.6172,3.4034900788743667,114.41406632866074
3607.447,3.395000150786612,93.37956323726202
3608.2788,3.383756561037046,91.65894209440602
3609.109,3.3714663640607307,92.59804723352447
3609.9392,3.359973551608968,85.22717639148422
3610.7717,3.3504844534195852,111.60920389566091
3611.6023,3.3432217890387697,100.46508874285479
3612.435,3.3376066316831565,97.97463879906852
3613.266,3.3330353321646644,105.9133301803024
3614.0994,3.329168000377766,89.21166220189367
3614.9307,3.3260846899829386,94.11245289384992
3615.7625,3.3240106029707075,103.45701296991528
3616.5962,3.3229686503765974,92.28361603042514
3617.4282,3.3224728031079587,100.01520251579912
3618.2625,3.321666800641001,88.90074079102644
3619.0947,3.319869018499256,94.3296379377598
3619.9292,3.316887874761302,107.37316825065601
3620.762,3.3128433216853796,98.7055007840122
3621.595,3.3076540178833276,103.13235093721693
3622.4302,3.3009405410297257,94.05005403399086
3623.2634,3.2926267463169667,98.51137107386432
3624.0989,3.283588419068522,98.55823653138053
3624.9326,3.275949800149369,106.8401519055123
3625.7686,3.271949311576919,106.73959580570728
3626.6028,3.2725731792752426,93.17864885635404
3627.437,3.2768396828185935,102.50718194137261
3628.2734,3.2826795159571875,106.23959044963759
3629.1082,3.288236174842208,104.09782534524462
3629.945,3.2925998004502137,100.33187721865868
3630.78,3.295374416048532,110.63485065576874
3631.6174,3.296236390108081,100.13692898921707
3632.453,3.2948094594517165,93.70698295312992
3633.2883,3.290943305046362,99.67079688663985
3634.1262,3.2848802165873248,106.21347630109697
3634.9622,3.27733604326632,107.43106186896169
3635.8005,3.2691010543900574,98.82561959619217
3636.637,3.260650153255478,114.71975179762777
3637.4756,3.2516605822951856,100.50554796338444
3638.3123,3.2416616437889725,101.75579706346784
3639.1492,3.2308625488702005,111.9065573644759
3639.9885,3.220625697418704,107.65111069327153
3640.826,3.212855050366127,111.64019437791443
3641.6653,3.2087114284478306,111.9632851078244
3642.5032,3.2081835122112854,100.33076688437866
3643.343,3.2101370879984827,104.58394661996164
3644.1812,3.212761545685636,116.8252128751401
3645.0195,3.214157136768569,100.98803933430486
3645.86,3.2130313535118655,103.36211318204872
3646.699,3.2092467997232847,103.78153804769656
3647.5398,3.203610677695361,104.92547368495251
3648.379,3.1971461948465536,103.1194284090925
3649.2202,3.1904299464246098,114.57944333130126
3650.0596,3.183891826164334,105.54632748992023
3650.8994,3.178212504907372,92.9246919907871
3651.7412,3.1744395204862395,112.16783014185108
3652.5813,3.1734456610041817,112.14422130994112
3653.4236,3.1753447953485785,110.32683608539203
3654.2642,3.1794370952893733,103.66265479112172
3655.1067,3.1845090772019256,105.08157891443656
3655.9475,3.1891006382744465,101.87137321415918
3656.7886,3.191936216997316,110.90109156046182
3657.6318,3.1922581973525594,102.75991053072651
3658.4734,3.1899936124902175,110.42162839159812
3659.317,3.1855241426634477,104.15992336382207
3660.1587,3.1794476132734473,117.23556084361307
3661.003,3.172562297307554,102.19247171841018
3661.845,3.166181126214967,114.09303316769437
3662.6875,3.1617435830130054,108.79439115292078
3663.532,3.1600051374555562,109.24206383319041
3664.3748,3.1601900984965905,106.85284067059183
3665.2197,3.160163285910466,99.69517475949215
3666.063,3.1577784829094893,101.89537590115363
3666.9084,3.152320421033983,103.7152421391345
3667.752,3.1449398550623107,107.0230258446718
3668.5977,3.1376593234145735,117.50479667639645
3669.4417,3.132221907327363,108.41007828450994
3670.286,3.129271698790748,111.17178800271748
3671.132,3.128434207073637,115.68191043059979
3671.9768,3.1286451876861885,116.25243822223045
3672.8235,3.1286029485082087,110.99644088109622
3673.6685,3.1273309943758743,102.03472033391476
3674.5156,3.124610253833922,115.30842019477473
3675.3608,3.1209805721661352,119.01875665493871
3676.2063,3.117163672460924,121.24981663352933
3677.0542,3.1134836723900308,111.10791801118603
3677.9,3.1097746593232407,100.95952026509828
3678.748,3.105742309837345,100.58246908527573
3679.5945,3.1015835095424062,112.1736270344893
3680.4429,3.097972939251115,112.89530841944247
3681.2896,3.0955838112750453,123.41041067000715
3682.1365,3.0943855032309906,110.32136038987944
3682.9856,3.093638746864743,110.46098253041208
3683.8328,3.092631472449118,121.29446134721822
3684.6824,3.0915396378294107,122.99729955963384
3685.53,3.091516103293156,108.7888854370743
3686.38,3.0936756978953146,106.7547228625349
3687.2278,3.097838480857453,109.56313479391784
3688.0762,3.1022917811225983,102.37098117539131
3688.9265,3.1047930371819543,103.25521449223284
3689.7751,3.103958566324585,106.83709638243377
3690.626,3.0999679412110934,102.9623265190311
3691.475,3.0943568791521243,130.85492743494362
3692.3264,3.0892285443184386,105.2785218995847
3693.1758,3.086334061273725,118.07834691804192
3694.0254,3.0859677087479818,104.73902729120925
3694.8772,3.086729000540252,99.55128358046863
3695.7273,3.0864830912304795,114.09382392150353
3696.5793,3.0839617018634984,99.80076434830329
3697.43,3.0794850766250597,138.2713300240751
3698.2825,3.074169056976967,129.5867295329759
3699.1333,3.0687990326975214,108.32205058809149
3699.9841,3.0634281712239173,121.77815716127164
3700.8374,3.057951112162285,114.65068637877182
3701.6887,3.0525285769947454,122.06966238545033
3702.5425,3.0471340098771016,114.15808996656585
3703.3943,3.0412403693321677,119.9753790687393
3704.2483,3.034079541321238,116.2639639412572
3705.1003,3.0257395824025237,128.4726815179396
3705.9526,3.0175224886212564,115.79376695533651
3706.8074,3.0113152425057543,124.00771609480954
3707.66,3.0082863516401157,126.42352789319004
3708.515,3.0079268927601817,121.18193155740863
3709.3682,3.008463177540713,109.16905173267995
3710.2234,3.0080346609341158,118.00368190822029
3711.0771,3.0057608037847245,112.12621910113229
3711.9307,3.0019254071397525,118.08445489169374
3712.7866,2.997405636953744,110.231180807119
3713.6409,2.9930112203959687,125.56625268520841
3714.4973,2.9889060372078093,127.01834223210687
3715.3518,2.9845667875181743,122.60485215275388
3716.2085,2.9791549476510464,123.17493960663555
3717.0635,2.972578347476656,121.52016896891438
3717.9185,2.9661533323712135,124.96010211129796
3718.776,2.9622307300937587,132.23667299821034
3719.6313,2.962679439443942,125.14701753584576
3720.489,2.9673580494491687,130.8880408630291
3721.345,2.973984143847268,119.44815802766375
3722.2031,2.9794960498100522,118.9442415822105
3723.0593,2.9816287691981467,120.63493279610805
3723.9158,2.9798761493388093,116.08986974684214
3724.7747,2.975151205355117,136.7161535879243
3725.6316,2.9689760488652612,132.33273451909778
3726.4905,2.96261847425131,117.69848545337851
3727.348,2.9568781020591017,127.65603143471839
3728.2073,2.95201184207025,118.93906102090315
3729.065,2.9479212909186514,131.8965103359233
3729.9229,2.944167566489694,125.8995656223129
3730.783,2.940155401652651,123.80961203796983
3731.6414,2.9354209743551043,128.92662835625666
3732.5017,2.9298780641536437,121.63646942323727
3733.3604,2.924068301181039,124.03024333147746
3734.2214,2.9188738343149963,130.24017262112932
3735.0803,2.9150131935203416,135.79084959457268
3735.9417,2.9122333379684604,115.23328134543686
3736.8013,2.909191004804223,143.07443354759968
3737.661,2.9041163565764463,135.81877139355868
3738.5227,2.8961412692379502,131.15995234528552
3739.3828,2.8862961312916418,124.25143574243722
3740.245,2.8770242156669497,132.6204811245264
3741.1055,2.870919229907014,138.12291621280704
3741.9683,2.8692825181194626,143.2838215140262
3742.829,2.8719570965285515,146.57295077866553
3743.69,2.877801422714222,128.0931833607595
3744.5532,2.885343555177149,156.50537544137111
3745.4148,2.893118161983403,124.87988229879338
3746.2786,2.9002001701575977,129.19672166323645
3747.1404,2.906249574577867,144.8338480565412
3748.0044,2.9112490988584567,136.04629588813393
3748.8667,2.9147829302866226,136.62639854638445
3749.729,2.9161538261431708,124.90017355524076
3750.5938,2.915110568851775,130.0595355959858
3751.4565,2.9124512281299464,124.42715289591581
3752.3215,2.909556393689131,122.2878846228387
3753.1848,2.907365052266799,159.03767951256847
3754.0503,2.9057719830497475,117.7219894335726
3754.9138,2.904089522308721,134.13344004382057
3755.7776,2.9018178553209526,119.60627873843424
3756.6438,2.899008155275139,128.349481027691
3757.508,2.8960644151532695,134.17546034627205
3758.3745,2.8933572769929863,125.62839578506006
3759.239,2.8912023217418215,138.61525891513935
3760.106,2.889900226522547,130.16582186388118
3760.971,2.8897166845434703,130.8623913433036
3761.8362,2.890587452367131,143.07320532044693
3762.7036,2.8919483709129787,137.19551409559153
3763.5693,2.8928897850795687,131.3173250095956
3764.437,2.89265588965336,131.25781241624887
3765.3032,2.891054237436616,138.7746324887148
3766.1714,2.8884820675607945,124.72338822234059
3767.0378,2.885581583757406,123.06760270516301
3767.9043,2.8827375043857906,137.5338233087539
3768.7732,2.8798918651349315,134.35619867562664
3769.6401,2.8767783917425955,117.65861290587583
3770.5095,2.8732152413913083,126.25604082692003
3771.377,2.8692636588694014,137.52098776823635
3772.2466,2.8649888841653963,124.8290145405945
3773.1145,2.8604516880708117,131.82153876806484
3773.9824,2.855797054110443,125.88615642427334
3774.8528,2.851390576356405,135.8455361080857
3775.721,2.847651279104101,138.82952378095138
3776.5918,2.8446071136124975,143.86865178696274
3777.4604,2.841920535791205,138.26402351856854
3778.3315,2.8392348563642913,157.88409432207357
3779.201,2.836678053977447,140.80634071854033
3780.0703,2.8347303926153997,135.95696522836906
3780.942,2.833725092975119,144.14750871517347
3781.8118,2.8335498002232478,129.73109200931975
3782.6838,2.8338994114926543,132.1821840306126
3783.554,2.8346839333609144,147.71145961725267
3784.4265,2.83596516401277,146.99494935926657
3785.297,2.837477762161235,142.60390042019537
3786.168,2.8384676585857727,151.07524282491096
3787.041,2.838115192452869,122.90022010450538
3787.912,2.8361521405051677,144.4188560973424
3788.7856,2.8329777904268174,117.53107169519382
3789.6572,2.8292651177721697,132.88069586805975
3790.531,2.8253509559620413,133.632788570708
3791.403,2.8210405122898368,140.76361583165607
3792.2754,2.8156932528876433,136.28197305644318
3793.15,2.808692923040188,133.31699465018542
3794.0225,2.800046988731212,139.07197615597784
3794.8972,2.7905740044204133,133.1082604462201
3795.7703,2.781890066915664,142.5395759187165
3796.6455,2.7756492818841885,139.63829502222154
3797.519,2.772941445747568,142.35314641025528
3798.3926,2.7736719401681427,144.19910468898584
3799.2686,2.7766576599147026,132.1018893572977
3800.1426,2.7802036469315974,119.35473825812309
3801.0188,2.7830219443065483,130.54947913138915
3801.8933,2.784608986065366,143.19479691899812
3802.77,2.785054226206395,154.48108888684575
3803.6448,2.7845966491662963,132.13435374834796
3804.522,2.7835256813193956,144.14639816112813
3805.3972,2.7822373845249366,146.84153188721396
3806.2727,2.7810728079046294,148.51167248586677
3807.1504,2.780070976341846,134.53370510732552
3808.0261,2.7789711483340827,150.4531383059654
3808.9043,2.777535105198303,142.29631780075513
3809.7805,2.775955435483267,146.78470351447825
3810.659,2.7748318855590934,154.38787541336652
3811.5356,2.774661712307167,151.29159570967602
3812.4126,2.775155062499656,137.50583289697522
3813.2917,2.775130267959485,137.3025433111393
3814.169,2.7731753657502827,134.57683764663912
3815.0483,2.768585835314968,138.9095685617279
3815.926,2.761949826008344,147.62017786701492
3816.806,2.754894965563326,151.43015319074138
3817.684,2.749419774819088,143.6035826594394
3818.5623,2.746849124304608,147.58458672753642
3819.4429,2.7473060825501903,138.46701221175417
3820.3215,2.7497278632898867,152.7723370853555
3821.2024,2.7524321223474915,144.34517759581635
3822.0815,2.7537857618554433,143.63753068104265
3822.963,2.7527799133574935,150.6021308838504
3823.8423,2.7493014100503106,132.8614671336948
3824.722,2.7440949357461135,144.43426106272662
3825.604,2.738367964516084,152.82084846945213
3826.4841,2.733247719391655,136.13938498137418
3827.3665,2.7292312693382144,154.73070677915615
3828.2468,2.726275276117533,150.2220566179008
3829.1296,2.724030568302613,146.42434503372723
3830.0105,2.7221200324364614,157.43581228540393
3830.8916,2.720085039167616,143.3102725744821
3831.7751,2.7174299349658932,153.131033628427
3832.6565,2.713891835292308,140.9279808252905
3833.5403,2.7096097085912927,155.2596846707637
3834.4224,2.7050555857397183,159.71663516204507
3835.3064,2.7005035456888002,158.74912305831128
3836.1887,2.6957587333442,147.37822865835312
3837.0713,2.690279203382767,151.62619467494306
3837.956,2.683929414643202,149.24898225763835
3838.839,2.6777426799294255,150.20490858994984
3839.7244,2.6737659032081322,164.08254059149044
3840.6077,2.6741107903132084,147.91358702000383
3841.4932,2.6796102522903467,157.7991077608952
3842.377,2.689252455978687,145.35385548578256
3843.261,2.700772581318564,163.63375778281994
3844.1472,2.7117779993555264,152.4824506452448
3845.0315,2.7206233604794585,137.53969020002097
3845.9182,2.7268375452053895,154.47297523440582
3846.803,2.7304790296057817,151.81776206656568
3847.69,2.731603885436275,144.226624970005
3848.5752,2.7300821398498254,135.76258439857523
3849.4604,2.726161508198975,144.27776301789376
3850.3481,2.72086667338681,163.61267852565157
3851.234,2.715697007965138,139.14026796405295
3852.122,2.7116334896300307,149.27080555072084
3853.0083,2.7087275669629425,143.66511849054567
3853.8967,2.706380906466325,160.224053323032
3854.7832,2.7041435142289347,150.90182003157366
3855.6702,2.702025414622867,150.63689023105445
3856.559,2.7002719940989075,149.46077970748607
3857.4463,2.6988947817336224,144.82116620506224
3858.336,2.697441922827414,144.69623014724613
3859.2234,2.6952725291349853,153.64464890376252
3860.1135,2.6919607941582253,148.0715301987056
3861.0015,2.6875927814532714,155.40840555201677
3861.8896,2.682630548866658,143.94070087077807
3862.7803,2.6777160011517105,166.44022400247584
3863.6687,2.6735007487956266,158.32833438085234
3864.5598,2.6702883529231074,153.65474016781263
3865.4487,2.6678155903882894,165.437786778456
3866.34,2.665148370328838,154.12606457335497
3867.2297,2.6612169978554054,150.6330455444226
3868.1213,2.6554596083270954,165.50108525950114
3869.0112,2.6482690467488212,150.03735178728266
3869.9014,2.640725109954982,159.3387978353837
3870.7937,2.634098588706062,166.5636241330073
3871.684,2.629393645442957,162.29876229110465
3872.577,2.626978713543507,142.99737019013543
3873.4678,2.626688349497302,151.23493178043037
3874.361,2.62802944060454,153.27041346615425
3875.2524,2.6305138693428587,144.85744983051143
3876.1438,2.633786450558295,166.16200005519735
3877.0376,2.637426168080128,174.96815206932766
3877.9297,2.6406546191367752,140.08628958069113
3878.8237,2.6424593151873195,154.24334968895724
3879.716,2.6419520333067905,153.88025305971038
3880.6108,2.638755441292297,168.2084265162697
3881.5037,2.633087944340823,147.56926834923703
3882.3965,2.6256001132298254,148.44836831883103
3883.2917,2.617202826860879,169.90664031724265
3884.185,2.608868652500447,161.37480993030465
3885.0808,2.60108468547483,156.85010385919037
3885.9746,2.5937891524128664,167.09374190938337
3886.8706,2.586462325293896,157.01931701428296
3887.765,2.5788346157178674,163.3047605777338
3888.6592,2.571217260525838,170.43595843537037
3889.556,2.564531909653945,174.2851592000515
3890.4507,2.5599281451870706,168.32136736595132
3891.348,2.558113221076259,163.26106683843216
3892.243,2.5590675013916786,170.93553951598025
3893.1406,2.562004324380873,162.63525204695122
3894.0361,2.565689820196864,154.19525125478162
3894.932,2.569008946399081,156.37044902582392
3895.83,2.5714029618932943,163.08126341910207
3896.7263,2.572995484202525,172.61899980553684
3897.625,2.574381657112631,149.22360535034633
3898.5215,2.5762141467108135,174.78781271420527
3899.4207,2.579044768197245,170.64772980797676
3900.3176,2.583235916136642,163.6058736418824
3901.2148,2.588888575047792,159.2530168183597
3902.1145,2.595664478911374,153.01727203808045
3903.0122,2.6027808832739776,158.8661973428313
3903.912,2.6094738995573716,152.510169848555
3904.8103,2.615282373911179,142.09916238228772
3905.7107,2.6204220057147367,156.1421676601894
3906.6094,2.625690046478642,151.18154163616114
3907.508,2.632146522729097,157.51726453183642
3908.409,2.6403088380024804,156.11984509565494
3909.308,2.649406958779594,158.61441223361032
3910.2097,2.657606149345289,149.18582784208593
3911.1091,2.6628101367026495,163.3200436925758
3912.011,2.663915877524606,165.65450106125732
3912.9111,2.661195903064274,152.37764848240676
3913.8113,2.656003092091975,152.44184491866983
3914.7136,2.6499843023516108,158.89473440110467
3915.6143,2.6444656136262608,151.34932969212772
3916.517,2.6400070370985764,153.373674919941
3917.4182,2.636535586435093,165.98119819003887
3918.3215,2.633610342261887,163.2232905926163
3919.223,2.630844583521592,166.3767834275665
3920.1245,2.627974549084113,172.72416511613767
3921.0286,2.6248453239414706,177.279844359688
3921.9307,2.6215421461439434,157.9357564634649
3922.835,2.618582681987316,153.95980402879604
3923.7373,2.6169092303129475,170.65732152004213
3924.642,2.6171990698345686,148.86887575790266
3925.5452,2.619129240884854,160.74405240722703
3926.448,2.6213063916891013,159.81146052364937
3927.3535,2.6221170172249777,166.8710085574954
3928.257,2.6207659753733368,164.45420872228271
3929.1628,2.6176407880642243,155.5602057187052
3930.0667,2.6137547732453092,172.46222923714993
3930.9731,2.6098380950191125,161.4114503105675
3931.8774,2.6060787210667944,167.27924167555437
3932.782,2.6023620735748474,166.8415976811356
3933.6887,2.5986470137228954,151.33410165531083
