wavl,flux,ivar
3566.9744,1.206840071145367,737.212218297486
3567.795,1.202589510508083,579.6894476462687
3568.6177,1.1972925898455642,554.4967725019051
3569.4385,1.191842208664993,729.4328033804079
3570.2617,1.1871829481162444,817.2047139392492
3571.083,1.1840337288514764,645.2968198153843
3571.9065,1.182873479449057,595.9624993766015
3572.7283,1.1841847200860984,585.289067830091
3573.55,1.1881943113553377,657.1294714005039
3574.374,1.1943768489701607,505.1993582366793
3575.1963,1.2012238581867585,653.906475696437
3576.0208,1.2069431210795862,753.6122113370192
3576.8435,1.2102575782561027,623.8334088353665
3577.6682,1.211018280994259,659.4196821844365
3578.4915,1.2100284526931482,629.5060075271663
3579.3145,1.208564567742141,776.9103280544149
3580.14,1.2077596561805004,599.5142437225803
3580.9636,1.2081136526808032,668.4929046563045
3581.7893,1.2092668394426207,785.451935767147
3582.6133,1.2102158333724942,754.34508834067
3583.4395,1.2099147305537412,707.3904830447251
3584.264,1.2079186784138123,585.5993425663517
3585.0884,1.204679298366219,680.5655694776302
3585.915,1.2012468958662248,745.4086065605793
3586.74,1.1986484835402107,834.7756152066175
3587.5671,1.197274426486307,573.2908600288264
3588.3923,1.1967858977549322,734.1366681553427
3589.22,1.1963363483907499,519.7071081161988
3590.0457,1.1950538827824118,624.2577947867761
3590.8716,1.1925504853872821,631.1329972247083
3591.6995,1.1892455185641206,663.0532273004793
3592.526,1.1862204371967944,698.5943059940511
3593.3542,1.1844789785843954,617.2424853857016
3594.181,1.184278031140136,799.8286756828226
3595.0098,1.1849646005089716,632.5921381804441
3595.8367,1.1854203335955849,796.2988743027943
3596.6638,1.184449698334648,792.7019605988257
3597.4934,1.1806198403711243,587.1031603187851
3598.3208,1.172075367627264,630.3537079324935
3599.1506,1.1571583574844544,630.6250392477875
3599.9788,1.1366654305700898,674.0429927909892
3600.8088,1.1153278913159677,532.7800782088416
3601.6372,1.1009256298101142,740.8745736835203
3602.4678,1.0995160182864587,793.2178948388054
3603.2964,1.1114755002272578,621.402924902018
3604.1252,1.1314690957928402,1650.8272793602334
3604.9565,1.152407355809085,802.8982399432638
3605.786,1.1690597757908523,463.2636363203038
3606.6172,1.1795766508157277,756.5698832191964
3607.447,1.1842186306379152,602.3015536790477
3608.2788,1.184343423457536,522.5988883612481
3609.109,1.181759594543891,591.5252940267809
3609.9392,1.1784694099888713,624.6993636610122
3610.7717,1.176145601727852,663.3030850808235
3611.6023,1.1755291084461736,686.8267472149205
3612.435,1.1762491247012985,800.5202952917698
3613.266,1.1773871344166402,567.735150084656
3614.0994,1.1781529664845114,635.5149610226666
3614.9307,1.1780701784927297,669.9582980557474
3615.7625,1.1768605331893995,729.9251112337985
3616.5962,1.1744503495776908,677.6200052562057
3617.4282,1.171124310842523,778.0425259121089
3618.2625,1.167321808536798,643.7988566934495
3619.0947,1.1633198545033705,692.2683421432743
3619.9292,1.1590976735844642,771.751676925788
3620.762,1.1548097837938511,612.0346110623691
3621.595,1.151009388326636,640.256628656446
3622.4302,1.1483579243905713,784.1948601393689
3623.2634,1.14700667102415,644.4899773523595
3624.0989,1.1464300482932939,676.216408623776
3624.9326,1.1460612979594709,757.9640702980187
3625.7686,1.1459023542103606,693.261884150037
3626.6028,1.1464382688821018,758.8914158959661
3627.437,1.1479694650877679,669.6897751105132
3628.2734,1.150179350458433,664.9810071567738
3629.1082,1.152323626824399,654.2701620723557
3629.945,1.1538077504269766,569.3569742643755
3630.78,1.1544866391814466,662.9623961502075
3631.6174,1.1546923243934697,696.5358375717744
3632.453,1.1550576111533803,1194.4177509586555
3633.2883,1.1562663199629744,626.0949208894164
3634.1262,1.1587051265389876,812.0426863524486
3634.9622,1.162133644242568,601.8261501433329
3635.8005,1.165720321044433,836.9020149948859
3636.637,1.1683225332292762,578.2400563875985
3637.4756,1.1690753609353144,743.3064744556187
3638.3123,1.1677443636001137,758.0951147616054
3639.1492,1.1647664015223167,524.6536796868897
3639.9885,1.1609098709121115,972.4914479418833
3640.826,1.156955976220789,774.362911983924
3641.6653,1.1534537120664654,785.6677280615442
3642.5032,1.1507733292569313,601.936569570793
3643.343,1.149031399250193,699.9058074421141
3644.1812,1.148074765961779,641.5426094041055
3645.0195,1.14746934662402,922.4331818725351
3645.86,1.1466757196997361,798.3115067483561
3646.699,1.1452872577688513,813.9485935705172
3647.5398,1.1432312183644942,660.9698411419176
3648.379,1.140896019652622,697.8666170239366
3649.2202,1.1389672295582025,805.0648346272943
3650.0596,1.138076371766373,773.377384080826
3650.8994,1.138348330865738,795.1074061603043
3651.7412,1.1392810122119286,558.1808810837323
3652.5813,1.139945669719506,869.506240762385
3653.4236,1.1394264358208626,647.2894397312419
3654.2642,1.1372397365568934,740.0756829385666
3655.1067,1.133543303344008,594.0134568603454
3655.9475,1.129041062292481,734.5963375404157
3656.7886,1.1245132468165489,737.3516935956953
3657.6318,1.1204769800395122,1048.1846821202073
3658.4734,1.1172338728052147,806.5619384259353
3659.317,1.1151400305535724,772.1886552877534
3660.1587,1.1148925013200546,806.4864367041355
3661.003,1.117319963029964,739.0616934201314
3661.845,1.1228356028553752,783.3550705228531
3662.6875,1.130955899098987,688.6415434170531
3663.532,1.1402140401446275,816.1680100286965
3664.3748,1.148597050677353,599.0160481961719
3665.2197,1.1545006896430725,672.6344245882993
3666.063,1.1572124214613662,594.747491840695
3666.9084,1.1571293251095478,681.861085304708
3667.752,1.155387692317164,723.3485933267225
3668.5977,1.1533204793821443,957.0560125181198
3669.4417,1.15187191652915,623.7068486108736
3670.286,1.151151017400504,580.2618028982201
3671.132,1.1504968502197233,637.871871612623
3671.9768,1.1489795937071834,737.4312995835808
3672.8235,1.1459484633840933,623.90336466735
3673.6685,1.1412885869223741,861.165418888124
3674.5156,1.1352757939971134,728.257283097893
3675.3608,1.1285717469677188,810.7316479568765
3676.2063,1.122145300625557,675.6029754929331
3677.0542,1.117188030895962,869.6122002252906
3677.9,1.1146311343620448,958.326349918101
3678.748,1.1144263275322377,727.7810788779874
3679.5945,1.1154463783479236,830.8114775340354
3680.4429,1.1160670339598273,857.2359436858205
3681.2896,1.1151231048843098,781.0907336305261
3682.1365,1.112519876601371,906.9897157073681
3682.9856,1.1091086003456216,740.9589594224144
3683.8328,1.106072645140102,871.9697074305798
3684.6824,1.1041417715134787,741.1784468313973
3685.53,1.1033059096114737,942.2107520921827
3686.38,1.1030173262744898,818.4451621218179
3687.2278,1.1027651306566686,754.8305804330522
3688.0762,1.1024082503678028,739.5969695487682
3688.9265,1.1020982288489802,1025.3918870665132
3689.7751,1.102070006078928,764.7712637398639
3690.626,1.10262140134135,706.0607825019965
3691.475,1.104177376503118,737.5710291687905
3692.3264,1.1071542092801028,986.7640641562089
3693.1758,1.1115889125341467,681.5556594115828
3694.0254,1.116996109635305,740.2983245581506
3694.8772,1.1224579671850772,730.1485805359521
3695.7273,1.126820518511134,672.0632318664377
3696.5793,1.1290385554866031,757.312655292414
3697.43,1.128442627219432,703.795763072
3698.2825,1.1251400705664893,760.5433618742726
3699.1333,1.1201851044273015,808.5899947827246
3699.9841,1.1152655133260168,857.6992600604603
3700.8374,1.1120539763517134,621.6407981427683
3701.6887,1.1114918229892394,687.2942119469185
3702.5425,1.1132937914681342,870.3447492567602
3703.3943,1.1160476090471547,792.9741895306241
3704.2483,1.117854667164422,719.3402465969626
3705.1003,1.1171706532633723,676.3931208277534
3705.9526,1.113499507451802,712.750796253437
3706.8074,1.1074432782946448,797.5324386283017
3707.66,1.1003326904278832,673.973769760999
3708.515,1.093463155149204,819.6583525854799
3709.3682,1.0877554728202035,701.9835895020319
3710.2234,1.0835233672692748,765.6084729017266
3711.0771,1.0808280330882158,612.3992550222573
3711.9307,1.0797701574137544,815.9271101910659
3712.7866,1.0805623622362044,867.215448044101
3713.6409,1.083068781172306,841.696781231273
3714.4973,1.0863833469330753,889.8544923483971
3715.3518,1.0890572972473447,873.5029605811159
3716.2085,1.090144979212207,673.48298722629
3717.0635,1.0899864473016971,884.0743936300664
3717.9185,1.089958161152328,934.2120447374572
3718.776,1.0912642204028846,929.074601156514
3719.6313,1.0939623054527303,766.0904339212185
3720.489,1.0971334621535416,699.4619783362454
3721.345,1.099747015253979,665.8994972978165
3722.2031,1.1014028524281434,985.7469894405965
3723.0593,1.1023115719242782,678.21114395028
3723.9158,1.102990694303154,826.377653304328
3724.7747,1.103970216458919,784.5548111241199
3725.6316,1.105609457582975,774.7211234660211
3726.4905,1.1079431352924753,860.2912526067156
3727.348,1.1105628528698601,651.4942822144525
3728.2073,1.1127627602493007,738.6196737345149
3729.065,1.1137456565120132,720.1922874453808
3729.9229,1.1129068836052312,757.2863213394778
3730.783,1.1100858651393697,860.7333536634077
3731.6414,1.1058709615935698,877.9106850346138
3732.5017,1.1014673090457627,918.2799228871436
3733.3604,1.0980996941375272,723.6763232981092
3734.2214,1.0961366073610743,871.0765578102729
3735.0803,1.094975819161156,770.1934517181195
3735.9417,1.0936948917854679,679.9580582719544
3736.8013,1.091924818281669,816.6886966491169
3737.661,1.0899509274713024,1083.048524292249
3738.5227,1.0881792660124596,1049.8605170374317
3739.3828,1.0867464836069542,980.2159998354247
3740.245,1.0856213858929518,798.0079351081005
3741.1055,1.0848658480337499,973.7952161737607
3741.9683,1.0845161230949294,740.1365555031136
3742.829,1.0843914898683074,836.683538172226
3743.69,1.08417461377551,675.9507522027683
3744.5532,1.0836969797772305,812.5925971536916
3745.4148,1.0830415775614022,685.8847333636979
3746.2786,1.0823910940694705,944.1762352833805
3747.1404,1.0819305628003277,1013.6612567810503
3748.0044,1.0819273017014674,911.8682467425044
3748.8667,1.0828446441359152,917.2404215689141
3749.729,1.0851785974839965,945.4033190184103
3750.5938,1.0890505720492623,645.313770069107
3751.4565,1.0938518918522386,1233.9756087233245
3752.3215,1.0984774310196266,649.7362116209538
3753.1848,1.101799718586911,773.6503152795062
3754.0503,1.1032456577029028,768.9909805313391
3754.9138,1.1028853339688673,857.749119631866
3755.7776,1.1012866011926006,866.5116205368602
3756.6438,1.0991886087517952,724.0773551583244
3757.508,1.0972466462382233,815.4354705885548
3758.3745,1.0958423314134784,801.3591995463895
3759.239,1.095143634420808,799.9970355287522
3760.106,1.0951594754177085,741.9354317309613
3760.971,1.0957259439901588,771.4802738993451
3761.8362,1.0964457248999906,811.6743148152684
3762.7036,1.0968136289560182,711.114141526841
3763.5693,1.0964815597545847,872.6579026734142
3764.437,1.0953814205414891,751.7193837006666
3765.3032,1.0936039081002455,867.741437122086
3766.1714,1.091266617770807,824.0810947060297
3767.0378,1.0886110718696438,741.282916322769
3767.9043,1.0860162250480014,819.2096131571509
3768.7732,1.0838253723179023,796.9818490306561
3769.6401,1.0821440168377496,719.2973253470815
3770.5095,1.0808252046467317,794.9088797709962
3771.377,1.0796583288002268,807.17149365903
3772.2466,1.0783503054144477,833.1408594349784
3773.1145,1.0765134741543347,812.6349540097243
3773.9824,1.0738691167406262,759.5980443291581
3774.8528,1.070648802991782,879.6156458004732
3775.721,1.0677346200948172,756.0167797750545
3776.5918,1.0661710828794417,942.3042833947588
3777.4604,1.0665837465746821,932.1149744878519
3778.3315,1.068863012321053,740.1945171567587
3779.201,1.0724438251451842,871.3015801996173
3780.0703,1.0768949822071678,1120.0028340383244
3780.942,1.0821986412752644,893.0874095111941
3781.8118,1.0883868164882784,768.8961021258351
3782.6838,1.0950572935427516,938.8715032007727
3783.554,1.1011349731859952,993.6277720158226
3784.4265,1.1055433976214197,718.40546235292
3785.297,1.1077871722985544,851.1541431997741
3786.168,1.1081770268120918,634.129155244113
3787.041,1.1073073374905642,659.3794098037423
3787.912,1.1055033002157466,705.6030307744024
3788.7856,1.102559694004939,784.3040714867506
3789.6572,1.0979785364967904,773.1619360857994
3790.531,1.091394289558063,761.4000708415978
3791.403,1.0831336478971856,859.7858695398435
3792.2754,1.0742027495468545,726.1743346707087
3793.15,1.0658612982279279,922.5808003656696
3794.0225,1.0589737256644245,919.0190542394957
3794.8972,1.053490362265263,992.2984108923037
3795.7703,1.0488642693090378,811.1574330394449
3796.6455,1.0446704721785516,803.0098564039845
3797.519,1.0411964256227308,929.5623223186242
3798.3926,1.039179381177089,950.9992908073856
3799.2686,1.0391558316337184,773.1904388904766
3800.1426,1.0409445152976413,880.9009303743331
3801.0188,1.0437963583457308,919.5247001201872
3801.8933,1.0469782861060497,827.5767062149932
3802.77,1.0503208300676394,1001.1937979405873
3803.6448,1.0541680361700358,864.3262906656006
3804.522,1.0590124456206502,784.3808450822626
3805.3972,1.064930047155906,858.2362734207937
3806.2727,1.0715183758433495,865.3777606994075
3807.1504,1.0781576181482266,772.2743493452109
3808.0261,1.0844133928386301,721.2517535679575
3808.9043,1.090349361665291,812.7902895785676
3809.7805,1.0961651279654474,998.3750259372446
3810.659,1.101848063912059,679.5134620086618
3811.5356,1.1068185587679944,888.6140309747277
3812.4126,1.1102636668882766,693.9181861407912
3813.2917,1.1116190123748895,941.5099638701487
3814.169,1.110952785550134,661.8456228782176
3815.0483,1.10894848343465,838.4472715251987
3815.926,1.1065849884946715,718.79515210906
3816.806,1.1047498031284273,839.1229985500347
3817.684,1.104022614798551,729.0211970155455
3818.5623,1.1045190953118884,752.3443733450326
3819.4429,1.1058748259945508,815.5849450989867
3820.3215,1.107239179120042,747.3382348755705
3821.2024,1.1074065247271137,851.137416728859
3822.0815,1.105112824692139,668.2805969760283
3822.963,1.0995368894530482,896.9354164017061
3823.8423,1.090801826089497,729.3161808852901
3824.722,1.0799278394713538,900.2446850982267
3825.604,1.0683781988987793,811.7787898939919
3826.4841,1.0574751284981716,738.7106064083546
3827.3665,1.0477156403723813,929.9567763867035
3828.2468,1.0389223357828024,847.9667050739281
3829.1296,1.0303561718687761,1012.3689700023563
3830.0105,1.021296498615022,895.246567446813
3830.8916,1.011196003795928,887.0012146447336
3831.7751,0.9999211107174807,950.206332636484
3832.6565,0.9879646605440544,994.7557214086371
3833.5403,0.9762615694689233,1340.6157300608918
3834.4224,0.9662606686011886,1084.455442380281
3835.3064,0.9593623350510083,953.5128864705608
3836.1887,0.9567044432423868,982.8558730514003
3837.0713,0.9588504325310149,978.7842714475001
3837.956,0.9658440829542471,914.710698556471
3838.839,0.9770774868172359,1165.1137210910338
3839.7244,0.9913802173711994,905.9243763310097
3840.6077,1.0070515306108747,951.5448429563623
3841.4932,1.022727519075236,991.1174561514983
3842.377,1.037739427337247,956.3292541207448
3843.261,1.0523790830853783,741.229777055593
3844.1472,1.0670833438333085,705.8121523025088
3845.0315,1.0815714732903874,910.9973856405131
3845.9182,1.0950539282514618,829.6578652410113
3846.803,1.1066477210826646,705.3528654382376
3847.69,1.1162550369502438,854.059107573165
3848.5752,1.124293797138407,705.0977015667427
3849.4604,1.1313489817043438,676.8463772290024
3850.3481,1.1377295728397192,792.8093501974697
3851.234,1.1434241317927545,728.5465307774048
3852.122,1.1484108282680614,641.6170377381391
3853.0083,1.1527281981730737,778.0074087378496
3853.8967,1.1566377664103764,704.3536623160542
3854.7832,1.1604291454237472,758.6605934513967
3855.6702,1.1642396591280322,675.6393553893195
3856.559,1.1678456250219562,723.1852253072988
3857.4463,1.1707460630902806,608.3904190843685
3858.336,1.1724858505058338,650.4646226068528
3859.2234,1.1727811095504723,654.845720636101
3860.1135,1.1715566819776522,693.4438521801715
3861.0015,1.1689751165602378,752.2193717355171
3861.8896,1.1655279513816639,806.4992681988005
3862.7803,1.1619722394892624,752.1574771672205
3863.6687,1.1589654040302093,598.3190674229218
3864.5598,1.156505022330089,780.1933749395005
3865.4487,1.1538500355920958,825.6951450464082
3866.34,1.1498682157109754,751.812167501444
3867.2297,1.1438068639494106,778.772919709717
3868.1213,1.1357371638423737,610.3262999910335
3869.0112,1.1266559457785144,714.0977643546581
3869.9014,1.1178636023451993,798.8672977697132
3870.7937,1.1102952897939957,951.3137470366908
3871.684,1.1040570508806664,649.7523821589288
3872.577,1.0983000385010588,759.5905531062472
3873.4678,1.0918190200155284,781.4893630668225
3874.361,1.0835632328768594,870.7855629831981
3875.2524,1.0732392009477336,909.6472164285574
3876.1438,1.0612803793217482,734.2663212096816
3877.0376,1.0485906547139243,1047.5265489546114
3877.9297,1.036108451885563,858.1694136479699
3878.8237,1.0240940857402228,1033.8759655636313
3879.716,1.0122052109773427,929.5455094351139
3880.6108,0.9996423213098942,963.3151059654268
3881.5037,0.9859692105095677,1026.2675378295055
3882.3965,0.9712973450493814,1138.6416987192806
3883.2917,0.9562190478833412,1033.9908428355297
3884.185,0.9413703055709873,1154.8808169707402
3885.0808,0.9266641883952177,1220.7730332131734
3885.9746,0.9116465900606264,1236.7719843724876
3886.8706,0.8958628573209229,1194.7036486131142
3887.765,0.8798749000462553,1370.1193952069755
3888.6592,0.8652389457822165,1355.2352117176422
3889.556,0.8541357550405113,1433.758839479324
3890.4507,0.8486017208575394,1268.961661690846
3891.348,0.8496257231926265,1294.0795333330868
3892.243,0.8569505379702078,1310.1739908886839
3893.1406,0.8693265751955915,1249.3106292069353
3894.0361,0.8849503619312427,1230.758922588948
3894.932,0.9022873790464809,997.5994196798983
3895.83,0.9203569027625755,1215.1870107123987
3896.7263,0.9385957145109617,1828.6401244820047
3897.625,0.9569565106207276,949.9620889369261
3898.5215,0.9752907840664017,1043.9041874980471
3899.4207,0.9935332507373165,870.0594068568186
3900.3176,1.0112575038210663,944.0575840589572
3901.2148,1.0281738508144043,823.7152176839122
3902.1145,1.0442097873150953,767.3603471587722
3903.0122,1.059489151679996,840.6745953231191
3903.912,1.0744174915366176,874.4344236398291
3904.8103,1.0891324401138742,937.7710812922434
3905.7107,1.1036825910242496,750.8040504557783
3906.6094,1.117919072445703,796.6900365633804
3907.508,1.1319230480354743,691.3954096809848
3908.409,1.1459647460844138,682.2575420102221
3909.308,1.1602079601714181,766.9259076712319
3910.2097,1.1746529349164518,665.6725089316272
3911.1091,1.1887599212165552,699.9374540584313
3912.011,1.2019221843146606,637.119807136038
3912.9111,1.2135617753143204,634.9480670694315
3913.8113,1.2236452516878347,657.7241611475141
3914.7136,1.2326167243909412,538.9465378214215
3915.6143,1.2411219470788104,534.1671473108768
3916.517,1.2498194745718678,616.1212655563872
3917.4182,1.2589144627544608,621.1574761232436
3918.3215,1.2681136100157264,627.5295652771887
3919.223,1.2765290738091017,517.642575986573
3920.1245,1.2832170237906275,537.1279209558222
3921.0286,1.2876241330899063,526.123782480388
3921.9307,1.2898669659581583,583.9376445831397
3922.835,1.290647592099908,606.1617675161691
3923.7373,1.2907666617704836,604.4885901674256
3924.642,1.2907773935495899,540.2362418595615
3925.5452,1.2909034358548164,547.3402553077459
3926.448,1.2912118547209255,544.8004021932712
3927.3535,1.2917923133371843,528.5797299296487
3928.257,1.2927328973045533,482.93793541737637
3929.1628,1.293944492556439,571.7867041195283
3930.0667,1.2949908636609586,512.4011492645943
3930.9731,1.2951604050594299,547.6406421150217
3931.8774,1.2937367546923284,598.403891921156
3932.782,1.290409577567184,530.0210760963837
3933.6887,1.2855595644412234,624.2858927645162
3934.5938,1.280218249153416,565.510797907361
3935.501,1.2754204432833744,601.4017637985993
3936.4062,1.2715906181120256,542.6311333064892
3937.3142,1.2682245079799557,540.3979917563631
3938.22,1.2643945821743348,528.6238145467348
