wavl,flux,ivar
3566.9744,7.352923976201851,4.514971217200007
3567.795,7.3663441755837855,5.7765046860212195
3568.6177,7.359861097957188,4.2531145594095685
3569.4385,7.341318939443501,5.526563350718965
3570.2617,7.3183898824074705,4.22751300650765
3571.083,7.29458440027653,4.666027762784325
3571.9065,7.268922133969287,6.154181065148145
3572.7283,7.240492092317473,4.7321195186456055
3573.55,7.211700495716235,5.608192396793758
3574.374,7.187573241436343,4.520092029698793
3575.1963,7.171428823216105,6.255607922342859
3576.0208,7.161322963596006,4.338562602062242
3576.8435,7.1518343201010115,4.647228977688681
3577.6682,7.13800077531958,4.5702064993884655
3578.4915,7.118037533042904,5.367374188676777
3579.3145,7.092036116669093,6.40166533676481
3580.14,7.0592306886079195,6.969855554793754
3580.9636,7.017789387045638,5.461095416093646
3581.7893,6.967274866415619,4.574348757938952
3582.6133,6.913438759528063,6.627232622221628
3583.4395,6.8678379480098615,5.1830145387434525
3584.264,6.843986820580494,6.0880523379254505
3585.0884,6.849627421769785,6.484843939306435
3585.915,6.882920861657565,8.841115079954836
3586.74,6.932513708058427,5.603913195337029
3587.5671,6.98301266801975,4.901543353449663
3588.3923,7.020677344974068,6.190478710711274
3589.22,7.038913683190086,5.4880422387732715
3590.0457,7.038001454641535,5.704617187251138
3590.8716,7.022234123723468,4.896333885885463
3591.6995,6.995994767158652,5.887320380973533
3592.526,6.963199718102882,5.332578839638808
3593.3542,6.928272251282985,5.303091303735284
3594.181,6.8970703014551615,5.064445718734714
3595.0098,6.873941148267868,6.102790101648493
3595.8367,6.859078717390284,6.232297019137132
3596.6638,6.847632172111141,5.250816230502737
3597.4934,6.833093036112634,4.848065770520616
3598.3208,6.8116868272162225,6.13081894748087
3599.1506,6.7844274947827,7.673859632831761
3599.9788,6.7573320887361055,5.6816883681232815
3600.8088,6.739151097581346,5.369059713816562
3601.6372,6.738476146474754,6.386467213864116
3602.4678,6.75802665600912,5.920502417896662
3603.2964,6.789634158807148,10.886961931850706
3604.1252,6.816479846989435,5.279080280430441
3604.9565,6.82416412737513,7.178672999368422
3605.786,6.81280804262565,4.790041710818077
3606.6172,6.797879232792814,7.093797777267714
3607.447,6.798043888693505,8.03817258617105
3608.2788,6.821500963346931,6.844863850220458
3609.109,6.861877327405437,5.221825219401901
3609.9392,6.9037988315365295,5.958019066723174
3610.7717,6.930197988899993,6.849070754590915
3611.6023,6.927900069823334,4.064770756130315
3612.435,6.892786752379897,4.857865381584967
3613.266,6.833220580465436,6.544199890756753
3614.0994,6.7676884425216866,5.482249888872211
3614.9307,6.717067370018052,5.301559423027014
3615.7625,6.692505622689509,4.662264481169749
3616.5962,6.69061648137686,6.0665258104885575
3617.4282,6.6973507833780115,4.684795361853629
3618.2625,6.698652074926532,5.629598092720777
3619.0947,6.688959512841016,5.527881016524899
3619.9292,6.671156972423046,5.5945504899595955
3620.762,6.650030955530851,6.956901703631538
3621.595,6.626521779300965,5.246760954881284
3622.4302,6.598770575587506,4.960274823855342
3623.2634,6.5673171364347995,5.28507160082688
3624.0989,6.5372509297251415,6.6399450394578405
3624.9326,6.516125249365515,6.1353916590940685
3625.7686,6.508140513185371,6.332514500145163
3626.6028,6.511210855606573,5.87984600260114
3627.437,6.517953179911577,7.6702167073327985
3628.2734,6.519974170075853,6.423413659176614
3629.1082,6.511630664598726,6.636862799611351
3629.945,6.491661364171345,6.132324047974841
3630.78,6.463167154851396,6.8637560879877695
3631.6174,6.431510412205273,7.967345743437027
3632.453,6.401646290551052,5.848427233380668
3633.2883,6.374742727041203,6.004419375774426
3634.1262,6.348704690637531,8.765632512419492
3634.9622,6.32154541428706,6.676426333064603
3635.8005,6.293395934492821,8.009807573098444
3636.637,6.2663403771941635,5.415393461481671
3637.4756,6.241259706431326,8.632024925448741
3638.3123,6.217068255506578,7.299085747300559
3639.1492,6.191343585385523,5.722441058155819
3639.9885,6.1622934700977705,7.207134136318969
3640.826,6.129633718592184,7.560970641670488
3641.6653,6.093463662590668,7.263430210321557
3642.5032,6.05430831517823,7.612376393861882
3643.343,6.012910295198637,7.9788184523287
3644.1812,5.971934199661363,8.103105083605833
3645.0195,5.936007330691411,7.3368423108103995
3645.86,5.911308151631805,7.3594881154013505
3646.699,5.903224496299273,7.722098652801619
3647.5398,5.9127102524039845,6.838434246866775
3648.379,5.934286032873263,9.313649688854401
3649.2202,5.957176017889202,7.412092117737165
3650.0596,5.969376913821822,7.0530096061607175
3650.8994,5.963522680100945,8.336604868642487
3651.7412,5.9400348822391855,8.706428080241823
3652.5813,5.906842335630288,11.02463203041181
3653.4236,5.874344239495676,10.084591584495668
3654.2642,5.849962738931766,8.1290614253619
3655.1067,5.834316708805669,8.62042481661945
3655.9475,5.823284494476992,7.2455514066400974
3656.7886,5.812449689276159,7.985619619258797
3657.6318,5.800765960191825,8.406091505668101
3658.4734,5.790392541995132,10.58187873624014
3659.317,5.7836447918545,7.05806457832537
3660.1587,5.781036559198598,10.124027259333829
3661.003,5.782035304234281,7.034503401605329
3661.845,5.7876270777196845,11.09877960458572
3662.6875,5.801034746886975,8.95455576232507
3663.532,5.825182306230674,7.477017498631903
3664.3748,5.85879469492075,6.037079112771508
3665.2197,5.895477532381192,7.569381059007003
3666.063,5.925668293210656,7.7616032681111795
3666.9084,5.942323854969044,6.829720740617111
3667.752,5.944930658648307,7.686857034760282
3668.5977,5.940099271178504,12.75497646071221
3669.4417,5.936680938800514,7.041381443574552
3670.286,5.939473236600895,7.66840637530449
3671.132,5.946460095586719,9.152568229701155
3671.9768,5.950904262050509,5.937614374814362
3672.8235,5.946022204331837,8.01830747080161
3673.6685,5.928707202899328,8.22610049666193
3674.5156,5.900863090906618,6.755398665264858
3675.3608,5.868889868409685,8.966379039599582
3676.2063,5.840466033089782,5.991727995910429
3677.0542,5.821268418442852,8.51736985551665
3677.9,5.812816597198621,9.224479759112105
3678.748,5.812352783359061,8.10471812940723
3679.5945,5.814950295086993,7.104435125247827
3680.4429,5.815510331308043,9.195873700404169
3681.2896,5.810456518727293,8.459131146879804
3682.1365,5.7992270645168675,7.225959061531721
3682.9856,5.784941421050162,8.646809008430932
3683.8328,5.773032113520329,7.767765261477843
3684.6824,5.767251188041228,10.190310109233577
3685.53,5.7667908309284295,6.460632149015823
3686.38,5.767095848490467,8.151504953446906
3687.2278,5.764433507118547,8.638889927883033
3688.0762,5.759592988506522,7.6400895600997165
3688.9265,5.757137959461603,8.469888814412624
3689.7751,5.761199706997024,6.805696967681539
3690.626,5.772119915998001,9.672931699093063
3691.475,5.7870017134261875,8.98019538367499
3692.3264,5.803277164501577,8.754709415209804
3693.1758,5.820513524746398,8.683285500008857
3694.0254,5.838981407532839,14.081225847508819
3694.8772,5.8563820305454595,10.96077147576047
3695.7273,5.867584075183002,7.369781560077867
3696.5793,5.8685003120263595,6.995041188502217
3697.43,5.859070010672024,9.470114152399317
3698.2825,5.842413391674795,7.760642746268589
3699.1333,5.821855908709642,8.243579313155646
3699.9841,5.799200131857373,10.464478214818786
3700.8374,5.775377550938163,8.241752084081597
3701.6887,5.751347350572121,8.339176584715581
3702.5425,5.727715786413649,8.352477520210252
3703.3943,5.705421088595181,8.003539629069554
3704.2483,5.685332151082723,7.853029805026968
3705.1003,5.66785340629365,6.686712051599101
3705.9526,5.651824166236368,7.950237095360692
3706.8074,5.635627400519402,8.932988456414481
3707.66,5.61916510226889,9.412690326953411
3708.515,5.603714768110603,9.182918351840927
3709.3682,5.59001305397236,9.461502725160797
3710.2234,5.575824282639434,8.774674398039602
3711.0771,5.5568865315438885,9.546799019747393
3711.9307,5.529867744524491,8.50890511260141
3712.7866,5.495065894700358,8.436038070812389
3713.6409,5.456989449698747,8.329725559184652
3714.4973,5.421778841793593,8.696648883487548
3715.3518,5.395503028441182,9.208008565572554
3716.2085,5.381963448806876,8.136804280607945
3717.0635,5.3821975603913605,10.265865585144875
3717.9185,5.393622869254433,12.276894231341123
3718.776,5.410669105427991,7.888033643764285
3719.6313,5.426397308157401,8.717520265719243
3720.489,5.435211976528743,8.830023626470723
3721.345,5.434125182905712,8.416800568363215
3722.2031,5.423090626673373,9.961196371262446
3723.0593,5.404625436845906,10.197687635557552
3723.9158,5.383022231569988,11.202924300099543
3724.7747,5.363163329888443,7.568623680718035
3725.6316,5.348868952603995,7.393568618938845
3726.4905,5.341067821308389,10.219192993193658
3727.348,5.338035000798725,9.486797875735435
3728.2073,5.336700318596825,9.884151187393178
3729.065,5.334370832805926,12.214476169778102
3729.9229,5.329346559218223,8.045410305638308
3730.783,5.320778361070518,10.259050898461622
3731.6414,5.308793980229677,10.346704716345684
3732.5017,5.294609546537112,7.760695470224628
3733.3604,5.280332219115283,9.140666532516668
3734.2214,5.267373374754548,9.533242944129151
3735.0803,5.255451045300682,8.763240261021565
3735.9417,5.242594170389414,8.406370184543869
3736.8013,5.227359922022581,13.459848686522541
3737.661,5.210669611637984,9.842214949759208
3738.5227,5.1960133361733645,12.061591132806452
3739.3828,5.187097000302381,8.92200256783199
3740.245,5.184277727206431,10.207449086648495
3741.1055,5.183662437492489,8.669906138035612
3741.9683,5.1797028146279676,16.703654777549943
3742.829,5.169429445951568,12.217727008286094
3743.69,5.15425794109885,9.333702433301099
3744.5532,5.13812825539394,9.573093696732158
3745.4148,5.12413080380273,11.848604692837798
3746.2786,5.112173002002953,9.80426554266664
3747.1404,5.100378472459106,10.170528343576006
3748.0044,5.088051893955164,11.565034134726117
3748.8667,5.078024732572633,10.877092782102023
3749.729,5.0751880388887685,11.28187734174525
3750.5938,5.082929637549588,11.634366203879122
3751.4565,5.100093862899927,10.18698805999583
3752.3215,5.121280041575319,8.766049547212308
3753.1848,5.13924673304572,10.772635195244685
3754.0503,5.148348096774072,9.10021313697362
3754.9138,5.146242164766259,8.04613927185178
3755.7776,5.134289157015763,11.436568001857708
3756.6438,5.116027477134591,8.126087590431794
3757.508,5.095323690699281,11.743280616180323
3758.3745,5.07449542091375,11.86913712574019
3759.239,5.054653068266792,12.591115623470301
3760.106,5.036444918287442,8.992074314245684
3760.971,5.021329563371496,10.603316391756792
3761.8362,5.010837484526235,10.70442067790587
3762.7036,5.005488693726278,9.474464070504721
3763.5693,5.003939194288578,11.907638586279003
3764.437,5.003276067092404,12.896139826770865
3765.3032,5.000344291718912,9.44018784463736
3766.1714,4.992923721641684,11.608936712435016
3767.0378,4.980153040335446,11.108147990332522
3767.9043,4.962016731006658,10.595000351061225
3768.7732,4.9389855700399075,10.909221954153432
3769.6401,4.9125386333049645,12.659200381822618
3770.5095,4.885135853847812,9.679585923584298
3771.377,4.860517524872168,12.047707963779768
3772.2466,4.8422560162055825,12.517605705309801
3773.1145,4.832825879843767,16.330489947571134
3773.9824,4.831980959854985,13.931466704465233
3774.8528,4.836462234799321,11.465350428835013
3775.721,4.840924750174302,10.904276179031415
3776.5918,4.840730147123981,10.040412587784168
3777.4604,4.835240061304256,11.780585164883808
3778.3315,4.829290781556095,13.581718579295659
3779.201,4.830489886654141,11.684975620168583
3780.0703,4.843151850874727,12.145848588391239
3780.942,4.864394553648686,10.073659326064028
3781.8118,4.886051652464843,10.875573406904213
3782.6838,4.901409056368899,12.315036889332362
3783.554,4.909213301272556,10.908656728100055
3784.4265,4.912557565463182,10.811262068187176
3785.297,4.914228539099178,12.092728411994509
3786.168,4.914193699460169,10.671419076006233
3787.041,4.910612781735581,9.519376002377756
3787.912,4.90246713345961,8.844195461786441
3788.7856,4.890726057113835,11.186034644570128
3789.6572,4.8777404982341315,10.342064740332328
3790.531,4.865657546339039,13.163757400709713
3791.403,4.85596625706222,12.993339528299881
3792.2754,4.849120844383031,12.125870609228876
3793.15,4.844160897970684,12.174472654823731
3794.0225,4.8383094029572185,14.079051886700613
3794.8972,4.827885830675923,11.630046754951866
3795.7703,4.811013100916398,11.847381892703698
3796.6455,4.789513771073357,13.395808114033182
3797.519,4.768615644998681,12.730669801413335
3798.3926,4.753574183477101,10.667022440718625
3799.2686,4.746749364720106,12.90041221638187
3800.1426,4.746774398774203,10.452631385608688
3801.0188,4.750051931999096,12.504137873030128
3801.8933,4.753176910384021,12.107535653842387
3802.77,4.7543596472649865,12.597434839585286
3803.6448,4.753402669436439,9.501547402847695
3804.522,4.751096222648815,10.867001708765327
3805.3972,4.7486484553039725,14.188443666900753
3806.2727,4.747189965468913,12.931340236241471
3807.1504,4.747370345578937,11.761016539698922
3808.0261,4.749041296400312,12.584405242820452
3808.9043,4.751226950547574,11.9096797262342
3809.7805,4.752383109515503,13.534711690313303
3810.659,4.750988673915581,10.652930897263465
3811.5356,4.746197130605437,13.942351587779989
3812.4126,4.73826521363482,14.042940069611996
3813.2917,4.728490060780132,11.604794887085973
3814.169,4.718764334605489,14.520569376855034
3815.0483,4.710600517606801,11.707578399552556
3815.926,4.704611130199404,14.101674558072391
3816.806,4.700277266399666,13.852493492320976
3817.684,4.696597857761194,13.080049546427459
3818.5623,4.69246916639425,10.13024773464421
3819.4429,4.686439770941592,15.975900422354094
3820.3215,4.67637651970185,12.73961652335455
3821.2024,4.6600749664477075,14.268122139684165
3822.0815,4.637308745066467,10.894018822402998
3822.963,4.610718996704601,14.741601832338278
3823.8423,4.5851927225007,11.958103100928225
3824.722,4.5647883269341625,15.469018194891644
3825.604,4.550565706228626,13.74203058328289
3826.4841,4.540055577658385,14.408661651308778
3827.3665,4.528713745220982,13.458968171160652
3828.2468,4.513224346904599,16.852806012086237
3829.1296,4.493427142213246,12.743981013717198
3830.0105,4.472001809758083,16.76372682032519
3830.8916,4.451368047420607,12.986115945290694
3831.7751,4.431787183916666,12.174024517219218
3832.6565,4.412072662642682,13.617412530490341
3833.5403,4.391298099807943,12.926475252363451
3834.4224,4.370456267920245,13.223134795768729
3835.3064,4.351645831964905,13.675162254293928
3836.1887,4.337128720106841,14.492716717680771
3837.0713,4.327970841452437,14.910389332763422
3837.956,4.323902837611644,14.930217528808317
3838.839,4.323946740398353,13.673212735561478
3839.7244,4.327552973452621,13.668543497323439
3840.6077,4.335235973083719,12.964226634218914
3841.4932,4.348013718672416,18.030382880577726
3842.377,4.3658174350283225,17.256173042245475
3843.261,4.386698460830742,15.491245948030011
3844.1472,4.407315722348933,12.288696850331151
3845.0315,4.424608644641597,11.94395004498589
3845.9182,4.437623446286554,15.720431315441104
3846.803,4.4469113053477285,14.003610048025232
3847.69,4.453277426345419,13.44978612331922
3848.5752,4.456714263252894,17.000590865163225
3849.4604,4.45698502878274,12.062719141578365
3850.3481,4.454354449101547,13.432810637679069
3851.234,4.449898260227425,17.522136047199645
3852.122,4.44527150160204,13.861163308106054
3853.0083,4.442158465238595,13.03916553866421
3853.8967,4.4408195154007135,14.625848775494351
3854.7832,4.438815115982228,13.924200748861615
3855.6702,4.431670569682718,12.869067569805852
3856.559,4.416108006025108,15.344078629604745
3857.4463,4.393502306750936,14.774975292925577
3858.336,4.369726999091712,15.642849904267633
3859.2234,4.352083458095012,14.021181500901415
3860.1135,4.34480921663323,16.195824912663895
3861.0015,4.347695867960947,14.018112107068992
3861.8896,4.357039493386599,13.010895741020061
3862.7803,4.368014785949527,14.347418656966951
3863.6687,4.375959556679656,16.766042827581515
3864.5598,4.376737950769153,12.642034228793836
3865.4487,4.366747239430617,13.58088522221767
3866.34,4.34427196144584,11.633709281720627
3867.2297,4.311753265690731,13.308918719667066
3868.1213,4.275865786857815,14.875892111639658
3869.0112,4.245311320878504,15.226070258306915
3869.9014,4.226008462624648,14.189344540786688
3870.7937,4.218618911286031,19.51771788621955
3871.684,4.219039767019858,17.582886445723485
3872.577,4.221270861029721,14.79215724082309
3873.4678,4.220404366933618,15.973718117967964
3874.361,4.213935786469503,15.745118502953884
3875.2524,4.201702225127111,13.989983661372285
3876.1438,4.185225338640911,16.31149193379444
3877.0376,4.166929690130344,15.041923996336294
3877.9297,4.149107259862513,17.57736025933981
3878.8237,4.132296184905599,15.474482603377245
3879.716,4.11515239606821,11.910005433372786
3880.6108,4.095122759055599,16.992643424299132
3881.5037,4.07046618436216,21.07054593311796
3882.3965,4.041149791613853,17.316534300699253
3883.2917,4.009024572706624,15.446260793060251
3884.185,3.977229111400317,17.708798831165694
3885.0808,3.9482655091844316,21.11731759823351
3885.9746,3.923448424789192,17.43020185318223
3886.8706,3.9021515406060487,15.427159623262474
3887.765,3.883343294509311,15.869332003404985
3888.6592,3.866894795647709,18.9473151535936
3889.556,3.8545376382754992,21.01492107140717
3890.4507,3.84906710175621,17.512584820687128
3891.348,3.852345312461167,20.399951205436004
3892.243,3.864101597207857,15.660506996572888
3893.1406,3.882020001171304,18.985825153450744
3894.0361,3.902543132093497,16.31736263134648
3894.932,3.922582326905088,14.523250237031743
3895.83,3.940414854968977,17.746914443644673
3896.7263,3.955600485563996,15.101934421295939
3897.625,3.9685204686928204,18.215439569242157
3898.5215,3.9796585882901416,19.04768794610914
3899.4207,3.990398825884523,17.2694027061953
3900.3176,4.003196239765107,18.631196990027515
3901.2148,4.020761708036386,17.28594604147626
3902.1145,4.044059322349906,18.546695712631486
3903.0122,4.071204138303534,19.147157340560643
3903.912,4.099080800007043,19.912525432897148
3904.8103,4.12503110135838,14.17984244036424
3905.7107,4.148549173803545,14.645809288122148
3906.6094,4.1704467591284935,15.379388723912639
3907.508,4.191915574234362,16.655554028694077
3908.409,4.213347090002315,11.991304572012485
3909.308,4.234100569213796,15.51694343346557
3910.2097,4.2535929512400426,14.716994389235213
3911.1091,4.271804144818464,12.996438421171504
3912.011,4.28984230933358,13.259398135290466
3912.9111,4.308647688005616,16.846964029140114
3913.8113,4.327810650624452,11.31012787488849
3914.7136,4.344658070576787,14.11213732481267
3915.6143,4.354911819605546,14.947373884568927
3916.517,4.355035919447553,14.936672389498831
3917.4182,4.344325767018109,14.72907065175628
3918.3215,4.325820159449418,14.276793488064207
3919.223,4.305337371233751,13.619406650174144
3920.1245,4.288558374528936,16.273446035771112
3921.0286,4.278599468110152,12.999292823089633
3921.9307,4.275099150745907,14.227916925301557
3922.835,4.275177823029707,13.958434987029959
3923.7373,4.275735082878702,16.413011982635613
3924.642,4.2751823992431355,13.499212794487553
3925.5452,4.273736214766907,16.35359126765365
3926.448,4.272322541212579,14.074157419373902
3927.3535,4.2712655423458115,14.062084911150079
3928.257,4.269943838714143,14.628071366227957
3929.1628,4.267449182158516,16.436363191444304
3930.0667,4.263524564640907,12.857998851647798
3930.9731,4.259002634296848,17.873607063241558
3931.8774,4.255760627817795,13.998894366288948
3932.782,4.255669866819667,16.186966736311305
3933.6887,4.258885399069214,17.1336425509284
3934.5938,4.2624370786867996,14.490911889476306
3935.501,4.261051567309205,12.81773737036792
3936.4062,4.25020057235659,15.412141092354501
3937.3142,4.229128314734892,15.854525393436685
3938.22,4.20178866532999,15.86727372367127
3939.128,4.174317909661336,13.50125860617213
3940.0342,4.152235898928476,16.257794178857154
