wavl,flux,ivar
3566.9744,3.5376672476601048,133.01958709903204
3567.795,3.5334414886804915,130.4867077788545
3568.6177,3.530130218385654,139.1732324129885
3569.4385,3.5277432169173015,151.95962470667791
3570.2617,3.5260517556339055,134.94964481202095
3571.083,3.5244971027066674,133.16174516760563
3571.9065,3.522736421439577,142.80527835200314
3572.7283,3.5212742724385664,142.08970304044175
3573.55,3.5213040664888364,137.94412961762444
3574.374,3.5238879076699807,152.6472255122503
3575.1963,3.5289869429628715,145.47764698753883
3576.0208,3.53521871991248,130.32650831559457
3576.8435,3.5404227324766233,128.1651054060649
3577.6682,3.5429321563204357,124.03270628708215
3578.4915,3.5423983136204,143.4062948212352
3579.3145,3.539892745681979,131.4429521449678
3580.14,3.53704580596557,156.4508036503966
3580.9636,3.534878899172882,147.6124880159257
3581.7893,3.5330011382151567,128.3271114083814
3582.6133,3.5300660526442105,140.55914439066754
3583.4395,3.5250954487524924,139.51188565427682
3584.264,3.518693500457816,136.45826692018977
3585.0884,3.5128291971165675,158.83005163949358
3585.915,3.509488184092203,155.8718262398992
3586.74,3.5091348517681795,136.9741464615429
3587.5671,3.5100920708050913,126.11175150357907
3588.3923,3.509499613707042,166.2545423131759
3589.22,3.505197732599114,146.48520938291225
3590.0457,3.497194528793235,147.26220126274268
3590.8716,3.487396423178058,136.7477469678923
3591.6995,3.478081869249068,151.04266257698293
3592.526,3.47056095550862,148.75976313241603
3593.3542,3.4647624200710214,138.28204780854077
3594.181,3.4599194385327743,157.883856480279
3595.0098,3.4551124189883335,145.53408370948
3595.8367,3.449875184608272,148.72189593837524
3596.6638,3.4445812417901966,146.82077407799122
3597.4934,3.4407158948657264,149.71013963204112
3598.3208,3.440383424204186,146.62322641795927
3599.1506,3.444945580872239,149.8564589898754
3599.9788,3.453793049526495,140.6101493674293
3600.8088,3.46436254400625,132.45716250344435
3601.6372,3.4732252561840484,141.6305407231627
3602.4678,3.477676875644585,142.49018685181278
3603.2964,3.476311470637001,150.87583317830212
3604.1252,3.469140386671893,150.07429077446042
3604.9565,3.457360460999856,152.12899354584312
3605.786,3.4432851785868115,146.635219301031
3606.6172,3.42951423270827,158.8222098712857
3607.447,3.418182051337241,154.07992512719667
3608.2788,3.409862815957327,151.13398907467808
3609.109,3.4036000844042142,135.1188275158544
3609.9392,3.397553515120597,152.86776714447151
3610.7717,3.3903087133140426,152.02394376552473
3611.6023,3.3818545580183352,135.45953406446586
3612.435,3.373544484935409,153.78152688224787
3613.266,3.3675163960910717,164.5445910711305
3614.0994,3.3654436787322792,140.41584351706865
3614.9307,3.3677593748815706,142.7966822105131
3615.7625,3.373410421425936,152.75116692666603
3616.5962,3.3803489892101237,146.08649563260659
3617.4282,3.3862254516451973,155.42473060766184
3618.2625,3.3892603757441955,142.07891905740178
3619.0947,3.388707128741603,140.28341340390767
3619.9292,3.3850345441305145,153.61818404513227
3620.762,3.3795796778866136,140.8997705792132
3621.595,3.37387231208131,162.9830971001108
3622.4302,3.3691180524808875,138.8293745718235
3623.2634,3.3660072214716736,147.73168954615954
3624.0989,3.3646303972494205,163.41973407340427
3624.9326,3.364534045055333,142.60880988711946
3625.7686,3.3646866252796657,142.8043936650814
3626.6028,3.3637368568973267,155.6597940711002
3627.437,3.360637155413336,138.85954022013266
3628.2734,3.355331911228464,172.6305797015592
3629.1082,3.349080217902091,171.75306717278315
3629.945,3.343938282028703,158.70985384821788
3630.78,3.3419666852338343,168.54843334518534
3631.6174,3.344275432917076,175.72423090025566
3632.453,3.3505635239500773,155.3531907106842
3633.2883,3.359258301040149,146.82257423456562
3634.1262,3.368230982263757,142.8597628834587
3634.9622,3.3755622942821986,160.34477904216737
3635.8005,3.380208609586477,151.1405623756088
3636.637,3.3818358889175806,164.24017656302595
3637.4756,3.38066724654576,149.00121603231761
3638.3123,3.3773043939392777,157.79123351891468
3639.1492,3.372632721555412,152.5963457210273
3639.9885,3.3675796609254873,142.84279032789806
3640.826,3.3628367543925854,155.13198997934734
3641.6653,3.3586186029239715,135.72188172870253
3642.5032,3.3549366524519373,153.87174091171852
3643.343,3.3518970854625523,172.83366999509363
3644.1812,3.3499779190887313,158.4856358650071
3645.0195,3.3498082785647894,154.23718612664044
3645.86,3.351691048270753,160.21435054465198
3646.699,3.355030201127053,134.92079801134452
3647.5398,3.3582081955014895,151.45461429814242
3648.379,3.359063785578297,174.98692662309844
3649.2202,3.355987311889054,144.5610840241763
3650.0596,3.34886186744318,150.80799788279933
3650.8994,3.339093944818419,145.4217714275577
3651.7412,3.3287765763713115,168.6600912494891
3652.5813,3.3197343314347743,150.5284831600536
3653.4236,3.312858618418484,138.01957503812991
3654.2642,3.3082935948992147,160.403926610896
3655.1067,3.30553214049303,189.1389594763968
3655.9475,3.3037863256951674,151.89880649747937
3656.7886,3.3022998239670796,160.49808504116075
3657.6318,3.3006114183071458,156.12933180073173
3658.4734,3.29846929387475,142.73652789994205
3659.317,3.295560998211126,165.73200764633256
3660.1587,3.291574427830171,155.24953977753478
3661.003,3.2865021176385563,168.36186214453082
3661.845,3.2810603380968204,158.3915407396732
3662.6875,3.2764892517773574,174.87801506288565
3663.532,3.2739635884144818,151.03477713486174
3664.3748,3.2737611953173906,159.03362535424083
3665.2197,3.2748798661538463,160.4913266289297
3666.063,3.275599718099833,146.6788055500441
3666.9084,3.2746318110409347,159.73488747235226
3667.752,3.2718965132449607,164.74667844099503
3668.5977,3.268236164385051,167.90387678650674
3669.4417,3.2645435746449296,164.40279254855432
3670.286,3.2612038032432165,173.13615402749937
3671.132,3.2584773825101987,160.720799437083
3671.9768,3.2570302998619254,153.3502666740677
3672.8235,3.2576614037976652,168.5677096496719
3673.6685,3.260385304472875,162.52321582669944
3674.5156,3.263851373070724,161.19328579316758
3675.3608,3.265820866069506,161.60947579936592
3676.2063,3.264491909068591,163.04045323485016
3677.0542,3.259442107997931,146.91168837317466
3677.9,3.2518308996509364,144.9580639258296
3678.748,3.243734721412184,154.01078523178796
3679.5945,3.237478414185967,164.82924961708466
3680.4429,3.234644272422397,160.55615957540098
3681.2896,3.235439813923263,175.59612501290718
3682.1365,3.2384409441192052,155.48282598940273
3682.9856,3.2412226851170343,139.49412856114034
3683.8328,3.241471455188536,150.72000157960508
3684.6824,3.238120590754843,167.32707554926859
3685.53,3.2318339395752913,166.56718831199484
3686.38,3.2245287203815933,175.01840185149334
3687.2278,3.218399263408225,159.3035054112187
3688.0762,3.214743868812827,173.83419944342333
3688.9265,3.2136282354405243,180.3769205459091
3689.7751,3.2141642170996043,162.98197222222376
3690.626,3.2151536709045336,184.96124034646493
3691.475,3.2156965945242804,153.8676799367857
3692.3264,3.2155590809390806,182.8662313185746
3693.1758,3.2151613956819913,175.2479736027033
3694.0254,3.2151866474349307,170.84265820182313
3694.8772,3.216029139940089,152.5096121884758
3695.7273,3.217442796221205,162.9827004628423
3696.5793,3.218622619247952,181.9617674216108
3697.43,3.218558390403031,154.12402048208617
3698.2825,3.2165047840348975,165.2812879631025
3699.1333,3.2123663060080068,171.68794554452523
3699.9841,3.2068046195523867,167.00825669328972
3700.8374,3.201020012004501,177.2569557407313
3701.6887,3.196334294759851,174.02066238801564
3702.5425,3.1936127637159792,171.30716325848024
3703.3943,3.193185061467088,174.55801908130846
3704.2483,3.19496542843087,157.5376837685298
3705.1003,3.1985790650316797,173.86007358536537
3705.9526,3.203128011722211,180.34206551847646
3706.8074,3.206973944247754,165.48282680911436
3707.66,3.2082731380510547,162.93184327187024
3708.515,3.2062653528590297,172.21392981840773
3709.3682,3.201941292882386,169.7810158403246
3710.2234,3.1972493111248603,166.54479494926503
3711.0771,3.1935174575749605,184.49583474253913
3711.9307,3.1904660893617875,158.19845828337702
3712.7866,3.186825822376886,164.498276999566
3713.6409,3.1817295050801877,159.83045131624758
3714.4973,3.1754100601633315,180.89284038820477
3715.3518,3.1690009045726457,157.88640642459455
3716.2085,3.1637274128657236,175.14281402935924
3717.0635,3.16056185908787,170.5561539570387
3717.9185,3.1598785942643466,172.40232094450025
3718.776,3.1612817176036447,162.72650780102762
3719.6313,3.163602879265016,160.18021789858628
3720.489,3.1655044256901688,181.73052748878024
3721.345,3.166264834715758,175.73300192282906
3722.2031,3.166140116976423,169.56422544610348
3723.0593,3.165872494498381,172.82839913583322
3723.9158,3.165879283781621,162.51026071246827
3724.7747,3.165858988738326,161.19913728090262
3725.6316,3.1650890223841595,172.9253294509939
3726.4905,3.1630452053866023,160.72578851147094
3727.348,3.15979955260627,164.09071635624167
3728.2073,3.155870568715845,165.5314382160161
3729.065,3.15184912889471,181.17340217419832
3729.9229,3.147997659548708,162.41651725691275
3730.783,3.14421793498633,191.6861564373761
3731.6414,3.1402598542815294,177.07916946181012
3732.5017,3.1359151653177784,172.8877031116453
3733.3604,3.131225009332872,170.55416158909645
3734.2214,3.1263453418965725,175.59104808455317
3735.0803,3.121541002533361,176.29588410313607
3735.9417,3.117146914712146,184.07517195899177
3736.8013,3.1137362206513988,183.28110249573422
3737.661,3.111803906453393,184.5857880100679
3738.5227,3.111371392315097,165.90035932746773
3739.3828,3.1118444121663322,143.3379620035629
3740.245,3.1123704798079705,191.04497621997402
3741.1055,3.1123301354983393,182.1251925653006
3741.9683,3.1115353581829686,187.36106889833962
3742.829,3.1101028826979373,172.3432239474088
3743.69,3.1082466954450916,181.13139220552145
3744.5532,3.1061976403646905,194.22533488524488
3745.4148,3.104203750034737,192.7290305362283
3746.2786,3.1024080861181367,189.81215907701596
3747.1404,3.1007934158166037,183.24449647352137
3748.0044,3.099226216405029,172.8907914234926
3748.8667,3.097735530784133,160.62896953455288
3749.729,3.0966895840567115,177.7457880136347
3750.5938,3.0967331134076765,179.50859601883312
3751.4565,3.098346618059679,186.20300194332617
3752.3215,3.1012826641479627,183.33912917848087
3753.1848,3.104336350986173,158.98410239417575
3754.0503,3.105921901436784,192.05920060624416
3754.9138,3.1050444465742406,182.50004723245564
3755.7776,3.1020080296785277,162.26190053002787
3756.6438,3.0981139454956867,163.72686201689189
3757.508,3.0946694410049016,188.69661077225544
3758.3745,3.0919555273134782,173.77706907147444
3759.239,3.08919154481155,189.33183926194266
3760.106,3.0852788940969176,177.74940134875908
3760.971,3.0798698546487207,165.50446849201745
3761.8362,3.0737397569618388,179.8264098080788
3762.7036,3.068464462035426,192.13506150304994
3763.5693,3.065621875349935,173.038775179243
3764.437,3.0658568641486355,193.2269283768518
3765.3032,3.0685017488622424,166.17139985483496
3766.1714,3.071897728808436,188.51526506590238
3767.0378,3.074312189455342,188.40301928755068
3767.9043,3.0748572594881725,188.78823405835607
3768.7732,3.0735673275076514,176.4762250234115
3769.6401,3.070869072840773,176.9068141537192
3770.5095,3.0671208135159174,143.98640747190123
3771.377,3.0628574198137275,181.38666167307167
3772.2466,3.059087290469601,187.16490553241255
3773.1145,3.0571174858827117,161.0134517772843
3773.9824,3.0575858470855053,174.53368911761999
3774.8528,3.0597356459427223,180.53322937511706
3775.721,3.061577568232238,173.5574637287395
3776.5918,3.0611566493090425,171.3602714311152
3777.4604,3.0579339142131374,181.78655909810874
3778.3315,3.0531918417881503,196.81129568263424
3779.201,3.0492083420049956,188.33272229380634
3780.0703,3.047846923495133,187.4368743929203
3780.942,3.0498192423191797,180.63484360096476
3781.8118,3.0545787424023754,186.32552641300452
3782.6838,3.060578118674146,166.23232795987073
3783.554,3.0655559953117946,169.1435242461117
3784.4265,3.0673251478436576,171.28957166821243
3785.297,3.0646700641665445,176.76890791229374
3786.168,3.0580443412943152,158.51297242293109
3787.041,3.049297369567119,186.7502706535715
3787.912,3.04078575230239,211.78230432378135
3788.7856,3.034181577507519,190.5193859735487
3789.6572,3.030093485950375,180.98155677351954
3790.531,3.02793808291804,180.9735178420594
3791.403,3.026348353719277,179.93027699400636
3792.2754,3.023737295699693,172.08245219279198
3793.15,3.0191044778691203,171.7053089842376
3794.0225,3.0125960132296274,187.25820404373374
3794.8972,3.0052127599009255,176.48746290043218
3795.7703,2.9981746459513623,183.85705515277073
3796.6455,2.992177959057479,209.51681560792582
3797.519,2.9874389488301265,193.6071404145534
3798.3926,2.9839168755409067,198.23298034354568
3799.2686,2.981668928251644,190.4090258272421
3800.1426,2.980881993623294,193.22577936408564
3801.0188,2.9816169485365887,196.4065129926731
3801.8933,2.9836219205942585,191.72684611311874
3802.77,2.9864096234626274,194.44043541282693
3803.6448,2.9895525618297483,190.8592402414592
3804.522,2.99303630423626,189.92430183366938
3805.3972,2.9971807269053157,209.9727838726957
3806.2727,3.0023164338349497,193.78158393431846
3807.1504,3.008279212456083,192.91860244570245
3808.0261,3.014174971030986,192.05994001864715
3808.9043,3.0188424222436376,186.92873049984297
3809.7805,3.021472563407398,198.2298374353879
3810.659,3.0222176529331475,183.57699476973542
3811.5356,3.022059992249617,183.93879501599955
3812.4126,3.022280858704309,193.97572310458102
3813.2917,3.02383357118968,194.64488262864225
3814.169,3.0268411339916637,197.82414271418233
3815.0483,3.0303461615519725,204.32004935071467
3815.926,3.0324323256955554,194.25119275848334
3816.806,3.0311163641871826,179.30892282662668
3817.684,3.025519474088642,178.26274523528053
3818.5623,3.016516272542312,196.8190811346825
3819.4429,3.0062143064071463,211.6288826644977
3820.3215,2.9967332487917444,201.7597626459782
3821.2024,2.988813865677736,190.54832699371417
3822.0815,2.9817302999770985,209.21802649800208
3822.963,2.9739364184748656,178.3012705054233
3823.8423,2.964424412270754,200.52573338913604
3824.722,2.9533784814906894,200.1425499201601
3825.604,2.9420717455351766,205.74975459830915
3826.4841,2.9320234769341478,199.86409585033496
3827.3665,2.9236902223858636,203.07847069246463
3828.2468,2.9161141726736766,211.78582134099
3829.1296,2.9072419446620126,193.75803807224264
3830.0105,2.895357264728667,205.03831394322376
3830.8916,2.8800532726752084,218.09747716273898
3831.7751,2.8624147759308505,210.96699703558875
3832.6565,2.8444016144328153,216.6729578390721
3833.5403,2.827621127879704,200.93013433159436
3834.4224,2.81337399299375,246.61048366575304
3835.3064,2.8025907168681314,244.53472266399373
3836.1887,2.7962966427736986,223.63412202804403
3837.0713,2.7952405300691607,242.90391339935636
3837.956,2.7995346501870513,202.36839525902943
3838.839,2.808367528019818,204.87884877334568
3839.7244,2.820486570440246,217.2254411841467
3840.6077,2.834757564450296,204.14408311613724
3841.4932,2.8507479249118974,217.9245147777613
3842.377,2.8682084935792167,219.22551412376777
3843.261,2.88681835956346,212.9954092452868
3844.1472,2.9059367507078773,218.2967964566189
3845.0315,2.924756413295626,212.06163749802414
3845.9182,2.942949388517569,206.07307609235608
3846.803,2.9602846648503456,213.91995156351493
3847.69,2.976708933991953,190.45745468717757
3848.5752,2.9918765420591926,181.64902074185406
3849.4604,3.0055456926610984,190.84101037480318
3850.3481,3.0176865744982244,183.7539976590628
3851.234,3.02845671772241,188.27516091690705
3852.122,3.0382934138085513,191.35058627471247
3853.0083,3.0475003101915497,194.39199924793496
3853.8967,3.0562895574205258,185.64103428976327
3854.7832,3.0645916755089786,184.1043580873469
3855.6702,3.0723090378482008,176.1352906716191
3856.559,3.0792870460479036,171.23398726736315
3857.4463,3.0852040986155504,182.27789879214794
3858.336,3.089632454050628,184.13012465827728
3859.2234,3.0921696889088817,175.73325415127604
3860.1135,3.0928361765798447,181.35247118567128
3861.0015,3.091948976168326,171.13285320183613
3861.8896,3.089629758671107,166.19407902732746
3862.7803,3.0854586862398503,175.6189458100996
3863.6687,3.0789888505736993,181.2054396312098
3864.5598,3.070501999861563,181.6487046740109
3865.4487,3.061262845279943,194.19028096591214
3866.34,3.0523179148824418,186.6747965878214
3867.2297,3.043507821711601,174.17893612547553
3868.1213,3.0333727357280984,167.76133034718828
3869.0112,3.0206951202834342,168.2971991524323
3869.9014,3.005631522310955,200.81643831712788
3870.7937,2.9896528178249935,196.83858025457343
3871.684,2.9744242484239067,210.64018623551615
3872.577,2.9604275754080587,189.2691348527805
3873.4678,2.9470924729533867,200.6290813488588
3874.361,2.9331155180306396,177.44622034549826
3875.2524,2.9174821901412953,204.26842313739763
3876.1438,2.8996862971637,208.28703393209412
3877.0376,2.8797705298673697,230.3265884292523
3877.9297,2.8581072133185685,206.4876362946962
3878.8237,2.8347361427339606,237.23806248474685
3879.716,2.809806118617767,233.91039668760374
3880.6108,2.7834650786477506,206.31447972741606
3881.5037,2.7562920231283603,224.9307682467837
3882.3965,2.728432148215208,224.28576197472572
3883.2917,2.6994413338646064,247.4317816238138
3884.185,2.6688323188748937,235.16806826739173
3885.0808,2.636308244845478,221.31840236332124
3885.9746,2.6029019047970414,256.58821117417625
3886.8706,2.570280965398078,272.55403273947877
3887.765,2.540905487448309,282.45757814631537
3888.6592,2.5171523982569353,268.74901885846594
3889.556,2.501331364816966,288.35698195808857
3890.4507,2.4954179817847777,300.18185366564404
3891.348,2.5002560266331266,304.4442456004541
3892.243,2.515230250281811,285.06246099064566
3893.1406,2.538538652553757,288.8047279475507
3894.0361,2.5676243848416584,260.002397277475
3894.932,2.6003383871092938,267.5000308746747
3895.83,2.6350557801183925,234.8290841449655
3896.7263,2.670156657686225,240.17757846086994
3897.625,2.7043809795109697,221.44864512160936
3898.5215,2.7362838006284838,225.39466513837772
3899.4207,2.7653585014408892,221.93626601970942
3900.3176,2.791670201299619,200.4893680328332
3901.2148,2.8162884895478877,238.53166924423113
3902.1145,2.840502064647033,208.7908795222853
3903.0122,2.865122176422752,191.60306222082554
3903.912,2.8906661525492248,211.32502048730544
3904.8103,2.917038317960065,207.88698503477443
3905.7107,2.944254472200759,183.95667729050146
3906.6094,2.9721149537896894,193.9380267151426
3907.508,3.0004806823699295,179.45341814674484
3908.409,3.0288770089345913,195.6036980733415
3909.308,3.056226090790787,179.64950232096467
3910.2097,3.081639627507982,186.27246022642407
3911.1091,3.1045086693800146,179.2587825240114
3912.011,3.1252925348586773,188.96552308313122
3912.9111,3.1446753060251758,182.68667919324514
3913.8113,3.1631651378685404,166.62544086548615
3914.7136,3.180556871359371,169.2460032805732
3915.6143,3.1961653725976062,171.38615840313292
3916.517,3.2098148553784562,156.44745620852157
3917.4182,3.221946052081484,160.9244218287438
3918.3215,3.2335226225385303,171.32451962121647
3919.223,3.2450751691950597,162.3946531125665
3920.1245,3.2564064239114296,156.75163265742705
3921.0286,3.266665418364962,168.40648625808498
3921.9307,3.2749024399431628,162.74151993704345
3922.835,3.280787485709286,163.045779476127
3923.7373,3.2845895768496076,163.55919966015745
3924.642,3.2870475533783856,149.6478968521656
3925.5452,3.288916425583994,150.61990812609142
3926.448,3.2906627316480255,161.43777541159832
3927.3535,3.292219979183571,158.8923795030053
3928.257,3.2929934214405763,157.1238065087644
3929.1628,3.292175214844199,158.1077521468336
3930.0667,3.289137904504346,150.04264780551443
3930.9731,3.283671536681642,160.5252065525494
3931.8774,3.276087726798636,161.08890171933152
3932.782,3.267033890345296,174.7427021886357
3933.6887,3.2573458250047103,165.04908387981425
