wavl,flux,ivar
4606.806,1.5583536468319927,34.42935293791524
4607.8687,1.4947692579678473,907.297647165514
4608.9287,1.2536022166405447,2753.9259356771076
4609.989,0.9449448341282084,1467.1004384735566
4611.052,0.6748483100828605,1503.729643138357
4612.113,0.49618750014296864,1108.7488491387
4613.1763,0.4038549104377967,1256.6554003279537
4614.2373,0.36773508669542626,1679.7603923309339
4615.3013,0.35775082559215693,746.8533160014396
4616.3633,0.3553401026144882,1238.5115655301665
4617.4253,0.35227124934535403,928.8087294145475
4618.4897,0.3467464002105359,1248.9097394686792
4619.5522,0.33997551252941566,949.6561775375403
4620.6177,0.33375948415882417,1620.7388013579018
4621.6807,0.32928034710943865,1305.937916565619
4622.7466,0.3266413096117163,1408.6377859855477
4623.8096,0.32530865295688666,1012.0101703695359
4624.8735,0.32459983184975283,1324.3804853139668
4625.94,0.3240393958442727,1294.7868612856662
4627.0044,0.3233796362142538,1389.9366147070652
4628.0713,0.32250342487377676,1567.8506748977827
4629.1357,0.3214037206667377,1217.936405723849
4630.203,0.32021395894217153,1215.4776283498
4631.2686,0.31925078447563904,1486.0194412379665
4632.3364,0.31889458657248043,1433.8731349992133
4633.4023,0.31939978409252917,1590.4890146676205
4634.468,0.3207202933479278,1282.8312442231736
4635.5366,0.3225210259754978,1516.74377036684
4636.603,0.32432248741921077,1220.3890366041585
4637.6724,0.32577044285040546,1452.7424673869443
4638.7393,0.3267701589143362,1035.7851994638927
4639.809,0.327531216432246,1257.068693605233
4640.8765,0.32841916696817136,1015.0992363636537
4641.944,0.3297767891520084,1147.0571812108378
4643.014,0.33175397491486175,1072.4243379918657
4644.0825,0.33421085939313794,1172.92456374172
4645.1533,0.33682229775677136,1142.3639727618158
4646.222,0.33935383882052234,772.1878057454909
4647.2935,0.3426124799803882,1131.8723472587935
4648.3623,0.3514477748348566,1235.8433120264997
4649.4316,0.3846395606437275,1325.4378197291956
4650.504,0.5004728879985922,906.9101251188044
4651.5737,0.8406930864537856,1369.4034950029845
4652.6465,1.6762903676842502,1043.617331285016
4653.717,3.3582751966803386,1265.2213446242663
4654.79,6.123956231458924,1154.1304204843602
4655.861,9.708244927403115,1095.6195037047005
4656.9316,13.185594291332926,1017.0748660063018
4658.006,15.254354005245307,0.04458641002411474
4659.077,14.98796562071389,84.56329777056736
4660.152,12.506671976323899,1393.5421311766636
4661.2236,8.894752934753308,1258.4427416931242
4662.2983,5.421917815502711,1213.5375708856197
4663.371,2.8955153970456786,936.1979002367667
4664.444,1.4260669572989406,1125.0028631809935
4665.5195,0.7272729325220378,1052.9570412393768
4666.593,0.45379007133117205,1192.4042299783887
4667.669,0.3633498793512562,1179.6814022052945
4668.7427,0.3374182936558666,1242.1589178414497
4669.8193,0.33006439640540836,1091.4316551965792
4670.8936,0.32734090809349653,1105.7100967268302
4671.9683,0.3257757561107399,1252.3683324173433
4673.0454,0.32469347408472327,1245.8654267944942
4674.1206,0.32394262380665073,1127.7464664219995
4675.198,0.3233838580292988,1396.9156119872412
4676.274,0.32292600261071364,800.456267662581
4677.352,0.3226391959138228,1226.5701683004377
4678.428,0.32277163932363584,1594.838536694349
4679.5044,0.32358855803908726,1372.3167479202004
4680.5835,0.32516379264073964,1385.2368170884847
4681.66,0.3272473723452983,1868.9647091364518
4682.7397,0.32938673532627716,1384.8405517402334
4683.8174,0.33113585528561285,1084.1529652657475
4684.8975,0.33228854575119526,1427.0578801877136
4685.975,0.33282191823499657,1352.5995779305033
4687.053,0.3327136452785894,1208.4885037298186
4688.134,0.3318259058843646,838.2678329661521
4689.2124,0.33008665298349466,970.3929894584921
4690.2935,0.3277124477400684,1254.642107981307
4691.3726,0.32518996112730103,1602.4552232398714
4692.4546,0.3228986965237239,1375.7154347065054
4693.534,0.3209077087361475,1249.0348662806325
4694.614,0.31904823469033583,1109.9681663076738
4695.6963,0.31705450795715306,1374.4747155550763
4696.7764,0.3138541827838945,2492.5439001222903
4697.8594,0.30459353333325045,1354.7771941380154
4698.9404,0.2733853689388762,1761.5149560150303
4700.024,0.17939340733535572,1436.6453338698254
4701.105,-0.05607551597776028,1376.2452199889688
4702.1865,-0.5421978601151257,1040.1978282368693
4703.271,-1.3580574236583376,1662.506555468602
4704.353,-2.4339423706812613,1194.9941889344827
4705.4375,-3.495442911012732,1252.396945928234
4706.52,-4.134441041988268,1413.2412697174725
4707.6055,-4.064161720639515,1312.248727354338
4708.6885,-3.318137551644846,1125.0853476897737
4709.772,-2.2263707180407146,1776.4348334849344
4710.858,-1.1825614851707267,1232.0751857428986
4711.9414,-0.4310478433646301,2404.3437223989663
4713.0283,0.0011107854638160537,1467.8858730523311
4714.1123,0.20198582202918064,1659.5295264887009
4715.199,0.2794999570958085,1212.7894389623896
4716.284,0.304481943402714,1544.5468263981606
4717.3716,0.31155429121115585,2036.0033110493073
4718.457,0.31357925917871843,1261.7531478971462
4719.5425,0.31447983392414786,1371.4636525128658
4720.631,0.31525641388473113,1428.405876133909
4721.717,0.3160886288804998,1321.053970984325
4722.8057,0.316896335410031,1260.2675353175966
4723.892,0.3174938014140923,1426.442158913001
4724.9814,0.31772613808137423,1089.8677944447043
4726.0684,0.3175390160565171,1300.937588292778
4727.1553,0.31699762426457506,1424.8454657426466
4728.2456,0.3162538318469733,1388.2203412442998
4729.3335,0.31551137205621155,1552.39013669164
4730.424,0.31493947986742893,1339.1445438908456
4731.512,0.31459979303605634,1564.9926650386283
4732.603,0.3144055595406292,1414.941374537941
4733.692,0.31419570109667816,1412.3297625022738
4734.781,0.31385300692899193,1680.4115279299915
4735.8726,0.3133703340857454,1248.0108565907503
4736.9624,0.3128084929132905,1144.7784990099499
4738.0547,0.3121868063647279,1179.044780457939
4739.1445,0.3114441253419222,1376.6937734931553
4740.2373,0.31047003280984325,1827.7568762011135
4741.3276,0.30920052780505486,1568.3171315336613
4742.4185,0.30766012216620736,1627.1913032321395
4743.512,0.3059943580367519,1449.9051727494955
4744.6035,0.3044748684568063,1485.1038793393332
4745.6973,0.3033945897208643,1480.7073685207004
4746.789,0.302949905733427,1718.3567472553875
4747.884,0.30311267336303244,1256.4988992376013
4748.976,0.30366633429498624,1437.5491675478613
4750.0684,0.3043724713933394,1398.0745833090562
4751.164,0.3051414448274148,1808.9955467616746
4752.257,0.3060444540035639,1109.973357395826
4753.3525,0.3071877031877867,1253.3315599666996
4754.4463,0.30853792855213447,1354.482878244613
4755.5425,0.30994016129294377,1378.9788285530758
4756.6367,0.3112234961579315,1174.2960439306053
4757.731,0.3122853868696631,1329.9211824169377
4758.828,0.31298903229085956,1512.2782267391954
4759.923,0.313053142489813,1220.8312956310451
4761.0205,0.31214783510478883,1599.7854890663177
4762.1157,0.3101666420504238,1772.7562971822642
4763.214,0.30740599819059605,1326.6669805301199
4764.3096,0.3045051358925824,1478.4128616024566
4765.406,0.3020682309456888,1378.7554569226572
4766.5044,0.30038907451466573,1504.5183585301413
4767.601,0.2993920535193448,1456.3268084478295
4768.7,0.2987588105352031,1138.099608613204
4769.7974,0.29814230931121233,1412.9973480090778
4770.8975,0.29729558492497116,1728.4108110966572
4771.995,0.2961670951603872,1216.2497080377625
4773.093,0.294897038661492,1688.09550388806
4774.1934,0.2937261447742168,1751.4519846370088
4775.2915,0.2928363273196275,1387.7750809283928
4776.3926,0.29220357995187446,1360.2830438762278
4777.4917,0.29162480954917847,1407.9585321789568
4778.5933,0.2908347541844555,1737.8189286336174
4779.6924,0.2896769236906765,1693.6603169138134
4780.792,0.2881887878332678,1413.9942237545363
4781.8945,0.2865904445856978,1589.5170276105448
4782.9946,0.28517821345496963,1536.7269775977643
4784.0977,0.28416215065504474,1806.8459547557763
4785.198,0.2836469330345966,1405.4340611592318
4786.302,0.28366757605817067,1812.5285684575736
4787.403,0.2842429700654067,1586.3456709498414
4788.504,0.2853063430312004,1417.6884999905187
4789.6084,0.2865336966395261,1820.892051589467
4790.71,0.28712217704146414,2160.2693187808086
4791.815,0.28572469578209275,1653.8382361748222
4792.917,0.2807482924348803,1699.3027495091726
4794.0225,0.2712049397391651,1142.972299674733
4795.1255,0.2580996197141891,1672.3156507669019
4796.2285,0.24485527952177336,2549.5673385003147
4797.3345,0.23610765694933328,1428.9982047199408
4798.438,0.23502861849547124,1364.6081464244126
4799.5444,0.24117667542917878,1811.534565058259
4800.649,0.2510829457803871,2015.797476830427
4801.756,0.2608173321104478,1699.2866076813752
4802.8604,0.26795505101502126,1907.246501088
4803.968,0.27203394479154275,1616.667503532452
4805.073,0.27356248131709093,1681.3538322690151
4806.178,0.2732684336152708,1778.4892856714291
4807.2866,0.2717299462832028,1823.8628963888839
4808.3926,0.2694049531260069,1583.3379697468813
4809.5015,0.26665346895925646,2257.6551071659214
4810.608,0.2637955545252937,2134.083640594193
4811.7173,0.2610558517799854,2055.0026178204303
4812.824,0.2586076549750892,1904.4508593629332
4813.931,0.2565168709605774,2150.1567312352086
4815.0415,0.2547512136346955,1874.3412570528799
4816.149,0.2532011455252724,1580.3080986838393
4817.26,0.25170071759835394,2218.285725940872
4818.3677,0.25015492259184424,2415.5405195915127
4819.479,0.24856455673077996,1919.8859922759023
4820.588,0.24704348550090538,2212.2548656070812
4821.697,0.24571223490841557,2720.0370982619775
4822.8086,0.24463600248180523,2677.605071669961
4823.918,0.24380573318884183,2347.8156733447977
4825.0303,0.2431497756398005,2778.6360450182415
4826.14,0.2426079395966637,2015.4047208442557
4827.2534,0.2421594492170738,2355.116575247704
4828.364,0.24181685518145335,2361.9161483439757
4829.4746,0.24153329834835632,2238.383263328295
4830.5884,0.24111641019177552,2280.0066654515394
4831.699,0.24023293564144504,1853.8828276062357
4832.8135,0.2385469225272412,2104.5705844704635
4833.9253,0.23597039467604797,2772.1244053026603
4835.04,0.23274879154405492,3269.5746609931844
4836.1523,0.22937819536401372,3501.903675442528
4837.265,0.22624722840037145,3053.9157525879036
4838.3804,0.2234262277155024,3821.2363690144575
4839.4937,0.2206814671577603,2051.101620779441
4840.6094,0.21763581878847926,2642.12950370966
4841.723,0.21404343618301888,2970.837884294135
4842.8394,0.20987479443457863,3132.8746998089255
4843.9536,0.20538165839039374,2738.5878174126938
4845.068,0.20093250295102605,3436.967326058015
4846.185,0.19685450541903715,2931.88815487164
4847.3003,0.19332654534634322,3649.2328414870663
4848.418,0.19030191647250114,2863.609113389952
4849.533,0.18764071171732116,3093.9053251632286
4850.6514,0.18511374607021425,6162.715729112352
4851.7676,0.18246922645049604,4935.646003495327
4852.884,0.17944339794321812,3166.3789887169555
4854.0024,0.17588663226860743,4007.2480713039718
4855.119,0.17187321663835126,4786.305428985939
4856.239,0.16759815903682762,4693.126826176978
4857.356,0.16328871203430498,6097.1460205881085
4858.476,0.15899360217539682,7638.0697842880045
4859.5938,0.1546789057149869,9056.382862605406
4860.712,0.15034368696109748,4915.87043573385
4861.8325,0.14630957725277757,6808.044159098154
4862.951,0.1433231349524376,5759.148577360879
4864.0723,0.14224687343066178,11093.016726987697
4865.1914,0.14361181948559795,4672.285393965759
4866.3135,0.1472677084984617,5949.933783220016
4867.4326,0.15243280813232618,10470.248683880685
4868.5527,0.15814165515699347,3947.7126956129523
4869.6753,0.1635632599300232,5223.777693407898
4870.7954,0.16811958583743034,6179.626801526162
4871.919,0.1715765353691767,4108.132958190274
4873.0396,0.17398210723829047,3578.622525115924
4874.163,0.17576237207526632,5824.772979027978
4875.2847,0.17756346259537836,3528.1037524385697
4876.4062,0.18002625555579604,9228.969195629415
4877.531,0.18347609347343358,4852.072355775836
4878.653,0.18771243249982408,4857.092425968951
4879.778,0.19215315328488308,5241.715007737242
4880.9004,0.19606624000344097,4052.2424597644776
4882.026,0.19892906301939917,3723.1149270278174
4883.149,0.20029168661105767,3781.2392829585006
4884.272,0.1992496381100032,2359.276942342806
4885.3984,0.1935486381858482,3517.1551073066594
4886.5225,0.1794877420882168,3861.800013869959
4887.6494,0.15362595637444276,2782.0717462808625
4888.7734,0.1171871064468878,2428.2257851485283
4889.901,0.07894824820047917,3270.992193614616
4891.026,0.05394251906955192,3288.5470297297666
4892.154,0.05434373230732505,2879.697807473585
4893.2793,0.08111158864866039,3373.9765133404435
4894.405,0.12309360801494476,2823.4547949409252
4895.5337,0.16510804137724505,2294.276454891241
4896.6597,0.1964667312321238,3896.8899764606185
4897.789,0.21497332790650378,3291.1266254048264
4898.9155,0.22357156028838296,2862.2304571150116
4900.0454,0.22668280190256412,2433.179104124423
4901.1724,0.22764492817781792,3942.0277617365846
4902.3,0.22842525365483413,3363.3299197494825
4903.4307,0.22993334503946677,2653.4964253615776
4904.5586,0.23237679478697384,2533.4481109340636
4905.6895,0.23556535860876035,3109.8827046980773
4906.818,0.23907279290556663,2250.0426589933536
4907.9497,0.24241733613355373,2664.9230794461164
4909.0786,0.2450792695849057,2037.0216383607722
4910.208,0.24672130308126383,1845.9674468335486
4911.3403,0.24735938639690405,2628.742415259413
4912.47,0.24744861401960663,1791.3641991143259
4913.603,0.247677501652292,1866.2867668419274
4914.7334,0.2485448785714108,3016.6639082935694
4915.8667,0.2500419656992593,1562.5434373598557
4916.9976,0.2516119137095443,1991.9830429298272
4918.1284,0.2524373460841962,2177.1068033238134
4919.2627,0.25182344521325384,1504.500775332887
4920.3945,0.24960878252397292,1836.2759795560075
4921.529,0.24640531006512362,2231.97730561688
4922.661,0.24350558741795644,2176.581542581903
4923.7964,0.24221553403834775,2513.279761944688
4924.929,0.24306514099709153,2138.2844807034844
4926.062,0.24542602735241403,2790.831464765797
4927.1978,0.2480106566341568,1934.9630630470606
4928.3315,0.24974685832359136,1732.349181684364
4929.468,0.2504068378510147,1940.78484380019
4930.602,0.2504870155270727,2449.676670703496
4931.739,0.2506771807639232,2087.63309230218
4932.8735,0.2513476016810275,2248.7700954208926
4934.0083,0.2524082422000829,2698.743554228103
4935.146,0.25352416061879524,2154.640124741774
4936.2812,0.25442823928042757,1988.8071199938558
4937.4194,0.2551034890223841,2616.2071725889796
4938.5557,0.2556769033505519,2079.331376980169
4939.6943,0.25622711518699653,1928.0323990600982
4940.8306,0.2566768049728033,2431.9282404312544
4941.9673,0.25690418915382623,2046.9174108290263
4943.107,0.25692937440184593,1659.6156567485073
4944.244,0.257001539812304,2287.1676753753627
4945.3843,0.257478548731283,1844.5296291257714
4946.522,0.25858086567111593,1902.4502467730608
4947.6626,0.26023967845222856,2735.685843013654
4948.801,0.26211920427243096,1759.1717655830423
4949.9395,0.2638386903443304,2038.035886562365
4951.0806,0.2651471263158574,1852.3200551755406
4952.2197,0.26597674289467926,2120.722685655952
4953.362,0.266386949587987,1584.6015765797165
4954.501,0.26644629731378977,1797.809723705969
4955.6436,0.2661982196834193,2066.4821428367763
4956.7837,0.265693515927735,2013.7600152796772
4957.924,0.26503784565375577,1635.5387375416292
4959.0674,0.26439580814784336,1996.8368259235908
4960.208,0.26395123216121885,1860.4041554329078
4961.352,0.26383497027374225,1623.6475243855268
4962.493,0.26409821215187373,2197.384784197721
4963.6377,0.2647063637083129,2011.7842172015694
4964.7793,0.26553040488032253,2481.787776911875
4965.9214,0.26634864326681174,1710.4240577216196
4967.067,0.2668785890609597,1957.4799607555015
4968.2095,0.2668917805852577,2174.1824415420238
4969.355,0.2663505379010047,1776.8832125523663
4970.498,0.2654336674682227,1889.1606946790448
4971.6445,0.264434556639964,2164.7848529685966
4972.788,0.2636490003956453,1864.8856388472161
4973.932,0.2632652467043989,1968.2336819350062
4975.079,0.26332831485375263,1882.9191040407156
4976.2236,0.26372762640351394,1671.561638591388
4977.371,0.2642467539523989,2082.408602587779
4978.516,0.26464624006947335,2094.4540094681693
4979.664,0.2647565063930545,2094.064666284798
4980.8096,0.26453379879173566,1801.1848855327364
4981.9585,0.2641024526289678,1535.0191987256153
4983.1045,0.26374925274210576,2063.3664158575666
4984.251,0.2638034140499915,2438.174003255465
4985.4004,0.26446351179870575,1931.4117584359146
4986.547,0.2656903827212422,1384.8076649718807
4987.697,0.2673045874698649,2094.649989325426
4988.844,0.26911222771276955,1920.1462659605784
4989.9946,0.27097242722374465,1677.7064102427223
4991.1426,0.2726869319286326,1993.5865306957066
4992.291,0.27400353279473066,1437.1405058884015
4993.442,0.274707696527585,1529.8694092822443
4994.591,0.27475582037319524,1577.757448739973
4995.7427,0.27427721146243544,2816.715080537117
4996.892,0.2734347293956242,1761.3675766798053
4998.044,0.2723051881125917,1852.096014716713
4999.194,0.2709322399122442,1536.7902401110034
5000.3438,0.269447515214124,1635.775047483791
5001.497,0.26813609471865585,1716.0649193723468
5002.6475,0.26734910954429597,1691.495848344838
5003.8013,0.2672864127671926,2195.9354800064766
5004.952,0.2678670394266732,1974.6728901758868
5006.1064,0.2687419715130675,1993.4287370903571
5007.2583,0.2694660413283927,1628.496262157803
5008.41,0.2697513875060498,1847.4915716091205
5009.565,0.26960280690709243,1898.467964370677
5010.7173,0.2692734818267822,1949.5916782137044
5011.873,0.26905398607085523,2162.1674832928134
5013.026,0.26905450907292694,2047.6721001659257
5014.1816,0.26912828773626946,2323.588823289496
5015.3354,0.26900273504152555,1883.854932988182
5016.4893,0.268504223586515,2228.767775546037
5017.646,0.267685743562469,1964.1855466155794
5018.8003,0.2667763224445854,2665.36756872476
5019.9575,0.26600072204421593,1845.7730521350202
5021.1123,0.2654851567727721,1976.524667859793
5022.27,0.26526142149108395,2392.9295159609173
5023.426,0.2653358497708442,1650.9299453636897
5024.581,0.26567668349447315,2128.1703427218954
5025.7397,0.26614796001692953,1327.2400152520756
5026.896,0.2664756712382807,1903.1817467644678
5028.055,0.26635595256582956,1301.0792457659447
5029.212,0.26564220039767333,2143.579346833453
5030.3716,0.2644767534537587,2085.4080532690027
5031.529,0.2632602280948503,2695.5217109900987
5032.6865,0.26242345164907604,2015.1863145574553
5033.847,0.26219640073012634,2040.5912649354989
5035.005,0.2625045432688288,1680.4614123077297
5036.166,0.26309266846555035,1753.043908131844
5037.3247,0.26375800246382813,1187.2263927471167
5038.4863,0.2644651376775027,2321.2556623212436
5039.6455,0.2651998490777987,2546.2040605082784
5040.8047,0.2657951856054676,1755.8962836084256
5041.967,0.26595470681155975,1259.0876647898485
5043.127,0.26548742700747674,2252.8543313772384
5044.29,0.26447587012935553,1695.7110541745863
5045.45,0.2632052903408892,1811.6545504325345
5046.614,0.26193732821640237,2124.697606917323
5047.775,0.2608252433757015,1973.8170321990917
5048.936,0.2599364972108598,1902.4733183191197
5050.1,0.25933121079112526,2163.950591987879
5051.262,0.25904949404391486,2183.5278913015854
5052.427,0.2590505282559573,1980.9951031535134
5053.5894,0.25922185075351334,2380.3609857115034
5054.7544,0.25943957216649305,1592.1997835725692
5055.9175,0.25961668563400236,1786.8200745558884
5057.0806,0.25972477919289927,1838.3548791348608
5058.2466,0.259806918862595,1987.6146439084553
5059.41,0.25996805783407134,1803.8204676490777
5060.577,0.2603009228029252,2321.825196390175
5061.741,0.260778830794956,1928.1392160625767
5062.908,0.261254875394618,2001.7195491106065
5064.073,0.2616002686203625,1915.8923428278524
5065.238,0.2619068875294284,2048.332113345911
5066.4062,0.2625330503665763,2126.2047341422663
5067.572,0.2638701123909997,1674.5301553282106
5068.74,0.2659492181929244,2027.583518611246
5069.9062,0.268136869048216,1802.3962087646275
5071.075,0.2693360852564424,2008.4339744797733
5072.2417,0.26857260047354437,1742.630368065727
