wavl,flux,ivar
3566.9744,0.2121253474841667,2372.832632713069
3567.795,0.2103927465069377,2181.7767705136166
3568.6177,0.20805707628550915,989.7749460172685
3569.4385,0.2055526901294733,837.8547992585957
3570.2617,0.2035465856941373,1103.4665737208193
3571.083,0.20249664644235005,588.5414010224102
3571.9065,0.20242318928616654,1282.884832505018
3572.7283,0.20313694667401325,950.5656016919595
3573.55,0.20443170820613132,1395.4854416071282
3574.374,0.20607629675891043,403.4998504290781
3575.1963,0.2077829088381392,732.078366687823
3576.0208,0.20940751675953065,636.116770587961
3576.8435,0.211066753503746,1204.6549987299265
3577.6682,0.21298382757379622,808.1900019110873
3578.4915,0.21504596232341824,1395.0655305913506
3579.3145,0.21668451777798028,3933.054202916618
3580.14,0.21724005164633556,534.1631700480314
3580.9636,0.21649115670608837,639.3170276648068
3581.7893,0.21476541864078805,3734.8206374090446
3582.6133,0.2125635245678425,569.6264550544548
3583.4395,0.2101986664515144,1127.2925320916806
3584.264,0.20793008406153843,9862.746857356482
3585.0884,0.2061612478965767,2692.093432398474
3585.915,0.20536892871541096,1258.4559485727377
3586.74,0.2057206147965136,1281.2512697984537
3587.5671,0.20680606082543498,973.8896561866554
3588.3923,0.20775652135757636,1915.1933692556572
3589.22,0.2076920881855001,576.9604313266113
3590.0457,0.20624886015079502,1099.6125702719658
3590.8716,0.2039125049363008,720.341254570347
3591.6995,0.2018189824898107,1172.9330758133492
3592.526,0.20106051199815805,1458.9272927432826
3593.3542,0.20192752822139504,602.4412048928277
3594.181,0.20376332925930835,802.068470615433
3595.0098,0.2054910614665893,578.8522285563906
3595.8367,0.20629500254447253,7790.131629654288
3596.6638,0.2060163396912281,1335.6211043807948
3597.4934,0.20504686872373334,2030.6780358065714
3598.3208,0.20403629819263058,1159.9294106121163
3599.1506,0.20356211942194102,575.4257807101242
3599.9788,0.20391119427068047,2959.9412011241957
3600.8088,0.20492733195185991,1770.855701670637
3601.6372,0.20601615808222015,692.2101807380504
3602.4678,0.20641422024858072,914.8238509284988
3603.2964,0.20564159435424814,529.4737941808919
3604.1252,0.20389296413132504,746.5875197163878
3604.9565,0.20198266450454308,791.8467251034449
3605.786,0.20086409830811114,1393.2670924381064
3606.6172,0.20099175313262774,1349.1458458398884
3607.447,0.20206197948788235,488.07361047462746
3608.2788,0.20323916284646318,3847.9205206015113
3609.109,0.20371890794310946,270.52280743170286
3609.9392,0.20325381988293958,2716.5597688791167
3610.7717,0.20218037759500393,870.035088085559
3611.6023,0.20100257859272397,4368.03732200222
3612.435,0.19990839035502075,7651.82592088211
3613.266,0.1987298520372839,670.0991376940699
3614.0994,0.19725186504789785,3464.609940648129
3614.9307,0.19561543296657335,1040.2649362937016
3615.7625,0.19440364724247497,824.0265525987041
3616.5962,0.19438937268373205,398.0870326120463
3617.4282,0.19598609860491992,866.6125204787445
3618.2625,0.1988223320898828,3377.4155800829994
3619.0947,0.20181714377348223,546.3383879686933
3619.9292,0.20387761724603776,683.0958155784369
3620.762,0.20450409852683904,1056.042485547323
3621.595,0.2039257432860866,1256.9376460462286
3622.4302,0.2026421223173017,578.997126719449
3623.2634,0.2009716920169483,1454.5224935936944
3624.0989,0.19891928030331213,1270.7033049004697
3624.9326,0.19647765885412208,1072.3891508392032
3625.7686,0.1939433547129845,1127.8209652408987
3626.6028,0.19202169678054182,949.0114005546593
3627.437,0.19138378526618727,1444.702139479742
3628.2734,0.1921316753102435,1220.9483942000306
3629.1082,0.1936429920225365,2306.455722097771
3629.945,0.19507679816867984,1187.863986508997
3630.78,0.196005162336233,590.423656219579
3631.6174,0.19662545054709232,709.6842564167093
3632.453,0.19737638664344828,2567.3726192092677
3633.2883,0.19846411499333136,2624.822945582979
3634.1262,0.19969183918881714,717.252022285766
3634.9622,0.2006788103800334,985.0490380197335
3635.8005,0.20122329504589004,644.1609777943382
3636.637,0.20133868692965912,4878.39551380807
3637.4756,0.20093045907390727,1056.3243217193353
3638.3123,0.19945359031227045,1955.4852169553606
3639.1492,0.19610392306648483,1585.9314193993837
3639.9885,0.1906209633920875,1521.300995688787
3640.826,0.18414416857716137,842.9744866755118
3641.6653,0.17899834209134396,564.5182212848534
3642.5032,0.17756512825713747,1008.3373624577644
3643.343,0.1807452710550889,1810.6668605671218
3644.1812,0.18742909825496387,493.63749347590146
3645.0195,0.19529043158909534,575.981781026802
3645.86,0.2021127420303415,2117.708677792508
3646.699,0.20661058219702688,737.4144569057524
3647.5398,0.20858862593108898,1791.7288222854972
3648.379,0.20846150261334662,672.3374012419798
3649.2202,0.2068878471625168,547.4670795146769
3650.0596,0.20447650667417747,12985.96082684894
3650.8994,0.20157908855634427,923.2052598704455
3651.7412,0.19834147889520826,2232.265089369525
3652.5813,0.19503095622334152,623.5327680095156
3653.4236,0.1922457741939779,451.0678941091402
3654.2642,0.190807301389837,4086.5126440671665
3655.1067,0.19121131168794703,1968.4307507889575
3655.9475,0.19330251135530946,504.17020020741626
3656.7886,0.19638945386453482,3269.958784802908
3657.6318,0.19962876494942544,2169.6818201780343
3658.4734,0.20228665831244325,1661.5668817600392
3659.317,0.20389358858282755,1323.14612176717
3660.1587,0.20420341825715954,835.7516655117073
3661.003,0.20319040245942047,577.3620873507175
3661.845,0.20104668077528523,1338.4800022244171
3662.6875,0.19821606875825082,962.8842402331156
3663.532,0.19542344269206086,566.4907306422997
3664.3748,0.19357969243649772,5173.764074985167
3665.2197,0.193451634455949,3599.2680474850067
3666.063,0.19530694689786424,504.0195928245006
3666.9084,0.1986616232716233,836.1037980632352
3667.752,0.2023707950619894,3426.551594149511
3668.5977,0.2052286107539706,1509.7397354612767
3669.4417,0.2065691841676879,586.8059877061723
3670.286,0.20663573336443555,2412.6915398089363
3671.132,0.20631512543860606,1041.8542087664064
3671.9768,0.20654568326742245,915.8067426960462
3672.8235,0.20771871472039116,2274.7766706122634
3673.6685,0.20943030328644827,1493.3660969885063
3674.5156,0.21077276175422702,917.5672243730035
3675.3608,0.21093412872751202,1332.8411511267816
3676.2063,0.2097450079813833,932.8288400976576
3677.0542,0.20772973727829652,948.2709561068402
3677.9,0.20579223475539493,767.2591024132457
3678.748,0.20468714773227628,1325.2058814275465
3679.5945,0.2046673539513201,1348.5540076455816
3680.4429,0.2053589664111647,1001.8216528820155
3681.2896,0.20602208963493945,758.8855124704205
3682.1365,0.20601491845711895,1887.0528876717453
3682.9856,0.2051292646971248,21616.69694031961
3683.8328,0.2036463912775872,1417.568993118473
3684.6824,0.20212001650235933,2745.1158179972654
3685.53,0.2011181456855174,896.0864647977517
3686.38,0.2009387631717923,760.4793942038997
3687.2278,0.20144698735682612,1122.165009193965
3688.0762,0.20203178936726138,1007.9724147082193
3688.9265,0.2017976607147193,5014.445508349513
3689.7751,0.2000003189354196,1336.729689733785
3690.626,0.19650818786256544,2066.593609541098
3691.475,0.19198595014801229,1204.3845975295178
3692.3264,0.18748730330732397,3628.361854883883
3693.1758,0.18394391467623689,672.6881582119319
3694.0254,0.18174732298548446,668.0574407614696
3694.8772,0.18089502156069975,834.80622850845
3695.7273,0.1812875692426524,1679.4633287546658
3696.5793,0.18287303447884662,607.515213497614
3697.43,0.1855313820314955,893.6620399786049
3698.2825,0.18893294599499685,1994.825256889121
3699.1333,0.192525159638626,2162.867266268244
3699.9841,0.19580072636221857,1311.0107792605017
3700.8374,0.19848057887094572,1144.7580741629752
3701.6887,0.20051390106610864,4793.126041334849
3702.5425,0.2020088443119921,1974.6727466471343
3703.3943,0.20308379871213383,1036.8927443291477
3704.2483,0.20385062314895966,1238.8494829365966
3705.1003,0.20433549711572832,1098.400955838921
3705.9526,0.20442119174487708,634.2629397478918
3706.8074,0.2038553552031818,1282.0869734229727
3707.66,0.20243086390961412,7881.33963563158
3708.515,0.2001760623779928,1992.8380453282123
3709.3682,0.1974641721037848,1146.3480258325772
3710.2234,0.1949070885913924,1079.485064106144
3711.0771,0.19325344130724778,2202.643188992867
3711.9307,0.19314602237922332,5335.374125885784
3712.7866,0.1948257601564459,4827.854081843929
3713.6409,0.19775687125189956,1799.5394251157488
3714.4973,0.20063980626331196,739.4188738680101
3715.3518,0.20196463145986907,496.13789684045514
3716.2085,0.2009637782552229,503.85785768885
3717.0635,0.19808255406869332,4839.934255249935
3717.9185,0.19460644949171163,1121.6346799993817
3718.776,0.19176945700601117,3426.284943118409
3719.6313,0.1901242429305654,2613.216517527145
3720.489,0.1894921482297925,702.5332632004554
3721.345,0.18945443273644083,1093.005025405496
3722.2031,0.1897357516047691,634.2779644351419
3723.0593,0.19025005113787485,1395.0871549773651
3723.9158,0.19093894428752478,750.2928028949309
3724.7747,0.19171087201255999,1142.8161678434055
3725.6316,0.19250485825458294,678.9756026626227
3726.4905,0.19326722719890782,1411.4450648718685
3727.348,0.19374945666178228,1290.065919624236
3728.2073,0.1935002977807453,1123.2075399648868
3729.065,0.1922103823203787,2350.1464799932905
3729.9229,0.19009333040053078,1135.5341377594948
3730.783,0.18784432853622426,1468.9410376584365
3731.6414,0.18624333421653597,589.3546665082863
3732.5017,0.18575482567578497,483.294173495905
3733.3604,0.18647019222410927,2271.0219974546994
3734.2214,0.18816209322288852,2429.6617143926333
3735.0803,0.19031485797062228,487.1138436376395
3735.9417,0.1922303781502532,808.8743184000518
3736.8013,0.19318132198091356,1327.824142917063
3737.661,0.19272190471896392,553.2365561845052
3738.5227,0.190909711973814,975.5472178711161
3739.3828,0.188389327085749,2699.981719083282
3740.245,0.1860804931018708,2938.576789942737
3741.1055,0.18467175317479903,1685.036884456621
3741.9683,0.18418364055825856,450.8158011947481
3742.829,0.1841381068971812,1087.8297457619642
3743.69,0.18412672761978607,1099.9744273283873
3744.5532,0.18425842995356212,1005.294347479709
3745.4148,0.18501471999756258,1552.442823060774
3746.2786,0.1867162959627206,655.6897345927101
3747.1404,0.18915079900352533,12932.084294716562
3748.0044,0.19175430740819743,1156.858437390108
3748.8667,0.19399435943929885,639.6026116932406
3749.729,0.19567578356987225,583.1778926738041
3750.5938,0.196857479788476,1580.521209593153
3751.4565,0.1976099140180665,2488.5626305177143
3752.3215,0.19786124414800554,628.5619684604137
3753.1848,0.19739483082224984,2127.206964390569
3754.0503,0.19603852411153166,1342.757611855991
3754.9138,0.1939224285861266,1519.4898940774572
3755.7776,0.19154858747730744,685.0636633989745
3756.6438,0.18955999180042954,1511.3814200155034
3757.508,0.18832550211568652,670.8258248060938
3758.3745,0.18769047101716038,1275.0532583601416
3759.239,0.1872463532518245,965.0462123202844
3760.106,0.18678584675969143,491.24817853739785
3760.971,0.18654348357269734,1531.3080337470724
3761.8362,0.18696726079816503,832.8896462835855
3762.7036,0.1882798103766112,1598.073545251704
3763.5693,0.19015464214128683,1119.6931758619692
3764.437,0.19177203009018506,1529.3862595330497
3765.3032,0.1921576485590975,725.5344307737221
3766.1714,0.19073021807107648,1094.6006610045781
3767.0378,0.18772272496672832,1107.8871445990621
3767.9043,0.1841583522638257,1188.1027345218786
3768.7732,0.18129588996387036,1131.1909260511864
3769.6401,0.17988223708377363,3243.60830277819
3770.5095,0.17969133102939344,1157.8629886293877
3771.377,0.1798264809004044,857.5272742383697
3772.2466,0.17941546910094464,1455.5457443975858
3773.1145,0.1782150351901256,544.328065824982
3773.9824,0.17672248503315427,4453.95477665101
3774.8528,0.17581126608516473,3052.8398037592615
3775.721,0.17617692219442802,7031.640016214994
3776.5918,0.1779399270678635,808.9790569440328
3777.4604,0.18064473827326585,1656.238187132406
3778.3315,0.18360079043514868,1689.5389657101102
3779.201,0.1861422118865215,1531.5342412013524
3780.0703,0.18778276802905197,869.4493395107248
3780.942,0.18814531341274446,710.1073106234035
3781.8118,0.1869502959042301,6775.084443990105
3782.6838,0.18414598539497698,385.6270050091542
3783.554,0.180178313079449,1345.6596762404467
3784.4265,0.17611983929382038,1332.6126907144612
3785.297,0.17360195213818871,1079.104113156342
3786.168,0.17415428188950494,4103.920737462246
3787.041,0.1784032207729246,965.567752765855
3787.912,0.18539685003578138,1701.0764165065457
3788.7856,0.19287152196053697,1765.0796157652424
3789.6572,0.19821529116465064,120.30932908803952
3790.531,0.1999452109504235,1230.9265798789597
3791.403,0.19830050132900398,1159.8017693707295
3792.2754,0.1948417334141298,1564.6954014574217
3793.15,0.19131509130150656,776.8354512953688
3794.0225,0.18878763209519675,1221.8093248167716
3794.8972,0.18737251580861117,849.6009326756703
3795.7703,0.1866290523326515,1959.6898340999821
3796.6455,0.18603892106149528,3020.0577504980265
3797.519,0.18531760558548185,1417.7251677162458
3798.3926,0.18438729903045015,1076.3703597896524
3799.2686,0.18324514802879674,1315.6702472176912
3800.1426,0.1819564523098443,1441.917570202966
3801.0188,0.18072384225164673,1437.67911647116
3801.8933,0.1798996288417233,858.5757812933739
3802.77,0.17975801446129494,1064.1488039370172
3803.6448,0.1802734252269847,951.1080482864534
3804.522,0.18112694462363324,3874.068001056056
3805.3972,0.18199939525880104,1459.2145173844885
3806.2727,0.18290240120095672,1836.323783147976
3807.1504,0.18416593090677727,1147.569179650236
3808.0261,0.1860624473236416,753.9106829417351
3808.9043,0.1884623587331248,1185.77603913511
3809.7805,0.19079673643113945,943.6763241770826
3810.659,0.19246286533705348,1260.7389185983466
3811.5356,0.19316535842717902,895.108455358365
3812.4126,0.19302058675569125,953.4110293473941
3813.2917,0.19230976016145182,1690.8678691677887
3814.169,0.19124605922649449,1698.94394020331
3815.0483,0.18995293775665328,1359.9411508700455
3815.926,0.188653729370157,1030.4391397590211
3816.806,0.1877011102620951,1163.0070426202144
3817.684,0.18737529622243818,823.2854890174838
3818.5623,0.18759188710417643,2919.443106411174
3819.4429,0.18789322357878555,871.1061743261438
3820.3215,0.18770250761319887,1889.1710635129546
3821.2024,0.1866383420378869,1455.2529400099424
3822.0815,0.18471092081308493,618.494868829002
3822.963,0.18233488115456364,1247.3509156067437
3823.8423,0.18019107514154334,1077.851130710706
3824.722,0.17881946309547336,2025.5706039031588
3825.604,0.17828241147163593,4162.163358137072
3826.4841,0.17812673186306754,1821.6753340000114
3827.3665,0.1777350507863592,1704.5838630507908
3828.2468,0.17679275012775902,1634.5066181717943
3829.1296,0.17544267147021816,1890.859313297598
3830.0105,0.17405994990147428,2056.427193246091
3830.8916,0.17282935453291043,1900.6013474634549
3831.7751,0.17157616544039686,1960.7063284257601
3832.6565,0.16997989884732406,821.8071379069112
3833.5403,0.16793132442870926,1324.0104276559464
3834.4224,0.1657518534907404,2067.9216224188376
3835.3064,0.16398762123732633,2118.6496394995365
3836.1887,0.16311950663378263,4300.866720629423
3837.0713,0.16337051489478213,827.0633799869353
3837.956,0.16474731057954914,2922.2466775212906
3838.839,0.1670229441511071,1764.3399522122952
3839.7244,0.16970985706152916,1745.60299654751
3840.6077,0.17214474986864517,890.6382158718116
3841.4932,0.17391733813827687,866.3775965374468
3842.377,0.17514784743774972,1635.9246948004502
3843.261,0.1763693737261423,892.1780624894448
3844.1472,0.1779804405914665,1640.4002663166389
3845.0315,0.17984125955447527,2106.205145143017
3845.9182,0.1814280843919633,882.0530089146523
3846.803,0.18228200768089362,943.974475682567
3847.69,0.18241394060243613,1071.3386842745103
3848.5752,0.18228428236103947,874.7139477193376
3849.4604,0.1824451907636714,7934.728045405849
3850.3481,0.18305341698740232,1538.1687909833593
3851.234,0.18363295033468843,737.1268657665396
3852.122,0.18340089941640048,487.6086243692482
3853.0083,0.18195919953395376,1018.6736932826966
3853.8967,0.17974228059290795,759.1170599992917
3854.7832,0.1777942883319317,788.7470813167906
3855.6702,0.17699969158819923,1167.9698866082956
3856.559,0.17755224117676646,916.7056556118724
3857.4463,0.17900100641656652,1612.9452037500619
3858.336,0.18075622787353346,2079.5014686306386
3859.2234,0.18243813753467406,1564.6640084105118
3860.1135,0.18385893847343326,1140.5457148244363
3861.0015,0.18474262177837664,3324.053818696088
3861.8896,0.1847327177672742,1266.340291465705
3862.7803,0.18366647704935152,1487.659833936253
3863.6687,0.18185971086466501,1039.0069870160337
3864.5598,0.17995075228070115,1555.627614843618
3865.4487,0.17845009935490724,4557.920080301412
3866.34,0.1773233794683982,6198.829785274127
3867.2297,0.17612770156001514,1794.6444630785504
3868.1213,0.17447921237561118,1397.9055374634913
3869.0112,0.17247779781495934,2012.2436371183048
3869.9014,0.17062675932254542,1112.4504411448393
3870.7937,0.1694272287614536,1602.4234559625124
3871.684,0.16901998803528764,1301.514574810061
3872.577,0.16916778860883225,973.3425339634407
3873.4678,0.1695545548220062,1640.0091671577104
3874.361,0.17002273585703254,1289.6029083282035
3875.2524,0.17051290444483763,792.8714658064396
3876.1438,0.17085797690289178,1340.6134653724575
3877.0376,0.17074154176616707,1223.9045921696272
3877.9297,0.16993630155260422,6003.5527276129615
3878.8237,0.1685408192438518,2175.73403383581
3879.716,0.1669574033245871,1565.913190975706
3880.6108,0.16560341447655497,1052.9681451578547
3881.5037,0.16467354920412988,2200.4364733201683
3882.3965,0.1640177934561529,931.5702694192654
3883.2917,0.16322869025050912,1403.3865957377066
3884.185,0.1618616025938423,3169.26395643377
3885.0808,0.15971803406396923,2401.299722350364
3885.9746,0.15710205539112834,1044.2372771794
3886.8706,0.15471089068668603,5002.989022530072
3887.765,0.15324966905695464,3736.6997046389315
3888.6592,0.1529159404443122,4835.3855951157075
3889.556,0.15333839086830975,888.2096235072743
3890.4507,0.1539776477246351,1834.7237066035796
3891.348,0.15464180355236465,1163.3359153916144
3892.243,0.15557961545101506,1976.1823069291654
3893.1406,0.15714002746074487,4134.379269652178
3894.0361,0.1593390125232672,722.7415570792593
3894.932,0.16182388615502255,1483.8283286397245
3895.83,0.1641476374466628,1058.979699943844
3896.7263,0.16604980835583816,1743.5107815499796
3897.625,0.1675152720528947,1139.0513927512047
3898.5215,0.1685200854195173,2230.6080920772383
3899.4207,0.16894414979611871,926.982342759291
3900.3176,0.16876355187115585,1359.098743307719
3901.2148,0.16837340575570073,1139.7934437856375
3902.1145,0.16853928604698037,9103.238498309307
3903.0122,0.1699213037005893,1334.8408698690491
3903.912,0.17261820636786868,2075.73093302359
3904.8103,0.1760958190842705,1607.1798683885274
3905.7107,0.17951543318876179,1504.8828523721845
3906.6094,0.18200826412256566,720.6635721554461
3907.508,0.18302505900102034,744.0819608929722
3908.409,0.18262277265584756,905.3164696460292
3909.308,0.18163163322318313,1712.2068755389432
3910.2097,0.18132294826197365,1473.5912064882195
3911.1091,0.18264981657795043,1103.609136384427
3912.011,0.1855980134402614,1542.221083455364
3912.9111,0.18918555356839378,740.35963479214
3913.8113,0.19220397899977867,827.038779736927
3914.7136,0.1940029563931295,686.8766953562839
3915.6143,0.19476199146114087,3391.3484152875253
3916.517,0.1951463061482846,1523.1510672801096
3917.4182,0.1956702609427264,1301.5643812184144
3918.3215,0.19638524921688985,5295.68273957219
3919.223,0.19704960869557314,640.0507113143506
3920.1245,0.19755155873224042,2226.6043815900084
3921.0286,0.1980885666142266,4462.578269158694
3921.9307,0.19895522293257412,867.0340225808525
3922.835,0.2002263457403571,1320.891297950688
3923.7373,0.20165328231423327,602.3742206817737
3924.642,0.20286427444651275,1564.4282108750651
3925.5452,0.2035427853228082,536.8718795805783
3926.448,0.20352548662892694,639.4611060134098
3927.3535,0.20280286581315302,627.1275047558817
