wavl,flux,ivar
3566.9744,2.6363643054501393,122.4723262641598
3567.795,2.6283190922374033,115.77914432107947
3568.6177,2.61946377900854,122.33987137128369
3569.4385,2.609938427568714,139.59470362002946
3570.2617,2.6002585310078525,114.99361846225166
3571.083,2.5917364481116723,158.66573259658736
3571.9065,2.5857025907570277,114.55635440430663
3572.7283,2.582656116405661,141.30631662267515
3573.55,2.581853576373894,121.88748902651963
3574.374,2.5821871734317776,126.73400554851732
3575.1963,2.583112106453355,121.35611108278982
3576.0208,2.584668353037916,138.18933851162393
3576.8435,2.5868185912066197,148.15286857820527
3577.6682,2.5892980813058677,139.47683047247443
3578.4915,2.592114873974219,126.37203260750671
3579.3145,2.5958331666547507,142.2813502042723
3580.14,2.600813253542158,128.25071801709134
3580.9636,2.6060875395603427,126.89917132202694
3581.7893,2.6093999389458156,113.86672641141416
3582.6133,2.6084519446316037,132.09651488065066
3583.4395,2.6025707281539736,146.85274711389212
3584.264,2.593377454843203,117.82534278855884
3585.0884,2.5838802592695793,118.91833397650025
3585.915,2.5767770668015153,145.89964512650255
3586.74,2.5730776939169826,130.12560035355256
3587.5671,2.5718147288448705,134.932059156106
3588.3923,2.5711802322499375,129.8525621485205
3589.22,2.5697925013273077,130.5602308410032
3590.0457,2.5673155668206826,116.4487592003253
3590.8716,2.5641831134762594,114.62559446894124
3591.6995,2.5610406437601316,136.44642051343467
3592.526,2.5583733456313817,135.15816678597363
3593.3542,2.5563246849865497,143.5253055344339
3594.181,2.554709683272847,128.84590851231323
3595.0098,2.5529730797628205,117.4565601138001
3595.8367,2.5503434054550103,118.10543121063075
3596.6638,2.546145974343114,138.30534763740806
3597.4934,2.5402601865277834,124.97019965730546
3598.3208,2.5334616532783127,149.06198251795175
3599.1506,2.5270861723802738,134.9235170927254
3599.9788,2.5224045596239955,141.2804648338626
3600.8088,2.519672165765142,149.5757361132027
3601.6372,2.5180434958482634,141.41771375572336
3602.4678,2.5162397220892836,152.55153861391017
3603.2964,2.513553304489536,114.2172859862543
3604.1252,2.5102090189469846,137.93738520442494
3604.9565,2.5070909244031347,127.49324481193149
3605.786,2.505260689990171,143.41209585180772
3606.6172,2.5054925186113803,140.46721909940084
3607.447,2.5079607876958314,148.67175531070143
3608.2788,2.511867359628355,150.02127755944284
3609.109,2.5151967606256798,117.48486440881183
3609.9392,2.515261453625278,134.165983980553
3610.7717,2.5100668519766174,135.7153667636448
3611.6023,2.4999473236657686,135.86729260829904
3612.435,2.4876952550042972,151.54849071358964
3613.266,2.4771166690610795,118.58139735453845
3614.0994,2.4705840557793985,185.13844633926246
3614.9307,2.468106066019425,124.39944051993007
3615.7625,2.4678193629829774,140.41351023588555
3616.5962,2.467504664356909,139.4009736496347
3617.4282,2.465760543997893,139.38401011470572
3618.2625,2.4625158407782566,149.58938174894718
3619.0947,2.4588680348011143,142.65962106115106
3619.9292,2.4561333014558175,138.2523433988887
3620.762,2.4547461036161273,156.25641700469575
3621.595,2.453740472390306,131.85640872822847
3622.4302,2.4516170324268276,125.4347655829493
3623.2634,2.4479208065892792,143.00623668691222
3624.0989,2.4439905534658037,157.47267314853627
3624.9326,2.442087111258141,147.0306250810128
3625.7686,2.4433488497564952,150.75154287004653
3626.6028,2.4465193362144735,137.53115085177805
3627.437,2.448609754018179,152.0036420632411
3628.2734,2.447000571554738,141.2451342973928
3629.1082,2.4412315953910317,140.0991423378845
3629.945,2.432944494705161,147.56893091427807
3630.78,2.42442673842294,147.24661602743686
3631.6174,2.4169524221423067,153.20438166493634
3632.453,2.410720427310115,132.81336353133668
3633.2883,2.4055779701034847,159.21148933831282
3634.1262,2.401776059653141,176.0068784649485
3634.9622,2.3996644979464468,150.07186247033962
3635.8005,2.398807175298467,157.01942212723114
3636.637,2.397916977320957,152.45280755957836
3637.4756,2.3958039167340366,146.4883898488048
3638.3123,2.3925241179948897,156.88918032508565
3639.1492,2.3893871554018276,153.1356813907223
3639.9885,2.3877879565960116,164.25756333771562
3640.826,2.387861608832507,141.39662565999316
3641.6653,2.3881950571907535,147.36523731467943
3642.5032,2.3869511944423434,131.50901184892382
3643.343,2.383309437611509,163.42859242218032
3644.1812,2.3779516152451468,167.9991655026717
3645.0195,2.372188343961402,154.63549072819754
3645.86,2.3668532415691783,147.31798923641026
3646.699,2.36198048579676,145.71759488268071
3647.5398,2.3572094334987006,157.3009478432537
3648.379,2.352523394114198,156.67244071058235
3649.2202,2.3483664865760923,174.3986201697792
3650.0596,2.3454517154729233,173.83105152350427
3650.8994,2.3442793793047425,162.04378165278948
3651.7412,2.344911142275017,156.6455170787855
3652.5813,2.3468526184238026,152.22655732658768
3653.4236,2.34915640727887,140.72866517004368
3654.2642,2.350673036389158,156.2291008204836
3655.1067,2.3504670894153366,185.70288623813553
3655.9475,2.3481096328219597,154.4157777454851
3656.7886,2.343813183353503,162.23085405476473
3657.6318,2.338355375709829,163.39290013825914
3658.4734,2.3328619000007698,161.33285655185475
3659.317,2.32828755220355,169.1256529315238
3660.1587,2.325151072341302,161.25060064625967
3661.003,2.323430799145553,163.2393654036634
3661.845,2.3229005857069662,156.94645478194337
3662.6875,2.3234248960678205,174.75402572669077
3663.532,2.3250665890795648,189.76195652418835
3664.3748,2.327747018927704,159.96714012323585
3665.2197,2.330822669178773,145.26877892720645
3666.063,2.3330220774604102,166.4419561456129
3666.9084,2.333142555838432,159.21461671950772
3667.752,2.330828467114947,154.54513903404478
3668.5977,2.326777834610511,155.87227327920317
3669.4417,2.322249386700514,150.39575314464386
3670.286,2.3182553857947306,168.60091250607982
3671.132,2.315178412440422,168.83251738684132
3671.9768,2.3128618224319357,158.59099394795984
3672.8235,2.3109497064791134,160.0111985931007
3673.6685,2.3093166663785247,168.0367548393585
3674.5156,2.3081670761038757,159.6131182035835
3675.3608,2.307826334021498,168.96401840980224
3676.2063,2.3082890880593383,159.6025697645202
3677.0542,2.3089976545850037,153.9120678250094
3677.9,2.309013708320874,165.44440300545045
3678.748,2.3074596179438305,158.34174385306773
3679.5945,2.30387783146902,157.2368484052409
3680.4429,2.2983609179041875,156.3572256084689
3681.2896,2.291669852601853,172.00268456655232
3682.1365,2.285083214253818,185.73952221034284
3682.9856,2.280021268265487,178.09564599540644
3683.8328,2.277339730701059,172.69648133299123
3684.6824,2.276699817734908,181.03608778194445
3685.53,2.2768504691189837,160.8513603416363
3686.38,2.2765582290254462,155.08602971679147
3687.2278,2.2755243466988806,169.4931706721735
3688.0762,2.274486017399416,157.52770342274093
3688.9265,2.2745011752695388,169.9425514229624
3689.7751,2.2759939644926743,193.30390478079394
3690.626,2.278279144255028,155.6871219248015
3691.475,2.2798899694156267,152.73019394250656
3692.3264,2.2795433791059216,154.95528347256996
3693.1758,2.276916236804247,171.18596614629718
3694.0254,2.272694211089657,159.5497143765891
3694.8772,2.267986909771687,157.03016908287702
3695.7273,2.2637632050822196,183.7486335404712
3696.5793,2.2604932530853548,174.0634166317356
3697.43,2.258202519274225,185.60123891523642
3698.2825,2.2565140005756925,169.13512096844565
3699.1333,2.2548460980048395,153.73648785277933
3699.9841,2.2525904411448545,177.64151407770254
3700.8374,2.249335406622581,164.96759492774177
3701.6887,2.2451041438983506,167.74651319718848
3702.5425,2.2404039031001326,182.88016329821707
3703.3943,2.2361625780742225,177.10776907668497
3704.2483,2.233150964699109,172.90947690843296
3705.1003,2.2314620328590955,182.8648397276704
3705.9526,2.2302775675970867,168.83732260035592
3706.8074,2.228419755947617,177.03689573657715
3707.66,2.225189650904279,176.4505768606975
3708.515,2.220691073079905,185.51354247818998
3709.3682,2.2155192078211483,165.96649545290302
3710.2234,2.2100842653075614,183.57179686673135
3711.0771,2.2045337883312843,166.74881433011853
3711.9307,2.1989843419380897,198.7752823825085
3712.7866,2.1938206708888477,167.3891207837963
3713.6409,2.1896582776626263,214.74054525693313
3714.4973,2.186913127206533,176.22341854237797
3715.3518,2.1855790328970564,174.7939710028003
3716.2085,2.1851824675364053,167.77462709150095
3717.0635,2.185217037484106,172.2777035093824
3717.9185,2.185666907931007,193.07198836202502
3718.776,2.1870842753427278,173.2272939463268
3719.6313,2.189882269748,200.88644733171657
3720.489,2.1935521968284903,173.6379777506068
3721.345,2.196680888862208,156.90514615612364
3722.2031,2.1980376509823487,189.41243069552263
3723.0593,2.1974666678660246,170.36363164497342
3723.9158,2.19578367937801,199.77057541156873
3724.7747,2.193797866354313,173.5205813294184
3725.6316,2.191618197989072,179.57623259613956
3726.4905,2.1887489780301195,177.4845620863387
3727.348,2.184781522556867,193.72213246545638
3728.2073,2.1798021146544007,210.00319071086395
3729.065,2.174404040628126,172.6684347235172
3729.9229,2.1692126273073598,176.4848862590499
3730.783,2.164483508127704,196.29541983545644
3731.6414,2.1599628129189252,173.25391563209266
3732.5017,2.1550742940112495,174.09921107038187
3733.3604,2.1495358342417092,205.96563825598855
3734.2214,2.1436081387105195,199.9107711233254
3735.0803,2.138021573767181,193.8081339168539
3735.9417,2.1333641392113494,188.15346791870908
3736.8013,2.1298699759280324,173.68170481787797
3737.661,2.127399910918219,209.77299729845356
3738.5227,2.1257117071548355,194.2769433239163
3739.3828,2.124585044768606,208.18109774794664
3740.245,2.1238532206327294,179.0507146221794
3741.1055,2.123559365814766,192.9529389446333
3741.9683,2.1239961947894592,210.6043121698971
3742.829,2.1253768215365225,179.27517489943162
3743.69,2.1272042627297676,187.00185286495716
3744.5532,2.1278617971119385,136.01885182405
3745.4148,2.124972614276004,219.09119048927678
3746.2786,2.1168265090615894,177.59152749275472
3747.1404,2.10461457538282,195.8092970309699
3748.0044,2.093515784583668,181.44123025976737
3748.8667,2.090817670870331,192.28015891522892
3749.729,2.1004051953533946,2693.371785236589
3750.5938,2.1188102506654762,192.98261212099894
3751.4565,2.1368429637613335,208.3801585810247
3752.3215,2.146596466904741,187.60635589683105
3753.1848,2.1460633339591473,196.0450509943834
3754.0503,2.138380124834041,162.8556644893738
3754.9138,2.1278142497987758,181.8693295548674
3755.7776,2.1171700833377263,173.83672924785927
3756.6438,2.1078783041481493,209.33487571349445
3757.508,2.1008386819231393,189.09172799371586
3758.3745,2.0964892398555373,216.70305767445404
3759.239,2.094782200627104,207.10137268576244
3760.106,2.0950605533086204,207.7154073755493
3760.971,2.0963116120245693,219.15838164837504
3761.8362,2.0975354677528912,193.34390762731775
3762.7036,2.098117567166407,189.51930913945714
3763.5693,2.0979721232841495,192.08577699437132
3764.437,2.0973894053390554,219.42961589084078
3765.3032,2.0967423444939377,189.5307465453537
3766.1714,2.0962584068926398,207.2196715522702
3767.0378,2.095906972991861,191.45609399362291
3767.9043,2.095361973894465,207.34367665616037
3768.7732,2.0941095068166318,197.93473375132646
3769.6401,2.0916795870998817,179.36889300145086
3770.5095,2.087820365557429,206.77359544915296
3771.377,2.082662012415176,192.2251105491298
3772.2466,2.076648942347948,210.49286054057836
3773.1145,2.0704904846730634,201.14486092719054
3773.9824,2.064829501740971,215.99534200251526
3774.8528,2.060159212337251,187.00736282362644
3775.721,2.0569426338961345,236.80193821389656
3776.5918,2.055560920531337,218.93130633901427
3777.4604,2.056136878862327,213.25522636588465
3778.3315,2.058246924113431,223.32724218763502
3779.201,2.061057073941808,193.88866231827444
3780.0703,2.0638213152330867,220.13803871769292
3780.942,2.0661717559227912,181.5779084165723
3781.8118,2.0679274674068004,217.0747355612153
3782.6838,2.068797775731085,207.2477506511466
3783.554,2.068384772359362,207.63726318617674
3784.4265,2.0666174591801925,194.68690720541835
3785.297,2.0640596084038427,195.11757818614146
3786.168,2.061633727530063,212.46190974042662
3787.041,2.05999793944682,209.99242240661576
3787.912,2.0590918875454585,224.47790234762252
3788.7856,2.0582082305105045,201.8107262037888
3789.6572,2.056575082252314,204.19758483179083
3790.531,2.0538962453883816,203.97924213944702
3791.403,2.050554432241444,195.29775164722136
3792.2754,2.0472872221804477,214.44871253510874
3793.15,2.0447379897030826,197.27498534412496
3794.0225,2.0431668270119796,200.47466755663484
3794.8972,2.0424199935075644,210.73744151538006
3795.7703,2.042166193842339,206.89760610275474
3796.6455,2.04209033475179,217.5964623986782
3797.519,2.0421229929885234,223.83018384634752
3798.3926,2.0428833006559914,195.2704950836549
3799.2686,2.0463548889727177,211.10620508689956
3800.1426,2.0559862651581353,198.96301240428076
3801.0188,2.07519288763843,227.1623461911667
3801.8933,2.1036256355762295,210.094037508885
3802.77,2.1345199823337304,231.45500450878262
3803.6448,2.1557868206160364,187.76525495326723
3804.522,2.157440244643761,211.1902937203447
3805.3972,2.138498048188822,205.69743841308693
3806.2727,2.1077459718280687,216.80611581593212
3807.1504,2.077099897840938,206.37363763716996
3808.0261,2.054514222579137,212.57457126378995
3808.9043,2.0410680514577417,197.10387841365667
3809.7805,2.0338767490964145,230.63594279705848
3810.659,2.0293971269374724,237.62147486660768
3811.5356,2.0255300349393344,200.61808865522974
3812.4126,2.021631905324597,231.24219335233144
3813.2917,2.0178781077495827,194.550231420341
3814.169,2.0146220511450004,206.56259121862487
3815.0483,2.011953137944647,192.27018096298877
3815.926,2.0096850274620293,214.6542542647992
3816.806,2.007467596835185,209.81637853670767
3817.684,2.0050667710620225,237.06167459938715
3818.5623,2.002463507859841,196.6027435318757
3819.4429,1.9998099101468412,211.77281110488775
3820.3215,1.9972679209706503,228.86243903132575
3821.2024,1.9948096735547676,239.37315319728447
3822.0815,1.992306223063724,209.55449205956586
3822.963,1.9897206768511044,210.52452645671477
3823.8423,1.9873861972777165,229.17240173411173
3824.722,1.9859883938442358,272.6783714659456
3825.604,1.9864555743808576,211.04949646306451
3826.4841,1.9897699737620533,215.35553080705532
3827.3665,1.9966201697537798,208.2029101558536
3828.2468,2.006493208450447,223.74529288100015
3829.1296,2.016939748097809,240.2638018208913
3830.0105,2.023756323646445,213.34241679785913
3830.8916,2.023251404233005,248.489612098466
3831.7751,2.0144638385476163,217.33766056797253
3832.6565,1.9998125613155195,219.00921932499318
3833.5403,1.9832200757107012,220.9065972611587
3834.4224,1.9682131965671594,229.63723054577596
3835.3064,1.956624154648008,240.59651034368983
3836.1887,1.9489593382578718,227.95827820891378
3837.0713,1.9447601962035483,230.55085074642614
3837.956,1.9432478672893159,203.25070001481848
3838.839,1.9437536920248795,202.7782231790538
3839.7244,1.945925366764299,227.49398511388023
3840.6077,1.949553057731863,236.35806357641397
3841.4932,1.9542297237915567,218.34356786566255
3842.377,1.959128733930357,232.4962875075231
3843.261,1.9633705364447516,235.4820134276991
3844.1472,1.966513195156588,206.16694460888326
3845.0315,1.9687691348879641,212.4134537939674
3845.9182,1.9707076805237078,216.95025724302602
3846.803,1.9726231868847186,227.24295045025264
3847.69,1.974465701929613,240.7665709526413
3848.5752,1.9763711271400457,239.32023507644115
3849.4604,1.979129197750478,202.78409638820935
3850.3481,1.9835510137493437,223.19626398165767
3851.234,1.9890738408078683,234.27871674356518
3852.122,1.99338586263655,214.31803357705456
3853.0083,1.9937483043266684,213.19646649878655
3853.8967,1.9891684050098688,238.16149298398614
3854.7832,1.9811519799776982,210.7783462718556
3855.6702,1.9724268460958685,220.40187190368252
3856.559,1.965157904381424,224.60249724297185
3857.4463,1.960139254823173,214.87378503556133
3858.336,1.9570637770586756,221.8317843013367
3859.2234,1.9553491318666654,233.41168318971432
3860.1135,1.9544493113856012,213.70011963677106
3861.0015,1.9538733663672276,200.34564730376954
3861.8896,1.9530499593978377,224.28350612513177
3862.7803,1.9513810396877043,218.45952176876258
3863.6687,1.9485212245777446,231.01111669942068
3864.5598,1.944645845219502,217.14786213101854
3865.4487,1.9405261866902954,237.79409028442356
3866.34,1.9370134132709695,226.56116111552595
3867.2297,1.9345141511343888,207.17646176331627
3868.1213,1.9326729376705833,234.37757482452847
3869.0112,1.930701305053629,259.529234608184
3869.9014,1.9278986900064272,225.66014610080083
3870.7937,1.924099681874417,230.11993660019735
3871.684,1.9198409152119398,219.13221620451523
3872.577,1.9160698178246858,240.47412992593246
3873.4678,1.9136624024823938,246.04245777477746
3874.361,1.9127022400333182,230.01604546866278
3875.2524,1.9122094183804854,234.7640203363263
3876.1438,1.9104773227994234,223.9184819573996
3877.0376,1.9059694671110485,216.53638739294712
3877.9297,1.8982235214664716,273.1753172449312
3878.8237,1.888012737794379,263.08455711128994
3879.716,1.8769767395479096,241.57963123536868
3880.6108,1.8666477722947648,273.3956241524844
3881.5037,1.8580236651019288,236.5020974045594
3882.3965,1.8512380431052968,242.47630015626157
3883.2917,1.8458792519144214,232.7728093177428
3884.185,1.8414148034315163,258.59522084741485
3885.0808,1.8374723688252892,276.8869577177611
3885.9746,1.8341097898621397,255.2132500680758
3886.8706,1.8316059955189912,274.4914024223257
3887.765,1.8301558653004761,284.1920909010097
3888.6592,1.829566457394615,268.6845952940178
3889.556,1.8294277096115497,265.3784719206142
3890.4507,1.8295450978349475,269.48562420735414
3891.348,1.830221867818768,280.4998981027521
3892.243,1.8320946059508525,251.2119946567173
3893.1406,1.8356894045062784,275.9225768004407
3894.0361,1.840947418103432,259.7290688998713
3894.932,1.8471902800722606,270.5742424318149
3895.83,1.8534468417834853,242.91588745829995
3896.7263,1.8589785087293549,254.69121546259157
3897.625,1.863749421695471,235.05851575956868
3898.5215,1.8681825627760928,252.33034714910858
3899.4207,1.8728074461680508,269.8971069475817
3900.3176,1.8778119129005386,285.40309581670846
3901.2148,1.883101744321202,238.9148053467515
3902.1145,1.888437771294168,250.11934297537422
3903.0122,1.893584156525311,211.9393788583301
3903.912,1.8985353132261482,233.15642391507856
3904.8103,1.903480675570313,241.35989144445773
3905.7107,1.908810938630134,240.9560026584544
3906.6094,1.9147926802056927,255.45960431659793
3907.508,1.921402418762891,222.8776457362091
3908.409,1.9282560036031364,268.8033338190203
3909.308,1.9347694175733279,229.5571599427615
3910.2097,1.9405664820461366,230.2051185264205
3911.1091,1.945486487467886,190.22522261612212
3912.011,1.9495650739307262,228.71087576614357
3912.9111,1.9527490296321515,235.98602741010492
3913.8113,1.9549781814212728,217.8588941160529
3914.7136,1.9563290276365588,220.30043066466013
3915.6143,1.9570900970799354,217.27333921028224
3916.517,1.9576023688829842,213.67617663923068
3917.4182,1.957984234451528,221.96225732920624
3918.3215,1.9580720654554513,231.79008215040125
3919.223,1.9575743130100338,233.51982765099197
3920.1245,1.9563268629592547,220.78245238228396
3921.0286,1.9545050161358908,229.62356353332143
3921.9307,1.952672820974613,229.1807068154875
3922.835,1.9514332639035417,262.6132809915015
3923.7373,1.9509382832567816,239.68692871762659
3924.642,1.9506343942087516,198.34725241101614
3925.5452,1.9496159465131662,244.7846139384782
3926.448,1.9472546759017344,235.61685763340617
3927.3535,1.9435936144459458,226.3531595678838
3928.257,1.9393101247518103,238.87398258067392
3929.1628,1.935186218628723,249.07191883425506
3930.0667,1.93166635523674,228.87034593340803
3930.9731,1.928582934071854,231.43864075407154
3931.8774,1.9254681413661583,226.0033497522859
3932.782,1.9219427872294041,221.89421790854306
