wavl,flux,ivar
3566.9744,0.8957439283165025,504.0987559485937
3567.795,0.892715078245012,548.3842589372224
3568.6177,0.8879205505806236,618.4224849046811
3569.4385,0.882936457433359,746.6668169402437
3570.2617,0.8790382871282567,470.77223768746387
3571.083,0.8769150763485362,428.3615341560835
3571.9065,0.8767394073127718,703.1307871047878
3572.7283,0.8783542350290918,1199.056517357617
3573.55,0.8812492260831132,650.6105937210832
3574.374,0.8846982409207209,385.3954442721055
3575.1963,0.8880397404401715,668.8861113354346
3576.0208,0.8909354617266536,506.04099580562024
3576.8435,0.8931947701079281,400.6236499053422
3577.6682,0.8946027431805955,563.167986446238
3578.4915,0.8948605468222199,557.7927394728265
3579.3145,0.8938355285255768,452.500477891044
3580.14,0.8917721708566668,453.9976958679052
3580.9636,0.8893183348327592,506.9608932643496
3581.7893,0.8872323261387045,493.74955984079577
3582.6133,0.8861058642013186,495.34265556683573
3583.4395,0.8861561505953299,599.6313302659431
3584.264,0.887213888982034,504.048320571767
3585.0884,0.8887695908231089,527.3953255219966
3585.915,0.8901178699012112,498.1717220468066
3586.74,0.8905808637726829,480.0808900870873
3587.5671,0.8897665413705752,478.6710860293825
3588.3923,0.8876589074244938,583.1301311115669
3589.22,0.8845140944017283,464.93051153629455
3590.0457,0.8807259617037891,399.59709204437456
3590.8716,0.876612069075582,562.7746206923073
3591.6995,0.8723739150512828,540.9446150947846
3592.526,0.8682142017401855,753.7366585523432
3593.3542,0.8644531522924811,603.3663496957955
3594.181,0.861655842939278,500.8224082293664
3595.0098,0.8603735142927449,650.7026277699744
3595.8367,0.8608550227874638,591.919565986232
3596.6638,0.8628569642847466,542.5133341383175
3597.4934,0.8658657799845944,682.5617795276819
3598.3208,0.8694613856907868,741.6999009422922
3599.1506,0.8735979473475792,361.99645447393226
3599.9788,0.8782600476047306,612.3718895669558
3600.8088,0.8829786073585257,662.8001639179565
3601.6372,0.8865203874086987,622.6824870210331
3602.4678,0.8874872483365223,447.0943853243726
3603.2964,0.8851893246724968,698.5224851750434
3604.1252,0.8801779823208538,463.78692453867006
3604.9565,0.8739400259913687,669.702833513124
3605.786,0.8682571631780979,603.4043475033424
3606.6172,0.8644079191448519,676.9132619584283
3607.447,0.8628605566498634,515.9670646977321
3608.2788,0.8632384611637849,371.50265535336956
3609.109,0.8647876916532521,563.3492837253411
3609.9392,0.8668409386500006,548.1002821077429
3610.7717,0.8688714127664708,658.0430975188127
3611.6023,0.8702031241734104,504.74813179949695
3612.435,0.870007576685709,534.1478988035258
3613.266,0.8677670131008706,489.1177953470473
3614.0994,0.8638664640896846,607.5160212249202
3614.9307,0.8596951559091277,497.7872262498046
3615.7625,0.8569031577244145,623.2231532966929
3616.5962,0.8564941220932776,586.8310213952993
3617.4282,0.8582878408650355,655.3911864368952
3618.2625,0.8611675748779901,526.4463492416603
3619.0947,0.8638142434810866,546.3950325906012
3619.9292,0.8654980822299746,603.4979447565942
3620.762,0.8663139528906139,512.6897906200884
3621.595,0.866877627263751,680.9437654591298
3622.4302,0.8676560679187764,694.0835507210609
3623.2634,0.8685756372440215,577.322527693181
3624.0989,0.8692423959731104,550.151551373421
3624.9326,0.8694188333354459,660.1311870385028
3625.7686,0.8692002593196886,594.4030667915364
3626.6028,0.868690828726293,609.1484375659371
3627.437,0.8676853041103756,568.9231099368114
3628.2734,0.8658627888585511,622.3690381001387
3629.1082,0.8633717670230866,393.3339776721208
3629.945,0.861055973510512,595.1788355304633
3630.78,0.8600694272916138,1155.710183624152
3631.6174,0.8611576443876874,666.0211128767945
3632.453,0.8643952231145573,603.9524650281674
3633.2883,0.869466991464406,625.9416666332347
3634.1262,0.8760546340288016,870.7877550623676
3634.9622,0.8838155624002128,768.077054107796
3635.8005,0.892266338722547,497.2897401560246
3636.637,0.9003678952960916,601.1980985552138
3637.4756,0.9067287283378307,442.8029288848541
3638.3123,0.9099610111121527,435.6700150412621
3639.1492,0.9095915665010695,528.0402628174834
3639.9885,0.906501615462843,565.9295074871914
3640.826,0.9026980979754218,659.4703795537146
3641.6653,0.9002250348685824,442.9362291430624
3642.5032,0.900173074076828,404.51939722068397
3643.343,0.9023228984723378,416.7896191381619
3644.1812,0.9055646791016531,477.87859181396163
3645.0195,0.9085349350849538,725.4503752573866
3645.86,0.9099971940942705,566.4354597915548
3646.699,0.9091101223169042,406.74161544072655
3647.5398,0.9057740242181523,549.9781099226174
3648.379,0.9008197426917985,604.9121296957885
3649.2202,0.8956016821267477,550.7290237017003
3650.0596,0.8912695315105797,515.5192625623588
3650.8994,0.8880387361071208,558.5119815617535
3651.7412,0.8852879956201201,487.3587221837562
3652.5813,0.8821935822369723,720.8682578403134
3653.4236,0.8783691914699204,651.8584919922891
3654.2642,0.8742117603888644,750.0049641793377
3655.1067,0.8706028806107144,522.5426442447351
3655.9475,0.8683985775517752,801.9916982946787
3656.7886,0.8678545404020769,494.3914493431814
3657.6318,0.8685799945368138,525.1439491854903
3658.4734,0.8698865798075872,689.9080654030704
3659.317,0.8712646351053596,579.6650232565166
3660.1587,0.8725707932836069,440.6143100232256
3661.003,0.8739525521002477,650.1953637408382
3661.845,0.8755805398141123,549.5807358266891
3662.6875,0.8774449170166373,540.0863304859455
3663.532,0.8792311724075229,523.3539482555968
3664.3748,0.8804145979099798,602.381886048118
3665.2197,0.880609389002201,573.1718997303625
3666.063,0.8799080533696336,826.2172762837257
3666.9084,0.8789708809828986,448.47638020559936
3667.752,0.8786807790346955,543.2749292245867
3668.5977,0.8795227284783105,520.0894514223401
3669.4417,0.8811644815135617,492.4849617129266
3670.286,0.8826004976332514,507.1926590482402
3671.132,0.8827565452766284,742.3904410258951
3671.9768,0.8810989066428855,455.3395605410252
3672.8235,0.8778218263191526,535.0068863086739
3673.6685,0.8736534189443765,511.51482201505246
3674.5156,0.869435491801899,518.9544880973971
3675.3608,0.8658577426683652,700.180667528924
3676.2063,0.8631792967732469,494.3742703898347
3677.0542,0.8613064000892415,484.44158065506207
3677.9,0.8600940744010405,513.4615486433609
3678.748,0.8596096450032663,529.7874856584414
3679.5945,0.8601105847911736,588.0034119369855
3680.4429,0.86163786343812,791.8429435840305
3681.2896,0.8636788587468088,491.43485957598443
3682.1365,0.8653463958863269,614.043431186281
3682.9856,0.8659484499231553,702.4764474975556
3683.8328,0.8654475552498914,594.0097336196488
3684.6824,0.8643537357787684,417.0239582948565
3685.53,0.8631975178039598,620.9497666076851
3686.38,0.8621243683794585,653.1111371124452
3687.2278,0.8610206984497,711.2135771707535
3688.0762,0.8599075803657604,696.7045215876193
3688.9265,0.8592207025124388,589.04471921141
3689.7751,0.8596714232397585,558.333128870901
3690.626,0.8617994509344802,433.37368980402675
3691.475,0.8655455376603508,499.098612600215
3692.3264,0.870189772925733,505.21183325259256
3693.1758,0.8745649370772814,453.2115690305545
3694.0254,0.8776417578350946,489.95691836842565
3694.8772,0.8789647724363484,437.54471782222805
3695.7273,0.8788265337862678,407.3020205831722
3696.5793,0.8779894855193352,447.9694133752094
3697.43,0.8771064315813363,620.1195894318995
3698.2825,0.8762951023565244,572.2907419869352
3699.1333,0.8752062332347716,533.7804243052093
3699.9841,0.8734579666526762,611.2951274115483
3700.8374,0.8710914234258073,590.7009157491524
3701.6887,0.86871140691584,468.5228471699894
3702.5425,0.8671207625801522,651.9835551910883
3703.3943,0.8668066367042444,543.8930581911172
3704.2483,0.8675358433132335,478.45700434571387
3705.1003,0.8684626503520716,544.0879824036696
3705.9526,0.8686168805212535,638.9191961756372
3706.8074,0.8673492564303992,493.5092293533943
3707.66,0.8644901726928638,464.71958778865576
3708.515,0.8602272391847635,586.6113771490375
3709.3682,0.8551270808219332,629.5234673311495
3710.2234,0.8501491083821497,446.2179325861797
3711.0771,0.8466391739574758,748.0681959769962
3711.9307,0.8457231793655969,578.0113071945013
3712.7866,0.8476046725254925,683.5913959091675
3713.6409,0.8512346387821836,653.9569882736793
3714.4973,0.8548780924919398,516.5119099695354
3715.3518,0.8569922890747265,539.4738052811124
3716.2085,0.8568200878627938,685.6250171271016
3717.0635,0.8542824283724432,548.7893774631991
3717.9185,0.8497589674610174,461.4003578678541
3718.776,0.8440633395662079,630.5614083511371
3719.6313,0.8385498279536472,564.3407974867534
3720.489,0.8347240936545244,676.8536573031865
3721.345,0.833726324204161,1081.1296634743971
3722.2031,0.8357418262183065,544.6932909150345
3723.0593,0.839913882828004,774.0789781030415
3723.9158,0.8447510728401907,670.4059596163577
3724.7747,0.8487871150537796,588.721881500886
3725.6316,0.8511207248132244,564.4659195208187
3726.4905,0.8516374528033686,599.1002895676463
3727.348,0.8506893637895181,533.7744520228034
3728.2073,0.8487502245399202,627.0750051682148
3729.065,0.846295129392918,652.347126453509
3729.9229,0.8438094911303452,773.3996118804334
3730.783,0.8417448141415297,573.349355147251
3731.6414,0.840348049457653,579.3434366767931
3732.5017,0.839554084787155,667.9208070327671
3733.3604,0.8391909987660291,613.6132249226499
3734.2214,0.8392297121176113,589.6627127973366
3735.0803,0.8398331431460847,747.1090312768879
3735.9417,0.8410983964467263,634.224227795986
3736.8013,0.8427275588397204,703.7329964323202
3737.661,0.8440098536824095,477.31452283558644
3738.5227,0.8441401771442991,692.6897553762028
3739.3828,0.8426759225821338,708.3666612988444
3740.245,0.8398017850400246,480.1522789292934
3741.1055,0.8363105963175315,603.4312043829752
3741.9683,0.8332429280885921,675.0670244420066
3742.829,0.8314862055652066,549.0244676358851
3743.69,0.8313113697819843,688.8649973337799
3744.5532,0.8323012471321886,435.39654512607353
3745.4148,0.8336026036091602,586.244483418923
3746.2786,0.8343917367316941,651.9355043623715
3747.1404,0.8341883155382783,693.2825289450186
3748.0044,0.8329608406073858,465.4597848626346
3748.8667,0.8310622351363227,600.8176706137274
3749.729,0.829045579325055,675.6505570046668
3750.5938,0.827424576307672,609.2409454640162
3751.4565,0.8264753754249113,541.3762969318973
3752.3215,0.8261689075426522,533.4783359003445
3753.1848,0.8263398417930101,739.5451190831769
3754.0503,0.8268614782530834,758.1392579901898
3754.9138,0.8277044356341368,623.3941736553584
3755.7776,0.8289122736608464,501.6748360727334
3756.6438,0.8306009935906782,677.055096897696
3757.508,0.8329540621707643,668.1097447576794
3758.3745,0.8361359479383712,555.9449392671187
3759.239,0.8399719147545043,515.6609349624866
3760.106,0.8438014516011302,563.8381969133748
3760.971,0.8465271486597712,489.1537748682895
3761.8362,0.8471382884371663,554.648982015387
3762.7036,0.8451848066758306,566.9728581164413
3763.5693,0.8410766440988398,511.93127530860744
3764.437,0.8359024426576479,611.5645292356044
3765.3032,0.8310149030835626,687.3387644769322
3766.1714,0.8274006730581351,548.2793839115894
3767.0378,0.8253891063946149,706.9187162314427
3767.9043,0.8246198919662696,567.8107702141534
3768.7732,0.8244458233208979,616.9641479169688
3769.6401,0.8243894152984503,719.0306494302903
3770.5095,0.8244004991525794,622.3473495377073
3771.377,0.8247545404548764,773.1076863569061
3772.2466,0.8256818400153598,537.0997580376269
3773.1145,0.8269837171713782,554.9251735947271
3773.9824,0.8279403729860858,698.9585309185379
3774.8528,0.8276048586774044,681.7532536154642
3775.721,0.825420608594357,1070.0328551090888
3776.5918,0.8217257155169714,465.90837050534697
3777.4604,0.8177421076076327,626.2218975763661
3778.3315,0.8147956134251853,578.698610158324
3779.201,0.8135900837738363,513.7077956564033
3780.0703,0.813956560613496,553.6595045162143
3780.942,0.8153190047305947,600.5381160140897
3781.8118,0.8171718749775968,807.1832989228651
3782.6838,0.819289346490872,654.127880667165
3783.554,0.8216466902749233,777.2541225163664
3784.4265,0.8243389460020203,500.63668393328356
3785.297,0.8273457051240282,981.202782583641
3786.168,0.8303976720304617,518.7313724324044
3787.041,0.8329552747933209,646.8112960006472
3787.912,0.8343706789136615,513.5894097585551
3788.7856,0.8341009428673988,655.5039389904913
3789.6572,0.831810604741293,548.8845787487768
3790.531,0.8275240880911512,568.9832575519267
3791.403,0.8217951938140593,794.5649157341234
3792.2754,0.8155263157979811,666.9506670168744
3793.15,0.8096293383538816,635.0052240876288
3794.0225,0.8047836106169463,646.3656641217999
3794.8972,0.8013293145313498,620.2008795313774
3795.7703,0.7994659530744764,735.3189830466281
3796.6455,0.7991992788814756,810.0097408051962
3797.519,0.8002786703882493,633.3248662791666
3798.3926,0.802154279525991,600.8347287821872
3799.2686,0.8041446417426253,922.6073968583884
3800.1426,0.8057009084159015,769.6661504766023
3801.0188,0.806655184010975,590.5144026804019
3801.8933,0.8071324897400938,801.4857633094291
3802.77,0.807261277398117,531.2104378854102
3803.6448,0.8069305829042062,696.4353857067565
3804.522,0.8059569260847701,771.4340288907904
3805.3972,0.8045626756450737,651.8236051334459
3806.2727,0.80360405352,537.4943431104487
3807.1504,0.8041890552731428,686.2164849468971
3808.0261,0.8068857460552585,803.1070160396372
3808.9043,0.8113190189469986,571.4180481318914
3809.7805,0.8164918907958795,671.2925910315322
3810.659,0.82165341387735,578.0288180842601
3811.5356,0.826597626265636,520.464577284088
3812.4126,0.8313456111428678,601.9496254057822
3813.2917,0.8353924242977437,607.93352926678
3814.169,0.8374971962148252,518.7560323906678
3815.0483,0.8364085280510246,567.2860723517017
3815.926,0.8317945280219752,649.592622873847
3816.806,0.8245962432773749,598.5607433894162
3817.684,0.8166384711937721,657.373861612565
3818.5623,0.8097284489455405,523.7699658722996
3819.4429,0.8051173206009467,759.6854393178481
3820.3215,0.8032653981735998,658.18635817034
3821.2024,0.8036940720907743,614.3370363034048
3822.0815,0.8051805635119909,613.2766032085019
3822.963,0.8062607391125569,599.553983054465
3823.8423,0.8059381849102116,655.9658948568807
3824.722,0.8041728922262705,699.3569643264688
3825.604,0.8017424240427137,696.4138295305149
3826.4841,0.7996744107552567,674.0917921894309
3827.3665,0.7985515034987958,908.9225308040815
3828.2468,0.7981790490049169,830.1212806144017
3829.1296,0.7975869363465043,693.5205955683304
3830.0105,0.7954494933427066,642.7272774763301
3830.8916,0.7907690190575514,673.3557058511652
3831.7751,0.7835333110827413,835.9483034343068
3832.6565,0.7749878379578364,635.2603263588254
3833.5403,0.7669791503043638,729.1714190957531
3834.4224,0.7612136279409217,849.3462949799396
3835.3064,0.7585110038955626,811.8588497305913
3836.1887,0.7589822045783327,845.0063151352861
3837.0713,0.762625944945793,646.333690132684
3837.956,0.7701497406992543,842.0872692243522
3838.839,0.7832446822775352,847.7358240217951
3839.7244,0.8039836465943274,871.1928565689332
3840.6077,0.8322726660953764,752.3649747555708
3841.4932,0.8636017620796533,796.536142827101
3842.377,0.8886630882089032,636.6206695859648
3843.261,0.8984991647568775,659.3327938861017
3844.1472,0.8905081646613126,724.9291656003065
3845.0315,0.8707548412972679,622.2754346268617
3845.9182,0.8493465472309383,733.8797043729681
3846.803,0.8339551003587755,607.4285177459897
3847.69,0.8262433107853828,588.7322070555931
3848.5752,0.8238778121217016,667.0055884323292
3849.4604,0.823953740315229,648.1416100674707
3850.3481,0.8251715716333159,652.8369765975779
3851.234,0.8276109931212958,706.4571072448681
3852.122,0.8315111396883168,602.1214440222911
3853.0083,0.8363798530837114,556.2998981954478
3853.8967,0.8411874406765594,701.3718091363132
3854.7832,0.8449397970530539,612.025091632615
3855.6702,0.8472316921937671,572.466207376217
3856.559,0.8481935123887796,521.1685657220326
3857.4463,0.8482182909471777,637.0773686008949
3858.336,0.8477124693720854,555.7188636856993
3859.2234,0.8469961753223754,617.418162950291
3860.1135,0.8463185118076322,582.5248507049625
3861.0015,0.845936002823456,653.5648120154206
3861.8896,0.8461343929538266,624.9291943836719
3862.7803,0.8471631403595643,658.5407891615271
3863.6687,0.8490194539305937,535.0112269543312
3864.5598,0.8512670610106228,577.0970223631914
3865.4487,0.852956563074635,543.6802065241088
3866.34,0.8528796288564846,558.5402218688913
3867.2297,0.8500107704779144,496.6914807922895
3868.1213,0.8440324261100379,608.591483520749
3869.0112,0.8356227457033674,705.4372127819828
3869.9014,0.8260952505781259,597.3189743670378
3870.7937,0.8168334027142292,642.9659197443988
3871.684,0.8089269954485846,557.0526700484243
3872.577,0.8029290571391653,784.1946553726489
3873.4678,0.7989994973411336,628.7354475780276
3874.361,0.7966941209482417,764.1632885419838
3875.2524,0.7950694632230898,877.633503003049
3876.1438,0.7930047442356032,492.93996573613754
3877.0376,0.7897011803468665,565.9794644267581
3877.9297,0.7848511915923922,721.441731180907
3878.8237,0.7783550243524544,566.9706243301512
3879.716,0.7702468810784724,575.5494137407323
3880.6108,0.7607075787528232,867.225797211157
3881.5037,0.7503180137352392,791.0203366663031
3882.3965,0.7397207114535282,731.6225226388717
3883.2917,0.7293975563622951,696.0903812123154
3884.185,0.7197100672887624,704.2458031528125
3885.0808,0.7108698390135937,1266.295752964881
3885.9746,0.7031932733574169,964.8686195928781
3886.8706,0.6968649496521969,1014.9872419364813
3887.765,0.6920711728185189,878.3081983591486
3888.6592,0.6890087778860642,1017.1369586608382
3889.556,0.6880038858259601,955.6108078006653
3890.4507,0.6894041270922482,998.1226760800179
3891.348,0.6933996785347182,872.0869117166429
3892.243,0.6998480981297666,958.116862215064
3893.1406,0.7082706317582983,875.1585371730964
3894.0361,0.717738608166898,795.278700420941
3894.932,0.7272168202001478,747.4305241808988
3895.83,0.7358149734385355,856.5069651723505
3896.7263,0.7430078259275682,764.7226845011991
3897.625,0.7488865150780504,1053.4345449201228
3898.5215,0.7539230843025381,985.1725103806683
3899.4207,0.7588430248076586,611.3269128706362
3900.3176,0.7642069459981398,855.7653225516111
3901.2148,0.7703013493630584,814.6124549191215
3902.1145,0.7771097861581433,727.1342592884157
3903.0122,0.7844603449780461,794.2277197945061
3903.912,0.7923707929838094,628.8736884535845
3904.8103,0.8009365732444513,631.4400224292248
3905.7107,0.8102417530924436,768.182028225405
3906.6094,0.8199562113985195,652.5811730244056
3907.508,0.82945826390133,584.2622840971019
3908.409,0.838026718042429,623.3388965410853
3909.308,0.8450993447614631,487.50055279668186
3910.2097,0.8505992667983748,512.6214935909496
3911.1091,0.8547857923458075,573.2353281366509
3912.011,0.8581537351815124,483.86381687494696
3912.9111,0.8611211286869497,711.2325000419872
3913.8113,0.8640376727656374,509.56470300008493
3914.7136,0.8672278506307101,555.5865827244959
3915.6143,0.870948667113889,560.5255448464092
3916.517,0.8752912049785241,564.326596522993
3917.4182,0.8800280514902153,561.5155106882858
3918.3215,0.8848141310565361,643.3856394224999
3919.223,0.88932155199194,650.8363218333512
3920.1245,0.8933778096617414,531.1833288444454
3921.0286,0.8968228802998452,555.8586820964952
3921.9307,0.899435836344245,531.9030348420149
3922.835,0.9010977869361962,606.5114108760978
3923.7373,0.9018491322548812,591.2159705117588
3924.642,0.9018393557883773,566.36942379316
3925.5452,0.9011388161361866,500.3892357213485
3926.448,0.8997285248939495,571.1192644052162
3927.3535,0.897672652053425,436.59121067547653
3928.257,0.8953047785308923,545.1060382416657
3929.1628,0.8931552034352404,529.2407277595648
3930.0667,0.891808660738111,564.5989668055223
3930.9731,0.8916435160252278,598.2599816531689
3931.8774,0.8925836704368136,587.0538319159266
3932.782,0.8938686578430581,500.4361010454606
3933.6887,0.8941739987168108,579.4298204547257
3934.5938,0.8922259134334654,430.1716126379246
3935.501,0.8875885322791791,492.2756836457178
3936.4062,0.8810689781891015,489.9353837533785
