wavl,flux,ivar
3566.9744,2.6224711271932515,89.47574658332363
3567.795,2.616799143452582,90.18654164593625
3568.6177,2.607975619921734,83.130422314287
3569.4385,2.5962161807216693,70.04735726348491
3570.2617,2.5831189704437203,95.64414699275028
3571.083,2.5716018100493976,73.72462573419602
3571.9065,2.5644538419505944,76.85319837835058
3572.7283,2.5630515853092044,75.40368038259679
3573.55,2.5665969996890072,71.51985570459752
3574.374,2.5728741440407923,74.04675421780347
3575.1963,2.5793041569836035,115.31515548155669
3576.0208,2.5838527356264547,86.20893222640095
3576.8435,2.5853468196470675,68.82784395006917
3577.6682,2.5838219063675543,73.16618518742669
3578.4915,2.580489558749142,76.34114664440534
3579.3145,2.5772106253738274,98.46409256240898
3580.14,2.5755932453615604,79.55862368798674
3580.9636,2.5761254957989603,68.0845072040474
3581.7893,2.577705950700605,74.09124141418908
3582.6133,2.5780825987130225,65.35820239806424
3583.4395,2.575256763147765,64.99273446445113
3584.264,2.569046613626057,73.32735035496331
3585.0884,2.5614071671322134,69.56739537904684
3585.915,2.555085145749735,85.71220017755583
3586.74,2.5517548484586454,78.05545458312201
3587.5671,2.551112033955521,76.42342209843771
3588.3923,2.551752168728806,83.22240018499072
3589.22,2.5525205262223363,69.66538517244605
3590.0457,2.5531579665643513,73.19647191117186
3590.8716,2.5540077845799156,74.15236727817874
3591.6995,2.5553504717340667,94.01488658321925
3592.526,2.5568670670908156,73.6773640101187
3593.3542,2.5574403279550695,76.3043591563858
3594.181,2.5554533088836395,72.96901483902448
3595.0098,2.5497554466198498,80.14027495721018
3595.8367,2.540801376563784,66.44131806540831
3596.6638,2.5306171958417463,87.46210171528475
3597.4934,2.5214038815058775,73.00455708773666
3598.3208,2.5138799436564834,87.4506186241026
3599.1506,2.506802580693699,86.63320588530314
3599.9788,2.498646972381063,77.93666113805062
3600.8088,2.489290851655457,80.56231639381063
3601.6372,2.480633176506661,81.04164074302156
3602.4678,2.4752199709918785,102.12262966337576
3603.2964,2.4745713854034848,72.8464651874788
3604.1252,2.4780916542707336,75.1664908604288
3604.9565,2.483552780117937,89.75815531087814
3605.786,2.4883132083280275,75.41864615195689
3606.6172,2.49068582072256,93.5069157258244
3607.447,2.490359197815517,89.8638844611059
3608.2788,2.488013703676949,77.61079172050613
3609.109,2.484478273966243,76.75343745253254
3609.9392,2.4802102407309286,84.71909857345396
3610.7717,2.4754599468608864,83.9868357412785
3611.6023,2.470661339225573,85.5152567729104
3612.435,2.4663064191638737,86.81553461645802
3613.266,2.4626504157233766,68.97668983531824
3614.0994,2.4594583835802073,87.62299683739991
3614.9307,2.4563900146995072,84.84239193901784
3615.7625,2.4533992805384996,85.71030183202711
3616.5962,2.4509042872824884,88.78026782176073
3617.4282,2.4495647053176106,73.61906584638244
3618.2625,2.449893673243727,68.78913595165612
3619.0947,2.4519259571463343,90.68756203365274
3619.9292,2.4549327956937925,85.72692898729325
3620.762,2.4573910580032825,83.14858355528699
3621.595,2.4575898463521137,77.20660294344
3622.4302,2.45455070579412,88.78530901154356
3623.2634,2.4488289841476187,80.53187978033593
3624.0989,2.4424183173408807,75.0039371079746
3624.9326,2.4379103775370363,81.06801243062216
3625.7686,2.437004639685646,88.34472424270247
3626.6028,2.4395448533186124,94.2063647507261
3627.437,2.4436015526416326,102.11717666178774
3628.2734,2.446767259317161,69.41983997998695
3629.1082,2.4475638756370612,90.0197616498207
3629.945,2.445973430368733,75.69946297427967
3630.78,2.4428540142341864,75.94990162378862
3631.6174,2.4391934262397243,78.12951176368807
3632.453,2.435921066499131,78.29469963021559
3633.2883,2.4337036606200524,72.38401875413453
3634.1262,2.43250633477314,87.54668267426976
3634.9622,2.4313199493942244,79.21985680264169
3635.8005,2.4288396754716675,94.1875586210252
3636.637,2.4247675266368707,95.58084027384248
3637.4756,2.4201844405816852,77.71804721514386
3638.3123,2.4166718830602805,77.38083373227245
3639.1492,2.414976784815967,79.03040937194919
3639.9885,2.4147209983952695,92.32745625323713
3640.826,2.4149491098642377,81.16909637791397
3641.6653,2.414798728383904,97.32287601449693
3642.5032,2.4138358244546243,80.98552457999317
3643.343,2.4120636748722077,75.12317982283061
3644.1812,2.4096791532573545,90.81129315047471
3645.0195,2.4066439873954195,86.1697142245026
3645.86,2.402577487369852,90.68721667067064
3646.699,2.3972326379415745,81.02468836288304
3647.5398,2.3909619943509766,81.38158355226538
3648.379,2.3847486216822875,83.08256536175648
3649.2202,2.379447518834429,101.60493853268089
3650.0596,2.3753337657789255,73.81853563528787
3650.8994,2.3720830575514023,101.97139984181159
3651.7412,2.369381965945563,100.05621151238506
3652.5813,2.3673769415369965,105.26465148650618
3653.4236,2.366476189250871,67.64632095848535
3654.2642,2.3666503252077473,97.59329279419528
3655.1067,2.36681777491328,82.205438717157
3655.9475,2.365218441500039,95.80418116953133
3656.7886,2.3607561095143614,94.7344559334853
3657.6318,2.354211310559126,85.41818643389776
3658.4734,2.34820601103476,77.92514199428263
3659.317,2.345523561021428,124.16344305467899
3660.1587,2.347375497506322,94.37279432980034
3661.003,2.35278697863103,82.43119452468547
3661.845,2.3594697079642293,107.68550783251096
3662.6875,2.365289524059797,93.75539576667576
3663.532,2.369051785305044,88.66031926203065
3664.3748,2.3707278092025814,88.06028342804403
3665.2197,2.3713475980715115,104.73939956848336
3666.063,2.3722374372176804,78.17576433330801
3666.9084,2.373773172623713,97.24189046115615
3667.752,2.3745611413216974,82.58971547655855
3668.5977,2.372261472369653,72.76515125541563
3669.4417,2.3656345698277144,79.19168557246944
3670.286,2.3559189370851903,84.44471905524983
3671.132,2.3461631518793653,88.94320979854106
3671.9768,2.3391586701984712,108.54674461185635
3672.8235,2.3356652149650494,89.61951382855031
3673.6685,2.3346735655483464,105.09633126167036
3674.5156,2.3347123534075807,87.084384817532
3675.3608,2.3349406445628746,79.4415947307506
3676.2063,2.3351948141517305,96.02460665390235
3677.0542,2.335541794662818,93.46263511538244
3677.9,2.336025635654996,102.86468276902178
3678.748,2.336735011237958,94.65616665681048
3679.5945,2.337844466993009,94.91184976522712
3680.4429,2.3394522565872093,109.38698566653005
3681.2896,2.3412687878851295,97.93495013459253
3682.1365,2.342540346015197,81.3816222071342
3682.9856,2.3422985209631118,89.45728294126418
3683.8328,2.339838809436708,88.50897747822184
3684.6824,2.334996658523373,134.29848119303782
3685.53,2.3281260091400098,87.69777024916894
3686.38,2.3197790005553673,87.93205911194806
3687.2278,2.3107985377232563,108.20884178098314
3688.0762,2.3023444579935872,82.5989002878483
3688.9265,2.295976835361722,111.94918442971652
3689.7751,2.2931949675768024,96.7840330854833
3690.626,2.2945308781982785,115.80521321721136
3691.475,2.2989982616937,102.49597719237792
3692.3264,2.304346455747554,101.85670495113663
3693.1758,2.308038958093467,84.07394400434714
3694.0254,2.308455893580424,81.62921246580798
3694.8772,2.3053251877651784,88.06176911142951
3695.7273,2.299571803034421,94.77479261627269
3696.5793,2.2926905779263813,93.18130717484182
3697.43,2.286188553625303,113.70421212735631
3698.2825,2.2809622642989944,91.17469476049739
3699.1333,2.2771964923849115,97.77990900060877
3699.9841,2.2745274530563226,88.8406309836676
3700.8374,2.2725665679878277,93.02193452507353
3701.6887,2.2712427432152187,87.24297282620242
3702.5425,2.2707721559670335,106.42269116247688
3703.3943,2.2714587279064093,86.2522648350236
3704.2483,2.273387342197427,90.77588658132572
3705.1003,2.2760907878647796,98.81843038138659
3705.9526,2.278407160151196,91.79750193655731
3706.8074,2.2787629500741633,102.22611694055114
3707.66,2.275993517997339,80.90213957660495
3708.515,2.2701089485702037,86.81755710519879
3709.3682,2.262418224023567,104.68348473761567
3710.2234,2.2546900832155123,106.80151324061535
3711.0771,2.248265334824293,104.83800353996808
3711.9307,2.2434024979701306,96.86820894612637
3712.7866,2.239548680189944,88.11328507603478
3713.6409,2.236140867676893,89.92451712719827
3714.4973,2.233283249255227,104.17892987370195
3715.3518,2.2319426019860384,98.13024171162981
3716.2085,2.2332387844645383,100.50059436598706
3717.0635,2.2374597755055943,119.03162403369971
3717.9185,2.2435504449461354,105.24595722269784
3718.776,2.249519650410955,129.35201015262584
3719.6313,2.2533121749501226,101.67335350307451
3720.489,2.25369982831788,94.65798880414684
3721.345,2.2505036469471467,102.88468370813946
3722.2031,2.2444921722389863,89.57627790836884
3723.0593,2.2371518121317293,101.91264012053118
3723.9158,2.23017806764941,116.1012034033271
3724.7747,2.224904423953764,104.49179432280042
3725.6316,2.221663139836013,118.4470859144609
3726.4905,2.219423887905642,78.92845178120464
3727.348,2.2164232190081785,110.02546889218095
3728.2073,2.211352480786857,94.31188490903139
3729.065,2.2044824283650652,104.04295803966323
3729.9229,2.197547394958272,104.69849526360395
3730.783,2.192539684073071,97.05361988394118
3731.6414,2.190249002356813,109.2238702932307
3732.5017,2.18962820814497,102.72424199518193
3733.3604,2.1886563258348417,100.4450226209447
3734.2214,2.185839569120284,96.35606023817923
3735.0803,2.181266452474499,110.66524879645783
3735.9417,2.1762643563078434,109.7446642367075
3736.8013,2.172267670763691,120.36359887571928
3737.661,2.1697323519187814,106.09502240202998
3738.5227,2.1681326155994958,105.45443623322188
3739.3828,2.1666826589078627,99.17700428798595
3740.245,2.165118725817606,93.71554534209783
3741.1055,2.164048578269524,98.2289095384071
3741.9683,2.164507207151049,100.91003196244233
3742.829,2.1670247343522724,98.9837101184128
3743.69,2.170876207580563,103.14981464211884
3744.5532,2.174263611700023,105.17053378415967
3745.4148,2.1753913232218562,96.89451517946496
3746.2786,2.1737256697760285,108.20264016837446
3747.1404,2.170225190205098,104.76555229583313
3748.0044,2.1663784874720666,125.1935506246089
3748.8667,2.163071300564311,105.04540218293566
3749.729,2.160227320677624,99.50062650964409
3750.5938,2.1575112845219837,110.25139735021901
3751.4565,2.1550715747330687,117.28586371960061
3752.3215,2.1534072597941885,102.87586262643819
3753.1848,2.15263716324428,96.71306330832425
3754.0503,2.1519362062917278,100.12803576247627
3754.9138,2.1499879233351686,88.76018057019289
3755.7776,2.1460385730839824,114.59191987171845
3756.6438,2.140521149133532,95.17874898361862
3757.508,2.134727203048652,124.01013319127401
3758.3745,2.1298393106898033,125.75377387724332
3759.239,2.1265984533256077,100.83853047416206
3760.106,2.1253761289187976,144.82684877416222
3760.971,2.126351325448547,113.61725704942332
3761.8362,2.129184521996605,126.47056059479527
3762.7036,2.132757467580225,109.34459223628751
3763.5693,2.1354335873550303,107.10726579521544
3764.437,2.1359653978862103,93.88070961842445
3765.3032,2.1342133143736164,98.76335553259369
3766.1714,2.1311931789851246,112.44288395282979
3767.0378,2.128392504478353,105.88939616175568
3767.9043,2.1268284903498866,106.85200456420867
3768.7732,2.1265989132202083,98.5449420288757
3769.6401,2.1270368670039312,100.16400452403242
3770.5095,2.127212200784224,112.75472826216347
3771.377,2.1263572611432333,112.83040741292963
3772.2466,2.124094911414875,103.43501157978663
3773.1145,2.120636444403439,100.42765855127068
3773.9824,2.1168163504702666,86.50554581496797
3774.8528,2.113749456437812,149.89272888511238
3775.721,2.1121673208838323,105.70528386842115
3776.5918,2.1119734434191217,114.29525207518186
3777.4604,2.1126303503589776,139.58469568039558
3778.3315,2.1138486218797796,113.60160106595109
3779.201,2.1158392879111285,128.77546344644225
3780.0703,2.118885955905585,91.9805587452737
3780.942,2.1226498229553274,102.47017436710239
3781.8118,2.125834768294337,114.08848101137875
3782.6838,2.126683145289725,106.90068674189527
3783.554,2.12394207802352,111.56211801814351
3784.4265,2.1177959452024147,113.7437925772561
3785.297,2.1100335357080877,127.08600201159065
3786.168,2.1030018524575036,112.28524988109608
3787.041,2.0982920310839694,114.16818109380971
3787.912,2.0960260544111766,106.56891212678966
3788.7856,2.095105285214471,118.6793398289181
3789.6572,2.0941586544011193,126.78325437416613
3790.531,2.092290386676501,104.78929668418594
3791.403,2.0894295205066076,117.55713163074124
3792.2754,2.086129167419803,128.07000434322129
3793.15,2.083088587965854,95.50172354291138
3794.0225,2.080810738390567,120.89910997118373
3794.8972,2.079626353487797,103.62043346849205
3795.7703,2.0799471196284243,122.51139922846636
3796.6455,2.0820054589494754,97.80728069839556
3797.519,2.085159919138288,115.83782545248835
3798.3926,2.0876169412896646,125.08821902474881
3799.2686,2.087188457952983,100.974007808116
3800.1426,2.0827928677244607,102.46329910260766
3801.0188,2.075456169467664,106.98932283598882
3801.8933,2.068018917128762,137.02870219458504
3802.77,2.0634519201506407,111.67467933743507
3803.6448,2.0631849148746215,116.35346933452344
3804.522,2.066220471328793,117.22728870426408
3805.3972,2.0698404468599634,107.2753343473162
3806.2727,2.071414377708616,131.99035778207232
3807.1504,2.069945115948714,114.60472028461709
3808.0261,2.0663464185145406,123.42916788637433
3808.9043,2.0623559315498317,127.33725695869585
3809.7805,2.0593588639926224,116.0882863126104
3810.659,2.0578873938013262,119.23727655669394
3811.5356,2.0579189939189884,113.50267858845729
3812.4126,2.0590808651065924,122.70347464896103
3813.2917,2.0606391043599372,106.95122318243388
3814.169,2.061505146825621,99.9954066013767
3815.0483,2.0605693974886483,119.1982477713434
3815.926,2.057120576015785,116.30971649676147
3816.806,2.0511226200463435,123.71623334718726
3817.684,2.043360100062492,111.87885378900553
3818.5623,2.0351590518294054,137.34529775100225
3819.4429,2.027884444563412,137.189636026511
3820.3215,2.0223869880867706,149.58662599953854
3821.2024,2.018632962721186,130.98493238411265
3822.0815,2.0161358359000867,135.31926919800117
3822.963,2.0144470877564102,120.20460207612706
3823.8423,2.0134792310524894,143.69943456525317
3824.722,2.013318630069422,127.76389247556354
3825.604,2.013976076294848,115.42012218470697
3826.4841,2.015283112330082,132.34659229262812
3827.3665,2.016952934687229,130.7591984982643
3828.2468,2.0185714981288445,154.7215242653374
3829.1296,2.0196321522077687,121.97657942853155
3830.0105,2.0196283972717493,125.03567998179625
3830.8916,2.0181999848303835,118.82904004923074
3831.7751,2.015076239361884,135.67986329113123
3832.6565,2.0100989759575385,112.4383909838943
3833.5403,2.0034556433153736,112.18244214193366
3834.4224,1.9961981331028582,113.61268301684673
3835.3064,1.9900207037543023,133.4855015233009
3836.1887,1.9865197021824843,120.72883149624526
3837.0713,1.9861893960290906,134.17853865677117
3837.956,1.9882808048756058,118.57861608841368
3838.839,1.9912954043359163,108.50759773514429
3839.7244,1.9937781878135294,119.26618433202096
3840.6077,1.994881633234648,135.64887685319425
3841.4932,1.9947232116919544,125.75265665293716
3842.377,1.994249936649808,116.81894363934182
3843.261,1.994610081678464,146.63776675074246
3844.1472,1.996350804389041,112.59353234581111
3845.0315,1.9990674172328988,140.97532755828223
3845.9182,2.0018943019589543,141.08107037706748
3846.803,2.004256490358394,111.44937784121481
3847.69,2.006237511150442,126.90447684767797
3848.5752,2.0080613985685396,130.97550206771893
3849.4604,2.0094325040731587,121.36463538080396
3850.3481,2.0094773781177317,126.66858442461657
3851.234,2.007549229364683,140.63002027515353
3852.122,2.004054786619761,123.4832776331182
3853.0083,2.0003952238539764,133.74138493407196
3853.8967,1.9978707349926998,132.10282633435665
3854.7832,1.996748309509823,147.1308950290694
3855.6702,1.996210555702246,114.57953912053907
3856.559,1.9952518691611523,138.34852956245246
3857.4463,1.993568383584503,122.54570216698501
3858.336,1.9917612097679354,129.740799787024
3859.2234,1.990869750351332,113.1695827630154
3860.1135,1.9915733697728282,129.21502707321272
3861.0015,1.9937379944679954,116.733008539942
3861.8896,1.9966428603709605,130.77959873888392
3862.7803,1.9996470447841577,109.9468752039872
3863.6687,2.002486231546702,128.7013652908675
3864.5598,2.00487940875174,140.60430822439378
3865.4487,2.0058202820506907,119.40438198291199
3866.34,2.0037484186750882,110.36937734841311
3867.2297,1.997574849584637,111.73865400966406
3868.1213,1.9875873718862618,105.6095586943486
3869.0112,1.9754716438054896,146.83753045438442
3869.9014,1.9632357610184976,125.74567301553995
3870.7937,1.9523727726352365,139.2889635848465
3871.684,1.9437159580299823,126.99277956611468
3872.577,1.9375350804831128,136.37460114779165
3873.4678,1.9338423038871246,137.84764022101015
3874.361,1.9320717207915614,117.50873094887618
3875.2524,1.9310655320248942,126.29882503531192
3876.1438,1.9295134465885082,138.3884157304017
3877.0376,1.926734741580149,134.7695801830755
3877.9297,1.922994114910445,117.9853376495289
3878.8237,1.918951586633803,132.6015860149511
3879.716,1.914910962165034,123.65890455129953
3880.6108,1.9103076812296709,117.17170771699152
3881.5037,1.9039839177342344,148.8856265840932
3882.3965,1.8948975634476342,145.1054082512822
3883.2917,1.8831577689200463,158.15633104248133
3884.185,1.8707174734099432,143.7628305862142
3885.0808,1.8606162843066496,154.75606871131745
3885.9746,1.855650513028543,145.23237400341392
3886.8706,1.8567331660758368,151.79321496510772
3887.765,1.8626085802484063,136.45065896489612
3888.6592,1.8706868296801902,151.42199028564127
3889.556,1.8784125240693843,126.96195844323937
3890.4507,1.8841153455259776,154.81930047824002
3891.348,1.8873447327536208,141.82860810251162
3892.243,1.8885415089698336,133.14682517291413
3893.1406,1.8887634457761684,135.98032976247168
3894.0361,1.8891545887428671,160.3740378210468
3894.932,1.8904020826957226,136.45356230700278
3895.83,1.8926014385901462,147.94905348366774
3896.7263,1.8957087893651352,152.431556780737
3897.625,1.9000946528865925,130.91179114589093
3898.5215,1.9063002975743697,148.2549178661895
3899.4207,1.9143959596661138,130.89490739625768
3900.3176,1.9234302087276605,158.8901307864011
3901.2148,1.93205362248109,138.78952538459333
3902.1145,1.9393617914677623,119.08780757750952
3903.0122,1.9452240026176646,130.56290204179797
3903.912,1.949937804897906,139.06029202131683
3904.8103,1.9535104819176157,116.62390539791191
3905.7107,1.955763687131059,113.40357237390846
3906.6094,1.9568550406807823,132.19172910189582
3907.508,1.957746620781962,134.70574628595503
3908.409,1.9599196125889211,126.77644354684764
3909.308,1.964515805774244,116.49971868517434
3910.2097,1.9716316173818906,145.22605277966758
3911.1091,1.980200775801814,145.5242955296573
3912.011,1.9887999132871435,115.59440700349045
3912.9111,1.9962075871423484,141.74123924268244
3913.8113,2.001776282208927,125.9245649426399
3914.7136,2.0052330594993695,124.00864459316635
3915.6143,2.0065742074554374,121.84150947130836
3916.517,2.0061088679633916,117.81998652715433
3917.4182,2.004323824097403,113.13855840021502
3918.3215,2.001695465548264,115.83527998337607
3919.223,1.9987135676504313,127.12234889234844
3920.1245,1.9959959818340018,116.20476556954317
3921.0286,1.9942406944308873,120.85609059610579
3921.9307,1.9938025918933882,116.60261364188065
3922.835,1.9942864469438977,118.55653934523733
3923.7373,1.9947038712885146,124.98548481836856
3924.642,1.9940517400509252,115.26231537402397
3925.5452,1.9917891892456838,135.67892319448646
3926.448,1.987907091091191,119.68708196792198
3927.3535,1.9827728313776471,122.16588957214204
3928.257,1.9770859470634998,129.45665939702783
3929.1628,1.9716080699217355,138.18540401965492
3930.0667,1.9668892842324135,133.98164960039455
3930.9731,1.9628493486661052,132.9667726248138
3931.8774,1.958963753173598,126.73201267296895
3932.782,1.9546854628872465,119.50863739322685
3933.6887,1.949976424039364,141.0031064445664
3934.5938,1.9454129545848065,129.99716011237655
3935.501,1.9416894451203008,122.36914247586674
