wavl,flux,ivar
3566.9744,0.5556713723930073,1425.0400914963536
3567.795,0.5541868754744788,1008.3279214211126
3568.6177,0.5529882466035623,1149.389931333629
3569.4385,0.5519586638741332,1259.1589770392725
3570.2617,0.5509473357061213,1186.8099454143394
3571.083,0.5499620012864378,1001.1362411159303
3571.9065,0.5491951672531902,2315.0776613704866
3572.7283,0.5488484764636409,1710.2082112468252
3573.55,0.5489246635581526,542.0155186650421
3574.374,0.5493145724851771,1750.3711573179448
3575.1963,0.5499959771940902,1854.4965735607634
3576.0208,0.5510229148045477,1501.6313255890057
3576.8435,0.5522962987947112,1277.7072451162503
3577.6682,0.5535888045659515,1303.1068086558773
3578.4915,0.5548987724355103,1444.9648154224885
3579.3145,0.5567056057189238,2392.3788715112473
3580.14,0.5594999199076375,982.2765727821388
3580.9636,0.5628402814594782,2133.0822949872277
3581.7893,0.5651467996223488,702.9166636152607
3582.6133,0.5647401344521833,664.7514722249018
3583.4395,0.5614034801442164,2100.2526331858626
3584.264,0.5567255172363701,2612.272497957607
3585.0884,0.5527338940712156,1105.9447945400254
3585.915,0.5503110009973171,1380.346666353135
3586.74,0.5488796072627311,1333.568281181526
3587.5671,0.5473429316210833,1001.0651204654129
3588.3923,0.5451995729701159,1637.5972428261225
3589.22,0.5427494829141847,2086.4384871670222
3590.0457,0.5407105819315634,934.7355674430694
3590.8716,0.53974377889591,1425.0340422999534
3591.6995,0.5403211719664336,1448.8886540838073
3592.526,0.5426188686972903,1538.0324805695736
3593.3542,0.5463623130234762,1233.292926499816
3594.181,0.5507216560711133,1664.853519436255
3595.0098,0.554638765820188,872.5980997937659
3595.8367,0.5572465656158024,1264.9530545894002
3596.6638,0.5582613575822295,1669.9642279427012
3597.4934,0.5579024761004808,1135.409784362009
3598.3208,0.5567204013200546,1099.8318789550508
3599.1506,0.5554270748643844,1250.650867895754
3599.9788,0.5546539919907267,1637.3487271094627
3600.8088,0.5544764279026213,1610.2277046581007
3601.6372,0.5541550810852374,1786.256643533482
3602.4678,0.5525327753857522,1845.9006116175367
3603.2964,0.5490091509045097,1746.880028976796
3604.1252,0.5442338387801161,1668.1262791052918
3604.9565,0.5399049637961177,1263.4382789035697
3605.786,0.5377450670250393,1372.0927293257816
3606.6172,0.5382735158153019,1317.6718528584083
3607.447,0.5405169665571502,1840.603942498477
3608.2788,0.5427865261755621,881.151793427269
3609.109,0.5438682640199649,933.8971330419489
3609.9392,0.5436669486559731,1377.264503138945
3610.7717,0.5428253244974565,1606.314280308846
3611.6023,0.5420091833887623,2367.3523620447663
3612.435,0.5415584032781611,1331.4960303898142
3613.266,0.5416843214555428,2085.481570226432
3614.0994,0.5426649081022119,1378.7243156350335
3614.9307,0.5446774861089987,958.199539050682
3615.7625,0.5474826084750737,1254.6847792529543
3616.5962,0.5503361261816287,1306.1269446036174
3617.4282,0.5522394512349919,1419.4850456421186
3618.2625,0.5523811138305835,1202.0127580867559
3619.0947,0.5504359228680349,1301.3097909189144
3619.9292,0.5467123251519652,998.4960167656992
3620.762,0.5420385138939526,1068.8832906699806
3621.595,0.5372170275755744,1419.3086541754215
3622.4302,0.5325312233352271,1149.062053663255
3623.2634,0.5278399046965839,1842.5065151730032
3624.0989,0.5232483302106458,855.7145547225211
3624.9326,0.5198767901140151,961.8145211872294
3625.7686,0.5195060176255984,1713.453327919001
3626.6028,0.5234834510729057,1763.221580980838
3627.437,0.5316877429675188,1142.7228397012248
3628.2734,0.5424746081768803,1533.1725679931128
3629.1082,0.553314963313276,1314.0548164431366
3629.945,0.5620648991686236,1770.2709506311576
3630.78,0.5676591526810458,1473.4781192606674
3631.6174,0.5705297519043924,1122.876375289505
3632.453,0.5720382595651524,1642.2369908984278
3633.2883,0.5736761077347039,1431.5218893338351
3634.1262,0.5762597754749604,1779.8559836747036
3634.9622,0.5795714946055849,1435.8901839098432
3635.8005,0.5825684451715335,1082.0759286100988
3636.637,0.58383791899723,1118.294995367244
3637.4756,0.5823005404059436,2377.8777655394115
3638.3123,0.5777630222599748,892.3734472283013
3639.1492,0.5711500107753479,1669.7152881727457
3639.9885,0.5642459299379672,1063.684781054696
3640.826,0.559042963561188,1189.9811398469126
3641.6653,0.5567650308282953,1622.7066507468587
3642.5032,0.5575001542678558,1364.527251822771
3643.343,0.5604117806303625,1214.9209437897664
3644.1812,0.5644197087507905,1257.1514443986384
3645.0195,0.568727826317514,1342.1764698091438
3645.86,0.5727797844054855,1437.4954397479353
3646.699,0.5759848183213041,1052.2609823614646
3647.5398,0.5778067566623115,1042.793581724203
3648.379,0.5779934543822138,2078.8613689724725
3649.2202,0.5766874926947335,1432.9543324184751
3650.0596,0.5741283437450919,1214.273566713119
3650.8994,0.5703602200334386,1296.7678310848594
3651.7412,0.5653960151098602,1631.6090020034433
3652.5813,0.5596903081759406,865.9385131808006
3653.4236,0.5541993705597542,1424.4016232658955
3654.2642,0.5500751487234337,1362.8507392917368
3655.1067,0.5480307901611359,1669.1196481597867
3655.9475,0.548274407303343,1840.655576579551
3656.7886,0.5507325066331631,1684.44268411564
3657.6318,0.555194917645153,1635.317344732791
3658.4734,0.5609522458316133,1714.6508689577
3659.317,0.5666430451906525,981.2439270153538
3660.1587,0.5706595578129409,986.9766446055162
3661.003,0.5722243259246559,994.3922714281437
3661.845,0.5718284368462446,1318.6020320294153
3662.6875,0.5707155615848236,1115.2390472334316
3663.532,0.5698246577964126,1179.2587368811369
3664.3748,0.569297892144844,1929.6559783705047
3665.2197,0.5688003940866456,1481.2943594170943
3666.063,0.5681546673472054,1486.9486494929438
3666.9084,0.5675787948516234,836.8960083984048
3667.752,0.5674108999057055,1117.5146671087034
3668.5977,0.5676080683926791,1026.7395880525476
3669.4417,0.5675321032983406,1516.9278296434456
3670.286,0.5662666999998679,995.2981537563854
3671.132,0.5632501577156847,1024.3060117954217
3671.9768,0.5587768402494895,894.1204203754527
3672.8235,0.5539259561419995,1189.1752662451245
3673.6685,0.5501579811558724,1707.1314121816636
3674.5156,0.5485867657125115,1259.6422737058904
3675.3608,0.5494723095035101,1800.2463020539963
3676.2063,0.5520655736198873,791.4979651461272
3677.0542,0.5551424458669524,1816.8519759606095
3677.9,0.5577982414901086,1220.6740618827444
3678.748,0.5600226345486865,1264.6699611208298
3679.5945,0.5624236096952314,1308.7143612325788
3680.4429,0.5655238857764898,2153.912828253383
3681.2896,0.5690297545111702,1533.4718098242183
3682.1365,0.571780697810415,1382.4107000526205
3682.9856,0.5723249698011161,1258.6923846514344
3683.8328,0.569895885606538,1508.665369763989
3684.6824,0.5650919610737397,756.1747926413061
3685.53,0.5597411936980953,1577.283532566947
3686.38,0.5557724881054456,2005.4394872305356
3687.2278,0.5541553952279369,1217.9054391630518
3688.0762,0.5544994700886654,1258.4461501896344
3688.9265,0.5557146397528776,3398.015317981266
3689.7751,0.5567928235070467,1368.2246043998894
3690.626,0.5571206647279369,1746.1880613400633
3691.475,0.5563017310518443,1224.3568929853266
3692.3264,0.5540836635872999,991.9712969033712
3693.1758,0.5506571761812252,868.7642717510175
3694.0254,0.5469411499778573,1271.0324383026002
3694.8772,0.5444585771245412,1490.6496987034222
3695.7273,0.5446291167506474,2262.259497725707
3696.5793,0.5478710038409998,1937.9545209345063
3697.43,0.5532456633682202,1870.1789787093435
3698.2825,0.5589729816547991,1367.2198509061586
3699.1333,0.5633303048539514,1100.0192599302834
3699.9841,0.5655182100083419,1100.3234792623084
3700.8374,0.5657501668051819,1516.6111248334103
3701.6887,0.564820654325334,1240.9920900862335
3702.5425,0.5634705689889681,1269.3324412217162
3703.3943,0.5619897855924528,1735.0885174249186
3704.2483,0.560232944304623,1147.3184484882995
3705.1003,0.5580642689180104,1125.8131367702933
3705.9526,0.5557562738759171,1202.1946324755027
3706.8074,0.5540371916687516,1136.4322371525113
3707.66,0.5536718772288332,1576.1903286835657
3708.515,0.5549064849908018,987.2780648316775
3709.3682,0.5573008861124344,970.9858961651295
3710.2234,0.5600137718824744,1286.1432191817846
3711.0771,0.5621867278487438,1096.210752402646
3711.9307,0.5632510633462273,1599.58411311896
3712.7866,0.5630094460571955,984.3312232067551
3713.6409,0.5616607403586057,1186.9190754256902
3714.4973,0.5596818577165905,1006.2205231316266
3715.3518,0.5575787425112881,1692.947039783005
3716.2085,0.5555910333013979,2042.170316903876
3717.0635,0.5537041617767434,1831.6175893074537
3717.9185,0.5518736270993796,1094.4019345347413
3718.776,0.5503682306534606,1107.5573939374144
3719.6313,0.5498404714334076,880.0879998777473
3720.489,0.5508916780566793,1248.057075782959
3721.345,0.5534602877960566,1415.3327672643543
3722.2031,0.5566360296648307,1515.7626885513423
3723.0593,0.5591094626090681,1323.6690176712707
3723.9158,0.5599779156538918,1865.260473283399
3724.7747,0.5591266074940763,1216.3233577925253
3725.6316,0.5571829721828027,1123.564655463825
3726.4905,0.5551466423958374,1346.317574974051
3727.348,0.5539540328863486,1836.05037731243
3728.2073,0.5540102189748558,1313.4891596586083
3729.065,0.5549545093716582,1302.4002406265208
3729.9229,0.5557682024069834,1540.9017125514142
3730.783,0.5552487349238493,2325.7928814449742
3731.6414,0.5526746220838696,1163.8092463819005
3732.5017,0.5482544373668629,1256.4872668033915
3733.3604,0.543085683891216,1479.9938182313506
3734.2214,0.5385107214142844,1247.916379047363
3735.0803,0.5356186379644227,1232.8896024964101
3735.9417,0.5349569906690225,1126.5653246936845
3736.8013,0.5366220833535386,1201.339783704641
3737.661,0.5401626841571862,1246.298680317856
3738.5227,0.5444799328934685,1468.7378292334272
3739.3828,0.5479929871455611,1212.41430894739
3740.245,0.549383344539264,1031.9319357501984
3741.1055,0.5482452317907041,1515.431842444009
3741.9683,0.5452876792056396,1001.9607699344053
3742.829,0.5419573910973904,1221.4049749468288
3743.69,0.5397620965214838,1459.05150862193
3744.5532,0.5396944102438069,1665.6036912985257
3745.4148,0.5417803386508546,1466.287081090592
3746.2786,0.5450169601791008,1462.957259910622
3747.1404,0.5478508453622102,985.5707604724292
3748.0044,0.5490950319413476,1225.2393217792246
3748.8667,0.5485444115521649,1087.2684930278908
3749.729,0.5470351928720595,1274.978188935266
3750.5938,0.5458893874768488,1352.5406239870927
3751.4565,0.5461835359175601,1488.738492491406
3752.3215,0.5481768299568899,1142.3332688220294
3753.1848,0.5512591067655073,1055.527269351558
3754.0503,0.5544672825738395,1493.6515244991715
3754.9138,0.5570618578335056,1412.9654613587268
3755.7776,0.5588284922714396,1352.4231850432152
3756.6438,0.5597943904823659,1178.7939500176308
3757.508,0.5598442859356352,1864.0046839898225
3758.3745,0.5586750949104696,1177.0122786852614
3759.239,0.5561340424774873,1871.122203558863
3760.106,0.5525242413321144,851.9246371133355
3760.971,0.5485825701876916,1126.0445345761777
3761.8362,0.5450284435902865,1769.4784228332494
3762.7036,0.5423095366550622,1297.8808542320278
3763.5693,0.5406618814028443,1124.845596336684
3764.437,0.540202852935968,2036.7828305750577
3765.3032,0.5408564697020452,1733.6356023268702
3766.1714,0.542118367669376,1871.5464153639937
3767.0378,0.5430935178815538,1466.1301721816924
3767.9043,0.5429363340105743,1297.5554609467624
3768.7732,0.5413069414292936,1372.8912812651788
3769.6401,0.5385578467396624,1170.4006970819648
3770.5095,0.5355037861887156,1655.5630464975518
3771.377,0.5330833894486392,1980.2000534364645
3772.2466,0.5319244229908932,1095.2434913844988
3773.1145,0.5321288310484615,1485.1449841612923
3773.9824,0.5332107664366867,1481.184778621556
3774.8528,0.5343319052798386,720.1121959057191
3775.721,0.5346929314507899,1001.308275188153
3776.5918,0.5339654905934522,1460.7602458285692
3777.4604,0.5324869237650414,1252.9621702669338
3778.3315,0.5310898262936787,1338.5726122816366
3779.201,0.5306285815707639,1823.5632915464462
3780.0703,0.531371950488411,1090.6378520823548
3780.942,0.5327888387783666,1238.2146739770608
3781.8118,0.5339412272331349,1376.0809806249522
3782.6838,0.5342826089463881,975.9477215277516
3783.554,0.5340785592529235,1352.4161492259414
3784.4265,0.5341055941608456,1389.318203965509
3785.297,0.5349276563792436,1462.9787355473868
3786.168,0.5364337449991161,1988.1261452609565
3787.041,0.5379909961612871,1279.946727519093
3787.912,0.5389881637070849,871.1042668585942
3788.7856,0.5392876873931501,1204.442036939114
3789.6572,0.5391104112027625,1268.95818413245
3790.531,0.5385940376824195,949.2739173956835
3791.403,0.5375590957951378,1154.2863501626384
3792.2754,0.5357488430101969,1148.9376452596157
3793.15,0.5332008680615223,1463.6797336518193
3794.0225,0.5302945443482519,1625.2177236538914
3794.8972,0.5273811671567328,1345.6958346577755
3795.7703,0.5246096132557923,1072.7803791989172
3796.6455,0.5220294820578539,1601.0974031804983
3797.519,0.5199083084443066,1953.8438212362023
3798.3926,0.5186273139814226,1725.0167193210236
3799.2686,0.5183150465038356,1581.3785750021123
3800.1426,0.5186229471826588,1263.2237611869523
3801.0188,0.5190225950818856,1451.1968991808594
3801.8933,0.5193502529597016,1882.09328827155
3802.77,0.5200031725735965,1290.4306267994905
3803.6448,0.5215566730030873,3758.450833475669
3804.522,0.5242192296405392,1013.7036676186896
3805.3972,0.5275468201756617,1395.6282623249447
3806.2727,0.5307391597607867,1780.106585851508
3807.1504,0.5332139231915631,889.3744939832114
3808.0261,0.5351011143676009,1416.5031855745267
3808.9043,0.5372258004432415,1124.3077290876881
3809.7805,0.540355883637846,898.6301478762333
3810.659,0.5444831667894376,1167.2948641325866
3811.5356,0.5487050019725569,1272.542709488514
3812.4126,0.5520164635697252,2111.131915393561
3813.2917,0.5540721434965475,1108.6083378088965
3814.169,0.5552977732121379,1451.827457310541
3815.0483,0.5563455329209248,1183.8924395223253
3815.926,0.557395347343063,1800.003433748093
3816.806,0.5579894404723718,1084.9154978020317
3817.684,0.5574195016510054,940.127231866961
3818.5623,0.5553480456728537,1051.4250086097923
3819.4429,0.5520822045666,1278.6201809133336
3820.3215,0.5484044837453278,1561.4276677937407
3821.2024,0.5450914789990524,1391.5563691016503
3822.0815,0.5427122972371836,1674.9338625757173
3822.963,0.5415195989683698,1625.5569394581787
3823.8423,0.5414568941976668,1541.1399766338345
3824.722,0.5420727841469225,1032.8958819566724
3825.604,0.5425870227575971,1593.195942468822
3826.4841,0.5421458978783583,791.6039189880289
3827.3665,0.5401796770064794,1173.6176280870905
3828.2468,0.5365875957189085,1585.0017253551937
3829.1296,0.5315322221930526,1090.618910709163
3830.0105,0.5251847446438074,1671.089098566728
3830.8916,0.5175615373089115,1075.249114347334
3831.7751,0.5088823850214536,1495.7561883046403
3832.6565,0.5000573932571206,1336.77206271687
3833.5403,0.4924372381355787,1785.2932295596495
3834.4224,0.48726962484733843,1431.9092386467332
3835.3064,0.484821659516494,1533.6249444282057
3836.1887,0.48441841954989273,1889.043458486792
3837.0713,0.48512148276408384,2140.974278797753
3837.956,0.48658737525189427,1960.3372090320986
3838.839,0.4892286395877429,2141.163192859527
3839.7244,0.49367193412254523,2207.2655463606857
3840.6077,0.499968353025647,1040.5271232847165
3841.4932,0.5074741708699697,1218.4016115385214
3842.377,0.5152328126474565,1429.7264619255068
3843.261,0.5227820256765974,1182.054092547915
3844.1472,0.5303275576687728,2114.7024800910503
3845.0315,0.5382146630693379,1388.1760768450458
3845.9182,0.5463572934495367,1362.683268049594
3846.803,0.5538786385630698,1518.501256722575
3847.69,0.5597487581111926,911.8145862338599
3848.5752,0.5633625451945651,792.5935864073315
3849.4604,0.5649879749965804,1019.6777608281351
3850.3481,0.565525330564514,1640.727980107506
3851.234,0.5660220848848718,1120.9221032544624
3852.122,0.5672056450037568,956.8859880049822
3853.0083,0.569246641571608,879.2004316431013
3853.8967,0.5718976732358556,1102.8535718346832
3854.7832,0.5747595428574916,1220.4042053732426
3855.6702,0.5775602428543853,939.0277761302582
3856.559,0.580186518695684,1023.5698739615888
3857.4463,0.5826324245699456,1116.4723685196016
3858.336,0.5850042246382524,1201.8668945924126
3859.2234,0.5874044781719843,1092.821139542148
3860.1135,0.589821720087575,1036.5641385588876
3861.0015,0.5919582944686395,1234.6946398966006
3861.8896,0.5933871880328662,869.3295177571247
3862.7803,0.5938105660883947,1260.4420844094298
3863.6687,0.5932415832997759,1084.7691832078851
3864.5598,0.5919118381329367,1102.649971196678
3865.4487,0.5900780923607075,1359.3471686339826
3866.34,0.5879218311462068,1327.4522036906094
3867.2297,0.585653486354881,1168.790031414059
3868.1213,0.5835018413595191,1895.3049076007064
3869.0112,0.5815885719692255,1448.5898607748536
3869.9014,0.5796424710797973,1158.4353387373947
3870.7937,0.5769632515798181,883.5113159142225
3871.684,0.5728027403477264,1063.9942018038018
3872.577,0.5668617842772431,1849.2485506735038
3873.4678,0.5596056370159551,1586.576769394691
3874.361,0.5518188231927253,1415.0320429766077
3875.2524,0.5441664274167046,1485.668786917333
3876.1438,0.5367674663637364,966.8936656457887
3877.0376,0.5293624435728265,1351.2777033737752
3877.9297,0.5216345634058908,2252.8989593199412
3878.8237,0.5132597588521254,1473.4976974039062
3879.716,0.5041511592281442,1417.1712004232113
3880.6108,0.49445162408234355,1242.8387306787674
3881.5037,0.48473741784619245,1676.0563450424872
3882.3965,0.4756063900961361,2298.1071917579643
3883.2917,0.46729985289117093,2408.2247120705406
3884.185,0.4595240467230728,1747.3808992916954
3885.0808,0.45157658899811864,2414.5957530612995
3885.9746,0.44313525917094204,1948.9500439638637
3886.8706,0.4345574626375957,2189.1434317882868
3887.765,0.42693703916845016,2079.4015639177637
3888.6592,0.42147655263296485,2208.246694281929
3889.556,0.41911499936648317,1736.4829811479967
3890.4507,0.42035844498985175,3269.301281353669
3891.348,0.425222326026196,2092.9522076616345
3892.243,0.4331606427196263,1888.1119157642804
3893.1406,0.443204384228449,24140.17914335602
3894.0361,0.4540790754276735,2212.609256802128
3894.932,0.4648158608986993,1991.146698919175
3895.83,0.4749431444005127,1992.0223641117514
3896.7263,0.4843004691772082,1917.3055100310228
3897.625,0.4928790052223049,1532.431006428821
3898.5215,0.5005206836060178,2113.2592215126815
3899.4207,0.5073380646150796,1056.7141723355273
3900.3176,0.5138110202713699,1478.0799794243042
3901.2148,0.5207766629513163,1547.5724656883297
3902.1145,0.5288352361831904,1032.9483990627582
3903.0122,0.5378121788825353,1451.0452150117155
3903.912,0.5469632223215303,1496.0661212456414
3904.8103,0.555430728337807,1272.1950377426708
3905.7107,0.5629969050600644,1463.1785501098916
3906.6094,0.5699397248406028,882.9944060885751
3907.508,0.5765936897285412,1532.048398122143
3908.409,0.5828403640150787,1382.268417363403
3909.308,0.5882140808332412,826.6264903983227
3910.2097,0.5925633874803226,956.6779119056774
3911.1091,0.596309792847159,1312.621717183935
3912.011,0.6003155860040401,1233.1699573464189
3912.9111,0.6052226760557244,1587.3790260649246
3913.8113,0.6110810435780331,1177.3412720394824
3914.7136,0.6173429756410581,1135.1849994068712
3915.6143,0.6232203943220849,997.5381736106974
3916.517,0.6282845660236818,990.6819828676503
3917.4182,0.6326135813516723,889.5441410126612
3918.3215,0.6366988740651798,818.7996077116429
3919.223,0.6409177701859657,1223.4663847541701
3920.1245,0.6452369121938898,862.5536527468572
3921.0286,0.6491520496752263,906.6060836535203
3921.9307,0.6519406417418604,1008.2918599629508
3922.835,0.6531004159115178,940.6112619806818
3923.7373,0.6525889608882395,1035.2260564969754
3924.642,0.6509717160961069,741.7637920064857
3925.5452,0.6493232490372223,1051.5221790665164
3926.448,0.6487793408038135,1268.2616590372902
3927.3535,0.6499358633874517,929.9356301512541
3928.257,0.6524553927125744,1004.5086223904536
3929.1628,0.655297147656278,1032.9324729301368
3930.0667,0.6573121380489557,910.4220457316565
3930.9731,0.657828019806396,979.5322687513977
