wavl,flux,ivar
3566.9744,9.277867864112261,1.899561275706385
3567.795,9.224845521488072,1.5704772011827415
3568.6177,9.169456773586859,1.7740361963858897
3569.4385,9.128725785777291,1.7465817195450684
3570.2617,9.109647487264974,2.248192038406458
3571.083,9.10708846497411,1.7324956204989537
3571.9065,9.10948029696786,1.8821198358874005
3572.7283,9.108202679842748,1.7466992733942368
3573.55,9.10193336184833,1.7955566536303165
3574.374,9.093802303287807,2.0083589483022704
3575.1963,9.085793442779032,1.762219391980454
3576.0208,9.075737606848458,2.011910188795835
3576.8435,9.059294210474775,2.0189757321346495
3577.6682,9.033279235385194,1.8032716846326762
3578.4915,8.997432801791923,2.1667449359885578
3579.3145,8.952977252124663,2.215429980819065
3580.14,8.901706449890389,1.6757042039864898
3580.9636,8.848173482487926,2.6006139049829984
3581.7893,8.801592940481953,1.8948755061062788
3582.6133,8.776875696823721,2.271760912698656
3583.4395,8.788693963292143,1.6694530909592376
3584.264,8.842389816963399,2.5266097512089405
3585.0884,8.926871016351166,2.1955875658337103
3585.915,9.017498202454739,2.248672434226715
3586.74,9.08772132985517,1.7679041906581479
3587.5671,9.123986562591169,1.694667270313833
3588.3923,9.128557256494199,2.2528262427884487
3589.22,9.113238272696767,2.6804931487357955
3590.0457,9.088650891040276,2.479096599050039
3590.8716,9.058355573917579,1.9346141918016797
3591.6995,9.020649722789138,2.3213994187616
3592.526,8.974753563519302,1.6453366415501227
3593.3542,8.924579347017923,2.152080593742426
3594.181,8.878598314832741,2.2474909956629814
3595.0098,8.84380539644874,2.5179458236021097
3595.8367,8.821264497275495,2.889475097573014
3596.6638,8.804315053763608,1.6157583151289923
3597.4934,8.782665930847982,2.374712265313609
3598.3208,8.748668718296518,1.638074930460919
3599.1506,8.701342603506312,1.7026568792469474
3599.9788,8.647414220978144,2.197827029349336
3600.8088,8.597249423584731,3.101389179290074
3601.6372,8.561872021195217,2.350680718701341
3602.4678,8.549604259088776,2.109826720673141
3603.2964,8.564930812114762,2.1413756002926863
3604.1252,8.606715673753902,2.3740944870374503
3604.9565,8.668054710860387,2.177845532196247
3605.786,8.73682408937196,2.1858655552963464
3606.6172,8.799503044620062,2.1033191351737694
3607.447,8.843229487500148,1.3421774065253502
3608.2788,8.860074444491069,2.249669801323413
3609.109,8.849005184559937,2.0522594412999955
3609.9392,8.81644617732421,1.8006758257291238
3610.7717,8.773160855172383,2.4354903689689786
3611.6023,8.730260629910527,2.1716576744619798
3612.435,8.694146657429698,2.767274802763307
3613.266,8.665137125301992,1.887986417056729
3614.0994,8.638200981735045,1.809973831262222
3614.9307,8.607937379075226,2.018360746638761
3615.7625,8.572240294071667,2.028600324264544
3616.5962,8.533446533483893,2.339361027044874
3617.4282,8.496206015093158,1.9975653393190396
3618.2625,8.463586745511554,2.3796658156843997
3619.0947,8.435953115200652,2.0817663759227005
3619.9292,8.410918161612907,2.217206185366336
3620.762,8.385925908702292,2.7973577714170528
3621.595,8.359746814295846,3.0964272356985334
3622.4302,8.333734198294424,2.8291932498439407
3623.2634,8.311838899338143,2.0146153269491873
3624.0989,8.29801849760166,2.6186292988585818
3624.9326,8.292918284074085,2.3598286344907646
3625.7686,8.291553479367021,2.1643823836688374
3626.6028,8.286177840004735,2.91112759925657
3627.437,8.272152647911193,2.6434697030563292
3628.2734,8.25130799386502,2.2078148894876177
3629.1082,8.229593299084392,2.64495414965295
3629.945,8.210658312622703,2.8087906908748264
3630.78,8.19246286730511,2.4388237129690227
3631.6174,8.168854260485302,2.7887092735196566
3632.453,8.135823157489813,2.009031812300202
3633.2883,8.095316381138094,2.3316572607720714
3634.1262,8.053883434833756,3.203344319123314
3634.9622,8.01749773052798,2.430882063703334
3635.8005,7.986911050933009,1.8763005878604084
3636.637,7.960166443809128,3.836328000308554
3637.4756,7.936752459470818,2.4316089127876843
3638.3123,7.919897359626884,2.570679837545302
3639.1492,7.912539922287543,2.8554763448689906
3639.9885,7.9128671013469205,2.7965188277451256
3640.826,7.913952664361855,1.8535187933589132
3641.6653,7.908234089431605,2.53682548173658
3642.5032,7.891894833412508,2.2921318265851847
3643.343,7.865407415762618,2.2484225712900856
3644.1812,7.832213008978491,2.489977714499574
3645.0195,7.79707834157477,2.279373526746741
3645.86,7.765369110129787,2.7617598320700285
3646.699,7.741915518021752,2.599664287666573
3647.5398,7.729091429639522,2.5417713885636126
3648.379,7.726488449943003,3.089472566520226
3649.2202,7.730781599260143,2.998405933608696
3650.0596,7.736928866181051,3.312039290130059
3650.8994,7.740619580317804,2.242123053127628
3651.7412,7.740617890002277,2.808076386001294
3652.5813,7.738743506710437,2.705038740534387
3653.4236,7.736754241271249,2.2893934648060323
3654.2642,7.733065111145667,2.7697655689707337
3655.1067,7.722810786233997,2.474244042161411
3655.9475,7.7015467457476765,3.2247823133933626
3656.7886,7.668635044234196,2.3745386453184407
3657.6318,7.627990546812657,2.907574450252476
3658.4734,7.587293201198842,2.6464587370211796
3659.317,7.555886965541017,2.705003808325788
3660.1587,7.543070771090471,2.8551691416042475
3661.003,7.553434325588897,2.553990378055008
3661.845,7.583004083207246,2.0518401363420726
3662.6875,7.619869190666824,2.182484848439793
3663.532,7.650329080075994,3.219256384384527
3664.3748,7.666145398035215,3.046106676630495
3665.2197,7.667525165207389,2.6850733427705067
3666.063,7.658967680262209,2.666461491348426
3666.9084,7.643884213344383,2.528799602927056
3667.752,7.62373149228559,3.2975374501074493
3668.5977,7.601287565558216,3.410590389257708
3669.4417,7.583127046491997,2.6080817167502484
3670.286,7.57562786197971,2.885444563252579
3671.132,7.579015719945094,3.6841125271737174
3671.9768,7.585406254931157,2.199938292600462
3672.8235,7.583834032366024,3.115377140003771
3673.6685,7.5677179232104494,3.5384831891096047
3674.5156,7.538521176970373,2.9200422629935283
3675.3608,7.503885764958069,2.5620244298142127
3676.2063,7.471743558610084,3.8499929287362855
3677.0542,7.4463220309851375,2.466551641836696
3677.9,7.4277590847746895,2.5850392366099118
3678.748,7.413654077083104,2.389002768603815
3679.5945,7.401261723467991,3.1927191148968035
3680.4429,7.387657265346295,2.849899336240407
3681.2896,7.37060428647568,2.899711215550966
3682.1365,7.350040407675093,2.7984433655278718
3682.9856,7.3292548131379744,3.3426248358436776
3683.8328,7.313417251393494,3.8191167554007754
3684.6824,7.305578416494397,3.8453248219283145
3685.53,7.304332369031933,3.2511140952199398
3686.38,7.3040315046517135,1.8967352425723227
3687.2278,7.297657239662304,3.100256256651578
3688.0762,7.280408286444342,2.996452906222174
3688.9265,7.25282761738133,3.390775602954264
3689.7751,7.222400416188565,2.9520329631470816
3690.626,7.200895760172865,2.5730706762677173
3691.475,7.19870780904211,3.275395079379534
3692.3264,7.217581870924337,3.8412286056979954
3693.1758,7.247980423245912,2.982311387224088
3694.0254,7.274344272273075,2.928610306659652
3694.8772,7.284867965672083,2.88592180646156
3695.7273,7.278873811600093,3.3196321606151225
3696.5793,7.26578953160844,2.883392024103459
3697.43,7.25674080206252,3.1837022771135572
3698.2825,7.25612445026434,3.746781430358038
3699.1333,7.259909944178754,2.6328909870627686
3699.9841,7.260296569555111,2.8064233977625346
3700.8374,7.251760706332991,3.6331154456668
3701.6887,7.233930171786518,3.6323981684520614
3702.5425,7.209998330902393,4.050609632072534
3703.3943,7.183787969132412,3.9587582963877104
3704.2483,7.1571417627094105,4.271675293956789
3705.1003,7.130780911589987,3.342755935693547
3705.9526,7.105634739904069,2.5962631419030164
3706.8074,7.0837396798628856,3.218991766481829
3707.66,7.066776782661891,3.3497655418955077
3708.515,7.0535244948221765,3.0318830797728444
3709.3682,7.040364191516303,3.910160202611757
3710.2234,7.023626486557791,2.9790101224087664
3711.0771,7.002221297634176,3.439477893341315
3711.9307,6.977310846481828,4.70227670760781
3712.7866,6.950762207228453,2.6653120331173104
3713.6409,6.924789864086778,3.670441699097097
3714.4973,6.902131445160414,3.5673406085740464
3715.3518,6.886449668017317,4.3214659315937665
3716.2085,6.879900047937834,3.1546842878588306
3717.0635,6.88105631681935,4.167266338100769
3717.9185,6.8850347003736685,2.5582348128030192
3718.776,6.886840995038784,3.4736721180681998
3719.6313,6.884344251555927,2.8510108964324576
3720.489,6.877985642530235,3.6943167161833754
3721.345,6.868060203237791,3.365733943505276
3722.2031,6.853018815505444,5.2192571394490095
3723.0593,6.831186214848298,2.8945962135168544
3723.9158,6.803325140468201,3.7171492336103866
3724.7747,6.773629261073764,4.252615781936672
3725.6316,6.74803173064385,3.7781639403667198
3726.4905,6.730450749539011,3.9055740367418603
3727.348,6.721154714904721,3.4729869020936213
3728.2073,6.716988934353631,2.938882011227448
3729.065,6.714364337139413,3.5723634021018738
3729.9229,6.712274119759328,2.944896592441562
3730.783,6.713145522105872,3.827891175657064
3731.6414,6.720400585085592,3.451656132403943
3732.5017,6.73477468141769,3.680510539744764
3733.3604,6.752395033110601,3.5774597011988916
3734.2214,6.7667094713363385,3.3800206344557013
3735.0803,6.772093737443854,4.033941020003573
3735.9417,6.767417573543175,3.6853297645981433
3736.8013,6.7568815328008744,3.534249794469201
3737.661,6.748111466229325,3.5553917152193892
3738.5227,6.747902583851206,3.3675656868052948
3739.3828,6.7572576213928155,3.4555057810350815
3740.245,6.769278383164242,3.8779954257118794
3741.1055,6.772720447815043,4.176991499252629
3741.9683,6.759992869063925,4.662927667589535
3742.829,6.732999193143826,4.538155666570976
3743.69,6.701577279295739,3.177844352231829
3744.5532,6.676486675454315,4.081645792986674
3745.4148,6.663498204593942,3.779397339055724
3746.2786,6.661949726989926,3.6848044648191296
3747.1404,6.667766009691859,3.919055893398655
3748.0044,6.676438941107447,4.215968208480526
3748.8667,6.684364755849222,3.0204512008209132
3749.729,6.68887048205893,4.390595617264605
3750.5938,6.687456107641956,4.279616642456331
3751.4565,6.677671038979675,3.1719652364590623
3752.3215,6.657995588331058,4.316237441965319
3753.1848,6.629249812726219,4.575351548732704
3754.0503,6.594075937064566,3.0238125791245305
3754.9138,6.555076163678735,3.550581264008923
3755.7776,6.51015729681438,4.04580644208175
3756.6438,6.448643237576226,3.822869333730049
3757.508,6.352468298510483,4.634597942610575
3758.3745,6.20609773570955,3.640601172130118
3759.239,6.018467074679055,3.7366293900539818
3760.106,5.832372287564333,3.9664492488546164
3760.971,5.712748704220201,4.428021590222645
3761.8362,5.7046229443824235,3.456089024425578
3762.7036,5.804231866824595,3.4048605927712994
3763.5693,5.961819134586486,4.162770443932773
3764.437,6.117929979517891,3.1626207444673153
3765.3032,6.234602855001228,3.6474053776799273
3766.1714,6.306688021068786,6.818702457599231
3767.0378,6.347712586533037,5.965317556236223
3767.9043,6.373345457592937,4.606011711665195
3768.7732,6.390170444623381,4.2106421474946
3769.6401,6.395445657785998,3.194434785985912
3770.5095,6.383905552584923,3.6024394419258696
3771.377,6.35491773651164,4.242399812142755
3772.2466,6.314909599896094,4.732455595713671
3773.1145,6.274927116365219,3.9108748791533676
3773.9824,6.24485159631639,5.690569526531437
3774.8528,6.230097727443926,3.9251070035642344
3775.721,6.230722217683195,5.6170944274095485
3776.5918,6.242029275617326,4.421300158110079
3777.4604,6.256840434656606,4.159141279634984
3778.3315,6.2694641676291685,4.582154042707874
3779.201,6.2790984218774355,5.575958076856935
3780.0703,6.290317729478495,3.4956176562891983
3780.942,6.308692298219854,3.6959860477045914
3781.8118,6.334624928656903,4.26612059046224
3782.6838,6.3610482780653586,3.9130487042155897
3783.554,6.376603139719303,2.908072796068341
3784.4265,6.373301993365529,3.2569569703255365
3785.297,6.351513227611556,4.449066143302602
3786.168,6.31932271985194,3.66287099399369
3787.041,6.287074546368185,5.403790447588796
3787.912,6.261957012059985,4.348746587691501
3788.7856,6.245156762839272,4.26497013920638
3789.6572,6.2341431728241306,5.00239592952164
3790.531,6.225942462513058,3.801232469645166
3791.403,6.21955041464404,4.327891440906822
3792.2754,6.215098987439946,4.0476074014259575
3793.15,6.2119473474484215,5.072770542125607
3794.0225,6.207801041369365,4.775312449243549
3794.8972,6.199589613620902,4.209691971381887
3795.7703,6.185270734346996,3.6941660200871973
3796.6455,6.164882482300513,4.01681753047697
3797.519,6.1410220769148065,3.3972822418123956
3798.3926,6.1177586521958816,4.381072481780401
3799.2686,6.099129871297308,3.76417543888302
3800.1426,6.087425324221612,5.2235472542307075
3801.0188,6.081762283070979,3.8471823662647826
3801.8933,6.079045814811715,4.4244039184506905
3802.77,6.076473356927856,3.9613039720128738
3803.6448,6.074243555136244,4.311360281210986
3804.522,6.075469140572876,5.1412862783711315
3805.3972,6.083050372170953,6.075475411377804
3806.2727,6.0962690556056724,6.60243169372783
3807.1504,6.110361368395999,4.430563863134402
3808.0261,6.119242219767488,4.478082438091495
3808.9043,6.1193682835726335,5.0481494538808125
3809.7805,6.111276281288673,4.180117400376894
3810.659,6.098549670947086,4.881453823432939
3811.5356,6.08562401054222,4.043304009457996
3812.4126,6.075812362280752,3.97624201911299
3813.2917,6.0704493009537766,4.732498741954202
3814.169,6.068299281278913,4.506500645227977
3815.0483,6.065548011812646,4.063945547437372
3815.926,6.057555872282748,4.088676757417537
3816.806,6.041665649889011,4.541683057458831
3817.684,6.0192129868184185,4.484288341737815
3818.5623,5.994154637383166,4.226745056315233
3819.4429,5.970020222019848,4.892668934314566
3820.3215,5.948396018959905,4.559577201247898
3821.2024,5.929577653238742,4.442172906026114
3822.0815,5.914590700245221,5.869755853782826
3822.963,5.904265394019142,4.709509240477399
3823.8423,5.8974379466317215,4.6894868107378995
3824.722,5.890330391590785,4.425140159856454
3825.604,5.878852685939168,5.42349680809111
3826.4841,5.861392114400949,5.010633375298781
3827.3665,5.839298777613498,4.051274567154374
3828.2468,5.815862019225898,5.546577606200824
3829.1296,5.794150840882481,5.128750094265223
3830.0105,5.776355760034455,6.170880036260625
3830.8916,5.763025259043917,4.890243625823033
3831.7751,5.753410693622613,4.522292748705804
3832.6565,5.746171932999871,5.296223364673846
3833.5403,5.740238475353473,5.029157698396517
3834.4224,5.735721336808526,5.328427746636813
3835.3064,5.733608491887195,5.311868279181724
3836.1887,5.734596211351724,4.4176099323553615
3837.0713,5.7376543501644415,5.441307400736673
3837.956,5.7399471255678876,5.005635551361621
3838.839,5.7385137069758425,4.385165461274147
3839.7244,5.732465547514009,4.924618360571733
3840.6077,5.723512846055582,4.950440559643228
3841.4932,5.714104502395292,5.322556920766583
3842.377,5.705469525712362,4.485116956608947
3843.261,5.697384078592851,5.308373741262038
3844.1472,5.690259314432753,4.527982968044171
3845.0315,5.687062731318126,5.289479188748287
3845.9182,5.692669279183392,4.874431707077819
3846.803,5.710718552044278,5.440855857655542
3847.69,5.740463001900311,4.3384716623201145
3848.5752,5.7759966948227826,4.740360641331387
3849.4604,5.809379663836475,4.419889157699339
3850.3481,5.833829872353551,4.696047887147094
3851.234,5.845308145141374,3.7193230731928795
3852.122,5.843350463190887,4.44641562890102
3853.0083,5.830837878629511,4.677572952249658
3853.8967,5.812938304721018,4.381525706280178
3854.7832,5.794672935276715,5.34134016755825
3855.6702,5.778102749786352,5.012704789813833
3856.559,5.762469807178048,4.815656435249673
3857.4463,5.746973741555459,4.766243005178697
3858.336,5.7331741334541375,6.701724748355226
3859.2234,5.724788288751556,5.051851814358595
3860.1135,5.724035280366332,5.938005353427036
3861.0015,5.728740568874024,4.963045146368011
3861.8896,5.7327198613889765,4.062253195152135
3862.7803,5.729533697289136,6.076228970246943
3863.6687,5.716614477891388,4.6833502307301575
3864.5598,5.696689729312196,5.663340107516425
3865.4487,5.676341558771654,4.159275750234712
3866.34,5.661940833389985,5.8425749653844905
3867.2297,5.656262886560776,3.948753171643662
3868.1213,5.6564796942037345,4.396049703206269
3869.0112,5.655773990092296,5.574269980385816
3869.9014,5.64730576824718,5.626677033333604
3870.7937,5.627992379616457,4.62254270229092
3871.684,5.59976069710231,5.664796547328621
3872.577,5.566922966588096,4.476311644429267
3873.4678,5.533279393149827,5.373973278467294
3874.361,5.499809880718369,7.067672781814033
3875.2524,5.466130006042593,5.410904402120655
3876.1438,5.43150629823271,5.863869347439807
3877.0376,5.3957419186564515,6.401618661825688
3877.9297,5.3596258816921525,4.893062807024618
3878.8237,5.324936939874465,5.006926084697094
3879.716,5.295216034738786,5.546063173234612
3880.6108,5.273577316910329,7.5810799226650545
3881.5037,5.26056618077668,5.599369319606157
3882.3965,5.252816289848383,5.265292319216854
3883.2917,5.2452004532833705,6.045569486237502
3884.185,5.233870812338487,6.545393884531613
3885.0808,5.217746022557118,9.427130478609604
3885.9746,5.1983286265134865,6.965239331945398
3886.8706,5.178027619462694,5.303849049656881
3887.765,5.159321691754056,5.9475012250484856
3888.6592,5.143898750585775,6.711206009717954
3889.556,5.132740011535805,6.4859015270696565
3890.4507,5.126367794686002,7.661132793193568
3891.348,5.1248652789012805,5.415293764829327
3892.243,5.128033466021244,7.0542198595818
3893.1406,5.135139120903961,5.871031463800292
3894.0361,5.144551207515767,5.449687788390983
3894.932,5.154187445477398,5.208844701397659
3895.83,5.162867048749488,5.325291340455269
3896.7263,5.171486373681644,6.750840027146842
3897.625,5.182260724111731,7.092237803719917
3898.5215,5.195754994540138,6.9103669824927305
3899.4207,5.209637305431774,9.673657699631159
3900.3176,5.22042286362703,5.309199801633865
3901.2148,5.227411117998145,6.716209064461351
3902.1145,5.234223851942058,5.3252544490121645
3903.0122,5.247098225863767,4.480407423156814
3903.912,5.271566960630406,6.286196165512019
3904.8103,5.30913604450445,5.801125519349494
3905.7107,5.356346560221464,6.762760440676247
3906.6094,5.405035523496398,5.529840568768503
3907.508,5.446137596668327,5.002722919819723
3908.409,5.473313813110359,5.441775285812673
3909.308,5.485166657337475,4.62806534844992
3910.2097,5.484980290187916,4.764386801001315
3911.1091,5.4778440063969756,4.680265981324941
3912.011,5.468196981773976,5.515992790215386
3912.9111,5.459132835171152,4.025721617815123
3913.8113,5.453102384100661,5.9948060556960545
3914.7136,5.452852712163562,6.551651209150903
3915.6143,5.460581355552482,6.819757205062132
3916.517,5.475716289029712,4.296088631792547
3917.4182,5.493566446330239,5.259113982937926
3918.3215,5.507305413055617,4.494488489272728
3919.223,5.511407291344445,4.489900912501022
3920.1245,5.504422545910362,5.385793395700919
3921.0286,5.488387174024251,6.852660764994531
3921.9307,5.466805029362108,6.445783644584784
3922.835,5.442711578835895,4.813461160941673
3923.7373,5.419185298643093,5.277745576936335
3924.642,5.3996596916608475,5.0729133355949205
3925.5452,5.387706639506448,4.82755784301708
3926.448,5.3847056463369,5.491370636812625
3927.3535,5.388773260971146,5.919734462214029
3928.257,5.395598683816975,5.482013320447107
3929.1628,5.4006168087902395,4.722325142851989
3930.0667,5.40015775466784,5.925384817063371
3930.9731,5.391700287391764,5.965680571947703
3931.8774,5.374702406812699,4.61624648166541
3932.782,5.3520394683318555,5.6236661082820625
3933.6887,5.330015415643855,5.866026295906724
3934.5938,5.315238063317396,6.481158744131249
3935.501,5.309844219785228,5.934207901883961
3936.4062,5.310341057767383,5.160596758718509
3937.3142,5.31069344971037,7.0109291278881924
3938.22,5.307089735432397,5.753720087413987
3939.128,5.2999252162739605,6.090111539810047
3940.0342,5.291945109788699,6.242877914657473
3940.9407,5.284713618722405,4.972276482073957
