wavl,flux,ivar
3566.9744,2.6021967494014633,125.33058814430932
3567.795,2.595592195607167,144.75183462638478
3568.6177,2.5911520758431816,142.65710285940852
3569.4385,2.5895213411371643,138.06505545964632
3570.2617,2.5903648446051153,132.87723670850832
3571.083,2.5929362118860126,155.1231199339057
3571.9065,2.5965493959666532,132.0235313183831
3572.7283,2.6006657895205536,122.65563954560383
3573.55,2.604880580708749,138.90284796109438
3574.374,2.608833929223668,153.07813229894367
3575.1963,2.61215389810717,149.5128583178214
3576.0208,2.61455254013469,131.0631312587366
3576.8435,2.615895244568251,128.4494660747853
3577.6682,2.6163994611598063,146.119695555987
3578.4915,2.616536679716279,144.69611662488884
3579.3145,2.61659895751624,120.13623593631993
3580.14,2.6161866147344575,134.9045374314427
3580.9636,2.6142169120441063,130.40258268613928
3581.7893,2.609533685851641,139.62355138131045
3582.6133,2.601673990528915,139.05775986929984
3583.4395,2.5910857903086524,139.17585350944736
3584.264,2.5791561644162835,159.8112281147068
3585.0884,2.5676747496327637,156.7155042600858
3585.915,2.558313403005369,145.4770254886936
3586.74,2.5520462992260944,136.2217858329587
3587.5671,2.548634567696115,151.01858706999656
3588.3923,2.5468805195570208,117.70133235401529
3589.22,2.5450647734442304,167.25991530367648
3590.0457,2.5416838806427418,130.52952277112456
3590.8716,2.5361221524667776,148.3815841882695
3591.6995,2.529117458227125,129.79097129586148
3592.526,2.522593315977535,138.53031202229715
3593.3542,2.518512727851907,154.792973375241
3594.181,2.517743221116626,149.89665650102782
3595.0098,2.5195829169100667,163.6398075124276
3595.8367,2.522485287666126,159.11973759497604
3596.6638,2.525180718034099,145.09185536403433
3597.4934,2.527212291080702,162.81763802221695
3598.3208,2.5286917428172684,148.67116413830968
3599.1506,2.5298128397749258,128.12373361689382
3599.9788,2.5304698867625324,165.93589328245298
3600.8088,2.5302441343303044,135.3393340093665
3601.6372,2.5286432622477277,159.26023926852224
3602.4678,2.5254382974941683,167.15804188218206
3603.2964,2.520743755562276,149.62118594346103
3604.1252,2.514587869194655,155.04648147426533
3604.9565,2.5066603892835255,156.40096514856995
3605.786,2.4968366270172124,154.75961144052218
3606.6172,2.485826741085847,156.80531875972795
3607.447,2.4755181102950106,173.58174159599594
3608.2788,2.4679813107564175,137.19027132440496
3609.109,2.464492704244744,138.01578529412677
3609.9392,2.46487538046008,156.85754669633045
3610.7717,2.4678676849399297,150.65852987235112
3611.6023,2.471745746124311,151.54473549984726
3612.435,2.4749754351053914,158.25051694415183
3613.266,2.4764465030005014,157.90336555298362
3614.0994,2.4756162026990918,158.97192687279005
3614.9307,2.4725928037795777,142.9966735860119
3615.7625,2.468224377462664,142.7098859567268
3616.5962,2.463877136654187,150.91474116108964
3617.4282,2.4607690821547057,184.132380101224
3618.2625,2.4591521285281526,160.72859189666386
3619.0947,2.458231509370869,156.8696635842953
3619.9292,2.4567713666308415,145.8167137372175
3620.762,2.4539938014880325,157.13554296667817
3621.595,2.449998335622235,176.8819199661823
3622.4302,2.4456104270028423,157.96676566184547
3623.2634,2.4419138430105454,169.10103670424374
3624.0989,2.439599221223838,162.46180325374186
3624.9326,2.4385942615058998,158.02506262358125
3625.7686,2.4379781034055346,166.43656459173866
3626.6028,2.436551970184273,157.77017413055756
3627.437,2.4336906842987163,153.42659211821154
3628.2734,2.4297798713675,181.2918598736169
3629.1082,2.4258221033035583,151.15404407793426
3629.945,2.4224757064735223,160.93837406677034
3630.78,2.419608489428256,166.84563814260594
3631.6174,2.4164603017013104,161.3269733259327
3632.453,2.4123870601065143,153.70750361677716
3633.2883,2.4074009702226373,161.01177520922909
3634.1262,2.402249263085682,179.31731394708672
3634.9622,2.39789348777517,169.88620620888798
3635.8005,2.3946858498720873,153.88720083609172
3636.637,2.3922669541210855,158.5818080111217
3637.4756,2.38994926229681,177.3148196695132
3638.3123,2.3872860403682234,173.63693230860244
3639.1492,2.384171425473865,157.1174923016863
3639.9885,2.380813752039248,188.32970240493805
3640.826,2.3777776840255296,169.96446120874396
3641.6653,2.375771388349286,182.269839709404
3642.5032,2.375140190489514,189.1005711079378
3643.343,2.375269302840855,168.67501767469545
3644.1812,2.3747135543455267,140.60504814897124
3645.0195,2.372028993873736,168.01492762705863
3645.86,2.366562082980869,165.42282051164702
3646.699,2.358685384285962,202.20429166280059
3647.5398,2.349371995258433,170.40006098155595
3648.379,2.339926305463838,179.3164152948384
3649.2202,2.331492132791948,172.36905782130424
3650.0596,2.3248156720989304,160.2997340175512
3650.8994,2.3197828252097485,191.45483248039062
3651.7412,2.3156580922583747,164.46892983947413
3652.5813,2.3117604169686685,169.9057856318061
3653.4236,2.3080732168775695,200.82054734149597
3654.2642,2.305385825864926,182.44488736268147
3655.1067,2.3046636336310513,173.619083580697
3655.9475,2.3063473314438396,194.51473886190087
3656.7886,2.309937760343041,164.30957418849283
3657.6318,2.314232699914733,139.71608383235477
3658.4734,2.318009013361779,196.1333052952797
3659.317,2.320789357066881,185.41172940454524
3660.1587,2.3228494926776517,183.29798930415498
3661.003,2.3247406600305687,156.46053389758086
3661.845,2.3267908423972554,162.17077608063371
3662.6875,2.3291745364709104,166.4237463575926
3663.532,2.332045443112615,171.17752674870712
3664.3748,2.3352878021888293,182.790882047636
3665.2197,2.3381592493405265,164.65492581735018
3666.063,2.339373679938039,164.78399297426293
3666.9084,2.3380231001361995,166.08174396453526
3667.752,2.3344459856104067,177.58064065099953
3668.5977,2.3300930208638713,195.16410270036715
3669.4417,2.3264186316763174,190.86851298531798
3670.286,2.323654390126428,166.5654383141956
3671.132,2.320766628788367,167.535335003926
3671.9768,2.316447347353859,167.3190732859597
3672.8235,2.31009814741175,178.8420440717146
3673.6685,2.302159894128539,185.6401480355529
3674.5156,2.2935844910197445,139.31931495183647
3675.3608,2.2854590440616644,177.9436921503756
3676.2063,2.2785228570453673,189.55075059069563
3677.0542,2.2730398415205415,174.21944789682303
3677.9,2.2688105254167446,186.8405709255418
3678.748,2.2653114929026743,172.62789696244036
3679.5945,2.2621153136938066,188.1590711325711
3680.4429,2.2589721494218744,210.5218796086055
3681.2896,2.255814392687495,205.62363520468907
3682.1365,2.2525963703556404,164.78360922360207
3682.9856,2.2493110509646304,174.79371406084962
3683.8328,2.2461405710978095,152.26868037117106
3684.6824,2.2434791273238703,188.6506404409501
3685.53,2.2417759794655514,183.68842851360537
3686.38,2.2410290676742544,184.5299404565153
3687.2278,2.2406311331411675,175.47981810015042
3688.0762,2.239866277427438,165.61535150783348
3688.9265,2.2388084300984006,200.62821998743703
3689.7751,2.238672393046539,203.2481108834397
3690.626,2.2410697063051708,194.06938188146756
3691.475,2.2467005347767084,180.50244736397582
3692.3264,2.254627137512731,169.567180899582
3693.1758,2.2625224965478483,178.84578093999164
3694.0254,2.2679434471141633,166.02212343774687
3694.8772,2.2693490847206697,186.89077082956484
3695.7273,2.2665705456276934,183.8360946134023
3696.5793,2.2606213883681763,192.65113594746214
3697.43,2.253233794293455,180.19233300361938
3698.2825,2.2461711812629765,202.54172077193545
3699.1333,2.2406555896248284,209.73407302438886
3699.9841,2.2367882167139093,180.594479497786
3700.8374,2.2337505768257833,198.70098893908244
3701.6887,2.230611348563662,173.4028260052782
3702.5425,2.2270909409166926,202.03046770366058
3703.3943,2.223797140053531,197.55872263627558
3704.2483,2.2216212873384347,206.53829178125127
3705.1003,2.2210699840715495,184.61264005922507
3705.9526,2.22180817612499,193.5818623798758
3706.8074,2.2227588034638206,190.26165582284884
3707.66,2.222587470488378,180.62953860239332
3708.515,2.2203943416909433,190.5364501025372
3709.3682,2.216187400012112,206.79901926764202
3710.2234,2.210832140949398,189.59297982956792
3711.0771,2.205663382292563,208.25336629628603
3711.9307,2.2017309253352937,202.89526340140165
3712.7866,2.199195659489135,188.64862001810295
3713.6409,2.197155322937809,205.14214022252924
3714.4973,2.194132016109905,167.6419482617529
3715.3518,2.1891721049022363,202.77500906437038
3716.2085,2.1826051940201987,202.7382801672376
3717.0635,2.176084741309621,190.6128921159457
3717.9185,2.1715928960244884,214.13352487821567
3718.776,2.1704281532334395,194.16470471584077
3719.6313,2.1726771108452687,227.1248750960871
3720.489,2.177420559503648,198.76703238794073
3721.345,2.183262172004148,223.8134206912796
3722.2031,2.1887793892932583,207.65293869818132
3723.0593,2.1925156683770752,195.34298133119074
3723.9158,2.193228410375026,203.46137244835336
3724.7747,2.19032717091033,186.18923859463135
3725.6316,2.184491882759159,181.4152281561005
3726.4905,2.177564008509116,189.43782130186207
3727.348,2.1717263661241404,205.62947594181847
3728.2073,2.1682527757314274,220.64938533640498
3729.065,2.1670709867000277,202.86411892523782
3729.9229,2.1671418066981483,212.96255122472056
3730.783,2.1673396841991703,208.2665942462365
3731.6414,2.1669236075225675,216.50644094436177
3732.5017,2.1654297661701456,202.98142718835254
3733.3604,2.1624127087142098,199.90562280659867
3734.2214,2.157500771400833,198.95480843594066
3735.0803,2.150918639368583,205.04621094376907
3735.9417,2.1436972221557062,211.15478198311058
3736.8013,2.1374520133143284,200.09410117477995
3737.661,2.1332821462737352,220.33582171506293
3738.5227,2.130927668608497,216.71943936558662
3739.3828,2.128858195469934,213.36976082077538
3740.245,2.1255237293538403,209.02181308007118
3741.1055,2.120888927865593,176.47368037212573
3741.9683,2.1165837194220307,226.59328560386015
3742.829,2.1146488439542686,224.86598904280817
3743.69,2.1159108352574703,219.6225164828454
3744.5532,2.1196899873515527,194.16341758595377
3745.4148,2.124533385180373,199.6500925808935
3746.2786,2.129149169294658,197.39389424209517
3747.1404,2.1326712955730387,232.19589551660056
3748.0044,2.1347818127509797,225.8154492000459
3748.8667,2.1356765284433523,201.11199811443853
3749.729,2.1359904448191807,213.7021820208186
3750.5938,2.1363483338782077,216.41006425688113
3751.4565,2.13683871717443,203.80884860347814
3752.3215,2.136867029558753,210.4553603653695
3753.1848,2.135641324886027,217.1998741420092
3754.0503,2.1329605432164054,211.3510810860345
3754.9138,2.1295967907881006,216.69281058224811
3755.7776,2.126780924122751,239.1685539880731
3756.6438,2.125363393426642,200.31805174843288
3757.508,2.1253302586228897,229.84554754926182
3758.3745,2.125930573812509,214.14311835954499
3759.239,2.1261503055271675,199.7440940576506
3760.106,2.1251401308456153,194.07953221952883
3760.971,2.1225078999557585,220.07195654179768
3761.8362,2.118445024004203,188.2935374216661
3762.7036,2.1136719690666634,255.74781812620014
3763.5693,2.109205341767282,214.73532923803646
3764.437,2.1058327736960867,253.48033548018003
3765.3032,2.103761242863332,207.77619147990958
3766.1714,2.1024642795616506,230.375773172264
3767.0378,2.1010722347896524,187.84957126712368
3767.9043,2.09894870135865,202.52597756097387
3768.7732,2.096095759378324,195.69043290514483
3769.6401,2.093105231876234,215.28474650096584
3770.5095,2.0906981331661774,212.70019745339127
3771.377,2.0894141658161236,184.10475957278373
3772.2466,2.089381773193031,222.6671831383169
3773.1145,2.0901810097032207,208.66039994970023
3773.9824,2.0907624669649785,201.46427364261172
3774.8528,2.0898180943963274,212.37460557740266
3775.721,2.0866434196748016,232.3158158299772
3776.5918,2.0817814536336527,209.14157142135755
3777.4604,2.076895695678395,219.8249181900715
3778.3315,2.073738238896762,226.11662148738972
3779.201,2.0733026406194335,237.19997281410278
3780.0703,2.0753969067086357,207.70732591326018
3780.942,2.0788779359081984,233.12850324448073
3781.8118,2.082126717690784,186.3517605421428
3782.6838,2.0837939227893365,218.31884835411168
3783.554,2.0833522532188606,261.06161814606395
3784.4265,2.0812350828034845,233.83990134428592
3785.297,2.078385903029619,199.8063919725141
3786.168,2.075600190508553,218.87993817824795
3787.041,2.073215486569377,201.6400083410481
3787.912,2.07120491144071,216.59319078033235
3788.7856,2.069357014210688,218.0648562113088
3789.6572,2.0674583655961123,226.54723569971543
3790.531,2.0653383255468616,222.0136849021858
3791.403,2.0629953594513237,225.2614447758712
3792.2754,2.060574636768595,220.62924148473246
3793.15,2.058227393392397,213.10750536851006
3794.0225,2.055887444847911,232.5775512039111
3794.8972,2.053079656293301,218.8512509319817
3795.7703,2.0490739125787356,232.3731875658696
3796.6455,2.0432744208628355,237.38734089203425
3797.519,2.035877263481664,229.68018674592378
3798.3926,2.0279735023928755,244.45209209761165
3799.2686,2.021048878203113,210.63712266176577
3800.1426,2.0162002302299644,236.89107168157958
3801.0188,2.0136052003029694,244.21493523019598
3801.8933,2.0129292591466372,245.42901710025745
3802.77,2.0139069572473574,223.24736613731062
3803.6448,2.0166389374744083,230.8316228217583
3804.522,2.0212604577340927,254.76848854850155
3805.3972,2.0272601361258693,220.75279704656865
3806.2727,2.033347370909908,227.70137493556376
3807.1504,2.037957581870764,229.12462924402078
3808.0261,2.040120985094762,239.53483261701552
3808.9043,2.040080084158998,247.57985183260558
3809.7805,2.0390932242776403,254.34469381726777
3810.659,2.038746054440935,228.04135630848563
3811.5356,2.040113545903886,224.4272242999545
3812.4126,2.043176993782491,245.32397753287512
3813.2917,2.046826210911673,218.51818995376516
3814.169,2.04943342072039,250.6385119190313
3815.0483,2.049791934913935,204.32577211243452
3815.926,2.047652545907671,204.50506156126224
3816.806,2.043680164444171,225.27970872608856
3817.684,2.0390255784793263,217.67480917057608
3818.5623,2.034792804948335,238.31000860036647
3819.4429,2.0317122342521547,226.14487818930755
3820.3215,2.0299033489290177,211.72714125990728
3821.2024,2.0287368606431597,201.83984091763992
3822.0815,2.0271594062246114,219.12251634303
3822.963,2.0242619722968507,227.73400930189445
3823.8423,2.019821792938011,232.11886796310893
3824.722,2.014239165751281,227.67141118744271
3825.604,2.0080135507009027,236.04165056129904
3826.4841,2.001261992716815,219.69978086941174
3827.3665,1.9936316794566442,233.32522075647142
3828.2468,1.985019573571632,242.4060105730923
3829.1296,1.9759007223334515,225.38550462050085
3830.0105,1.9672645060045821,267.5055622828384
3830.8916,1.9597559574116845,247.22387961796275
3831.7751,1.9533132694583475,230.97837098658684
3832.6565,1.947379862065574,259.47328099574946
3833.5403,1.9412684430234146,243.75557491608484
3834.4224,1.9346387738996644,242.00140736577828
3835.3064,1.9274763659684053,262.7590321888009
3836.1887,1.9201736184696891,261.87161533510823
3837.0713,1.913390845006227,242.3882804665507
3837.956,1.9080819732473475,269.39745975440974
3838.839,1.905411940207837,234.92093493072258
3839.7244,1.9064132431277085,299.27324369932256
3840.6077,1.9116784790940458,262.99520403026594
3841.4932,1.921171904617474,238.34969683149515
3842.377,1.934103515868735,241.04722138176032
3843.261,1.949150419891902,226.45470994901316
3844.1472,1.9646788355203642,252.5632823142182
3845.0315,1.9791038216706558,241.91638403605688
3845.9182,1.9916023973140493,210.03508197560453
3846.803,2.0019093451896373,248.29036135647507
3847.69,2.010257572733989,225.1770308313272
3848.5752,2.01692715854767,248.52103240103835
3849.4604,2.0223985591742317,252.61159151222037
3850.3481,2.027303222644493,232.88526039254498
3851.234,2.0321591602927906,212.60909453335591
3852.122,2.0371807724931092,223.25975670785814
3853.0083,2.04218194366176,224.60580417437518
3853.8967,2.0468974921676306,236.8286985567523
3854.7832,2.0510405140480086,227.01240870032544
3855.6702,2.0543832150549104,218.20739328036214
3856.559,2.0567236110364617,213.4443641915981
3857.4463,2.0579512068757078,225.55075630621045
3858.336,2.0580663191961097,231.6395975901509
3859.2234,2.0570775193312896,246.66810286777806
3860.1135,2.055006872674162,230.49513135049258
3861.0015,2.0520118682217015,217.5530112055199
3861.8896,2.0483256280409403,222.16743527392285
3862.7803,2.044059348939167,228.42054988903277
3863.6687,2.039166576159641,209.64213123121667
3864.5598,2.033625519050574,234.22476891137453
3865.4487,2.0278180689527057,230.24524071976793
3866.34,2.022200137178837,211.98324881140064
3867.2297,2.0168338234724343,231.53480548827866
3868.1213,2.0110476988363994,226.96202674035723
3869.0112,2.004068349633144,237.72644362014879
3869.9014,1.9957557346331778,231.64068503268777
3870.7937,1.9868707298256785,242.765397642053
3871.684,1.9785667982980928,275.1107294296921
3872.577,1.9714357259546818,218.57540904307086
3873.4678,1.965290676600429,258.31144608157393
3874.361,1.9592029501525108,241.5206551135604
3875.2524,1.952075971810683,247.20969263680183
3876.1438,1.9430008620950014,270.02495968020804
3877.0376,1.9316392683716934,230.5549425818893
3877.9297,1.918467388610745,258.2363517678608
3878.8237,1.904358451676086,232.1395216576671
3879.716,1.890230662939095,261.1700344182421
3880.6108,1.8762869830963749,274.23871829731183
3881.5037,1.8622168236413268,260.4636102476668
3882.3965,1.847398423924863,267.90446639702054
3883.2917,1.8314558118843562,281.20119126659074
3884.185,1.8145635544618917,274.61181694860124
3885.0808,1.7971293871278269,299.1594757947555
3885.9746,1.780080705356271,303.22795339448083
3886.8706,1.764428912572714,337.07465822336917
3887.765,1.751283456786095,335.8766325416285
3888.6592,1.7413129053398517,311.2671554320347
3889.556,1.7348982242069568,327.4504073606432
3890.4507,1.7324945944021086,347.73126100928465
3891.348,1.7347441479663988,292.7166772465651
3892.243,1.7422011820081658,299.9248252492098
3893.1406,1.7547389498550001,314.73115917131287
3894.0361,1.771025676472997,279.84613895335053
3894.932,1.7890800608312274,285.4548924377724
3895.83,1.8070036172139416,313.0640093623863
3896.7263,1.8234823938278124,252.86530772317357
3897.625,1.8382192288516237,289.03323537415895
3898.5215,1.851402023182641,276.0292173289815
3899.4207,1.8637438809690074,282.1565480195153
3900.3176,1.8759277411761885,258.5775444504192
3901.2148,1.8885359145079956,292.0190083243562
3902.1145,1.901701313185882,249.38169489262134
3903.0122,1.915027425202956,270.30593359678903
3903.912,1.928128454649188,257.1395849177144
3904.8103,1.9407747375972626,262.29111003840154
3905.7107,1.9532372697371736,228.3939496130256
3906.6094,1.965769826970492,232.46212134355153
3907.508,1.978321723761944,239.63521026499004
3908.409,1.9902489562243122,233.5309864412725
3909.308,2.0005132156647476,216.617502378988
3910.2097,2.0084516594677733,242.35665726514804
3911.1091,2.0140383160588664,225.66181124376888
3912.011,2.0180259113073817,227.30523912703728
3912.9111,2.021416660089854,232.71165471370927
3913.8113,2.025045698089759,230.68004319983086
3914.7136,2.029266100879853,222.6683092149176
3915.6143,2.0339585454887947,225.29125771679904
3916.517,2.0388684144592566,237.25483073809647
3917.4182,2.0437546027554747,217.05195810165617
3918.3215,2.0484494284291146,225.51669990765294
3919.223,2.05260314113948,216.40987260170178
3920.1245,2.05575828929484,212.03355485202513
3921.0286,2.057607009021782,233.36311290083006
3921.9307,2.0583254600753693,250.6505105074736
3922.835,2.058598515170973,233.85388621623167
3923.7373,2.0592006856134066,214.58719518212956
3924.642,2.060524071254494,213.33163800739825
3925.5452,2.0623202465104455,215.71599051247648
3926.448,2.063823756558202,223.97495846848437
3927.3535,2.0640989137300547,235.08654519718357
3928.257,2.062480228207368,217.35885285705777
3929.1628,2.058931263706565,209.67258683840424
3930.0667,2.0541595844275875,228.9674945857084
3930.9731,2.0492266805041246,229.0209444760264
3931.8774,2.045016585866636,222.37967341013461
3932.782,2.0416899224063902,216.8806801411775
3933.6887,2.038796034277215,243.1829130056442
