wavl,flux,ivar
4606.806,0.8521532231162083,415.4557805397306
4607.8687,0.9245324420594093,344.4488362804314
4608.9287,0.9800060624460023,547.7558762812041
4609.989,1.0152112844857781,382.03596767545054
4611.052,1.0326524477038257,481.0383428240176
4612.113,1.0378731475409615,473.84781296280084
4613.1763,1.0365824237980537,513.9354804993029
4614.2373,1.032648711380469,388.51934522602477
4615.3013,1.0278535184843187,386.74431410298985
4616.3633,1.0227740995105363,365.31652664847365
4617.4253,1.0177178413416306,377.2820264125054
4618.4897,1.013220369962535,455.7218448970324
4619.5522,1.0099316172264248,449.56244852958514
4620.6177,1.0082040724177483,503.32430121824285
4621.6807,1.0079703177030332,489.9631531805311
4622.7466,1.00877850931786,468.0921996166731
4623.8096,1.0100069994692704,414.59079686387344
4624.8735,1.0111120894257286,362.88657650669285
4625.94,1.01179489110789,432.8035215288822
4627.0044,1.0120279870794375,485.77754304391095
4628.0713,1.011939742533041,393.98607460573675
4629.1357,1.0116570571406502,433.562569977
4630.203,1.0112227409256267,389.4843966293775
4631.2686,1.0105745970993947,430.9413586879624
4632.3364,1.0095414496713697,436.68050886927614
4633.4023,1.007950612675365,443.65845800836183
4634.468,1.0058188391175462,462.23840892167766
4635.5366,1.0034826698329895,438.6755728755658
4636.603,1.0014918939263628,414.64144867546804
4637.6724,1.0002295408845139,440.3017694123755
4638.7393,0.9997362461576809,439.8310958102821
4639.809,0.9998057479470123,469.3960562003466
4640.8765,1.000309363999573,444.34825035484465
4641.944,1.001382634751058,474.0913602917898
4643.014,1.0033155111521812,401.58796808041615
4644.0825,1.0061803653757964,406.9935911949866
4645.1533,1.0095643635034899,521.2196478449014
4646.222,1.0126143605341698,400.80537834117865
4647.2935,1.0146209301588767,440.9310587857216
4648.3623,1.0155188427025912,429.95581829264586
4649.4316,1.0158516880171793,484.13784277001764
4650.504,1.0159952776721752,524.6543716856247
4651.5737,1.0154559233509302,417.66746054538464
4652.6465,1.013026239018856,435.98696036586995
4653.717,1.0077949130926933,475.6200768929828
4654.79,1.0000334473708885,399.51311949544606
4655.861,0.9914469373521604,405.6583668661999
4656.9316,0.984352380292252,525.3045206832263
4658.006,0.9806402505319155,536.0849074546788
4659.077,0.9808727159266352,390.8980915016315
4660.152,0.984013724252682,414.3958267346622
4661.2236,0.9881074954183566,440.04117527574357
4662.2983,0.9914252634532629,398.6219044959148
4663.371,0.9931624479374175,450.71328584010547
4664.444,0.9935229005926701,474.77102293471427
4665.5195,0.9931878013145837,447.72009045088515
4666.593,0.9927896322471171,468.03479798029895
4667.669,0.9926354609160528,490.751148441978
4668.7427,0.9927184242210305,430.8380883115041
4669.8193,0.992862222513442,404.4978424084263
4670.8936,0.9928902852277198,386.31745081343934
4671.9683,0.9927466123282469,536.4522491059732
4673.0454,0.9925155161339481,494.42541876521847
4674.1206,0.9923525886382519,381.71875716398074
4675.198,0.9923913323506567,406.9946237614132
4676.274,0.9927191181745149,482.80105570162095
4677.352,0.9934049352766599,403.834213965952
4678.428,0.9944653458594931,456.1370592491959
4679.5044,0.9957541480690241,406.8366426294933
4680.5835,0.9968908973442963,454.9872526036084
4681.66,0.9973805282814887,391.6638817031524
4682.7397,0.9969013096505905,447.154930315551
4683.8174,0.9954740313878011,475.90708048342543
4684.8975,0.9933834349783695,445.4387375573832
4685.975,0.9909542386460017,499.53500943849053
4687.053,0.9883191473992053,471.2724712166514
4688.134,0.9854602503305003,486.68810151061587
4689.2124,0.9824807651849025,460.5923553295143
4690.2935,0.9797879068887285,571.0371968147382
4691.3726,0.9779931522151801,498.39768233117474
4692.4546,0.9773744581455321,430.925298069257
4693.534,0.9775305320777997,457.71371218010756
4694.614,0.9775780301991089,499.4308204498356
4695.6963,0.9768330249318757,459.7866545968219
4696.7764,0.9753516589694332,530.2634993896796
4697.8594,0.9738334431796097,481.2698146815137
4698.9404,0.9730551036235937,468.1254845125417
4700.024,0.9732950852912193,428.3905163495042
4701.105,0.9742416051256022,394.95823579282666
4702.1865,0.9752926737288392,459.89617039211356
4703.271,0.9759100427359005,509.0120379661187
4704.353,0.9757936504492649,475.76838179055477
4705.4375,0.9749054150835054,462.9850845516762
4706.52,0.9734247570881379,465.4709470934854
4707.6055,0.9716687040496617,487.1538732721043
4708.6885,0.970015014021573,453.29308165268816
4709.772,0.9687575475153442,449.90495805216904
4710.858,0.9680644224491898,456.3475367795773
4711.9414,0.9680079450263053,463.8404905647831
4713.0283,0.968611149388425,438.60556876183534
4714.1123,0.9698261688762232,449.5298531115192
4715.199,0.9714773390431708,469.9313192316202
4716.284,0.9732467725985051,501.8795836833091
4717.3716,0.9748350323759645,451.085484359318
4718.457,0.9760516127001975,409.2642115002998
4719.5425,0.976760320576011,460.8042271661765
4720.631,0.9766705740020775,438.0580043846905
4721.717,0.9753505193109792,420.2174715686305
4722.8057,0.9725740196841652,486.89088357957814
4723.892,0.9687298424691596,459.624614963115
4724.9814,0.9646916776686538,475.12950215311764
4726.0684,0.9612703795594034,514.7321622880669
4727.1553,0.9584571452885275,465.59715621313495
4728.2456,0.9552081823641955,503.5193308497026
4729.3335,0.9498368782026935,483.10438575657736
4730.424,0.9408107632413877,554.5654628853978
4731.512,0.9280405868314451,476.9017268909235
4732.603,0.913715705926379,498.07940723999883
4733.692,0.9022131278934077,476.5981421148771
4734.781,0.8977371885724669,435.5762640160436
4735.8726,0.9016559463942857,451.3844947115186
4736.9624,0.9114535194543683,445.2992321159631
4738.0547,0.9226363698734489,493.355834466973
4739.1445,0.9314722339534908,446.63242373373424
4740.2373,0.9366008983798207,397.7725735660856
4741.3276,0.9384124068964168,517.4736269547155
4742.4185,0.9379875085541703,505.37735587567806
4743.512,0.9362833333295525,479.2148103031728
4744.6035,0.9339932656953134,496.3161068908421
4745.6973,0.9315904507817612,532.1147198583868
4746.789,0.9294677425140601,468.1084199125761
4747.884,0.9279633925225397,521.8297955380807
4748.976,0.9273763982780067,484.3626400159226
4750.0684,0.9278397638258484,523.4224647418525
4751.164,0.9292446885572279,529.2543339647837
4752.257,0.9312203910665332,543.403718585942
4753.3525,0.9332731710866308,493.32875603027367
4754.4463,0.9348700658724624,504.03627527322436
4755.5425,0.9355390181884798,523.4741145091541
4756.6367,0.9349161220638655,503.39583708578766
4757.731,0.9328898118781866,505.1789039972693
4758.828,0.9297057914450072,475.2623109611444
4759.923,0.9259686037140813,506.17772673797543
4761.0205,0.9223419925912524,548.4354849606739
4762.1157,0.9193259310361939,486.4391765848903
4763.214,0.9170786388004937,538.7275501125399
4764.3096,0.9155758892652625,554.9662566240236
4765.406,0.9146969350693951,546.9154376165958
4766.5044,0.9142369656963354,479.6154733362416
4767.601,0.9138322611128578,559.3107068746624
4768.7,0.9130371764202725,529.8626215167153
4769.7974,0.9115915009935158,523.5733313029762
4770.8975,0.9095885627760925,533.7641487483414
4771.995,0.9073965081425441,608.3615603063181
4773.093,0.9053219863044476,499.6651729261801
4774.1934,0.903417652682346,544.3510890904668
4775.2915,0.9015734579963987,514.3107678580126
4776.3926,0.8997174092793765,570.127816263286
4777.4917,0.8979484146999945,567.5979298310492
4778.5933,0.8963456541928028,620.4748657450656
4779.6924,0.8947985575289192,518.7751296966545
4780.792,0.8930222395415063,573.6559717679263
4781.8945,0.8908313237112,571.0743969789453
4782.9946,0.8883575192379034,535.444903185877
4784.0977,0.8859334419257284,558.8174852264875
4785.198,0.8838545245547089,565.2910672678748
4786.302,0.8821028615986161,512.2568889935453
4787.403,0.8803864413347412,708.265188027329
4788.504,0.8782992830670971,681.2084845149635
4789.6084,0.8755470013763315,526.301508673846
4790.71,0.8721237988046026,573.3231373427827
4791.815,0.8683200952003329,583.3671560281684
4792.917,0.8647398853514849,704.1003684663249
4794.0225,0.8619667316155564,664.4222586817862
4795.1255,0.860274519929562,566.886491462245
4796.2285,0.8593780633198823,552.348107627788
4797.3345,0.8586322400220929,545.4111288750847
4798.438,0.8574228976219593,639.8708760386928
4799.5444,0.8554297712680639,592.716902871922
4800.649,0.8526378035698887,609.2433672253968
4801.756,0.8491158016454281,670.8246470541465
4802.8604,0.8449440518041059,553.4495667440872
4803.968,0.8402105049094512,540.4616636007979
4805.073,0.8352149251160119,592.6566278622438
4806.178,0.830390904384417,678.9339214791526
4807.2866,0.8260822421973761,667.0874039073452
4808.3926,0.8222791137771545,612.4454706842505
4809.5015,0.8184665132055523,626.7016504433059
4810.608,0.8140334954712258,665.3576703719552
4811.7173,0.8086930780253864,631.1505109574283
4812.824,0.8028115658748224,640.0619552249027
4813.931,0.797091883877004,664.7960516848399
4815.0415,0.7921199105319265,772.2020098160978
4816.149,0.7880648822235435,705.5010274575989
4817.26,0.7845833379330228,716.6184149204428
4818.3677,0.7811577602302614,682.6945224791934
4819.479,0.7772630366045294,782.7083722838295
4820.588,0.7725889306255188,688.0788245406738
4821.697,0.767025527322867,735.9847418458363
4822.8086,0.7607070183633928,829.5796194581006
4823.918,0.754046756589911,814.0026656730631
4825.0303,0.7474885184333179,845.6393378933235
4826.14,0.741396504506669,852.7263972996707
4827.2534,0.7357558205427633,711.555554190064
4828.364,0.7303294939369989,762.9029050150102
4829.4746,0.7247535802316012,736.0860588962636
4830.5884,0.7187962530690598,898.4604700916171
4831.699,0.7124366018031226,860.8108875862268
4832.8135,0.7056347839629354,1006.53576570665
4833.9253,0.6983721375952974,734.8893927500204
4835.04,0.6905490593346009,753.9823237523125
4836.1523,0.6822378261733767,1095.6475056446923
4837.265,0.6735759005778136,1011.4266310928587
4838.3804,0.6647440103334796,936.7707528538928
4839.4937,0.655931392457503,994.5012806296061
4840.6094,0.6472213783988563,935.0746373256139
4841.723,0.6387841558283265,1169.0010924512626
4842.8394,0.6307440063028508,1032.071165007915
4843.9536,0.6232052768009916,1372.3975538800748
4845.068,0.6159885009968755,1075.2014545876143
4846.185,0.6086333255276772,1186.167465458268
4847.3003,0.6006361392140722,1420.2474618086853
4848.418,0.5916321066342229,1252.7112298923087
4849.533,0.5816838568792838,1225.4697138064964
4850.6514,0.5709929612535164,1211.660280781244
4851.7676,0.5598237383428861,1300.0357498600092
4852.884,0.5482167500976177,1271.0795337798365
4854.0024,0.5360969590618615,1566.3975694343906
4855.119,0.5234222978720641,1567.7335611128913
4856.239,0.5099699888962457,1678.7353209211408
4857.356,0.4955332767799804,1748.253037624932
4858.476,0.4798394324678251,1572.802593577865
4859.5938,0.4632586783001022,2044.4414665223965
4860.712,0.4470336274058056,2012.9652573895232
4861.8325,0.43355198915716603,2578.196027164882
4862.951,0.42576268865943334,2755.9211235523517
4864.0723,0.4256817176352367,3678.172937263809
4865.1914,0.43329071292165816,2947.70278930948
4866.3135,0.4464677537159926,2024.214406858549
4867.4326,0.46203379774101605,1828.3251231872166
4868.5527,0.4774707080416011,2057.0950315902255
4869.6753,0.4915782533874849,1766.8929630605664
4870.7954,0.5043264135511714,1978.4931560043972
4871.919,0.516478235200106,1860.2405196728496
4873.0396,0.5287088567208593,2142.4210206085722
4874.163,0.5414513857555369,1631.1827345024683
4875.2847,0.5544933897038693,1306.7064481345785
4876.4062,0.5673071387036934,1379.0367517426141
4877.531,0.579288234109431,1271.4471207684346
4878.653,0.5899559270633614,1368.5992817184917
4879.778,0.5992925601837353,1159.046732028211
4880.9004,0.6074925343220942,1315.629019744175
4882.026,0.6149706202957251,1062.871913758888
4883.149,0.62202692515254,1060.5744960071738
4884.272,0.6288955597623689,952.3063313563
4885.3984,0.6357070962353256,1258.225470714853
4886.5225,0.6424571906220062,959.3901708528225
4887.6494,0.6491415088890551,967.3812686360455
4888.7734,0.6556589401681824,992.3390494692927
4889.901,0.6620476804184011,1029.9862966262842
4891.026,0.6684354813699374,1048.0837831688618
4892.154,0.6751375437138903,962.5605415135637
4893.2793,0.6823362009040719,1009.4997028671106
4894.405,0.6899861238747472,920.3198975524193
4895.5337,0.6977482197308006,910.7510966548477
4896.6597,0.7050908068253146,870.6540070098791
4897.789,0.7116974506294387,824.9772469872538
4898.9155,0.7174869365162547,837.1304123536042
4900.0454,0.7227962209407427,918.0756174680824
4901.1724,0.7281320659800822,818.0931639257138
4902.3,0.7340474496182731,917.1379695777359
4903.4307,0.7408241296121258,771.7146202111718
4904.5586,0.7482183616814737,799.4322123340736
4905.6895,0.7556072879795784,714.4300272401749
4906.818,0.762121989932813,687.0648108539503
4907.9497,0.7672124167308746,760.2453161950866
4909.0786,0.7708307708080598,750.0187381604411
4910.208,0.7735063355146815,742.2285301454041
4911.3403,0.7759686092729787,748.3709613848326
4912.47,0.7787919519959154,830.2453429663047
4913.603,0.7822620359307753,779.1760773481831
4914.7334,0.7863423320547018,884.2667810076605
4915.8667,0.7908704241480201,754.8569446620595
4916.9976,0.7956138401870921,694.6127932736064
4918.1284,0.8003800556666893,747.3575346881915
4919.2627,0.8049156856862945,657.8636064214509
4920.3945,0.8088069318671144,507.4602925490984
4921.529,0.8116812736067902,650.2225336502278
4922.661,0.8134134165998345,607.862232542717
4923.7964,0.8143393522027499,723.6219721908426
4924.929,0.8150987174436078,682.0412095359077
4926.062,0.8163226560463396,603.6483065071517
4927.1978,0.8183521537697979,662.1494014219311
4928.3315,0.8211525383511576,611.0441914039626
4929.468,0.824467397053704,648.3244632128669
4930.602,0.8279617807915206,666.5998550126067
4931.739,0.8313925140985785,629.6500559568657
4932.8735,0.8345726625012904,615.1000292771428
4934.0083,0.8373771456606676,622.6456054470088
4935.146,0.8396971493411969,589.5993649301176
4936.2812,0.841448945558838,687.919875380701
4937.4194,0.8426806603707215,554.0053261351378
4938.5557,0.8435986254807752,602.8772265916455
4939.6943,0.8445426325353057,619.2213038043807
4940.8306,0.8457878716084646,607.3516507839233
4941.9673,0.8473925096878474,714.4349689853868
4943.107,0.8492096282459949,645.3236235043796
4944.244,0.8510529048851101,585.850624760074
4945.3843,0.8528685023122536,578.0954664334114
4946.522,0.85465486209877,670.6805587080048
4947.6626,0.8563502356627012,598.3152608125289
4948.801,0.8577710277174915,601.0343295562158
4949.9395,0.8587992282639562,673.5938881647522
4951.0806,0.8595291833290216,558.0235104406919
4952.2197,0.8602216845385321,634.6420134824666
4953.362,0.8610849948617929,622.6812084189427
4954.501,0.862098408170705,557.3297144749425
4955.6436,0.8631113064565921,552.5241387244054
4956.7837,0.8640328737828797,648.013693315926
4957.924,0.8649299917078783,586.5614956474305
4959.0674,0.8659025094433694,695.0852658858796
4960.208,0.866942526936795,504.8748968234407
4961.352,0.867971003706106,573.2494883462437
4962.493,0.8689264410242387,556.2210502017674
4963.6377,0.8698390387370146,632.3538214674849
4964.7793,0.8707631806065361,500.27719500849145
4965.9214,0.8717385052988682,607.9512080464432
4967.067,0.8727877506941343,539.9638490420716
4968.2095,0.873954216036496,658.853830353364
4969.355,0.875339847236205,568.5132480176653
4970.498,0.8770360250595095,521.7680107899249
4971.6445,0.879067064323264,566.780965785935
4972.788,0.8812805512471424,548.5322620649597
4973.932,0.8833867711415944,555.6732411061262
4975.079,0.8850595554407523,504.9501663299611
4976.2236,0.8861145547366224,580.5824266665936
4977.371,0.8866328316323523,536.3776856840157
4978.516,0.8868519972674209,529.6785416024122
4979.664,0.8869920385870561,578.1223215555428
4980.8096,0.8871556790229267,516.7215144099921
4981.9585,0.8873910678148048,545.2395275147672
4983.1045,0.8877586180940561,592.1684896021466
4984.251,0.8882798666235623,561.0600919136893
4985.4004,0.888814908678038,502.9348838695019
4986.547,0.8890566497313396,529.9205499134937
4987.697,0.8887208441752037,562.5490567145754
4988.844,0.8877602339481945,632.8419770983162
4989.9946,0.8864216432695624,617.3682558020338
4991.1426,0.8851525013618085,577.2410744963274
4992.291,0.884418546897854,565.6937589894225
4993.442,0.8845720917969327,461.9175573415814
4994.591,0.8856934600541128,598.8486059831696
4995.7427,0.8874848789772144,546.5057123336934
4996.892,0.889333529648815,555.6409770236003
4998.044,0.8906542244508071,479.584698334383
4999.194,0.8911860446273459,625.6163922338634
5000.3438,0.8910754474179207,516.9233786978657
5001.497,0.8906638752258461,531.0842324653371
5002.6475,0.8902406612700643,532.8326798622106
5003.8013,0.8898904232184691,663.756577188667
5004.952,0.8895157230532239,497.93778002250474
5006.1064,0.8889712674227589,528.2419238829859
5007.2583,0.8882379566444968,515.1456875034596
5008.41,0.8874558892728883,549.4430463521758
5009.565,0.8868051721254255,544.8673366873395
5010.7173,0.8863567734441277,561.755083124098
5011.873,0.8860454297213333,573.2349962232935
5013.026,0.8858078367245081,583.0214034418656
5014.1816,0.8856756946465207,569.554893206922
5015.3354,0.885704235393662,557.4739494692241
5016.4893,0.8858024044443814,547.7126225121955
5017.646,0.8857234484715241,513.6216739620172
5018.8003,0.8853097447595908,515.6480845139228
5019.9575,0.8847610508512889,584.7237060310945
5021.1123,0.8845953338851795,593.6176522940303
5022.27,0.8852322483037405,587.3710690775181
5023.426,0.886564392731753,622.4920318347797
5024.581,0.8879231806112615,542.4912072482217
5025.7397,0.8884761405214859,593.6512360641831
5026.896,0.887720111313988,451.4226352714944
5028.055,0.8857372421396997,607.9468098538781
5029.212,0.8831150803363439,560.4432148854908
5030.3716,0.8806159770770727,541.2166617681044
5031.529,0.8788876688840821,714.2905634142281
5032.6865,0.8782037252027032,605.7778302826376
5033.847,0.8784884507236604,586.1762887694686
5035.005,0.8795044721412669,522.2701282610782
5036.166,0.8810784083365231,505.80878060289683
5037.3247,0.883096059670018,561.4886349184819
5038.4863,0.8853642750373676,556.4467935909087
5039.6455,0.8874765374557664,534.7851122187972
5040.8047,0.8890008849005042,612.9367386686787
5041.967,0.8897393225184916,553.2707671872048
5043.127,0.8898356358089379,666.6724093746205
5044.29,0.8896085976815397,559.3095866193197
5045.45,0.8892859323078681,567.8098362725756
5046.614,0.8889189941664418,552.1652935139505
5047.775,0.8885003068607641,514.9906402189557
5048.936,0.8880570126226782,401.2240615592753
5050.1,0.8876174054126192,613.2850848275501
5051.262,0.8871459363818912,560.225740559871
5052.427,0.8865769168465916,629.85502767409
5053.5894,0.8859348111699782,489.5692111797491
5054.7544,0.8853497157831869,549.6121570470937
5055.9175,0.8849480609522613,534.9608614449132
5057.0806,0.8847192337110609,571.5208659147595
5058.2466,0.8845423202606328,556.6061119343453
5059.41,0.8843507219718658,530.2000498025202
5060.577,0.8842808359563517,504.7838209305811
5061.741,0.8846645695064397,613.6801431241389
5062.908,0.8858244303101493,518.9738460543907
5064.073,0.8877346303783292,612.6071052684243
5065.238,0.8897616661830093,534.0787943082179
5066.4062,0.8907246783112298,575.6742788422758
5067.572,0.8894354574993995,436.6254225940707
5068.74,0.885511435335469,591.6435127265761
5069.9062,0.8798444157370592,568.2181513565345
5071.075,0.8741834201460329,545.7833103845302
5072.2417,0.8702494379958263,642.9409529613062
5073.4116,0.8687500368636059,564.040685373896
5074.5786,0.8692388272835483,543.5255195945825
5075.746,0.8706338194530172,574.8153884519063
5076.9165,0.8720886891555217,527.0914558752035
5078.0845,0.873486667306292,679.1662758917365
5079.2554,0.8753065487365176,594.5429914265604
5080.424,0.8779554072434517,501.4509886798309
5081.5957,0.8812752137693757,597.2949268030994
5082.7646,0.8845169720141141,519.0065393891655
5083.9336,0.8868897019043558,681.5363267000909
