wavl,flux,ivar
3566.9744,0.5451445022329885,193.45341225568617
3567.795,0.5475667915626201,353.3794334732461
3568.6177,0.549166790518293,350.9747104212915
3569.4385,0.5498081138663211,208.33193732483872
3570.2617,0.5496210064184206,537.9769999454948
3571.083,0.5491225387593683,621.5290102017661
3571.9065,0.5490173671244675,179.5238993946989
3572.7283,0.5497695563395191,340.90367170415647
3573.55,0.5512772570915953,335.2473475685102
3574.374,0.5529291646588335,307.28195464178566
3575.1963,0.5540084376271442,485.6049367323419
3576.0208,0.5542300767746995,320.94025515060065
3576.8435,0.5538965415613095,280.7937360546913
3577.6682,0.5535447996161807,279.1925605759887
3578.4915,0.5533485239587903,335.4531063542408
3579.3145,0.5528351038799415,180.9904863184009
3580.14,0.5512117257476085,179.988767816676
3580.9636,0.5480729858339785,419.61426568751097
3581.7893,0.5438382863248683,199.87977072283874
3582.6133,0.5396075052624452,773.9512674802402
3583.4395,0.5363388496821856,307.06037651872794
3584.264,0.5342566642045791,236.27425426470214
3585.0884,0.532841976982303,308.98461006829086
3585.915,0.5315101375565603,329.44948568999575
3586.74,0.5301502235482957,393.19887810979895
3587.5671,0.5290636047637576,496.4026358115266
3588.3923,0.5286317044288971,265.3568248217514
3589.22,0.5290935722029492,219.93639264410427
3590.0457,0.5305138183685575,362.03435860827165
3590.8716,0.5326597210033474,273.8324070234357
3591.6995,0.534842353680257,230.35734796083077
3592.526,0.5360552349276911,307.0695640002501
3593.3542,0.5355634730669853,164.71149870521748
3594.181,0.533432041167155,381.07062196724354
3595.0098,0.5305472014047327,185.31207577951935
3595.8367,0.5281497086008615,508.4782707759004
3596.6638,0.5271916458831994,159.1040571442562
3597.4934,0.5280900764640526,1203.2828046300806
3598.3208,0.530741860276225,699.8609275110521
3599.1506,0.5346466931821034,284.7109984406762
3599.9788,0.5388878971565998,292.25823330034416
3600.8088,0.5423515437718851,410.18710114400176
3601.6372,0.5440895456801352,450.08936112580795
3602.4678,0.5438453230157684,245.96162271114977
3603.2964,0.5421151123421077,421.3154114710369
3604.1252,0.5397293528390353,202.80995955024423
3604.9565,0.5372798016190009,671.5246476013795
3605.786,0.5349017806073478,234.291775646312
3606.6172,0.5324239162791716,237.85812906944693
3607.447,0.5297692029218193,330.60274431116864
3608.2788,0.5270746421789692,666.5307756624968
3609.109,0.5246086699850704,268.7083033813292
3609.9392,0.5225051127404721,244.8488769583721
3610.7717,0.5207007740368013,339.88957046077155
3611.6023,0.5190791824753995,487.2549521170085
3612.435,0.5176539732135971,214.67831069276667
3613.266,0.5166794879147981,316.5792360383031
3614.0994,0.5164966953473076,392.68055853734523
3614.9307,0.5173256240910026,251.12051989949487
3615.7625,0.5190810257242219,305.9145449136392
3616.5962,0.5213038876954057,479.5135740386115
3617.4282,0.5232207005092488,282.4108869892907
3618.2625,0.524059954621876,290.8335049218837
3619.0947,0.5234185202785375,317.1683065746106
3619.9292,0.5215386628630673,258.52166984938356
3620.762,0.5192540384648592,338.72372394705246
3621.595,0.5175668863857658,267.5368160112723
3622.4302,0.5171642021795112,401.2472941439605
3623.2634,0.5181442889350919,379.82003153734064
3624.0989,0.5201391642632036,398.23727359913124
3624.9326,0.5226249594348645,280.8258539285987
3625.7686,0.5251927459000313,343.2660755784399
3626.6028,0.5276195579502468,209.71751650000493
3627.437,0.5299988576236275,270.6358827290758
3628.2734,0.5326994311982273,328.61679671865284
3629.1082,0.5360097743917636,879.5803622680987
3629.945,0.5396858104570115,505.4013672325965
3630.78,0.5427131305525678,434.08277895227224
3631.6174,0.5438004786349458,194.34475036556995
3632.453,0.5420874961566527,272.1055670338381
3633.2883,0.5376816869803325,193.943549742914
3634.1262,0.5315641811964353,374.4504641680428
3634.9622,0.52521316030665,286.9617469893596
3635.8005,0.5199540935234249,497.22744404733083
3636.637,0.5166485751709439,551.8357544106269
3637.4756,0.5153480792194932,212.06574108017128
3638.3123,0.5153972547114059,383.68873962688315
3639.1492,0.5158132188958473,238.6815082478396
3639.9885,0.5159452543631141,267.2951483814704
3640.826,0.5159057160467287,308.9526969250149
3641.6653,0.5163891279667062,594.420649742144
3642.5032,0.5179767622494358,385.9436920489611
3643.343,0.5205857858593969,304.9895368375365
3644.1812,0.5234985586579746,253.6096200674704
3645.0195,0.5259244269149242,322.7303133974198
3645.86,0.5274637612253618,231.6895100352218
3646.699,0.5282513243942547,670.1555627232622
3647.5398,0.5288512385813884,379.73561851473517
3648.379,0.5299449069821319,357.55521984797406
3649.2202,0.5319011652671509,384.34067487283477
3650.0596,0.5342774192449832,343.0997084949141
3650.8994,0.5357909578721542,642.401106887679
3651.7412,0.5350149834330823,246.57214372744104
3652.5813,0.53154014036438,270.691088704401
3653.4236,0.5265100829747582,365.5855724518242
3654.2642,0.5220473095521345,1311.7597356445028
3655.1067,0.5198885946385027,228.4415206041952
3655.9475,0.5205314128746482,326.1902658637849
3656.7886,0.5231571945731411,440.01999641027356
3657.6318,0.526225306739501,481.1863620729334
3658.4734,0.5281114929163789,273.63067145064497
3659.317,0.5276603854950117,373.8651767315815
3660.1587,0.524425206729243,198.6208061212145
3661.003,0.5187071328982893,171.0104554940411
3661.845,0.5115034396964022,333.4435570480911
3662.6875,0.5040700693518199,621.2340858371388
3663.532,0.49746150661502053,201.10051134019386
3664.3748,0.4921781348410279,254.98322001500728
3665.2197,0.48814264262326856,374.4976883343735
3666.063,0.4852237764639738,263.4558592012497
3666.9084,0.4835322832040089,807.853403434727
3667.752,0.4835367498695819,368.0441941598105
3668.5977,0.48586339164774567,614.6782888354669
3669.4417,0.4909787629240629,365.4810386686331
3670.286,0.4987544280236728,421.0841654681054
3671.132,0.5080389023245083,285.453041637125
3671.9768,0.5166602060686739,437.1865844034738
3672.8235,0.5224200973794899,187.49009460302224
3673.6685,0.5241663659168444,200.48163677192457
3674.5156,0.5224579819875428,233.62354358612177
3675.3608,0.5190349661448269,327.4315375391137
3676.2063,0.5156745044927812,499.5863515385979
3677.0542,0.5133324743980047,452.5653167230139
3677.9,0.5121211384836405,359.3364172870764
3678.748,0.5118804421905349,429.56388181933545
3679.5945,0.5127579465474941,421.5823535561172
3680.4429,0.5151393225622688,335.4806230070865
3681.2896,0.5191167048228976,211.2362881327819
3682.1365,0.524185355028592,731.9634550283454
3682.9856,0.5294148243060549,214.18362223625383
3683.8328,0.5338560412220981,474.4461006704254
3684.6824,0.5369557945632784,259.5035527648174
3685.53,0.5384964719869272,330.4572914823632
3686.38,0.5384723155387126,297.01265138213245
3687.2278,0.5369229976225018,301.37293483479436
3688.0762,0.5340242285044392,604.6416217254348
3688.9265,0.5302054802056406,342.86417682708463
3689.7751,0.5260533107329585,186.28129989152262
3690.626,0.5219417107077304,467.30887421417606
3691.475,0.5180208133900542,293.30946183652907
3692.3264,0.5144049886797755,267.62106378354576
3693.1758,0.5114650141451721,289.24720159701167
3694.0254,0.5095939655904184,373.5416513003135
3694.8772,0.5088652075945831,200.40677644318131
3695.7273,0.5089395772580206,387.90458978583376
3696.5793,0.5094716699020787,260.18956205286145
3697.43,0.5106389029303431,427.767222438333
3698.2825,0.5131342718871739,186.51536447238473
3699.1333,0.517371313531613,371.162243550389
3699.9841,0.5226498769141349,494.03775309301744
3700.8374,0.5271791851096479,299.83584692985795
3701.6887,0.5291537058106525,272.9422221141447
3702.5425,0.5280773711190289,329.1136616240036
3703.3943,0.5249769117338122,288.10164836991436
3704.2483,0.5215143091450377,289.2175282696497
3705.1003,0.5188770232406916,344.47230436528156
3705.9526,0.517160383605541,306.2168931108556
3706.8074,0.5156561164484791,437.2603803390662
3707.66,0.5136284684048299,503.0829155215528
3708.515,0.5110206489867859,381.2232544276643
3709.3682,0.5086847022350973,272.19459303007903
3710.2234,0.5078279433922259,390.63142402937274
3711.0771,0.5092163333927119,415.10961317321625
3711.9307,0.5126047411477133,487.91959746723717
3712.7866,0.5167977179653841,343.0905497328198
3713.6409,0.5201194402940676,282.90499612936605
3714.4973,0.5212543294183966,258.743687240771
3715.3518,0.5198771958667505,375.32147894885475
3716.2085,0.5167534660245676,403.5463799601132
3717.0635,0.5130279953248187,405.3231771565871
3717.9185,0.5092060235203494,166.02953185327067
3718.776,0.5049123494597149,398.38028572914357
3719.6313,0.49972199858357313,303.3429340714344
3720.489,0.4941203718655916,429.13842051376093
3721.345,0.48978368881256545,348.0679695674101
3722.2031,0.4885233755583806,367.673402930213
3723.0593,0.49099171495118554,288.10782440480875
3723.9158,0.4960229145308641,310.88102683189084
3724.7747,0.5012142789717652,386.48507950093176
3725.6316,0.5040943304885591,347.4112613554756
3726.4905,0.5032971467132635,273.0759743983613
3727.348,0.4990458602247852,360.50117776751404
3728.2073,0.49305846284772936,450.4605183586965
3729.065,0.48786354458686226,730.6372268745905
3729.9229,0.48547319502379316,532.7914645308795
3730.783,0.48636801244614897,390.5902363810738
3731.6414,0.48939653204378675,317.1045607160109
3732.5017,0.492836996164657,232.80551934213395
3733.3604,0.49564839912306446,292.26563440053354
3734.2214,0.4980251294310449,345.0748992796151
3735.0803,0.5008323350377347,324.5079017081089
3735.9417,0.5047379641531767,265.02322602743374
3736.8013,0.5095575598220837,369.92896126937217
3737.661,0.5143759402860474,345.84017580045304
3738.5227,0.518080519212731,246.12994909639588
3739.3828,0.5199886444920374,201.97265768685847
3740.245,0.5202279948043789,459.9479236059909
3741.1055,0.519462299535646,482.9907993028169
3741.9683,0.5182885196278396,281.33224322709685
3742.829,0.5167778401084108,260.6700622307582
3743.69,0.514498097169549,442.89026715245234
3744.5532,0.5110008315333091,219.97670070512288
3745.4148,0.5064602871224666,261.8344518946698
3746.2786,0.5018868423240281,310.68050543419014
3747.1404,0.4987944562476764,284.7454935301136
3748.0044,0.4982141007420477,279.7847403115519
3748.8667,0.5000841070087896,394.31211305007656
3749.729,0.5034134717529379,251.65238790034445
3750.5938,0.5070144096266485,306.56627221855916
3751.4565,0.5098998572918858,300.81008742300116
3752.3215,0.5112871534473008,357.1862661948834
3753.1848,0.5104950601386573,507.62406134342143
3754.0503,0.50727540622981,230.5558399101898
3754.9138,0.5021985511276358,411.49151065191194
3755.7776,0.49653331645544513,235.89991913852225
3756.6438,0.49172750149791156,298.65784955057575
3757.508,0.4888743828922637,518.6269313562927
3758.3745,0.488394817894694,252.25430913295298
3759.239,0.49019669554058837,377.12563696912
3760.106,0.4938629954497409,228.36977373694728
3760.971,0.4986789295658843,370.51853711378084
3761.8362,0.5036841440557434,271.4396135863608
3762.7036,0.5078198583107206,345.978377484211
3763.5693,0.5102702331632197,282.55738200945973
3764.437,0.5108095829656846,316.90160851922724
3765.3032,0.5097476882642952,382.9834025983676
3766.1714,0.5077085367510855,306.71119525599806
3767.0378,0.5053734054080039,350.51398326321714
3767.9043,0.5032061388765579,353.5949087669741
3768.7732,0.5012751225832979,787.5873895716752
3769.6401,0.4993450923344126,333.22380346834615
3770.5095,0.4973008983141205,412.139321429718
3771.377,0.49568592843147996,316.0204570766682
3772.2466,0.4955914642350511,259.54847019668733
3773.1145,0.4978538333582912,856.2882471569058
3773.9824,0.5020838129730154,352.8083327412335
3774.8528,0.5064730827500235,344.55176953707144
3775.721,0.5085357074025255,230.71838139188384
3776.5918,0.5062570821196462,257.9271329031099
3777.4604,0.4984509456960124,394.527875440308
3778.3315,0.4843269142570005,334.31906936877476
3779.201,0.46379724436803077,444.31913184812873
3780.0703,0.43887361746780557,318.24310064517226
3780.942,0.4153139647775425,482.71164477930307
3781.8118,0.4015285257912326,827.5964791300144
3782.6838,0.4034545704041618,372.78691004188704
3783.554,0.4202184303112076,372.99783736677824
3784.4265,0.4444137616785134,477.15023460294316
3785.297,0.4667669139191818,253.51444260143697
3786.168,0.48169511545741395,259.0884886961994
3787.041,0.4886856672364956,372.0442206290939
3787.912,0.4904537439743841,378.82058265662687
3788.7856,0.4902425077521547,260.3811600476861
3789.6572,0.4901359403009531,378.1115345385132
3790.531,0.49091984126325516,302.313449657383
3791.403,0.4925758686609907,247.95455436913338
3792.2754,0.4947341681497526,257.2791923116932
3793.15,0.49689347484258933,769.0473595830629
3794.0225,0.49850629678053376,320.1197866598335
3794.8972,0.49909353029744363,334.5325249493592
3795.7703,0.4983581478606028,494.6217697463148
3796.6455,0.49640785410768706,305.765080635476
3797.519,0.4938903771638635,287.3754119385244
3798.3926,0.4917752558976334,269.60442575154667
3799.2686,0.49089527580693515,551.7934170588135
3800.1426,0.4915510269763416,320.0854281586977
3801.0188,0.49348981959462934,339.90964512405856
3801.8933,0.4962788622845481,378.8259129894493
3802.77,0.5000010969654605,469.9258137208287
3803.6448,0.5062357828855596,246.4185483383859
3804.522,0.5193599906820036,370.5272777757669
3805.3972,0.5462646651899019,402.3828551035148
3806.2727,0.592773526113627,380.0698865188865
3807.1504,0.65645124426151,561.3517621404098
3808.0261,0.7208929884437887,292.22280380716484
3808.9043,0.7616182752810469,278.3172057283643
3809.7805,0.7599313378050992,302.23561318304587
3810.659,0.7167193282914548,430.169842271756
3811.5356,0.6515068662631354,338.2974696843762
3812.4126,0.5882049248707734,270.039169323579
3813.2917,0.541729150952233,506.38347362465436
3814.169,0.5145848499291897,338.97344767253105
3815.0483,0.501114710865269,318.18536192116346
3815.926,0.49464659324108884,340.72666064835886
3816.806,0.4908135330040663,302.372350392727
3817.684,0.4881146722366634,266.5942721336921
3818.5623,0.4866215514041501,321.6740481632588
3819.4429,0.4866712441260975,357.65330489214864
3820.3215,0.48808398358486826,539.9540412328001
3821.2024,0.4900643326503664,290.8838311528039
3822.0815,0.4915222296579389,345.11742936257633
3822.963,0.49157094603274076,394.36173252746954
3823.8423,0.4898728096793101,224.05412871684644
3824.722,0.48674422059669264,307.92103666369076
3825.604,0.4829366383121768,323.18439095545546
3826.4841,0.4792901427790644,340.2967428224818
3827.3665,0.47633352027314546,400.8691258077859
3828.2468,0.47424120357962724,401.35365759052513
3829.1296,0.4728617590424398,494.3674479461474
3830.0105,0.4718967390049179,456.3562136219055
3830.8916,0.4710089949528575,420.48469525710243
3831.7751,0.4699622781054959,543.6806892251449
3832.6565,0.46867711192733486,392.5472164756635
3833.5403,0.46711359879968306,367.1726587043589
3834.4224,0.4651598414762587,336.6748387748171
3835.3064,0.46264011254849946,368.0701313346415
3836.1887,0.45960996492536776,382.33699342321114
3837.0713,0.4565644297220101,478.6401183454735
3837.956,0.45438669447433094,1017.5809049060687
3838.839,0.4539339776605155,481.63912349186785
3839.7244,0.45549356876485303,487.89508552837697
3840.6077,0.45855892313774066,351.59681108092684
3841.4932,0.46210378147750475,299.9527846788594
3842.377,0.46508968957754887,401.92409419711083
3843.261,0.4670377907696801,300.75956902233753
3844.1472,0.46824188202595485,337.61874240786847
3845.0315,0.46963558985446896,239.89954553295794
3845.9182,0.4723137815421401,494.8736951306738
3846.803,0.47685897417663825,391.66152554114984
3847.69,0.48307517658993643,432.9833235607195
3848.5752,0.49014114019780364,364.75464241511474
3849.4604,0.49721946643001114,278.34717657144574
3850.3481,0.5037586258805204,291.12604222083075
3851.234,0.5094440893576773,321.5417005417352
3852.122,0.5141953848607154,360.6841293257118
3853.0083,0.5179726000104035,324.85778960414467
3853.8967,0.5208079695190241,323.1778372149853
3854.7832,0.5227157701172706,454.6236113566214
3855.6702,0.5238339706804744,295.6986592240801
3856.559,0.5244761292657386,706.3595076828744
3857.4463,0.5249935114807097,368.2934161649472
3858.336,0.5254745842184052,562.1217280864975
3859.2234,0.5256330164190244,261.1879495313873
3860.1135,0.5251279994788814,305.3114478282621
3861.0015,0.5240210600131423,240.42093232992173
3861.8896,0.5229035020198104,233.2228971272592
3862.7803,0.5225405288542806,280.72447306801905
3863.6687,0.5232845586211674,231.1853716863422
3864.5598,0.5247432514475369,370.35257465124016
3865.4487,0.5260150776743379,179.5269184722651
3866.34,0.5263529246603265,458.7034433110913
3867.2297,0.5255985059622394,316.8346524882959
3868.1213,0.5240641053127811,243.35517718970675
3869.0112,0.52206949942959,293.3102816515583
3869.9014,0.5196304306271314,262.80776556835576
3870.7937,0.5165516394791856,374.0014934916462
3871.684,0.5127206394394578,300.59938901849256
3872.577,0.5082466328419807,331.49322604232384
3873.4678,0.5035272028738534,325.10258829053623
3874.361,0.4989143030615329,251.55591747506506
3875.2524,0.49443227264861855,212.21599977782788
3876.1438,0.48956172344879845,385.0114235347507
3877.0376,0.48363087494736406,359.8672768052218
3877.9297,0.4765212710766915,224.70668638894162
3878.8237,0.46890101408683765,405.04309438137574
3879.716,0.4619262267235022,395.74059882891714
3880.6108,0.45622899382884885,331.08297928957217
3881.5037,0.451433256904251,548.3829613718256
3882.3965,0.44632677255599584,438.87569003948755
3883.2917,0.43985039369598394,419.8668660629765
3884.185,0.4319630988179731,347.4313879446054
3885.0808,0.4235283684283337,957.2023745533854
3885.9746,0.41577021961620286,525.1361156016737
3886.8706,0.4094309126173878,507.22072972503275
3887.765,0.4047530978906424,423.1207079075397
3888.6592,0.40169163896991683,560.3504048309798
3889.556,0.4003204081681748,534.5348831297257
3890.4507,0.4008922509732076,614.940761798763
3891.348,0.4036146473030683,557.1480119078924
3892.243,0.40837611403766566,591.721826774359
3893.1406,0.41471406561372576,551.634356306463
3894.0361,0.42189085341352656,548.4062622812598
3894.932,0.4293523142464285,465.0878015989359
3895.83,0.4369220932005303,227.30071598118434
3896.7263,0.4446425596900281,450.58374426590564
3897.625,0.45257023283292874,365.55571038150265
3898.5215,0.46044903274745286,276.7656556390166
3899.4207,0.4680614602475895,398.60239341715965
3900.3176,0.47534271084750024,515.4621833061229
3901.2148,0.48249906503551976,342.21454899278024
3902.1145,0.4895931569518379,459.3778433958305
3903.0122,0.4962279424872626,305.40421700893154
3903.912,0.5018347673530557,330.3769871171834
3904.8103,0.5060782470819599,334.0019446787469
3905.7107,0.5093473688390141,181.251719786749
3906.6094,0.5125287900241076,266.8785505679644
3907.508,0.5164155520963505,212.36785461916537
3908.409,0.5210786507446652,324.7944523361676
3909.308,0.5257915937113129,194.606150928408
3910.2097,0.5296675863580812,331.85890082240905
3911.1091,0.5322404175204656,427.6425649878873
3912.011,0.5337981792282603,345.5618379320078
3912.9111,0.5351615047566789,225.03430625626663
3913.8113,0.5373498226779064,501.30701398206287
3914.7136,0.5411476218735253,363.5213227186359
3915.6143,0.5466422193187191,228.78886085204664
3916.517,0.5530926497412679,342.39794397862244
3917.4182,0.5591597874492507,295.843412737726
3918.3215,0.563774137144078,194.42523161700836
3919.223,0.5667204538818027,277.4288099564398
3920.1245,0.5687392555006932,240.81883296966816
3921.0286,0.57083813825325,221.30217240571343
3921.9307,0.5735132806376838,277.42316184401864
3922.835,0.5764675922721313,348.91991699483833
3923.7373,0.5788466649504697,216.18035940355003
3924.642,0.5799025315510258,205.13683196500568
3925.5452,0.5795039730562715,208.89836716063786
3926.448,0.5783049652405167,266.0867257795495
3927.3535,0.5773430568818758,341.62653592186246
3928.257,0.5773674505924503,478.0969180649654
3929.1628,0.5783141869247685,269.00682308711845
3930.0667,0.5793496900838119,238.76462232372486
3930.9731,0.5794047351251418,179.36256934357883
