wavl,flux,ivar
3566.9744,1.1839709949634063,239.77012108481017
3567.795,1.1838188833742012,265.4588085625958
3568.6177,1.1842556538437272,223.07084246113115
3569.4385,1.1841753852596257,180.6798688088468
3570.2617,1.1830364258107693,209.7984401989312
3571.083,1.1812640070790525,217.79700726574893
3571.9065,1.1799344455266432,220.1557786251381
3572.7283,1.1800448069417226,237.76305757190755
3573.55,1.181844720682155,195.36269153933438
3574.374,1.1847160876557024,176.36579307782702
3575.1963,1.1874550977857217,232.56447777264438
3576.0208,1.1888503247591493,196.53892546438112
3576.8435,1.1881840730356632,231.72409821000622
3577.6682,1.1856132498593388,250.84188527242978
3578.4915,1.1821242069800075,193.2185691492454
3579.3145,1.1789537099672833,227.09248056788059
3580.14,1.1768424945401899,246.40782999711442
3580.9636,1.1756047397382636,232.82400559222944
3581.7893,1.1742749332899247,210.51581136148886
3582.6133,1.1718818049064024,234.53875351656288
3583.4395,1.1681982547329997,233.35843025430705
3584.264,1.1639792827068258,243.26417208016184
3585.0884,1.1603184637083939,252.41797795038062
3585.915,1.1578272828993708,267.1982320141932
3586.74,1.1562748877749467,219.33796255578915
3587.5671,1.1548911117070944,221.6193902680502
3588.3923,1.1531316022700007,202.57611257359122
3589.22,1.151190427001663,223.74008008161962
3590.0457,1.149961357188492,265.2638355021579
3590.8716,1.1502903761623993,291.89799132652547
3591.6995,1.1521920188833528,272.6087914732817
3592.526,1.1546334565479193,211.06667025795235
3593.3542,1.1561876638072388,203.94805997267815
3594.181,1.1558936727147082,220.56537959925853
3595.0098,1.1537209529876884,214.5311069133563
3595.8367,1.1504221030185564,212.9331574907671
3596.6638,1.1470553234540168,310.2274850013752
3597.4934,1.1445574714625293,287.7122498457851
3598.3208,1.143404724378175,224.15525192794982
3599.1506,1.1433743897402229,219.70044194690618
3599.9788,1.1437333465497403,268.3319175032775
3600.8088,1.1437891101448254,274.89926227533675
3601.6372,1.1434746394136543,239.9023716235317
3602.4678,1.143354554000271,309.491337554715
3603.2964,1.1439058608830812,242.07261713988945
3604.1252,1.1447577624223322,203.37062062154035
3604.9565,1.1448041166883822,222.25002656920756
3605.786,1.143203406529098,221.33792229894232
3606.6172,1.1402254085524306,272.69176814372844
3607.447,1.137045105417838,189.81136718753783
3608.2788,1.1346587888383672,232.9303641934558
3609.109,1.13313576045802,270.6688018845336
3609.9392,1.1317058857711904,255.16984141847587
3610.7717,1.129548349260975,253.5106776655237
3611.6023,1.126520213423041,242.59141128484765
3612.435,1.1232557369809018,216.89033793484475
3613.266,1.1207455506403188,360.6076081925212
3614.0994,1.119612337383984,230.74690793476987
3614.9307,1.1198343033820388,218.13223951997298
3615.7625,1.1209385526267985,195.7391976866886
3616.5962,1.122422760016514,291.7536508638919
3617.4282,1.123922821669208,230.66538200199557
3618.2625,1.1251910603007655,273.83864593242185
3619.0947,1.1260477966151698,232.30455326377847
3619.9292,1.1265072888026548,264.3646176277861
3620.762,1.1268383162652575,201.8939924692459
3621.595,1.1274342351157864,198.77150141544826
3622.4302,1.1284602431926751,304.9576401371249
3623.2634,1.129556573125115,208.519615572219
3624.0989,1.1299637087512877,235.4817221382469
3624.9326,1.1289894668379594,240.82627024274322
3625.7686,1.1264158724706268,249.55798371614463
3626.6028,1.1225006333041831,223.39607228227524
3627.437,1.1176906946952572,263.9159700721565
3628.2734,1.1125388295786502,222.66114340663916
3629.1082,1.1078226268992695,308.18288913516426
3629.945,1.1043518880810044,275.87589067510197
3630.78,1.1026937235144176,254.91039180744326
3631.6174,1.1028603759646056,210.0703672157489
3632.453,1.1044246694742932,256.45970322906965
3633.2883,1.1067540997758187,221.1652735460277
3634.1262,1.1091933045236477,275.0944929369646
3634.9622,1.1111550482891683,313.28813092550035
3635.8005,1.1123182741367212,209.35385761885814
3636.637,1.1126785695550194,217.09446820396704
3637.4756,1.1124386219118687,202.119480783793
3638.3123,1.1117425510137722,240.96628260434946
3639.1492,1.1105755980284895,204.1449243343311
3639.9885,1.1088816675975333,330.33516847880185
3640.826,1.106703505232782,250.7388884398966
3641.6653,1.1041271902719023,299.495105680889
3642.5032,1.1012704537411016,315.8069707562197
3643.343,1.0982876366509247,230.13733658899216
3644.1812,1.0955233311700066,313.58857989228113
3645.0195,1.093596374250476,238.61353571424894
3645.86,1.0935242611907285,235.3159121533272
3646.699,1.0964676505183903,263.80537059785337
3647.5398,1.1028430450518334,230.99492256118208
3648.379,1.1111638271606123,250.13407978303135
3649.2202,1.1181217086998476,267.19769847944355
3650.0596,1.1202726815485022,68.64436830557217
3650.8994,1.1165710497829957,280.5437082192501
3651.7412,1.1090062908522293,286.4531633735171
3652.5813,1.1009661017394001,210.76654418632617
3653.4236,1.0946245661935377,242.52310940967837
3654.2642,1.0900657807605199,273.2693540548134
3655.1067,1.0861015186331195,247.01086892463127
3655.9475,1.0819162952089678,230.7938052066228
3656.7886,1.077780824742283,328.60938386101765
3657.6318,1.0746988503174353,262.34487505023685
3658.4734,1.0734114500904977,291.71299878225454
3659.317,1.073597214812184,258.7947796376094
3660.1587,1.074025632474218,277.9637320319274
3661.003,1.0734534925800634,255.29338386025404
3661.845,1.0715527267102485,266.53981779299795
3662.6875,1.0690522765456407,363.4405632266531
3663.532,1.0670275527928503,377.2973143888675
3664.3748,1.0660143000617632,252.37938098676165
3665.2197,1.065674992107146,240.3476997346454
3666.063,1.0652398726216534,285.72143711197594
3666.9084,1.064149996594247,258.27204115939503
3667.752,1.0624688041053978,292.8434868978451
3668.5977,1.060842800084723,263.5791352748973
3669.4417,1.0601357779032223,288.278735435984
3670.286,1.0608073774868165,281.91073320254327
3671.132,1.0625088253408959,344.7120105935183
3671.9768,1.0641792047755516,252.61645204008443
3672.8235,1.064690676491047,282.15592242964215
3673.6685,1.0634636649780282,264.70188366250716
3674.5156,1.0606454375917598,269.745308212081
3675.3608,1.0568713487505925,279.7945604591623
3676.2063,1.052895626923283,300.5123557116259
3677.0542,1.0494529840802216,252.85221903887526
3677.9,1.0471952847703232,304.17685989778283
3678.748,1.0464244909787226,323.50364762297875
3679.5945,1.0468877015712643,276.5615422983658
3680.4429,1.0477516129329596,263.0338191748265
3681.2896,1.0480041515395155,248.80181143445276
3682.1365,1.0470563464171003,315.6791681743076
3682.9856,1.0450766800142297,280.1602869797673
3683.8328,1.0428609395026884,269.8911138785254
3684.6824,1.0412747417349677,309.2759000698206
3685.53,1.0407866886315238,343.85342443831485
3686.38,1.0412448422937253,335.11175005603695
3687.2278,1.0420191134101116,297.773645217224
3688.0762,1.0423325768338212,311.14355765752725
3688.9265,1.041642281083707,263.4681592847317
3689.7751,1.0399577717742683,331.3807753035852
3690.626,1.0379014090150278,347.07006089017943
3691.475,1.0364955735974875,321.95067283406246
3692.3264,1.0366433822265015,266.59611280034676
3693.1758,1.0386210375020737,289.5556328373578
3694.0254,1.0418518992361505,246.3748410710696
3694.8772,1.0452066259126667,254.7522139655738
3695.7273,1.0475983044678459,279.8853398159738
3696.5793,1.048518590567979,261.93065474722243
3697.43,1.0480384121715796,292.13630796193627
3698.2825,1.046558200731864,243.22443951393092
3699.1333,1.0445678642514074,285.89553624918625
3699.9841,1.0425225306583306,302.1845395150449
3700.8374,1.0408021440256328,285.6004787181004
3701.6887,1.0396927758187615,311.9961833938458
3702.5425,1.0393437571741597,260.6954288064636
3703.3943,1.0397573689168134,317.1610311306328
3704.2483,1.0406997668673696,269.0016988064338
3705.1003,1.041660277952593,290.5277429789243
3705.9526,1.042008598934428,344.04512177510725
3706.8074,1.0412705609411543,266.01944663879743
3707.66,1.0393783317749108,264.6840766699334
3708.515,1.0366587141836223,287.8325123638789
3709.3682,1.0336308841446906,276.1389643032712
3710.2234,1.0306251176140009,404.394006141399
3711.0771,1.0276510376829004,322.050327861209
3711.9307,1.024492291558547,291.8458756602146
3712.7866,1.0210365887547515,260.56054033703896
3713.6409,1.0175022370315598,292.4256236339089
3714.4973,1.0142824298978275,262.96870809078837
3715.3518,1.0117459022865773,343.72907969652044
3716.2085,1.009977858685587,300.03423630165327
3717.0635,1.00879743375268,276.9173262081384
3717.9185,1.0078367338965892,385.7608879915636
3718.776,1.0067285918412792,254.47012328563298
3719.6313,1.0052878976261554,319.4034979021881
3720.489,1.0036212475519186,332.527201437454
3721.345,1.0021826517146275,309.3147611590988
3722.2031,1.001612433454473,326.72783072190947
3723.0593,1.002440078333224,365.88849028571025
3723.9158,1.0046887414025254,334.81958229303797
3724.7747,1.0077009076305332,344.7388049884415
3725.6316,1.0103320558685442,332.7319296470715
3726.4905,1.0115747123881431,334.88854192570057
3727.348,1.0110098515780155,267.70708946170265
3728.2073,1.0088588881352138,300.47079616856183
3729.065,1.0056391108342517,268.5114511275714
3729.9229,1.0018312258495936,288.72341157602557
3730.783,0.9979057085140857,334.3379757738773
3731.6414,0.994521491103275,295.17350489518736
3732.5017,0.99241763222314,297.5873451321021
3733.3604,0.9921262205559512,312.9689850646715
3734.2214,0.9936111887865853,359.36374906579
3735.0803,0.9962055041250122,310.4274945441216
3735.9417,0.9988171180550975,392.11868194611196
3736.8013,1.0002087743255514,280.05886649815625
3737.661,0.9995169669068404,275.6352865951887
3738.5227,0.9967445489927379,345.5041141308183
3739.3828,0.9929642056393173,355.5297355871793
3740.245,0.9897431787471266,340.711577758519
3741.1055,0.9882392041889955,333.32356451299086
3741.9683,0.9885221186307079,276.8646979207722
3742.829,0.9897891476384634,354.2052439889245
3743.69,0.9911034397389437,299.8226240216786
3744.5532,0.9919834722481141,274.80437791588696
3745.4148,0.99239783192059,286.224817832511
3746.2786,0.9924323442763504,349.16901075384766
3747.1404,0.9920856572311423,342.7386956898551
3748.0044,0.9913901361845594,349.6201953938181
3748.8667,0.9906042534118006,294.08292593832425
3749.729,0.9902032081500529,314.9901086736406
3750.5938,0.9906924884115024,284.6715252099835
3751.4565,0.9923254746907638,329.5389781323453
3752.3215,0.9948802314558486,310.7795257659712
3753.1848,0.9975789931261887,309.0987135421811
3754.0503,0.9993823146498222,282.70155822497264
3754.9138,0.9994384048367713,314.1707119890842
3755.7776,0.997532692291655,280.25437987829935
3756.6438,0.9941565285238458,337.5611501571313
3757.508,0.9903469940633444,346.57913530704656
3758.3745,0.9872619636920099,310.8956733012312
3759.239,0.9858115193746448,352.3987093060817
3760.106,0.9862288266320773,303.59094892446967
3760.971,0.9879653108353907,313.7171089592667
3761.8362,0.9899417201779809,336.0393672080137
3762.7036,0.9910789421498566,325.834609796975
3763.5693,0.9908003297374711,285.01947682811675
3764.437,0.9892394982164483,380.66994409663425
3765.3032,0.9870050897127643,324.9109903577493
3766.1714,0.9846957025975464,320.5192882245758
3767.0378,0.9826154788645394,320.7808216581834
3767.9043,0.9807724303354095,341.7383247569683
3768.7732,0.9790940446564536,282.84584224086865
3769.6401,0.977538032268211,416.41392651726824
3770.5095,0.9760394219500721,333.14769680325395
3771.377,0.9745730137791626,298.7263328721264
3772.2466,0.9732256608338368,333.46425406688905
3773.1145,0.9721910739721538,313.8833805130232
3773.9824,0.9715019032098486,328.81019888645204
3774.8528,0.9708423385892546,341.74488145224166
3775.721,0.9696955077908511,316.59399955047826
3776.5918,0.9677283182938012,312.95504663996184
3777.4604,0.9650903905842909,341.6931663203812
3778.3315,0.9622582039583438,352.76098728088493
3779.201,0.9597408673708298,348.5795547890224
3780.0703,0.9578051205467953,366.99044194011
3780.942,0.9565311286154228,295.7043706133995
3781.8118,0.9559542701271149,324.38874793837675
3782.6838,0.9560843437990627,273.1868453189209
3783.554,0.9568513174423695,337.5759308087212
3784.4265,0.95807020167105,423.3230259917142
3785.297,0.9594636061514574,334.3917289933976
3786.168,0.9607489345770687,338.94055948789014
3787.041,0.9617113205000316,376.9169922212861
3787.912,0.9622786573968147,365.8278435339233
3788.7856,0.9625131849510739,334.63291086494587
3789.6572,0.9624229371594382,312.20749265011494
3790.531,0.9618115631169147,357.1229039586216
3791.403,0.9603959596847337,309.08115414276597
3792.2754,0.9581215199077197,357.2807871103761
3793.15,0.955316100211104,329.6431776884308
3794.0225,0.9524942016702252,411.2544755806176
3794.8972,0.9499419043739256,311.73643488408476
3795.7703,0.9476391462584194,346.35105767496026
3796.6455,0.9454243056899939,352.6042366981685
3797.519,0.9433412013135936,369.97014748481223
3798.3926,0.9417042301947722,349.84121955144957
3799.2686,0.940932949871427,367.38354286602873
3800.1426,0.941264131149042,299.737100968561
3801.0188,0.9425868695027322,407.3911916502391
3801.8933,0.9444923759137052,375.30774570913854
3802.77,0.9464306283225257,325.90796105795386
3803.6448,0.9477846529931503,342.41521195556896
3804.522,0.9479948996833536,314.1189328627679
3805.3972,0.946700981014849,435.921157853614
3806.2727,0.9439710222404725,362.3818208332518
3807.1504,0.9404548538960396,358.25950193371006
3808.0261,0.9373591437333131,384.4922013780269
3808.9043,0.9359377954102993,425.0974317283684
3809.7805,0.9367996724147418,419.59757417034757
3810.659,0.9393792413800415,404.64804119143054
3811.5356,0.9421770514369114,294.44709800418696
3812.4126,0.9437154764763962,298.49096306134714
3813.2917,0.9434110581537678,391.09458673664096
3814.169,0.9417893802493507,443.4631189985204
3815.0483,0.939919505035779,283.1833552662225
3815.926,0.9386677845726197,409.5305575305214
3816.806,0.938293044816727,315.17900924357446
3817.684,0.9385841199226651,292.65387956200226
3818.5623,0.9391069757822497,374.6991582473372
3819.4429,0.9392959297104474,333.30296589513
3820.3215,0.938485148988407,308.31333312155965
3821.2024,0.9361750908306016,309.4691111748021
3822.0815,0.9324856009988721,360.51915366704884
3822.963,0.9282805242587177,386.3713489431183
3823.8423,0.924854562608667,345.5891207250387
3824.722,0.9232037337844583,428.91314559007685
3825.604,0.9235908983487467,392.9585794482572
3826.4841,0.9254886450068269,388.6774920509392
3827.3665,0.9279467909211593,337.07047848177143
3828.2468,0.9300781154693071,361.4551985397551
3829.1296,0.93144899389353,344.43824064247116
3830.0105,0.9320092307853156,426.41643021079926
3830.8916,0.9317740827275975,367.4754946597068
3831.7751,0.930535768743569,358.40619669607696
3832.6565,0.9280265738345258,332.91620752954947
3833.5403,0.9243248324099379,407.96781411854823
3834.4224,0.920117132479286,397.7942529568018
3835.3064,0.9162708287357658,394.29726329709416
3836.1887,0.9132471320407368,338.12657128224384
3837.0713,0.9108288215573899,355.28833691866396
3837.956,0.908661546979826,438.2032628533061
3838.839,0.9069504656124944,372.6378275007971
3839.7244,0.9064747406930439,360.7035360300374
3840.6077,0.9078870784417837,372.0289534447121
3841.4932,0.9109945240694713,366.954269873728
3842.377,0.9148052029402581,389.6202625278125
3843.261,0.918309945844699,363.13759522237
3844.1472,0.9210636403310962,452.1530770932136
3845.0315,0.9230915266087601,346.54489028138585
3845.9182,0.9244228391765711,464.4422889697029
3846.803,0.9247465171029319,315.3261607083233
3847.69,0.9236729329069341,329.82855027105813
3848.5752,0.9212646672665982,374.70155289859747
3849.4604,0.9182751076292802,420.3354740694167
3850.3481,0.9157918182344513,387.9995954798293
3851.234,0.9146362402628766,382.42018145110274
3852.122,0.9150370306656345,329.3741517826079
3853.0083,0.9168380098561527,409.6397721205815
3853.8967,0.9197442152902158,376.00572327970184
3854.7832,0.9232681718963207,350.3742331590457
3855.6702,0.9266724239794583,353.16929377866984
3856.559,0.9290790162186389,328.02942446702866
3857.4463,0.9298179363816121,296.5210721863634
3858.336,0.9287451052436396,394.8099864752237
3859.2234,0.9262477259521098,405.9981074142905
3860.1135,0.9229429378611641,362.9887877577683
3861.0015,0.9193209642865892,358.59540506899145
3861.8896,0.9154343491253744,385.9726195709487
3862.7803,0.9110538688744728,342.78168527293985
3863.6687,0.9061907844554162,378.07914567900286
3864.5598,0.9014440005425908,424.7208604235666
3865.4487,0.8979623452033674,393.3706556774103
3866.34,0.8966079251968551,406.7858068061641
3867.2297,0.897291538103603,387.44011560933063
3868.1213,0.8989478818776725,400.4307599891381
3869.0112,0.9002973404806296,394.6915550042138
3869.9014,0.9006542509593143,463.16153211477524
3870.7937,0.9000778874170458,435.6087642035625
3871.684,0.8989801374180264,370.66545516493625
3872.577,0.8976545348505031,384.2380043952073
3873.4678,0.8961473030476567,438.28004416374205
3874.361,0.8943755465357427,355.2192244288551
3875.2524,0.8923791003659133,355.4552583765942
3876.1438,0.8903770443608651,379.19756367006715
3877.0376,0.8886189474879358,386.2663459569801
3877.9297,0.8871262850697199,387.58509173855145
3878.8237,0.8856080631446104,334.8297862150753
3879.716,0.8837832645771997,417.2105763241251
3880.6108,0.8816785560154485,417.3084668207898
3881.5037,0.8796244471179269,407.9039316664046
3882.3965,0.877871101247043,459.39669605275543
3883.2917,0.8763596330801512,433.8572334458115
3884.185,0.8748454838549891,435.8922204463162
3885.0808,0.8731810155870163,451.4506497538203
3885.9746,0.8715196195213366,383.41843288769013
3886.8706,0.8701635596673846,414.40899463190357
3887.765,0.8693092723458206,359.5725697948126
3888.6592,0.8688612880568268,497.71230876751923
3889.556,0.8685636282522532,384.27473495784545
3890.4507,0.8682816981398676,374.51896098313335
3891.348,0.8681567986672143,359.4870784832786
3892.243,0.8685037388462716,414.79342855292515
3893.1406,0.8695724555342126,390.9105741009931
3894.0361,0.8713713602988088,410.6583842489398
3894.932,0.873668701399162,526.7026116220169
3895.83,0.876115623739349,434.8603321992025
3896.7263,0.8784899172727261,429.5662892342437
3897.625,0.8810791383120729,385.6805272004726
3898.5215,0.88482336222214,472.0684425754889
3899.4207,0.8911503427362435,385.19156366074435
3900.3176,0.9010662629035627,375.02961271560963
3901.2148,0.9140580710312866,393.41660603476566
3902.1145,0.9272511267098195,478.4343658950327
3903.0122,0.9360136810351058,398.25269347373484
3903.912,0.9366702092247606,412.99243435373006
3904.8103,0.9289704065359141,406.6379472555945
3905.7107,0.9163959457248454,364.8491068426786
3906.6094,0.9038913648137761,430.85051627014167
3907.508,0.8948812728069152,353.1445257321613
3908.409,0.8902818711992474,330.77466915741945
3909.308,0.8892486519526059,374.9244041351065
3910.2097,0.890351831162217,413.30264991170475
3911.1091,0.8923826233020884,381.81815704608954
3912.011,0.89458776099582,338.85145669328995
3912.9111,0.8965369556920009,440.33805748465335
3913.8113,0.8979402315678385,362.68303242955324
3914.7136,0.898506573676155,416.78197360172726
3915.6143,0.8980494526858247,424.4845255179293
3916.517,0.8966949337723513,395.31898736505866
3917.4182,0.8948953465863184,414.649497520956
3918.3215,0.8931294269024436,421.3506510584831
3919.223,0.8916103689519159,437.3038055239202
3920.1245,0.8902098966434848,421.85376500348116
3921.0286,0.8887253482108065,355.03172751001944
3921.9307,0.8872027939595053,438.2069906368587
3922.835,0.8860155467193798,421.54523743193147
3923.7373,0.8856939198309125,392.2321255199132
3924.642,0.8865558632119553,444.21275950504605
3925.5452,0.8884551361259176,431.25822522596576
3926.448,0.8908097952263337,347.217100742252
3927.3535,0.892870587242685,430.6984836435374
3928.257,0.8940039911749511,372.7445453887985
3929.1628,0.8939036351880708,333.747950625909
3930.0667,0.8925691711154117,405.6659973471794
3930.9731,0.8901722469846428,404.88334619834325
3931.8774,0.8869563014696811,374.34184409832
3932.782,0.8832055165926116,371.9374243062476
