wavl,flux,ivar
3566.9744,0.5251969030704561,217.21412643823186
3567.795,0.5240160965045356,142.43119096505455
3568.6177,0.5220783729130507,241.0626064427599
3569.4385,0.5197901181471757,197.34848119098308
3570.2617,0.5178689467749787,386.1760445853475
3571.083,0.5167083004936107,174.96165739965886
3571.9065,0.5161424196960083,136.85110859740055
3572.7283,0.5158813021096424,239.4452381076833
3573.55,0.5158650405417095,238.11405788325538
3574.374,0.516198101642539,296.55733259169415
3575.1963,0.5168978012893608,217.85128297600085
3576.0208,0.5178043555073699,172.78087942672047
3576.8435,0.5185917747883988,921.1540364809307
3577.6682,0.5188525107423086,503.9194048401341
3578.4915,0.5182824642556131,141.783156451964
3579.3145,0.5169370152823297,252.88387259660706
3580.14,0.5152584963474698,630.0876521960724
3580.9636,0.513883253391636,317.9206288130823
3581.7893,0.5134355424231309,348.7676454315077
3582.6133,0.5145353772237486,195.4714848432174
3583.4395,0.5176620352747537,263.43709248900313
3584.264,0.5226552063450056,284.0824698700752
3585.0884,0.5283323868773823,142.74274984289465
3585.915,0.5327336341946298,1437.369460500499
3586.74,0.5340661094923392,232.86311574642716
3587.5671,0.531777632732042,198.91209885356642
3588.3923,0.5268227629807162,213.96443030582475
3589.22,0.5210395239978652,159.34733427519276
3590.0457,0.5162977953287218,311.89357234841776
3590.8716,0.5137148852718982,155.950382730984
3591.6995,0.5135178114197575,735.7455839543325
3592.526,0.5151575762649878,218.75170260275468
3593.3542,0.5176633732472241,419.92528135254304
3594.181,0.5201526596775018,329.80004191595225
3595.0098,0.5222810684686096,394.2470955864519
3595.8367,0.5240282661178606,210.9344961362536
3596.6638,0.5250740579719978,250.8057512087057
3597.4934,0.5244881159207091,138.15111488131294
3598.3208,0.5214404378504193,162.32228393578671
3599.1506,0.5161970336892754,199.0915055635889
3599.9788,0.5102954904312046,413.5411342550075
3600.8088,0.5054154151159942,168.67766123692746
3601.6372,0.5023378694461001,400.391575676134
3602.4678,0.5007021403211946,199.87634953988558
3603.2964,0.4997326084533257,573.7638704752337
3604.1252,0.4988524892100051,307.7849032450886
3604.9565,0.4979016421020365,905.6321654760601
3605.786,0.4971220452909078,167.0626477324077
3606.6172,0.4970875736466781,251.16722150923013
3607.447,0.4984634080502285,575.7914105242049
3608.2788,0.5015324346843985,603.4371090066603
3609.109,0.5058748490723072,207.8944151635627
3609.9392,0.5106311435443688,575.6539577813762
3610.7717,0.514924075351558,250.63561362669347
3611.6023,0.5179242900209862,486.51919832787576
3612.435,0.5186799204480663,247.7393898313716
3613.266,0.5161083324979681,234.52530611778914
3614.0994,0.5096934246127749,196.9092026358364
3614.9307,0.5004147469475004,272.2274756247779
3615.7625,0.49079059227916044,268.7021506046534
3616.5962,0.48393682311695435,289.91109444176954
3617.4282,0.4820074606951942,718.2118763887288
3618.2625,0.4850499278644392,341.027631067437
3619.0947,0.49124458899183915,274.3944603324375
3619.9292,0.4981480468067827,242.41466883714907
3620.762,0.5037838518674195,265.8132687327022
3621.595,0.5071935432558468,807.831602499271
3622.4302,0.5082121742253791,223.1835836339355
3623.2634,0.5072606005282236,264.6571363863029
3624.0989,0.505177283178159,380.0989313718486
3624.9326,0.5028199200763501,189.7330259202546
3625.7686,0.500423331421672,318.72124105092945
3626.6028,0.4974136185352755,449.98580382515485
3627.437,0.4930237798146446,270.0275443121827
3628.2734,0.48745076020052935,314.5225724567366
3629.1082,0.4823717565862036,218.5073584638412
3629.945,0.4797583651168092,463.0382587568158
3630.78,0.48001159475560556,270.3123230080013
3631.6174,0.481150418047337,181.8103377557093
3632.453,0.48028668942662656,232.93807797465175
3633.2883,0.4759508755132316,284.7686515272172
3634.1262,0.46891992792940634,360.8359324541066
3634.9622,0.46125360997175635,282.14219103383135
3635.8005,0.4547385722045329,312.0560070201399
3636.637,0.4505740048664738,289.0292332535537
3637.4756,0.449479269763295,547.2052112186693
3638.3123,0.4517762417966834,821.2610413614767
3639.1492,0.4570517040443902,469.2344150372042
3639.9885,0.4641049851707881,285.081759215573
3640.826,0.47118098074768383,522.1792723134931
3641.6653,0.47660148475495034,263.8314421060958
3642.5032,0.4791464129878288,219.2129026149494
3643.343,0.47852531257753544,347.80927201881076
3644.1812,0.47543334510959834,566.6280750378207
3645.0195,0.4712631211561529,177.20770130589565
3645.86,0.4676034161167972,311.7146867103203
3646.699,0.4657649069716114,702.8983174650791
3647.5398,0.4662412811966343,452.18787251068477
3648.379,0.46840407991855093,556.0533226151441
3649.2202,0.470685782479832,329.18415139235924
3650.0596,0.47138973743656454,244.13029125757342
3650.8994,0.46975322458632074,245.19825495023753
3651.7412,0.46635643916257963,875.0836263311735
3652.5813,0.46267517809648046,332.1464571147923
3653.4236,0.4600128388620492,1168.6636034616827
3654.2642,0.45877837263885773,301.7587175422317
3655.1067,0.45834361161018433,376.8287070163044
3655.9475,0.4575620980411429,280.71313133334434
3656.7886,0.45548669543338133,506.32891230080577
3657.6318,0.4519452987235581,240.24170653881603
3658.4734,0.44769015779078364,236.4833553280286
3659.317,0.4439199566983514,355.7818925498647
3660.1587,0.44171680949678627,244.41484641849488
3661.003,0.44151722075681,524.6877340264932
3661.845,0.4428809000335018,619.1651497557219
3662.6875,0.44446751280592056,416.5040203728612
3663.532,0.44457684449754187,285.59366359813873
3664.3748,0.4422540303952392,313.1963420967005
3665.2197,0.43813053196297413,285.03750112502314
3666.063,0.4341126021355676,253.16526202573323
3666.9084,0.43193940872164527,206.06184247888706
3667.752,0.4320905209984801,391.45336536797043
3668.5977,0.43380079144066735,591.1746158255996
3669.4417,0.43600942784872176,491.52151914736936
3670.286,0.4381677230830567,431.7680982791889
3671.132,0.44028241801819157,203.4403902499489
3671.9768,0.44250960398748396,665.1424581725284
3672.8235,0.4449224446917912,359.71989096589454
3673.6685,0.4474952547052803,263.5751161329316
3674.5156,0.45015117917007946,368.70302404267954
3675.3608,0.4525066369787618,265.19089300936065
3676.2063,0.4537693201806675,342.58236704328465
3677.0542,0.4530396202969315,851.5838523043565
3677.9,0.450084611360406,298.41576571175045
3678.748,0.4458463209089556,218.12457461524633
3679.5945,0.4422121476373684,226.79924151979085
3680.4429,0.4409501235516657,380.6290006287802
3681.2896,0.44273967403957737,416.88121603778393
3682.1365,0.44683541469323673,199.16482282063373
3682.9856,0.4516464305334459,279.48555870970586
3683.8328,0.45561194781928105,273.46988973885476
3684.6824,0.45791062351158507,255.45260693039637
3685.53,0.4584340633362312,562.5293321991559
3686.38,0.457560430007475,185.7407947847354
3687.2278,0.4559191048443351,460.2092909519861
3688.0762,0.45425365369492454,675.0613242207633
3688.9265,0.45319950648462853,233.60669649486067
3689.7751,0.4529452873055967,349.71781691013206
3690.626,0.45305880189242353,312.5650912047183
3691.475,0.4528256674118879,358.76322412324816
3692.3264,0.45197627238377686,353.85206110371774
3693.1758,0.45119702113595256,385.3177570046213
3694.0254,0.45172710647123937,359.0782923360778
3694.8772,0.4542123118436418,320.25521693903966
3695.7273,0.45778957986553737,394.4310093062332
3696.5793,0.4605173598314959,346.34192261567256
3697.43,0.4607839853928439,277.64651865904676
3698.2825,0.45850568916933054,334.4815715660737
3699.1333,0.45494686570893056,207.10501990919528
3699.9841,0.45151606485901474,383.7474915620996
3700.8374,0.44887326538355415,241.4280489208134
3701.6887,0.4470583570874908,282.8383130456876
3702.5425,0.4460883584302878,507.67963119622186
3703.3943,0.44626957931291383,575.921355923169
3704.2483,0.44781921940132896,314.1642005318444
3705.1003,0.45036922886724334,333.00704585920437
3705.9526,0.4529466807170583,247.05773946072424
3706.8074,0.45444724963773914,315.98981102459663
3707.66,0.45424255096795263,402.3042766730029
3708.515,0.4524910277632049,491.12832307351346
3709.3682,0.4499481910519321,465.1062061061168
3710.2234,0.44749099216833055,359.01568772854
3711.0771,0.4457996101830924,445.7342129858126
3711.9307,0.4452204981824854,323.1575419777035
3712.7866,0.445798802992842,704.7434800997046
3713.6409,0.44724071489496686,315.22850174233486
3714.4973,0.44894447724655095,210.46321762331922
3715.3518,0.450206862592035,426.1548367942327
3716.2085,0.4506010469920829,474.12259632400605
3717.0635,0.4501406881648829,324.42654531274127
3717.9185,0.4491465193363752,752.4481554434607
3718.776,0.44794023814162304,266.9782263437753
3719.6313,0.44671700119919394,304.87812190728556
3720.489,0.44560555728197143,451.9909727128801
3721.345,0.4447914634236902,312.4745106394802
3722.2031,0.4444790292789202,389.33723028999424
3723.0593,0.4448581737024682,396.43090297451465
3723.9158,0.4460613541752639,447.63007263436765
3724.7747,0.4480224338936243,428.98722980308787
3725.6316,0.4502888778545356,669.5127342813555
3726.4905,0.45225556027134206,263.38836801569863
3727.348,0.45367124057018,415.63951952370036
3728.2073,0.4548965671290017,372.08356262787544
3729.065,0.45636008867397027,310.3086256322141
3729.9229,0.45782845670031985,237.81565859977326
3730.783,0.4582785261364954,269.12553478683407
3731.6414,0.45656142839863634,270.538650889507
3732.5017,0.45220083543543954,287.3129326926244
3733.3604,0.44572471372776423,318.7036899371678
3734.2214,0.43831934789570476,457.24852373198036
3735.0803,0.43142734647985276,289.4590564567045
3735.9417,0.42614420382743934,285.97414663321604
3736.8013,0.42307339396194965,366.52406402165116
3737.661,0.4221550853080437,553.685478357498
3738.5227,0.42288400535224396,510.87316662336275
3739.3828,0.42462146413966534,248.491155756574
3740.245,0.42690809214597786,413.5422404268304
3741.1055,0.4294801138702545,352.3827455830148
3741.9683,0.43211988318180455,297.6993577740955
3742.829,0.4344062738512008,646.1162346807772
3743.69,0.43575101772076136,466.72987279149146
3744.5532,0.4355981331673127,278.60350480381453
3745.4148,0.43379186374340317,311.444747347037
3746.2786,0.4307955180159614,834.1655058716318
3747.1404,0.42756372366540873,701.282159201578
3748.0044,0.42501442687888663,482.23348593541436
3748.8667,0.42365539886616693,317.6806767771769
3749.729,0.42346872355182563,364.25994963088095
3750.5938,0.42415439740759237,374.12504424279865
3751.4565,0.4253842180801083,474.0899880409103
3752.3215,0.4270059037495323,192.14297531885657
3753.1848,0.42907683204838026,826.6330379742105
3754.0503,0.43177518229360234,232.676528044232
3754.9138,0.43512094531490014,284.57750758239604
3755.7776,0.43882199117394477,376.67632662729704
3756.6438,0.44224780522086976,211.77083306592294
3757.508,0.44461486267085976,573.910014738593
3758.3745,0.44539494552599057,545.1243555632507
3759.239,0.4445808076764906,412.60666208824404
3760.106,0.44275625735747903,319.2365350562743
3760.971,0.4408547599090945,557.7097961145796
3761.8362,0.43973102307452433,262.7020450011225
3762.7036,0.4398821742153821,248.68676164989108
3763.5693,0.44134767264427355,377.7784850199002
3764.437,0.44373577742323456,544.030850487937
3765.3032,0.44624982244512507,293.2626145910576
3766.1714,0.4478852420888596,329.73901581862634
3767.0378,0.4477794713145076,398.8883463812967
3767.9043,0.4456638411392776,252.84391263378126
3768.7732,0.44199085080605277,428.46895766804784
3769.6401,0.4377463396607974,458.44367666812565
3770.5095,0.4339231258413164,418.6287596036489
3771.377,0.4311843678082942,455.9047410190352
3772.2466,0.429581986475884,281.0852100041992
3773.1145,0.4286070462222591,315.12513290683154
3773.9824,0.42736532702548424,308.80552309728796
3774.8528,0.4250317562138326,488.896680698462
3775.721,0.4214386842718892,259.16884382230205
3776.5918,0.4173290173575867,764.552613447017
3777.4604,0.41412114150566953,518.3523135279443
3778.3315,0.413047366422742,318.4109162906015
3779.201,0.414525489358167,499.9948103643109
3780.0703,0.41803200632277443,1472.0134031956031
3780.942,0.4226043642522192,964.6504610569771
3781.8118,0.4273945887826291,667.5462980659341
3782.6838,0.43205183427390337,642.8486971604907
3783.554,0.43650012475347316,388.2263694443114
3784.4265,0.4406218173951801,370.05587600326396
3785.297,0.44386310402786683,542.2706272329061
3786.168,0.44538913676862385,469.95860428901864
3787.041,0.4445456632922793,257.5947453165796
3787.912,0.4415526207736437,342.2340083828058
3788.7856,0.4377713284002047,426.217264981296
3789.6572,0.43521822581272557,278.2051107312837
3790.531,0.4353171078610396,388.5874398832078
3791.403,0.43795167889303355,248.34378357192577
3792.2754,0.44151843647201605,301.3087571120624
3793.15,0.4440107440475887,387.8154589262374
3794.0225,0.44420691595804623,382.984660046355
3794.8972,0.4421815294230237,303.5423790640305
3795.7703,0.4389166078299978,492.2182322974397
3796.6455,0.4355423463378454,310.15026135316714
3797.519,0.4328695415133138,430.4745633505157
3798.3926,0.43125696372653827,389.5523147118696
3799.2686,0.4308465349824671,336.32496644336743
3800.1426,0.4317282424440174,328.24728844371793
3801.0188,0.4338554241822471,416.17575158835626
3801.8933,0.43680935571743795,519.8460933964566
3802.77,0.43980084980139117,252.87655810092357
3803.6448,0.441898207932282,246.18477417677212
3804.522,0.4424088958685499,400.798284620669
3805.3972,0.4409921367547411,257.0638997568305
3806.2727,0.4376731162590175,464.07755974821924
3807.1504,0.4328740755615942,244.64375106741994
3808.0261,0.4276252358177784,456.57308273363833
3808.9043,0.4234612572022048,302.4779236314289
3809.7805,0.4219418727210391,73821.72552262826
3810.659,0.4236189353458217,419.7284604109487
3811.5356,0.4274898159013414,346.4079359990004
3812.4126,0.43147417882310524,392.5010478666345
3813.2917,0.4336049909901874,283.4583135179098
3814.169,0.43303097860249457,248.91993440945828
3815.0483,0.4302779428620053,407.7053909353284
3815.926,0.4267912202103538,524.7984664869197
3816.806,0.42411352537867014,593.9943378464923
3817.684,0.4231846764540794,465.9439622641113
3818.5623,0.42391659130770815,617.5281806672403
3819.4429,0.4253820748948536,318.00203470431836
3820.3215,0.42635289595159676,283.17383258263686
3821.2024,0.42593132155401137,347.8097478632083
3822.0815,0.4238974622420465,284.2214632076786
3822.963,0.42072658405726104,335.53348468640417
3823.8423,0.4173805082248926,558.0440711532865
3824.722,0.4148384946925708,542.9460384063749
3825.604,0.41366721937645723,341.9998311012847
3826.4841,0.4137537220954194,411.8817174177851
3827.3665,0.41441139935712035,250.28299901294213
3828.2468,0.414839297491144,300.0632698715679
3829.1296,0.41454549893903286,435.79684022472867
3830.0105,0.4133873818055129,304.3953780779017
3830.8916,0.41130444602200794,305.6683237766925
3831.7751,0.4081622289467307,263.5549476790398
3832.6565,0.4040282101267152,403.707379530471
3833.5403,0.39950253975427547,620.0831910315992
3834.4224,0.3958252150323108,504.04400028953455
3835.3064,0.39422376815979904,460.31894052685595
3836.1887,0.3951360782103123,541.0432489998606
3837.0713,0.39780374538489277,496.7868571862502
3837.956,0.40075612315782605,284.24553182844505
3838.839,0.40273191975749006,285.20423027332487
3839.7244,0.40342708224164814,328.5284630035854
3840.6077,0.4034852183921854,379.865136988287
3841.4932,0.4040105166753058,517.6682869568978
3842.377,0.40593090831777734,590.2498595742491
3843.261,0.4095338537139717,548.8293649698329
3844.1472,0.41430511392724184,441.3446414188343
3845.0315,0.4191012664233641,217.68435566787085
3845.9182,0.42278574690677967,800.6919452317744
3846.803,0.4247604427286759,254.04351420018986
3847.69,0.42533899704963324,392.7980954970824
3848.5752,0.42551232113439225,451.1527060796124
3849.4604,0.4263873708518758,279.8152124462938
3850.3481,0.42859306244712414,361.9751564193077
3851.234,0.4320150010411858,372.56016690913907
3852.122,0.4360667199947472,423.8846719077575
3853.0083,0.44010137835279184,362.1975373158338
3853.8967,0.443844100665302,391.7066018268441
3854.7832,0.4473606536439111,225.54602608865022
3855.6702,0.45089700366883256,531.3655750356061
3856.559,0.4545405831036448,173.0204880427738
3857.4463,0.4579940767852511,343.18295725455573
3858.336,0.46066246704920305,218.68535343638467
3859.2234,0.46193871424510063,260.135988976115
3860.1135,0.46171494185584666,328.15858996581113
3861.0015,0.460518526721055,313.32839724489133
3861.8896,0.45909643207406614,383.80214588884763
3862.7803,0.45772462129554964,414.1871254664928
3863.6687,0.4560012055771598,293.4560239593724
3864.5598,0.45339574394178744,308.8626122561701
3865.4487,0.4500923988424715,304.24806650188515
3866.34,0.4470304466319358,277.89978354436505
3867.2297,0.4451513681077748,313.85784331384104
3868.1213,0.44445197366075323,221.5878210473608
3869.0112,0.44398537125538967,444.2552062208738
3869.9014,0.44268687950989183,215.66595743316165
3870.7937,0.44015646301978256,384.3326417309888
3871.684,0.43665402824722843,438.2282024200839
3872.577,0.43247611140705894,345.9722325836131
3873.4678,0.42771976859225797,395.76794991831946
3874.361,0.4224618342483833,444.40766456220473
3875.2524,0.41719037720218594,443.3001852525874
3876.1438,0.4126473115234459,224.86908702748735
3877.0376,0.4094466589435805,334.6606672263792
3877.9297,0.40766684743806664,339.3157160626604
3878.8237,0.40661847796845046,459.19362832722123
3879.716,0.4050470702777789,473.73560242694407
3880.6108,0.4016584812558945,381.95178889097195
3881.5037,0.3959619957065416,552.4882074254881
3882.3965,0.3887536777355967,343.7738363289626
3883.2917,0.3817881452343277,429.46641474113517
3884.185,0.3766521478002908,587.3648665038999
3885.0808,0.3734911725694462,884.6821577002338
3885.9746,0.37103336107192286,744.9753472649896
3886.8706,0.36764231023550303,591.0439513304269
3887.765,0.36272131494333015,389.0428431347201
3888.6592,0.35713512262538916,1212.401327055904
3889.556,0.35258883296482657,511.1045785935586
3890.4507,0.35056037576328175,645.6118853781097
3891.348,0.3514492768310278,482.2411117113869
3892.243,0.3545746164725783,474.03113745849737
3893.1406,0.35878571787219304,465.6460211735482
3894.0361,0.3631573102467569,458.457902791893
3894.932,0.3674745631464402,680.4993065071222
3895.83,0.372112819477184,384.8533672251517
3896.7263,0.37762206833030487,400.4642089122846
3897.625,0.3844336274099439,805.7750095291256
3898.5215,0.39252184681695135,506.4442720828447
3899.4207,0.40149895439582917,439.25677935271165
3900.3176,0.41056598133226313,334.02499148949073
3901.2148,0.4189135050803439,406.31405829444714
3902.1145,0.4258641842334068,421.59288742514184
3903.0122,0.43093276385786355,419.48634725237986
3903.912,0.4339299361522028,337.07547127407463
3904.8103,0.4348847355098296,499.17010052665574
3905.7107,0.4342081421611754,422.1095715452136
3906.6094,0.43280010961143417,446.8483339965212
3907.508,0.43200053155407,444.04329269741385
3908.409,0.43322792725389114,517.4683105003865
3909.308,0.4373692355724462,351.9470724158579
3910.2097,0.44434704790995494,272.47879654284475
3911.1091,0.4530556588682073,432.5444631203455
3912.011,0.4620058558253908,317.6865054009704
3912.9111,0.4698488164230718,322.79463433394847
3913.8113,0.47597651989205947,271.4851604367765
3914.7136,0.48048610396615365,362.9573133440797
3915.6143,0.48386376217364424,228.87872178249378
3916.517,0.48669749510460997,324.14386857797086
3917.4182,0.48941047676618327,207.1886105763533
3918.3215,0.49224652747484415,257.0814505030795
3919.223,0.4951617905457576,340.40439461480537
3920.1245,0.4978047899455497,609.3356265066011
3921.0286,0.499553621812261,375.48163322638067
3921.9307,0.49979644826107755,277.7589580788109
3922.835,0.4983495928992777,194.66551357566632
3923.7373,0.49565795103932225,286.14271412605297
3924.642,0.4925728779092912,374.6414064779467
3925.5452,0.48991114173331846,254.34878611956307
3926.448,0.4880070067461778,289.4443311012613
3927.3535,0.48669716723653755,216.8996891709926
3928.257,0.4856096879585902,232.89028746460167
3929.1628,0.4844629871106205,245.71884316806614
