wavl,flux,ivar
3566.9744,0.5994249391265296,1225.5165611390878
3567.795,0.6000021894543408,896.1055737079829
3568.6177,0.5985409099694339,1291.6530179035751
3569.4385,0.5951494913159023,1037.2981858774192
3570.2617,0.5904558557108428,1941.641443017444
3571.083,0.5855949584670154,1308.0535607458407
3571.9065,0.5817651136286541,2033.3178351395143
3572.7283,0.579766228730688,1225.3017166401391
3573.55,0.5796077169605802,1068.774805643565
3574.374,0.5806948026027369,915.5611549330665
3575.1963,0.5822038531260219,1529.5284412278977
3576.0208,0.5834533812270486,1399.5760927161489
3576.8435,0.5841267925932236,1171.0053320181362
3577.6682,0.5844540278597117,1469.2069092384756
3578.4915,0.5851474758683669,1762.198186931497
3579.3145,0.5870080519132792,1156.875402564949
3580.14,0.5903259455290268,1646.9627139527122
3580.9636,0.5944290732765539,1223.7628376718433
3581.7893,0.5979299022157661,835.970249712307
3582.6133,0.599463635412578,1163.0423118411893
3583.4395,0.598575902311707,1063.8194360487312
3584.264,0.5958622344803072,1236.675866889689
3585.0884,0.5923560179076965,1198.8856864703746
3585.915,0.5888046008224775,1042.7043522054012
3586.74,0.5855074594062883,1394.6978022341357
3587.5671,0.5825074933406235,1080.0740005463992
3588.3923,0.5799025566097008,1142.7866580639266
3589.22,0.5778458345773682,1186.6590043995432
3590.0457,0.5765730778591872,1392.594114386355
3590.8716,0.5762949249448883,1677.2869335536075
3591.6995,0.577061638895033,1689.590511814387
3592.526,0.5785759287471639,1291.5262759517345
3593.3542,0.5802463756198966,2095.831859489539
3594.181,0.581476294420242,1178.8924626195032
3595.0098,0.5820184168585588,1474.1085852887459
3595.8367,0.5820270865011637,1207.1946243114357
3596.6638,0.5818709703445492,1122.8380767532049
3597.4934,0.5818640016719357,1386.15370640692
3598.3208,0.5820989568902216,1230.3829956930094
3599.1506,0.582402315521558,1404.4572176535162
3599.9788,0.5824066662410013,1080.37204377181
3600.8088,0.5817398839644841,1571.3049687656237
3601.6372,0.580246041162616,1711.5929939753687
3602.4678,0.5780992066773557,1424.4756357053036
3603.2964,0.5757934405843451,1227.8844942391659
3604.1252,0.5738962601598806,1092.9694636925644
3604.9565,0.5727627282182906,1608.874689975733
3605.786,0.5723428342003767,1237.889790998848
3606.6172,0.5722846318247056,1374.0962928974304
3607.447,0.572323686593542,1689.1583036197185
3608.2788,0.5725323713132707,1517.9818660826795
3609.109,0.573151992085781,1046.9408972204155
3609.9392,0.5741907159725558,1289.2638894762235
3610.7717,0.5752651327261901,1195.1203258328048
3611.6023,0.5758776777712304,1073.3437681396229
3612.435,0.5758506412365165,1232.8280965927845
3613.266,0.5754158324320441,1305.5727391365085
3614.0994,0.574924474814162,1812.493110999751
3614.9307,0.5744923547512847,1420.6939389750435
3615.7625,0.5739136777599442,1423.0535850295878
3616.5962,0.5729286274130373,1015.5710301275362
3617.4282,0.5715944454610294,958.5940122202954
3618.2625,0.5703686635928226,1419.2912237298606
3619.0947,0.5697880683508786,1336.2406361164512
3619.9292,0.5699176021494832,1399.1702265660545
3620.762,0.5701656206611769,1509.8402340658668
3621.595,0.5697046658320221,1021.0127511725298
3622.4302,0.5681758731246749,1133.6243662192294
3623.2634,0.5660451106145739,1170.7874249320996
3624.0989,0.564215008928193,1280.6918168568286
3624.9326,0.5633547647505844,1429.6241661746742
3625.7686,0.563469626183006,1117.749584091123
3626.6028,0.5640891518223285,1543.96769799523
3627.437,0.5647537847997468,1104.7701029203013
3628.2734,0.565411662466087,1527.0894671208187
3629.1082,0.566470052000806,1530.353227466738
3629.945,0.5684915685263116,1133.1837525824542
3630.78,0.571664878111753,1821.4615317339164
3631.6174,0.575573672777789,1083.631063838435
3632.453,0.5793572223818099,1309.2497745522378
3633.2883,0.5822664160738591,1237.6812883452012
3634.1262,0.5839365478900405,1135.700942042552
3634.9622,0.5843920173955844,1086.5585312400372
3635.8005,0.5839877008697174,1289.095810368221
3636.637,0.5832921012537314,966.094652788457
3637.4756,0.582860654039103,1166.0034261400501
3638.3123,0.5829388895257895,823.7266166274411
3639.1492,0.5833170719701182,998.421594409211
3639.9885,0.5835000524749298,1198.3217501566357
3640.826,0.5830485195634402,1331.5848383314776
3641.6653,0.5818934615812282,1046.6429342122524
3642.5032,0.5804437443976299,1363.8965980421267
3643.343,0.579342797200646,2001.2464605076493
3644.1812,0.5790320829420403,1630.0487362561385
3645.0195,0.5794380687651357,1359.8438522156885
3645.86,0.5801382649402949,1394.0067855584743
3646.699,0.5807644936092307,1204.633630432636
3647.5398,0.5812279553228642,1621.4488883892914
3648.379,0.5815504161955483,1055.658254038351
3649.2202,0.5816369436764552,1324.4167403183283
3650.0596,0.5813099823708419,1070.5972014366414
3650.8994,0.5805854025968809,1408.0488470014209
3651.7412,0.5798207893247632,1506.202736292519
3652.5813,0.5795244810079634,1032.8982745284113
3653.4236,0.5799619764299392,1270.950289164437
3654.2642,0.5809394158666902,1290.1625281762717
3655.1067,0.5819427494016729,1416.7552961975705
3655.9475,0.5824973176946421,1790.8705336843345
3656.7886,0.5824971862476641,1223.4435652377304
3657.6318,0.5821882578557758,1244.9050780606303
3658.4734,0.5818273732848809,2107.8985661351144
3659.317,0.5813065428150332,1525.7408734889088
3660.1587,0.5802120560327391,1047.9416701778548
3661.003,0.5783574589560483,1375.8344322223022
3661.845,0.5763415673442385,1589.6968856746134
3662.6875,0.5753996063592172,1777.6430022278143
3663.532,0.5765977721735204,2046.3517533815195
3664.3748,0.5798925202164218,1956.069961438402
3665.2197,0.5839445168308073,1301.9905974693984
3666.063,0.5867962958904244,913.3878926256143
3666.9084,0.587062579616727,1207.0395111331325
3667.752,0.5846003735520732,1593.9736961777157
3668.5977,0.5803767973048625,1733.7388458124124
3669.4417,0.5757950743390908,902.9579196611301
3670.286,0.5719335675040335,1528.8328001254708
3671.132,0.5692769207249989,1126.1701897510002
3671.9768,0.5678223125549214,1512.826507854242
3672.8235,0.5672921581649947,1561.4121586433628
3673.6685,0.5673322566192888,1696.819032152112
3674.5156,0.5675891697082814,1220.5456963404406
3675.3608,0.5678018208661835,1266.8034888168131
3676.2063,0.5678606642533032,1232.2203096940857
3677.0542,0.5677343230229306,1337.7382047732679
3677.9,0.567334685990142,1397.6760456049935
3678.748,0.5665049219906639,1468.8303191426985
3679.5945,0.565223623663047,1317.1798030795767
3680.4429,0.5637933072034012,1152.2180238871924
3681.2896,0.5628199474924852,1843.0262310636588
3682.1365,0.5628901700446658,1252.4940853896776
3682.9856,0.5642516723729192,1657.3709495085827
3683.8328,0.5666419234271107,1088.1292112828655
3684.6824,0.5694266949862974,1136.4894182484086
3685.53,0.5718695343612481,1426.540127814493
3686.38,0.5735303597129225,1299.8896396864475
3687.2278,0.5743740825977799,1096.1401864506422
3688.0762,0.5746405384640261,1527.2793327654754
3688.9265,0.5745436173229466,1150.0539684922128
3689.7751,0.5741960458258899,1007.8918789447717
3690.626,0.5737475247676339,1289.9632364452968
3691.475,0.5734327742844346,981.3600472339297
3692.3264,0.5733214149385657,982.1147546651799
3693.1758,0.5730705899961571,1108.256003266332
3694.0254,0.5720541669756439,1246.753888360163
3694.8772,0.5698356139658624,1166.4521168281296
3695.7273,0.5665816513439175,1379.4978070647235
3696.5793,0.5629909636497242,1520.8647571695506
3697.43,0.559945289206617,1270.7592323045646
3698.2825,0.558007741067775,1901.444048518109
3699.1333,0.557246348362879,1101.3112457794452
3699.9841,0.557328267326633,1339.6788954024946
3700.8374,0.5578912170071487,1190.6276229515368
3701.6887,0.5587782134060009,1279.8188972122668
3702.5425,0.5599606368367717,1353.8263035225839
3703.3943,0.5612505261649076,1460.511926597783
3704.2483,0.5622539341022482,1238.1479588483814
3705.1003,0.5625872492432581,1378.4340256809626
3705.9526,0.5621368263257739,1364.5229669712705
3706.8074,0.561017397838965,1196.9857682518436
3707.66,0.5593885278773464,1482.3512763930923
3708.515,0.557336387697746,1489.8669561505951
3709.3682,0.55504122184809,1677.4419669981226
3710.2234,0.5529680877986838,1261.178722007309
3711.0771,0.5520048225848038,1157.3907243004155
3711.9307,0.5533108704060543,1843.3483029032031
3712.7866,0.5581070167688565,1456.0298261470493
3713.6409,0.5674971012280218,1516.6458382415017
3714.4973,0.5828734599896592,1175.9862139556333
3715.3518,0.6063627687712114,1305.9450338353345
3716.2085,0.6409350084728909,216.32785514049922
3717.0635,0.6870569378492318,1284.774558794727
3717.9185,0.7382785188297952,1263.969740560258
3718.776,0.7794097323742637,1425.3375169725946
3719.6313,0.7928949192684257,9.590516454741444
3720.489,0.7714690301306949,1552.8508663488726
3721.345,0.7241018898813654,1179.541921632836
3722.2031,0.669412920310337,1314.0666895407956
3723.0593,0.6238015411598706,1168.1003078044075
3723.9158,0.5932063801429731,1211.637841538688
3724.7747,0.5753565452302375,1098.0677176067543
3725.6316,0.5655281040395927,1103.6771170917293
3726.4905,0.5601435487756622,1392.816780167973
3727.348,0.5575321124827566,1124.1184064826366
3728.2073,0.5568365497864253,1512.3328631542277
3729.065,0.5573126242893075,1608.87225957738
3729.9229,0.5581732409613155,1483.828217835251
3730.783,0.5587820712806512,1349.3175044249128
3731.6414,0.5588564921109858,1275.6927172452881
3732.5017,0.5585366818774332,1601.1717100012086
3733.3604,0.5582220716281594,1612.2141841362263
3734.2214,0.5582603655358453,1494.5572026319578
3735.0803,0.5586666445742844,1426.4270409698177
3735.9417,0.5590411569884506,1566.4754668083208
3736.8013,0.5587828618133459,971.7173074340126
3737.661,0.5575387136704852,1329.6814105257192
3738.5227,0.5555328450598812,1964.181875197333
3739.3828,0.5534533298188721,1853.618366139789
3740.245,0.5518378684560233,1513.6303922008613
3741.1055,0.5506197446063611,1232.4844725295472
3741.9683,0.5492224339082334,1610.5280935635478
3742.829,0.5472033083005923,1577.9790628052583
3743.69,0.5447116087696945,1858.0380487998896
3744.5532,0.5424142281124075,1432.3229268214639
3745.4148,0.5410033973728596,1203.6620603667873
3746.2786,0.5406658860057322,1608.6293815594126
3747.1404,0.5410266090765607,1263.5570330047663
3748.0044,0.5415173776075368,1577.3477187742938
3748.8667,0.5418540306208541,1754.2236254912605
3749.729,0.5421618768748231,1455.6390826194213
3750.5938,0.5426435687888986,1471.0569794489493
3751.4565,0.5431800028628044,1079.6017276830105
3752.3215,0.5433234429837762,2029.1003727725897
3753.1848,0.5427071943279993,1036.6733543768232
3754.0503,0.5414995223013156,1561.370886447719
3754.9138,0.5404381968719832,1747.8193290081688
3755.7776,0.5403204635477399,2019.91035957025
3756.6438,0.5414307888218021,1248.847416153859
3757.508,0.5433782116900221,1306.6387762483405
3758.3745,0.5455232956674791,1308.8735645369484
3759.239,0.5474683999365835,1529.256989636863
3760.106,0.5492428686978981,1510.3468926121323
3760.971,0.5509997128264638,1141.4272252250119
3761.8362,0.552733312400242,1342.001972127635
3762.7036,0.5542014176962198,1241.5652007520657
3763.5693,0.555062770546371,1120.5131139903813
3764.437,0.5550343655172991,1827.0007898498616
3765.3032,0.5539216606841878,1293.8626751278025
3766.1714,0.5516493190193992,1150.0284783524603
3767.0378,0.5483519663792504,1361.5483076637224
3767.9043,0.5443766289916095,1189.891935861043
3768.7732,0.5402066963948969,1430.7668237463977
3769.6401,0.5363776141524914,1342.3485302469799
3770.5095,0.5333517697897012,1482.4854209269124
3771.377,0.5316123460315786,1833.578658917688
3772.2466,0.5315691173890903,1379.3718619957103
3773.1145,0.5334106283590265,1811.1824362321147
3773.9824,0.5368840768352309,1552.5418462542602
3774.8528,0.5412772851448593,1120.841360165587
3775.721,0.5455710393958302,1995.6110271236487
3776.5918,0.5488384477337611,1707.232808418179
3777.4604,0.550428165930442,1049.9458585632638
3778.3315,0.5501732981541888,1160.4703417043427
3779.201,0.5483720575459727,1569.1616423008809
3780.0703,0.5456925314970985,1415.0027650245222
3780.942,0.5429719392514699,1209.53491110306
3781.8118,0.5410078203028983,1252.5930929790716
3782.6838,0.5402314040239528,1279.0701264035297
3783.554,0.5404629762294718,1399.667904621895
3784.4265,0.5408717870093557,1636.941669546446
3785.297,0.5404429788038252,1403.0146732999692
3786.168,0.5387605031935192,1201.9022448986339
3787.041,0.5364349256891904,1229.3996133826986
3787.912,0.5347123535819007,1603.3516963585275
3788.7856,0.534468756228674,1561.1684866422725
3789.6572,0.5356334456399986,1491.3952903642255
3790.531,0.537445622159044,1461.4075790029053
3791.403,0.5391010002171345,1411.540160815074
3792.2754,0.5401010183334691,1734.3125634774642
3793.15,0.54012893100022,1302.6019790264772
3794.0225,0.5389435352265145,1500.0872419043606
3794.8972,0.5364939051977053,1708.813655357712
3795.7703,0.5331147651203433,1661.0641607713374
3796.6455,0.5294752475438027,1935.2135193361999
3797.519,0.526439396843125,1748.5235318298123
3798.3926,0.5247605494131045,1847.374003062495
3799.2686,0.5248742847949157,1540.9995443293665
3800.1426,0.5266851971219487,1644.849704888381
3801.0188,0.5295276447628522,1507.9635344302083
3801.8933,0.5323930429512926,1557.4458978073874
3802.77,0.5344797646095989,1295.0993904467618
3803.6448,0.5356070574262604,1624.4041921348353
3804.522,0.5363057658274255,1181.595853226622
3805.3972,0.5373923587272446,1445.07406815327
3806.2727,0.5394371504654438,1277.3039021355355
3807.1504,0.5424400251516591,1899.6701029044489
3808.0261,0.5458456118332483,1826.853372142772
3808.9043,0.5489307563186544,1277.6310279297484
3809.7805,0.5511702286058513,1309.2585018558354
3810.659,0.5525441730735458,1239.3015671105886
3811.5356,0.5533907895219417,1840.208418630348
3812.4126,0.5540772430714188,1812.9236385884446
3813.2917,0.5547405780604572,1274.788835962773
3814.169,0.5553747123078757,1561.7270366143885
3815.0483,0.5560751867654979,1345.0599427928275
3815.926,0.5570221099402913,1439.358658187332
3816.806,0.5581971998388853,1884.1727763576193
3817.684,0.5591582454384395,1166.1203608360045
3818.5623,0.5592506483848412,1390.3414227886876
3819.4429,0.5580120812841858,1443.9243440450998
3820.3215,0.5554205427535487,1438.3454966838926
3821.2024,0.5517949845347017,1206.2799867049066
3822.0815,0.5476985538487686,1211.5389666544752
3822.963,0.5438046508706652,1696.2176582104225
3823.8423,0.5407856260356276,1707.0200793370868
3824.722,0.5388622001400818,1768.1824711797726
3825.604,0.5375458312244767,1255.5117043869059
3826.4841,0.5358539395886368,1793.4155933012316
3827.3665,0.5329647305936497,1320.386288427891
3828.2468,0.528822517415917,1298.8982981057675
3829.1296,0.524023627540662,1615.1390663503644
3830.0105,0.5193219273346381,1550.1344424209317
3830.8916,0.5150156586484497,1391.1430254597155
3831.7751,0.5108824426247361,2097.447340226366
3832.6565,0.5064778035497692,1356.5671324268612
3833.5403,0.5014207600840966,1709.8311822703254
3834.4224,0.49576139559840404,1366.58706777344
3835.3064,0.49002086110534226,1864.0091357515805
3836.1887,0.485206002398704,2196.6266705199505
3837.0713,0.48236774103329877,2091.1225980217228
3837.956,0.4821313483645208,2732.6111071611663
3838.839,0.4843576989760162,1941.0535939983858
3839.7244,0.4883245870183658,2132.219390113594
3840.6077,0.4931987093908731,2159.5549910375844
3841.4932,0.49845673717521655,1897.9263323742846
3842.377,0.5037695929248235,1354.6293610365296
3843.261,0.508904541164748,1611.0176872715879
3844.1472,0.5136574764227252,1410.445835194533
3845.0315,0.5178881877268315,2405.32735430203
3845.9182,0.5215365260332838,1395.7612850352116
3846.803,0.52433901797586,1306.2542003298672
3847.69,0.5258206727203388,1773.0006263683674
3848.5752,0.5256082191237559,1335.2801569630396
3849.4604,0.52424480924464,1349.5636803451735
3850.3481,0.5237378085932812,1417.0692329939268
3851.234,0.5269887049446165,1393.467787372323
3852.122,0.5359849565053785,1054.0511000506992
3853.0083,0.5500196596450664,1246.9808003005983
3853.8967,0.5659135160409177,1355.7977842642786
3854.7832,0.5796419243535034,1302.6285782662708
3855.6702,0.5886659707196205,949.0459514101204
3856.559,0.5926380886815666,1257.2897020091712
3857.4463,0.5929275140834592,1293.5183819455476
3858.336,0.5914673729771642,1432.856079342295
3859.2234,0.589607699876862,1205.6383535339405
3860.1135,0.5874947887213691,1232.5881399346201
3861.0015,0.5842904089406267,1471.6149274433799
3861.8896,0.5790704953589197,1114.7478989024737
3862.7803,0.5720141282831022,1196.5633382574788
3863.6687,0.5649996704367884,1115.8019255349902
3864.5598,0.560641631065233,1225.54279567313
3865.4487,0.5606139681338488,1250.3951925993185
3866.34,0.5643009448747132,1186.2725798372815
3867.2297,0.5692291678388177,1347.3090953825904
3868.1213,0.5727825730977041,1141.8591345425411
3869.0112,0.5735664974643093,1246.0130416781278
3869.9014,0.5717058340418153,1180.848859452586
3870.7937,0.568223196305008,1193.3562348693665
3871.684,0.5644576708223189,1401.019569229302
3872.577,0.5615893901006394,1689.561954667258
3873.4678,0.5602969273144303,1771.3548955483209
3874.361,0.5602736976921393,1510.2687348697857
3875.2524,0.5601402887536595,1385.6345284795786
3876.1438,0.5579913906205314,1401.7516473820078
3877.0376,0.5524041988068815,1644.137134403187
3877.9297,0.5432926722142809,1838.6134054076363
3878.8237,0.5317784053580993,1357.8392634933016
3879.716,0.5195825516445892,2204.213128916109
3880.6108,0.5080178770994926,2533.1341114315733
3881.5037,0.49780685632480204,1522.151768254925
3882.3965,0.4890481088858394,1536.3977426384752
3883.2917,0.48186744946522964,1577.8002248504938
3884.185,0.4770840376772375,1946.3726804063072
3885.0808,0.47622914813208794,2022.6180129343536
3885.9746,0.48065779417915083,2157.0322826505694
3886.8706,0.4895970935732269,2118.85871587769
3887.765,0.4987141495443461,2200.1850517684124
3888.6592,0.5015852939654848,3016.2514970634847
3889.556,0.49374024945893086,2336.376942046627
3890.4507,0.47647101108872225,3638.1700237668274
3891.348,0.45626241160826847,3325.5140482352704
3892.243,0.44072475086562835,2843.045304687328
3893.1406,0.4339192026341788,1614.011451465745
3894.0361,0.43554072570164704,2272.9529981841497
3894.932,0.4425774986732232,1910.7450931232172
3895.83,0.4518308136342085,2020.5628305273387
3896.7263,0.46114322192919693,1965.7431884731973
3897.625,0.4698097777679776,1668.7439532106987
3898.5215,0.47807120298207545,1700.0877435126722
3899.4207,0.48673321343606174,2081.2920555512965
3900.3176,0.49635685757106157,2062.4487258605022
3901.2148,0.5069826751316552,1680.5958984356407
3902.1145,0.5180607691849499,1450.439150961513
3903.0122,0.528771940356209,2115.605904560888
3903.912,0.5386983354278888,1150.8016142529223
3904.8103,0.5478234763165702,1375.1185624332113
3905.7107,0.5565327750871736,1258.2165327587672
3906.6094,0.5651423803000237,1172.8406086479963
3907.508,0.5738453040679534,1616.6086854763914
3908.409,0.5826240012870071,1542.2070485425277
3909.308,0.5911751167782737,1134.978011220685
3910.2097,0.5990592130278782,1239.0849863628605
3911.1091,0.6057253231470286,1067.944556442012
3912.011,0.6109897981808271,1001.0836463865173
3912.9111,0.6150820018167806,1275.6111541284033
3913.8113,0.6185321081304211,1267.6694202896908
3914.7136,0.6217231442300405,1219.2488751042206
3915.6143,0.6246928328094208,1115.4954246364082
3916.517,0.6273631194826097,1113.135364453743
3917.4182,0.6297375096862445,1245.2034015397755
3918.3215,0.631952323920317,788.9137063561665
3919.223,0.6340581308792212,1273.6699722404312
3920.1245,0.635984742137299,1201.2847188769306
3921.0286,0.6376501192641509,1234.7507156679144
3921.9307,0.6390800707865772,943.4944215886144
3922.835,0.6403909208593755,1153.8380527348843
3923.7373,0.6416385219262815,1084.159038669646
3924.642,0.6428483341792299,970.935563991688
3925.5452,0.644099096470493,1006.5019192964463
3926.448,0.6455099276916776,846.3927369756505
3927.3535,0.6470013135078777,1186.3687254773133
3928.257,0.6481248470187265,1087.8819309855114
3929.1628,0.648278315453884,1197.1941911163117
3930.0667,0.6470949013947043,985.0061946426282
