wavl,flux,ivar
3566.9744,1.5940579458653361,237.55986434062862
3567.795,1.589834904019681,191.36267157482197
3568.6177,1.5878010953789883,212.54489009485656
3569.4385,1.5878001884998694,189.67797121888302
3570.2617,1.5892762551947346,264.96901665165234
3571.083,1.5912856306871366,221.742745640192
3571.9065,1.592751850460971,236.65572056612643
3572.7283,1.5929100604729827,297.0102372513559
3573.55,1.5917916232671143,171.784930464407
3574.374,1.5902991498026826,249.76720479745575
3575.1963,1.5897865551302983,221.56125991279166
3576.0208,1.5912526319413218,393.0982879343761
3576.8435,1.5947441790649834,273.7612044096531
3577.6682,1.5994230776850087,276.91913085424153
3578.4915,1.6040883828719095,247.88685649128632
3579.3145,1.6077911929492346,255.02479056894168
3580.14,1.609913290562267,203.94692502799447
3580.9636,1.6098989399855312,241.94295080925775
3581.7893,1.6071186390526933,249.7122711819691
3582.6133,1.601109399280489,239.65610330610178
3583.4395,1.5920271873195209,246.33738108188533
3584.264,1.5810641220589032,247.0291230165955
3585.0884,1.5700456156556173,264.45300115785443
3585.915,1.5607548967395009,310.1981064133125
3586.74,1.5543850406874784,267.8548838824628
3587.5671,1.5513059047078444,217.8058109074466
3588.3923,1.5514588631838615,283.0735633944798
3589.22,1.5544715539712046,214.58884776036635
3590.0457,1.5596241962865995,232.25930663530696
3590.8716,1.5660129305688382,220.68925638726898
3591.6995,1.5729309971059895,231.46169955604117
3592.526,1.5800114665782599,240.6919090683508
3593.3542,1.586986927368316,283.61629895618466
3594.181,1.5931008083238092,236.72964041804929
3595.0098,1.5972997547193621,205.29018845034298
3595.8367,1.5987833851256597,241.9201281488522
3596.6638,1.5975996096564804,241.74210699374817
3597.4934,1.5943985773003326,216.4602718055283
3598.3208,1.5898820311936455,202.50887105219888
3599.1506,1.5844925583853011,226.4857993333864
3599.9788,1.578917149386597,249.81929894482667
3600.8088,1.574369055936168,235.78355664896407
3601.6372,1.572224007302045,305.3341328084581
3602.4678,1.5728775097992502,207.4430642198154
3603.2964,1.5751630142217181,265.95532111554417
3604.1252,1.576926882765206,228.77562134964862
3604.9565,1.57637594233031,233.88790512869733
3605.786,1.5731828919709703,293.31627660908197
3606.6172,1.5685285131736217,300.19137156410756
3607.447,1.5642250335817247,264.2638958686861
3608.2788,1.561497276371896,227.57135176628464
3609.109,1.5604258089432996,256.61303546105694
3609.9392,1.5600735892480389,246.83990548980927
3610.7717,1.5591649021947231,250.82447923970605
3611.6023,1.5567705934158866,247.76293926683945
3612.435,1.5527037077503216,252.8528724558362
3613.266,1.5476528824383846,272.4920283347008
3614.0994,1.5429002030498584,237.39497778671762
3614.9307,1.5399095117939772,271.84166413773346
3615.7625,1.5395353657154212,263.03069879473867
3616.5962,1.541478932131494,262.0884548780929
3617.4282,1.5442339483141343,241.24959116178965
3618.2625,1.5459051136001563,243.35254558587275
3619.0947,1.5453219519086874,241.98572547342113
3619.9292,1.5427307830514758,278.0892696424329
3620.762,1.5394929159647248,218.24954064304075
3621.595,1.537058548584334,243.43066274415702
3622.4302,1.5361661076744042,232.92665885586334
3623.2634,1.536796770378269,237.5420875990354
3624.0989,1.5387157178807682,216.98230247979703
3624.9326,1.5418592145856838,236.8278673783216
3625.7686,1.5461683178154173,222.9920884799202
3626.6028,1.5510719347752584,223.43344408509677
3627.437,1.555482112865026,287.4999111385462
3628.2734,1.5582802745274242,264.256847741267
3629.1082,1.5590005752291118,199.39154906228634
3629.945,1.558205548925466,262.27585928128843
3630.78,1.557162338938127,230.84550594968584
3631.6174,1.5571008143170986,297.06806908792396
3632.453,1.5586519213125958,215.7716114194789
3633.2883,1.5618739096626315,235.90798221474148
3634.1262,1.566667970268503,323.6538527889486
3634.9622,1.5728423591712617,232.98310190087977
3635.8005,1.579865901474988,230.02472013655654
3636.637,1.5864502132072023,222.45018020637715
3637.4756,1.5910236013598342,251.8712117009438
3638.3123,1.592543260918549,227.88137597307423
3639.1492,1.5913299517748352,249.32455693966264
3639.9885,1.58881029356647,292.447196089266
3640.826,1.5864907583470564,330.1174626060823
3641.6653,1.584945615355751,240.3576855780768
3642.5032,1.5838966822781482,217.8015537962558
3643.343,1.5829890899836745,233.5528777291278
3644.1812,1.5823202211968241,191.61445120264005
3645.0195,1.5821089348139978,227.65365090983576
3645.86,1.5821320748349206,255.19665003268466
3646.699,1.581695915496372,272.1663616663206
3647.5398,1.5802185779705746,242.0526077087941
3648.379,1.5778152537825418,202.78095290371624
3649.2202,1.5752635921358267,259.8172843726023
3650.0596,1.573451117744629,219.67757614663216
3650.8994,1.5726558963017063,259.11142420521816
3651.7412,1.5723543198476586,216.1606495806607
3652.5813,1.5715713454381324,218.962947033695
3653.4236,1.5694449018466297,334.6879983962542
3654.2642,1.565603212197467,224.54725856509597
3655.1067,1.560182207648073,255.18598491158673
3655.9475,1.5538268277585492,270.81369794561596
3656.7886,1.5474806997292665,274.2388013802352
3657.6318,1.5421459797049293,276.2524302914277
3658.4734,1.5385667103516,270.4875633799787
3659.317,1.5369541745125375,295.6815782399866
3660.1587,1.5371009998558633,291.882918566532
3661.003,1.5385113438090503,222.13005078209582
3661.845,1.5405385882813363,245.57787751352228
3662.6875,1.5425697338554987,291.36423071692957
3663.532,1.5442594105382916,247.3157591831428
3664.3748,1.5457118867806061,268.32994166511395
3665.2197,1.5473720634449442,261.0556416801256
3666.063,1.5495004033754771,320.0923691439473
3666.9084,1.5517311438689652,189.8788677632354
3667.752,1.5530639028426598,230.99144249688658
3668.5977,1.552517867537807,230.88369009959237
3669.4417,1.5498792876551313,233.22837511417907
3670.286,1.5459518842265887,228.13956778462423
3671.132,1.5420301766268507,272.92870530536584
3671.9768,1.5391379288351899,235.84020917134023
3672.8235,1.5376791982135403,250.02242766315157
3673.6685,1.5377971121826741,245.38310850092003
3674.5156,1.539631153598211,250.97270898135744
3675.3608,1.5430476979031118,220.51329581151714
3676.2063,1.5471642588150745,217.92839636906666
3677.0542,1.550300476401064,275.50562990227627
3677.9,1.5506539618596484,242.30646329244863
3678.748,1.5473778634401694,260.1471413666441
3679.5945,1.5411675970120524,243.8309727920175
3680.4429,1.5338907063953713,226.27711623245446
3681.2896,1.5276946644876555,243.29258076361774
3682.1365,1.5239603666436017,292.1729044736034
3682.9856,1.522949616502205,280.19622450966375
3683.8328,1.5239107051390675,208.6166567205769
3684.6824,1.5255638021083757,228.27837320462436
3685.53,1.5267303527317118,253.94201637935862
3686.38,1.5268469775287965,262.82476145935084
3687.2278,1.5260790483463171,254.73799085399776
3688.0762,1.5251285324298935,294.2601123829333
3688.9265,1.524875989164021,288.21014654322875
3689.7751,1.5259715951592057,269.50015128688597
3690.626,1.5285015396248454,256.99336377483223
3691.475,1.531922886431044,239.41493524176045
3692.3264,1.5354383651203567,280.78513739389
3693.1758,1.5383732898685412,232.5106589092771
3694.0254,1.540405999236908,290.7285287418792
3694.8772,1.5414538007694982,232.2998765941344
3695.7273,1.541619283914783,268.3946786183776
3696.5793,1.5411920309039857,284.63286542957593
3697.43,1.5404263264368885,273.11260949598153
3698.2825,1.539169217216758,240.4813538916186
3699.1333,1.5368629705232415,282.1499586846408
3699.9841,1.5331342845017466,248.40517208742577
3700.8374,1.5284601748310886,254.5834483538206
3701.6887,1.5241490644206785,249.58763702161005
3702.5425,1.5214036007086902,294.3354002778356
3703.3943,1.5206206823613164,237.85363359140558
3704.2483,1.5213463669151346,242.8822854079559
3705.1003,1.522822998590795,238.2515625319778
3705.9526,1.5243650914290898,233.70457541983194
3706.8074,1.5254329908985524,228.87887576519284
3707.66,1.5256940168421471,241.26824983981885
3708.515,1.525155711224653,251.3333658639121
3709.3682,1.5241467284159604,252.28742623361507
3710.2234,1.5231805576392263,321.78548983187
3711.0771,1.5228612351020228,228.43394337679595
3711.9307,1.5237005505441445,271.40557643955464
3712.7866,1.5257309828378427,266.0552294975608
3713.6409,1.5280714500140025,254.63007893994885
3714.4973,1.5291131437934193,251.57527770249274
3715.3518,1.527378668914303,242.62165409445578
3716.2085,1.5225025296776444,313.4629428521395
3717.0635,1.5155122050761949,239.9170137654944
3717.9185,1.5081035559813463,307.15899918184425
3718.776,1.5016390491261702,309.26743747321035
3719.6313,1.4965828550648537,290.8366947420715
3720.489,1.492557566471189,243.5649328692774
3721.345,1.489165580186477,274.08183712952086
3722.2031,1.486466062518725,259.76458520574636
3723.0593,1.4849465187782152,306.1531115230581
3723.9158,1.4849702602974784,286.7752357691681
3724.7747,1.4864888920438606,255.50520948998093
3725.6316,1.489110294989124,271.3271835958831
3726.4905,1.4923649306056803,288.38667258367957
3727.348,1.4957064843572216,254.88471453763196
3728.2073,1.4984395446919632,265.65333605006725
3729.065,1.4997035222599961,260.5089057518831
3729.9229,1.4988606454056614,305.2398850954166
3730.783,1.4958873359041378,266.49720959133947
3731.6414,1.4915348417580232,226.23070132083748
3732.5017,1.4869794714442104,265.4377191399059
3733.3604,1.4834103064030613,276.50425213777766
3734.2214,1.4815778661164207,299.78735600950785
3735.0803,1.4816055819687177,254.32187093538965
3735.9417,1.4828492501628725,242.77597008378729
3736.8013,1.4840916860396638,256.94651042434464
3737.661,1.4841795153635644,263.9208715802467
3738.5227,1.4828533685427485,241.90937400434285
3739.3828,1.4812035740453848,269.8840626542818
3740.245,1.481142314215635,211.588510696122
3741.1055,1.48412482375418,274.18435980524214
3741.9683,1.4900119304535817,248.38302160787276
3742.829,1.4968600792266145,293.47726653911974
3743.69,1.5019465447631115,280.0035439319525
3744.5532,1.5030864275431872,233.92820450394862
3745.4148,1.4997006638459796,225.68605203758796
3746.2786,1.493102463105988,242.44831045217768
3747.1404,1.4859142453842478,302.7762225417934
3748.0044,1.4807580938535811,340.73928126459026
3748.8667,1.4792630285726063,247.5820801790249
3749.729,1.4815073974006252,281.3175764583897
3750.5938,1.486245242457753,300.9831154675422
3751.4565,1.4913281532605451,293.37760161024113
3752.3215,1.494507149560211,261.2648538665526
3753.1848,1.4942593769756554,229.24490302545098
3754.0503,1.490528372407916,296.7891026679551
3754.9138,1.4846764064933426,242.4254697325069
3755.7776,1.4786064131284855,269.6901805552396
3756.6438,1.4738134407810366,303.0725743625509
3757.508,1.4709414475744311,254.68296967723987
3758.3745,1.4697912509451663,273.4795392559422
3759.239,1.4697277305145158,259.92501733371125
3760.106,1.470029268123956,242.88472168516938
3760.971,1.4702403636282217,280.08945147284504
3761.8362,1.470391485467225,253.68803882086553
3762.7036,1.470924853903418,297.49816946103846
3763.5693,1.4722966122538939,310.0015961181592
3764.437,1.4745170864269073,314.77350295364556
3765.3032,1.4769620975036766,303.6447301209997
3766.1714,1.4787208359344992,271.8630229099645
3767.0378,1.479107779467275,268.1578870164542
3767.9043,1.4779386626249504,298.0860166358886
3768.7732,1.4752535923074814,319.23952252244715
3769.6401,1.471023165443268,286.961574622379
3770.5095,1.4652609344357461,236.44724173436182
3771.377,1.4587307660009414,299.3432551780538
3772.2466,1.4531297904828053,275.84689377427765
3773.1145,1.4504911849509403,369.25486121753755
3773.9824,1.4517414894781235,250.72178696436774
3774.8528,1.455944551390532,306.0651394702931
3775.721,1.4607718729253878,265.52245586716197
3776.5918,1.4641056014860163,342.75280711885455
3777.4604,1.4652058315768166,294.9757680983424
3778.3315,1.4648401344141704,284.881201007183
3779.201,1.4643487651668372,310.246854447121
3780.0703,1.4646741632692026,264.69813078068347
3780.942,1.4659427702832486,276.4163705411123
3781.8118,1.4675788284275009,272.8080445478479
3782.6838,1.4686976250760746,284.82932869354306
3783.554,1.4684594979582148,260.9556310564396
3784.4265,1.4663804104538465,251.2887172456447
3785.297,1.462552376154991,271.9349661629432
3786.168,1.4576395964848083,272.96161897566014
3787.041,1.4526150935810558,261.2138282476704
3787.912,1.4483513999252753,283.8287889736974
3788.7856,1.4452380494859263,256.6154029265288
3789.6572,1.443317220949476,334.4231329208463
3790.531,1.442481466698999,292.74614293387333
3791.403,1.442680210056918,272.15155716278184
3792.2754,1.4438510703789935,294.25557949067365
3793.15,1.4457419748959095,318.6094009338624
3794.0225,1.4477202116335557,311.47204696648737
3794.8972,1.4488831512209353,260.1232887416284
3795.7703,1.4484765108508733,268.50220636933153
3796.6455,1.4464928504719774,257.6480747581961
3797.519,1.4439091881188792,281.7311081573418
3798.3926,1.4422089351591412,276.49251733630075
3799.2686,1.442467742704865,264.80353127331205
3800.1426,1.4446096454441597,253.04536748015792
3801.0188,1.4474860046737847,308.1381841117355
3801.8933,1.4496712581482687,275.1270225184499
3802.77,1.450376366481625,264.4596394164445
3803.6448,1.4496853026046412,283.5310143624874
3804.522,1.4481645316567533,270.7615428886149
3805.3972,1.4462675912858796,278.670422697574
3806.2727,1.4440350965495166,281.76962052955247
3807.1504,1.4413545113387238,307.55510882078715
3808.0261,1.438513723105308,275.89007638543126
3808.9043,1.436409995164426,356.1849534607652
3809.7805,1.4361622227903983,306.996201368143
3810.659,1.4381559710389784,261.0004947799336
3811.5356,1.4414017431301671,298.7684361532999
3812.4126,1.443911069002065,242.73663434168876
3813.2917,1.443979147648792,258.77340265989335
3814.169,1.4414679934823602,271.83032520689227
3815.0483,1.4378850342843699,302.12559414642897
3815.926,1.435145261355155,315.2044472292159
3816.806,1.4340347146597803,258.2311380966418
3817.684,1.4338713620625925,273.7007165777244
3818.5623,1.4333827259219194,264.61019723742055
3819.4429,1.4318909786976242,304.087461588106
3820.3215,1.4297676461978466,280.13443738983364
3821.2024,1.4279438400850084,307.2843414794318
3822.0815,1.4271225101275002,292.05079453536666
3822.963,1.42722206671691,264.81798799627074
3823.8423,1.4274192129453709,297.0040836770829
3824.722,1.4266017203230692,383.71491631092147
3825.604,1.423938476610416,322.8102959490525
3826.4841,1.419339890730313,362.6156246848921
3827.3665,1.413476949946456,314.9586569927878
3828.2468,1.407527352571619,317.9639713862503
3829.1296,1.4025354866903612,310.59611306365696
3830.0105,1.399072884328604,295.4896899540459
3830.8916,1.3969925929588154,366.5201309960254
3831.7751,1.3956504186678427,356.16118242085753
3832.6565,1.3943281502246252,266.21025087465654
3833.5403,1.3926652841673042,333.9013474446866
3834.4224,1.3908405738825385,324.4541546415943
3835.3064,1.3892691528905725,310.4169753485304
3836.1887,1.388206209083525,319.15146149803667
3837.0713,1.3875423729717404,304.470010745908
3837.956,1.38700187702602,307.29397499308465
3838.839,1.386503973520404,268.989432360545
3839.7244,1.386405101532067,343.61750018298983
3840.6077,1.38748353349668,311.02584656556144
3841.4932,1.3907005665945122,316.1728057621606
3842.377,1.396798807888088,336.93866456326657
3843.261,1.405869782677335,354.568855583308
3844.1472,1.4169385627470423,399.9388602498788
3845.0315,1.4278939444526442,292.99788942426534
3845.9182,1.4364655163582587,270.6433083176432
3846.803,1.4412645201360745,338.50284609238065
3847.69,1.4427206680397133,294.60753662044203
3848.5752,1.4426667113573264,292.4758070972025
3849.4604,1.4431907611356156,271.7311638872992
3850.3481,1.445486743443241,280.6917951569919
3851.234,1.4495098273430003,274.1893257685883
3852.122,1.454530413643771,304.25695914247757
3853.0083,1.4597600074513675,325.21367476733013
3853.8967,1.4647569487670469,310.86944862515367
3854.7832,1.4692884176385659,272.4089537467345
3855.6702,1.4733798434162573,286.3689792354655
3856.559,1.477335509483608,243.9482405960389
3857.4463,1.4815966951422936,287.62819321227033
3858.336,1.486360023609198,255.7662111706026
3859.2234,1.491122739075338,273.8663775837161
3860.1135,1.4949167662760112,259.61280205274284
3861.0015,1.4967700155072319,305.2077136801696
3861.8896,1.4962031260026012,274.51008924654224
3862.7803,1.4931287652455296,281.41378101171944
3863.6687,1.4876565420577923,218.65929731475288
3864.5598,1.4800100551358804,250.9592569858567
3865.4487,1.470901770174724,312.1324643781826
3866.34,1.4615016735625233,289.0861806656669
3867.2297,1.4532985650612356,365.71921743189915
3868.1213,1.4473593377633611,301.03386112802275
3869.0112,1.4440122993809803,285.66885345591544
3869.9014,1.4426401795773935,279.6144091355308
3870.7937,1.4419136902759302,294.3492094941953
3871.684,1.4402093500732147,295.6518173845687
3872.577,1.4362646661948215,262.80126342208416
3873.4678,1.4298799218829465,266.5717562681311
3874.361,1.4219369647213251,303.86696885011406
3875.2524,1.4138138432361624,259.31147672210324
3876.1438,1.406286537974017,324.4449173299623
3877.0376,1.399189472846253,311.3478384681522
3877.9297,1.3918757898333176,279.79661901183994
3878.8237,1.3837475470375233,295.4610896933233
3879.716,1.3746651711985598,307.94204756561874
3880.6108,1.3646601060894754,302.0594987351555
3881.5037,1.353849979048011,320.28150829847743
3882.3965,1.3421952787384126,351.38486800901654
3883.2917,1.3296898587890476,345.2459173578848
3884.185,1.316681234126839,335.44758802720094
3885.0808,1.303729084739631,326.95626204742933
3885.9746,1.2916783795576632,288.52231531597107
3886.8706,1.281071118346895,357.7707253427392
3887.765,1.2721415210759852,369.77634056255715
3888.6592,1.264827213033571,342.61874944394754
3889.556,1.2593537996301574,310.80215663367863
3890.4507,1.2565567342088553,365.40557993686457
3891.348,1.2574133193947334,395.22837827071766
3892.243,1.2622722168523797,418.88748836259896
3893.1406,1.2704475512405513,396.51538319918967
3894.0361,1.2805125744047585,365.6407510354688
3894.932,1.2912417337860733,287.6663308322569
3895.83,1.302050229095584,343.00625764531424
3896.7263,1.312863785054746,364.3157251117972
3897.625,1.3239987728025382,400.34843852570435
3898.5215,1.3356647580412446,375.7403138824002
3899.4207,1.3480177405609333,283.55094169496624
3900.3176,1.3608280987938586,362.21255558280967
3901.2148,1.3737687486690078,405.48431371361505
3902.1145,1.386518893881119,352.49709128319466
3903.0122,1.3989079381966862,330.7447704188557
3903.912,1.4111368468345613,325.66987175802547
3904.8103,1.4232050298225662,337.85623109190107
3905.7107,1.4347481644854674,291.3679874236213
3906.6094,1.4449239120970119,278.915994426995
3907.508,1.4531894189773724,271.82141012719893
3908.409,1.4597719615930749,246.37869326185648
3909.308,1.4656302597643216,273.11238920411085
3910.2097,1.472018055869826,277.1214100765262
3911.1091,1.479665867302863,289.9523511665456
3912.011,1.488455205704959,253.8881395119552
3912.9111,1.4973276306901755,273.3972855417611
3913.8113,1.505067928863147,299.9529334329753
3914.7136,1.5110802170150932,247.05086974901985
3915.6143,1.5157008635751814,235.41893936550426
3916.517,1.519833064478668,268.48154444952456
3917.4182,1.524050422483443,235.68740809433956
3918.3215,1.5282793918900095,230.11246973867583
3919.223,1.532018188275758,223.3233852630835
3920.1245,1.5349477495606703,246.02651393852128
3921.0286,1.537134961584571,235.3683130435056
3921.9307,1.5388727817484542,240.2211788335832
3922.835,1.5404781965599352,254.71824757341824
3923.7373,1.5421713766377476,256.93114762948863
3924.642,1.544124273307946,250.16412065483146
3925.5452,1.5463933958174474,245.74970311304745
3926.448,1.5488615722812462,255.60947793954043
3927.3535,1.5512193977580744,247.74120896603762
3928.257,1.5530632622011271,226.22108380964028
3929.1628,1.5540958423214433,242.57210911937705
3930.0667,1.5541600891485994,253.0316441394254
3930.9731,1.5532306396661089,266.09051266075124
3931.8774,1.5514184471085408,251.85073756879206
3932.782,1.5490221976783782,281.55401762218156
