wavl,flux,ivar
3566.9744,0.1394663401700835,3307.6100315643903
3567.795,0.14045054084959974,9738.044342624158
3568.6177,0.14226849847671585,3926.1644948761877
3569.4385,0.1440754202275624,839.4292621445219
3570.2617,0.14560704744200098,3990.6143546336198
3571.083,0.147229360735839,1330.808734849101
3571.9065,0.1494249686663444,1466.3307783015507
3572.7283,0.15210563960985835,665.61977722092
3573.55,0.15454295598230372,1308.3386850576312
3574.374,0.15588132599162105,2153.969165458129
3575.1963,0.15577135038827983,2668.9300069760716
3576.0208,0.15461492102965058,1863.188994142221
3576.8435,0.1533168869565491,1742.568750114013
3577.6682,0.15281169277431414,1241.4181611747604
3578.4915,0.15363735649741453,5797.268804205443
3579.3145,0.15565646280296233,1263.8027839655679
3580.14,0.1581261463990513,1793.061390268796
3580.9636,0.16007275326066037,1410.5423107483807
3581.7893,0.16085658095881106,8593.480672992073
3582.6133,0.1604186272157002,1266.1783832442998
3583.4395,0.15914843361278838,2673.477307939555
3584.264,0.15747992209183007,3904.367967973735
3585.0884,0.15551670947363302,1206.1513899808192
3585.915,0.15299212249629882,2187.7651123355745
3586.74,0.14963223014193033,1796.0876540434513
3587.5671,0.1456004867692864,2568.7499279940516
3588.3923,0.14177539171971407,659.242537110395
3589.22,0.13935107801338223,12499.762741598557
3590.0457,0.1392111497110161,3599.987260919917
3590.8716,0.1413345273982396,2656.2596670088305
3591.6995,0.14483282717670143,8316.26732128886
3592.526,0.1483779993683775,1681.6879633418396
3593.3542,0.15080724598479717,4078.534800986004
3594.181,0.15141673811700476,16105.170922450397
3595.0098,0.15012472224835222,1866.7824599395942
3595.8367,0.14747820581954085,11566.17940437493
3596.6638,0.1445173751424217,3118.796978913726
3597.4934,0.14244898324245178,3383.1662619032627
3598.3208,0.14218766232452143,8462.546741732891
3599.1506,0.14394042002452137,2093.122657386471
3599.9788,0.14712599327327106,4806.8652688284255
3600.8088,0.15064922104291686,1189.8906986602885
3601.6372,0.15333242251349521,7097.446086160036
3602.4678,0.15450858694369773,3951.153708638467
3603.2964,0.1543337666499556,3316.5310867314347
3604.1252,0.15365486811628923,4671.9374967059175
3604.9565,0.15328040883330152,4113.332785981484
3605.786,0.15326906502220483,9964.203900953406
3606.6172,0.15294407507237043,2684.2784432736225
3607.447,0.15169934556915698,1071.938412702071
3608.2788,0.14970969603201809,2311.335015501096
3609.109,0.1478251606852298,7246.423905476691
3609.9392,0.1467803101926364,10248.634405205019
3610.7717,0.14665357091419406,3029.4177484441
3611.6023,0.14696690543828042,2933.631931979315
3612.435,0.14718004930083084,4696.231419303033
3613.266,0.1470465092330377,3056.9998526683116
3614.0994,0.14661859734385163,2609.066461357087
3614.9307,0.14605171012542428,3378.201195188938
3615.7625,0.1454277708176282,2625.8225092741623
3616.5962,0.1447212576357245,2723.989933237435
3617.4282,0.1438868569130664,2732.199391308086
3618.2625,0.14299766881884157,5157.379446297236
3619.0947,0.14239387078291102,5049339.782716596
3619.9292,0.1426693476890215,40363.23992438831
3620.762,0.14446279234992973,2416.9845302542653
3621.595,0.1480730387654377,85382.31625673675
3622.4302,0.15309587346476985,1648.1070145257686
3623.2634,0.15826200250910893,2128.1565362589536
3624.0989,0.1619055025723385,2578.0367089208617
3624.9326,0.1626905265622349,3552.314060511716
3625.7686,0.1604165847735377,8425.490661287376
3626.6028,0.15614179825199995,1855.7793981513162
3627.437,0.15160256070947517,940.1909980433982
3628.2734,0.148368922686648,2921.8335990160544
3629.1082,0.1471959383178721,14022.726793171325
3629.945,0.14775712906224406,1660.352909072586
3630.78,0.14901442238501292,1455.8056714063844
3631.6174,0.14993490725507258,3891.9417465393744
3632.453,0.15004771642052728,1037.5085250888128
3633.2883,0.14947739244150327,3372.5414303958282
3634.1262,0.14853752587614463,7595.762785130399
3634.9622,0.14746728384003932,3656.950399675199
3635.8005,0.14648236071793785,1335.5951259112305
3636.637,0.14592836503208909,1469.0742333846465
3637.4756,0.14615630846757408,4185.647616314869
3638.3123,0.14729683003502672,20455.562861528295
3639.1492,0.14919979711598375,5434.183972855966
3639.9885,0.15159417210381118,1333.8355822878734
3640.826,0.15423771418783394,1509.3165432412027
3641.6653,0.15701710504547703,5150.525875696558
3642.5032,0.1598358213267872,952.5725312041693
3643.343,0.16254679056455973,2067.8976160357743
3644.1812,0.16484912675984625,1064.8002936257124
3645.0195,0.16641366912993102,11617.719863327911
3645.86,0.1670517356421376,2488.874681606377
3646.699,0.1668505249976288,2721.623117963675
3647.5398,0.16609786143799377,3832.5043038247622
3648.379,0.16502620845525312,2629.103072991622
3649.2202,0.16358560289018176,5614.81871117558
3650.0596,0.1614875281549129,1395.2429272668273
3650.8994,0.15846375265251006,1389.721326630662
3651.7412,0.15462308914103118,6833.598437909153
3652.5813,0.15061531977175893,2080.639012162478
3653.4236,0.14735139988188303,2272.2682055410905
3654.2642,0.1456350407091596,4600.890495218759
3655.1067,0.1457381073272981,2004.4005101226946
3655.9475,0.14728995634047434,20525.089108915185
3656.7886,0.14940847978105143,3096.6671273984784
3657.6318,0.1511036197012865,1326.4593174184206
3658.4734,0.15176747151186518,1057.3605727943338
3659.317,0.15146767185285082,890.3629754954048
3660.1587,0.15073868536147553,3484.1761591125123
3661.003,0.15013888999913377,1124.1872167200554
3661.845,0.15001835649783568,2701.138987839822
3662.6875,0.15057900835984359,2016.2834266675998
3663.532,0.15196166247752174,2281.5287703921717
3664.3748,0.15409490121317915,966.5236969493893
3665.2197,0.15657694022672958,2928.358961407891
3666.063,0.1587825173844422,3221.1017972660907
3666.9084,0.16024814783654617,5029.7979432813445
3667.752,0.16083301202431846,2751.4276299009966
3668.5977,0.16065387096659586,4271.341035429707
3669.4417,0.15989463064165127,4027.707543522183
3670.286,0.1587361266291004,2736.317465377827
3671.132,0.15733425248755706,2992.001166192198
3671.9768,0.15576046541466693,4336.119049540564
3672.8235,0.1539282954625525,1397.4295284474686
3673.6685,0.1517365739214091,2352.0451456876062
3674.5156,0.14928473031604556,3171.439312212545
3675.3608,0.14704753466283446,1425.1632464189456
3676.2063,0.1456799497525799,2162.364704045572
3677.0542,0.1457111138920316,4821.495519127935
3677.9,0.14729080879145523,1693.7544862507723
3678.748,0.150197545938233,21855.803525951524
3679.5945,0.15395291604046332,2009.0235931102438
3680.4429,0.15798450381559645,1849.3364457000926
3681.2896,0.16161043597703756,1299.733581339654
3682.1365,0.16417265960824587,2579.8943735354896
3682.9856,0.16516826666706655,1007.9473317039675
3683.8328,0.16441930283428505,1407.1286982172928
3684.6824,0.16209437910468807,21245.60718724684
3685.53,0.15861177041885136,11238.370273328881
3686.38,0.15452164811159635,1901.8373946532997
3687.2278,0.1505455908905649,3752.248171574899
3688.0762,0.14734678498325973,10920.91680412068
3688.9265,0.14523092417396435,2075.4213889978473
3689.7751,0.143952374535629,2900.973184741394
3690.626,0.14293059362274338,12534.175742141611
3691.475,0.14177220712731325,3644.565048205691
3692.3264,0.14052398131337726,4135.840439899299
3693.1758,0.13956457962830168,20269.308404487747
3694.0254,0.13928170119644356,5151.584296306658
3694.8772,0.13989510882790648,2576.565867048715
3695.7273,0.14138794582672198,3334.952873664193
3696.5793,0.14350108826040578,3998.7787657707954
3697.43,0.14575455571624846,14521.679489668015
3698.2825,0.14767433870164348,11090.984342313284
3699.1333,0.14902813971776985,1340.0337051046936
3699.9841,0.1499472361985363,6388.666115248474
3700.8374,0.15071713503804043,7633.478942433078
3701.6887,0.15146403554790341,5021.697476897052
3702.5425,0.15201945351585383,4077.305760503513
3703.3943,0.15203706753864282,3612.49527818095
3704.2483,0.1512761203830563,2648.072947614985
3705.1003,0.14977552544740905,1946.862131817056
3705.9526,0.14778716917121812,3132.7546649553733
3706.8074,0.14559404900797288,2215.0853961904168
3707.66,0.1434219733096335,3248.8611720616254
3708.515,0.1414185388364019,2482.9575909507503
3709.3682,0.1397438861565058,1436.3245824693572
3710.2234,0.13850765288254954,2335.5487921141976
3711.0771,0.1377222367156499,1683.7813969986746
3711.9307,0.13723962983259805,2943.644950279749
3712.7866,0.1368087996273711,3659.240200013503
3713.6409,0.1362225860048892,3095.1198160888525
3714.4973,0.13547592814900214,1465.2954754222105
3715.3518,0.13483505568769277,13640.6940165089
3716.2085,0.13471130519445165,2310.761084559181
3717.0635,0.13546091825972792,5890.680401342482
3717.9185,0.13722174331732087,3438.851347155585
3718.776,0.13987995890488047,2022.9756283605022
3719.6313,0.14305018783453363,3962.372926438465
3720.489,0.14615623202558256,13004.84711465367
3721.345,0.14852226884129294,1022.6526411060197
3722.2031,0.14974015954479739,7742.530252181
3723.0593,0.14988167622327886,6829.567553103587
3723.9158,0.14937938703419124,1456.551932413107
3724.7747,0.14855626265348554,1638.346282974169
3725.6316,0.14737652335577792,2996.5626610619893
3726.4905,0.14565850297089591,3607.6499086434337
3727.348,0.14354948748701069,2027.834144427436
3728.2073,0.14167639279382785,4529.684679407889
3729.065,0.14086637398204838,1528.2666460918788
3729.9229,0.14155484407625163,4589.211938700788
3730.783,0.14344933224733464,3297.8694080316172
3731.6414,0.14566970549681202,1708.515054977936
3732.5017,0.14735700402826377,534.8141196197055
3733.3604,0.14813569076473085,5209.105635439257
3734.2214,0.14817011331627572,7539.920777682217
3735.0803,0.14784127399730593,2296.6157987093643
3735.9417,0.14747802012115221,4248.771805475869
3736.8013,0.1473018036539883,1960.6935152980914
3737.661,0.14747873822940993,2054.4473573092437
3738.5227,0.14815708693288254,1749.918533264628
3739.3828,0.1494034439570902,4585.281982311219
3740.245,0.15109768941132923,4645.053679245256
3741.1055,0.15285411947339056,12689.825137232903
3741.9683,0.15419158019281715,1431.3450108082552
3742.829,0.15480056592693292,2391.340436884442
3743.69,0.1547747544315358,8156.767721659842
3744.5532,0.15450769952025065,5755.1955453239425
3745.4148,0.15438090149159925,48109.06402966634
3746.2786,0.15446556108584125,1230.5470076370525
3747.1404,0.15447409017478897,912.2848671020798
3748.0044,0.15397977255358275,4517.258984155971
3748.8667,0.1527588253811586,1493233.0385843758
3749.729,0.1509976816736596,7769.072832935442
3750.5938,0.14918293783122322,3334.117593680906
3751.4565,0.14774485541711055,1341.6494270668927
3752.3215,0.14671365766579175,1847.4105541710808
3753.1848,0.1458138794397915,2597.5452530794714
3754.0503,0.14481877527168027,4091.9931876398005
3754.9138,0.14384920918828134,2799.4998804324296
3755.7776,0.1432559577709738,4571.1807181993745
3756.6438,0.14328881381692865,1160.5555183738481
3757.508,0.14387804238093185,9001.893779263548
3758.3745,0.14473620898935954,3861.576409757171
3759.239,0.14560826961093126,2560.4669533051238
3760.106,0.14643727890902017,2851.8308618462497
3760.971,0.14730950388694478,4382.582707496809
3761.8362,0.14835126674892782,6654.633074083471
3762.7036,0.1496330306815934,1657.998736695811
3763.5693,0.15109991809238577,2331.5205295215437
3764.437,0.1525542421909232,1501.0032747798282
3765.3032,0.15365819012307919,2315.030525357677
3766.1714,0.1540698214754491,1873.026871041818
3767.0378,0.15358265429666998,1481.5812026888002
3767.9043,0.15223779192645612,3008.632998525208
3768.7732,0.15031919173484634,1881.369812782205
3769.6401,0.1483108754569471,2798.1241345865174
3770.5095,0.14677511185613928,5527.482364576747
3771.377,0.1462937150232874,2439.1217801155835
3772.2466,0.14732056375293376,6907.246152817248
3773.1145,0.150008321849358,3287.531134400715
3773.9824,0.15400107829360793,3028.909091081557
3774.8528,0.1583195264548651,1628.442825014527
3775.721,0.1615005819110168,2193.003523733993
3776.5918,0.1622883903599137,2333.7558405629616
3777.4604,0.16034779108682565,2548.723941539467
3778.3315,0.15660698601558978,5469.573001490622
3779.201,0.15280812578472291,1970.8562509177448
3780.0703,0.15046237735620213,1340.0599771530406
3780.942,0.1500689962347717,2459.978266799277
3781.8118,0.15098259784376256,5166.714290114363
3782.6838,0.15196228910160178,3363.8808220149676
3783.554,0.15198815056374143,868.2915443344785
3784.4265,0.15083657327184868,5361.272706473769
3785.297,0.1490557011616418,7345.012182744583
3786.168,0.14741501569783094,113221086.7247812
3787.041,0.14634914925516204,17204.966225913206
3787.912,0.14582129237165967,1683.1144937296258
3788.7856,0.14557999238364688,1509.990838468283
3789.6572,0.14546808803220285,11349.31559707254
3790.531,0.1454510875662586,57531.697956266005
3791.403,0.14549848687171588,1394.3404573610474
3792.2754,0.14554619667031823,6052.424487045823
3793.15,0.14555408939255204,1478.5590907314277
3794.0225,0.14549619953456047,2802.803633074608
3794.8972,0.1452804656397336,3599.675529278013
3795.7703,0.14477231723412998,2466.781248502245
3796.6455,0.1439421062878117,2588.2548873228366
3797.519,0.14295504119702604,2919.394206925081
3798.3926,0.14204530573273147,6146.45231925553
3799.2686,0.14136434711934834,2323.5399926475793
3800.1426,0.14097584741469174,5425.6384128936115
3801.0188,0.14094137699946888,54797.232806719265
3801.8933,0.14137454227770885,2255.629264050134
3802.77,0.14239560746433175,2381.449174041339
3803.6448,0.14402465188671543,3476.234834005601
3804.522,0.1460615034313104,3879.8460342215976
3805.3972,0.1479343386903242,3341.3995293906214
3806.2727,0.1488247598074928,3437.463877836507
3807.1504,0.14805611914568675,4923.720306084536
3808.0261,0.14561188596198038,1879.3304476427095
3808.9043,0.1422629642759811,2423.3090269638146
3809.7805,0.1392336855146904,3359.431263688955
3810.659,0.13755204879953045,179265.8730094686
3811.5356,0.13772216881111288,3395.672555358303
3812.4126,0.13966520032139393,6194.954766768763
3813.2917,0.1428703198404627,3380.770481040781
3814.169,0.14647723910036045,4408.358174543738
3815.0483,0.1495383306853656,1453.4574748587852
3815.926,0.15135279378173236,1710.7295717216914
3816.806,0.15187506697321002,5500.233680110687
3817.684,0.151642275405184,4475.890834998524
3818.5623,0.15131706460085614,3017.479750215163
3819.4429,0.1512095491425333,1126.92754569627
3820.3215,0.15122480582777606,1544.948585034318
3821.2024,0.15117598152900297,3052.0265940352406
3822.0815,0.15107904861682278,7391.679221118358
3822.963,0.15112998978984477,2274.7544238876444
3823.8423,0.15143341382564196,2628.905811859769
3824.722,0.15179195054999692,1624.5961651286357
3825.604,0.15179149021706062,1061.7260939953267
3826.4841,0.15112331148482797,1936.044532469079
3827.3665,0.14983767748523746,2115.168579471536
3828.2468,0.14831182950570587,3385.7665726147984
3829.1296,0.1469470732015641,2535.5152349265945
3830.0105,0.1459264171328511,3299.870528812472
3830.8916,0.14510730164810792,8084.576949335502
3831.7751,0.14413482095814986,2247.6373801021355
3832.6565,0.14266917719375527,4007.1362232614183
3833.5403,0.1406096758849429,26390.963357974637
3834.4224,0.13823351923073685,3401.366307464511
3835.3064,0.13602111078179507,4452.567478479553
3836.1887,0.13441323421165113,5414.142352256886
3837.0713,0.13360235461976946,3926.1420659797313
3837.956,0.13357508130809265,5779.964081596048
3838.839,0.13420729771055315,2467.5803252962796
3839.7244,0.13532715012731059,12386.284958286364
3840.6077,0.1367223700187919,10599.7462988082
3841.4932,0.1381859177160588,2793.8556469376485
3842.377,0.13956396065057936,2538.1305955123375
3843.261,0.14089049429209308,3231.6489436931556
3844.1472,0.14244436112853803,2779.2577567659364
3845.0315,0.1446084410884549,3883.678365309969
3845.9182,0.1475539346157303,5900.869640378267
3846.803,0.1508903825751647,2994.110120983613
3847.69,0.1537968685447526,10278.204039259363
3848.5752,0.15547639522280202,1285.6056212872602
3849.4604,0.15575639781955836,3397.7175489594574
3850.3481,0.15518037690939732,4696.699796518295
3851.234,0.15461837491578023,2472.260578551953
3852.122,0.15471403220121718,1747.289736238399
3853.0083,0.15565311799067844,1506.377085046561
3853.8967,0.15730286683664285,1992.8841245277267
3854.7832,0.1593897488008206,2072.4678448080763
3855.6702,0.1615275930039547,4283.726460727259
3856.559,0.16314012009409046,1628.0326488253017
3857.4463,0.1636212590988799,1126.0372298633765
3858.336,0.16277331763946395,2244.2071228961163
3859.2234,0.16110194142729026,4905.848756577714
3860.1135,0.1595849482899462,2435.199532510849
3861.0015,0.15901355434819187,4467.521699470082
3861.8896,0.15934216181004363,2790.663750023099
3862.7803,0.1596944879180166,1730.203006586873
3863.6687,0.1589975752507426,1460.801200699319
3864.5598,0.15676414851032,2035.7071150307115
3865.4487,0.1534198337912682,2407.7459550060753
3866.34,0.14992969149556135,2481.00987791232
3867.2297,0.1472455360490118,3266.660280432542
3868.1213,0.14581851291293849,10179.319413597153
3869.0112,0.14557139604158895,1525.1575580237459
3869.9014,0.14607504862048173,4480.034289489165
3870.7937,0.14685397743394704,3582.5252522208757
3871.684,0.14760128129452682,7090.608761201012
3872.577,0.1482577068694294,2045.4726903145038
3873.4678,0.148882530439264,2165.405453159856
3874.361,0.14945159972908065,825.3212204215777
3875.2524,0.14968481315709917,2037.7898674830594
3876.1438,0.14910533225169792,1821.0043995209894
3877.0376,0.1473147453892413,3162.8225318638656
3877.9297,0.14435854413754046,2833.133848430087
3878.8237,0.14080369299248202,1955.022330061671
3879.716,0.13751489618773952,1832773.5759095172
3880.6108,0.13514182695825872,2711.303503312791
3881.5037,0.13387162544618128,3824.4296210840935
3882.3965,0.13344144074640119,3324.854548940038
3883.2917,0.13344923038951514,2536.012017480905
3884.185,0.133575430176427,4503.151206723134
3885.0808,0.13362022734663878,2613.1939822868926
3885.9746,0.13343212327743498,2526.3668516675634
3886.8706,0.1328665065199035,4043.4976107737198
3887.765,0.13181325166633592,7336.718488115198
3888.6592,0.1302254514649691,3307.991698652803
3889.556,0.12814295767885792,3259.9854772657527
3890.4507,0.12576749189478323,5636.923226720599
3891.348,0.12349234661893334,3648.386284094999
3892.243,0.12190499947546962,2675.8364370670934
3893.1406,0.12150398803639534,3139.9507794174647
3894.0361,0.12239848683871646,2654.8038511135646
3894.932,0.12417218585475945,19642.40360626549
3895.83,0.12615047780559333,9524.674316299828
3896.7263,0.12783198303757265,2540.6880264265624
3897.625,0.1291776130903812,3681.5517162742212
3898.5215,0.13042080982900983,3070.441981541739
3899.4207,0.13173466870904488,2551.3892387225
3900.3176,0.13303497303540107,5666.806053333938
3901.2148,0.13417197403487352,1982.8769853938538
3902.1145,0.13518272834438638,3155.4633587985445
3903.0122,0.13635287200838203,1839.7514656371634
3903.912,0.13806460857704597,6417.297352413018
3904.8103,0.14052702462897135,1657.4977732941272
3905.7107,0.143641660461508,3407.642818476096
3906.6094,0.14695954031291258,2148.5349679320834
3907.508,0.14994755345346777,1927.0391236593716
3908.409,0.15233344442540583,1739.9778513122158
3909.308,0.15429750459244246,12572.487119068139
3910.2097,0.1562994934572738,2859.386996826961
3911.1091,0.15856570890306582,1010.9330410079722
3912.011,0.160863885163351,4142.38825867024
3912.9111,0.16264609732176413,1577.887416435774
3913.8113,0.16350273696232864,1013.7654731990239
3914.7136,0.16340804451343402,2222.2847553197826
3915.6143,0.16269777786982006,1534.6490986831113
3916.517,0.1618491497104293,5266.825061668907
3917.4182,0.16125187418810624,1779.9267369403906
3918.3215,0.16106239227338598,2224.4014201346513
3919.223,0.16124251935257133,1540.154883457947
3920.1245,0.1617034327548091,2491.926730766507
3921.0286,0.16241597320551485,2232.7134309942226
3921.9307,0.16335198838002188,2382.9022801789647
3922.835,0.16438052471825754,2171.0412682700717
3923.7373,0.165253051302038,2769.8655546676728
3924.642,0.16577412183629425,2250.6219334443413
3925.5452,0.16595110648570427,2031.3117804014516
