wavl,flux,ivar
3566.9744,0.2787798389760168,1646.0437356098814
3567.795,0.27863996140240904,2335.4643592187567
3568.6177,0.2792355921736474,2946.5304593058013
3569.4385,0.28033278318527044,5218.817745260048
3570.2617,0.28159543238338275,2184.541816839059
3571.083,0.2829186239702749,797.5588788641105
3571.9065,0.2844892096680523,1915.4321973701299
3572.7283,0.2863007711703593,878.6524393565711
3573.55,0.28775496753056173,1020.6172240245073
3574.374,0.2879432160389627,1230.2704638555579
3575.1963,0.28655773590370204,1226.7550609367092
3576.0208,0.28449034690397673,1088.1195981278497
3576.8435,0.28342355268416497,1533.7947573265849
3577.6682,0.28462364723562494,2049.3569323800166
3578.4915,0.2879974893296005,1629.4178984931352
3579.3145,0.29214505006444597,775.4351085355827
3580.14,0.29529923364832333,4281.296411717704
3580.9636,0.2963045115031068,2360.9793699845663
3581.7893,0.2950832438954619,1590.4163398841215
3582.6133,0.29237123326162456,5116.808150729782
3583.4395,0.2891680552986004,1587.6768333873865
3584.264,0.2863009315144399,1098.6405406320032
3585.0884,0.2840929846476072,1237.9361019463618
3585.915,0.2823484035067437,9749.61501942661
3586.74,0.28057959492860807,1732.6058082123636
3587.5671,0.2783689699005266,1646.5388854136831
3588.3923,0.27574922864072465,1756.0504619610654
3589.22,0.27319664494130974,1365.650342941603
3590.0457,0.27134785545652657,2239.725140362108
3590.8716,0.27048411090101393,2149.4895791892495
3591.6995,0.27035113576793707,1584.0332427640608
3592.526,0.270398664144105,838.9494570487717
3593.3542,0.2702591715251575,1461.94968843992
3594.181,0.2700043763792123,2142.4250533968057
3595.0098,0.26997414535654773,2316.5284730636395
3595.8367,0.2704401534839827,1603.9187303144524
3596.6638,0.2714510392691374,1854.1626947458496
3597.4934,0.27290280918560955,3138.2392819099096
3598.3208,0.27458212732922616,3034.125826368383
3599.1506,0.2761537863435044,1935.5131451561974
3599.9788,0.2771459531960492,1045.9131959095405
3600.8088,0.27719904755335345,1451.0604692233885
3601.6372,0.2763410419866426,1290.100522911056
3602.4678,0.2750628438413102,1852.9796923726472
3603.2964,0.27405666840082915,5833.078986425301
3604.1252,0.2737449895230045,1430.6283561678938
3604.9565,0.27402159940940596,2175.288165302811
3605.786,0.2743745781794664,3856.6539717848736
3606.6172,0.27428645693112047,3947.0691158464633
3607.447,0.27353809702930704,998.4302566095828
3608.2788,0.27223811835526496,1265.422894599249
3609.109,0.27067450499737744,2280.0975221542108
3609.9392,0.26908323188384,2617.418079648546
3610.7717,0.2675060593488704,1379.4532545519837
3611.6023,0.2658415972397282,2203.2268051622855
3612.435,0.2640558707473425,1858.6176818746271
3613.266,0.26242618076482643,3228.1998846508163
3614.0994,0.2614290283674641,1386.4132355549254
3614.9307,0.26141895350094313,1565.9490325394038
3615.7625,0.2623092374474456,2302.9918978348974
3616.5962,0.26359145064780387,1824.292077999422
3617.4282,0.2646077907972856,1542.0902002512178
3618.2625,0.2649236089785038,4655.788108467513
3619.0947,0.2645313314954623,1833.760185809971
3619.9292,0.2638503561229798,2842.340079202222
3620.762,0.2634943485245617,2229.7916573667962
3621.595,0.2638846641238825,6185.490545617096
3622.4302,0.2649638277271612,1436.0927607682574
3623.2634,0.26621231731813244,1618.663342401956
3624.0989,0.26704659646371814,1894.2430805571169
3624.9326,0.26723379796045965,1542.1461355358965
3625.7686,0.2670415808521696,1357.2474399660534
3626.6028,0.267008343466985,1988.6072955548566
3627.437,0.26759413660234566,2619.641021828384
3628.2734,0.2689516789819351,2634.784647677903
3629.1082,0.270851786847201,2493.9630439743605
3629.945,0.2728231474992963,1249.4328559418109
3630.78,0.2743948694006487,1161.4379113050773
3631.6174,0.2754123138980831,1109.1270449040287
3632.453,0.2760771899191298,1434.3439839327912
3633.2883,0.27677443508228494,1378.818863131438
3634.1262,0.2777558894579635,2670.931494416034
3634.9622,0.278888891660867,4047.740114975897
3635.8005,0.2796624231463704,1679.9105134111478
3636.637,0.2795172459024795,1834.7130384351822
3637.4756,0.27840681001609785,2181.8172211203787
3638.3123,0.2770372524747758,1151.6763426135872
3639.1492,0.276421528094841,1178.1843570718233
3639.9885,0.2771130792650603,1274.303270139388
3640.826,0.27878208891246253,1807.552155647209
3641.6653,0.28055096393761647,1567.8408360625735
3642.5032,0.28168018631317454,2593.064253083008
3643.343,0.2820488937213692,1579.315059079673
3644.1812,0.28205657363978703,1566.2079821283169
3645.0195,0.2822316826198558,2420.574193359131
3645.86,0.28288088301245634,1828.1119421738697
3646.699,0.28392716804932705,2580.8955061825304
3647.5398,0.28492156827136994,2593.211377509917
3648.379,0.28520891904073953,1717.98065513347
3649.2202,0.2843338730342825,1631.621069448429
3650.0596,0.28245763275132985,1704.8337210913385
3650.8994,0.2803850715763479,926.2360964881105
3651.7412,0.27905881518993353,1831.1019025241842
3652.5813,0.27884547478354155,1433.1409676408614
3653.4236,0.27922596226231494,1125.740108878541
3654.2642,0.27924402654673974,1754.7061655509447
3655.1067,0.27832104596317736,2025.4100586165052
3655.9475,0.2767442492609999,1517.6182329044773
3656.7886,0.2754045681870457,1603.9441049929605
3657.6318,0.27506629785566233,4798.990213133564
3658.4734,0.27576815007255623,1586.901786235252
3659.317,0.27682170013281465,1284.5099113454971
3660.1587,0.2773421090504924,1755.5940005122343
3661.003,0.27687439955791787,2149.7157602633797
3661.845,0.2756762894261367,2425.007847540629
3662.6875,0.27455667296615033,2108.7967964747795
3663.532,0.27442611511972015,2210.44917994532
3664.3748,0.27579268827519343,1319.3086588987137
3665.2197,0.27847185718724704,2268.239180381055
3666.063,0.2816070902073298,4826.014920455917
3666.9084,0.28405825979134985,1331.3593256542879
3667.752,0.2848425944928398,1449.5030898150694
3668.5977,0.28357063878507105,1044.3159026611102
3669.4417,0.2805451839859779,1332.9917639409468
3670.286,0.2765336884953168,854.5245355841511
3671.132,0.27236432662196036,1539.7764098462947
3671.9768,0.26860733769228246,2870.8112353038714
3672.8235,0.2654190429190429,1510.442528710523
3673.6685,0.2627972911485995,1518.5490557990772
3674.5156,0.2608125852853705,4682.038411309872
3675.3608,0.25974123775961194,1948.9652309976577
3676.2063,0.25984806723663106,2324.5734142115753
3677.0542,0.26116250125174756,1927.0196093499426
3677.9,0.2633431200474953,2248.4435649841994
3678.748,0.26580697709932494,2115.7358788059155
3679.5945,0.26794753415205513,1219.3372947674372
3680.4429,0.26944229886412174,2078.1295564723687
3681.2896,0.27030656937604686,4381.620367096138
3682.1365,0.2707846029220236,1221.1369989969041
3682.9856,0.27112297550038733,1199.272628659225
3683.8328,0.2714139608172308,2362.4250894955408
3684.6824,0.271506655715721,2665.7917804677945
3685.53,0.2709927959147345,2344.3042871737143
3686.38,0.2693968098512395,1311.782049657615
3687.2278,0.2666103923662238,1242.2415613184198
3688.0762,0.26323549754928033,2272.567972758672
3688.9265,0.26048892799149853,1409.3613321787461
3689.7751,0.2595511365232398,1475.1320636778744
3690.626,0.26080155212620004,4215.0490755420715
3691.475,0.2636770716656268,1238.6906222187276
3692.3264,0.26719880406682867,1937.594613456866
3693.1758,0.27053997546585323,1671.2275989184743
3694.0254,0.27328850846114666,5196.113400632853
3694.8772,0.27528109508863696,1534.7696965879495
3695.7273,0.2764732074309185,1302.6344884288098
3696.5793,0.27697013546727395,1724.3851052592697
3697.43,0.2769847326255982,1316.9422239104747
3698.2825,0.2767147808350173,2142.3357802690753
3699.1333,0.27620843655544136,1875.8969897133782
3699.9841,0.2753873856823149,1724.3636485190832
3700.8374,0.27421630873794667,1378.436519163049
3701.6887,0.27285002278855613,1582.3267396010056
3702.5425,0.27155139924325933,1943.3899571475972
3703.3943,0.27050923370339597,2747.861347004833
3704.2483,0.2696715416520688,2516.3955803459016
3705.1003,0.26885054685707366,1989.4840698306487
3705.9526,0.26795002307781457,1592.2319068131883
3706.8074,0.2671283418444612,1636.2463337221136
3707.66,0.26669202195467817,1700.3065504005342
3708.515,0.2667868304944446,1713.7678672698275
3709.3682,0.2672254309197995,2175.4451980074027
3710.2234,0.267609813293128,1461.69452054064
3711.0771,0.2676098738795523,1821.032374944085
3711.9307,0.2671250253729557,1608.249889911754
3712.7866,0.2662496999746628,1419.8995306908087
3713.6409,0.26523784084121443,2698.819735749848
3714.4973,0.26447607231033166,4637.059922900025
3715.3518,0.2643940419835689,2903.4589456178924
3716.2085,0.26522241400088103,2344.616141986999
3717.0635,0.26680077019521686,5093.171055132341
3717.9185,0.26860445468632677,1323.5297852800925
3718.776,0.26997572847220724,1899.0824713764734
3719.6313,0.2704247730884494,1542.8193805737228
3720.489,0.2698697345724563,3693.5934334709955
3721.345,0.2686244455284607,1264.6981288838108
3722.2031,0.2671766987640363,2622.4023897027405
3723.0593,0.2659330232717941,4033.9212159731546
3723.9158,0.2650492993124666,1314.442229416916
3724.7747,0.2644939419619457,1732.155534303379
3725.6316,0.26419830034209535,3014.428026568641
3726.4905,0.26414243529966214,2332.6849608632456
3727.348,0.26433930118204324,4043.216911106726
3728.2073,0.26475504218358165,1589.2708437501972
3729.065,0.2652497410451114,2229.95507763042
3729.9229,0.26558493497369096,2769.889359605882
3730.783,0.2654913541952027,1841.5865785715955
3731.6414,0.2647930280198483,2042.630118226334
3732.5017,0.2634958433655724,1606.4853611136384
3733.3604,0.2617932368412455,3020.8760083866086
3734.2214,0.2599706355679572,3294.9264503088602
3735.0803,0.2583708362503769,2373.309806343254
3735.9417,0.2573129532963539,2961.1147282239554
3736.8013,0.25705656781084973,2504.1444102264477
3737.661,0.2577243383217536,1964.9065104813167
3738.5227,0.25935217691237616,1686.3592127894904
3739.3828,0.26193918713307407,2353.83951368462
3740.245,0.265408388986678,4538.672726134779
3741.1055,0.26931478944015197,2581.017733711372
3741.9683,0.27276358065646444,872.9078358281869
3742.829,0.27461456084532787,1524.2579905512284
3743.69,0.2741540414366809,2587.3811350109454
3744.5532,0.27149172132497057,1172.6312500591157
3745.4148,0.26747660105843607,2468.024179887784
3746.2786,0.2630792516504399,1236.26530440542
3747.1404,0.2589730560022715,2219.9346383974416
3748.0044,0.25542789981202774,2804.150219978711
3748.8667,0.2526682634295642,1514.5072332339466
3749.729,0.25099818854516154,2406.2301069596024
3750.5938,0.2507108013350316,2167.9545757252663
3751.4565,0.25181505132946685,2246.6009362606997
3752.3215,0.2539344439922229,3131.4110189400676
3753.1848,0.25647404537957114,2012.011219381418
3754.0503,0.25895610203883895,3043.4936294995528
3754.9138,0.2611436732705888,1433.9837943204416
3755.7776,0.2629950477876478,6927.97363869925
3756.6438,0.26442771496310535,1299.4726933590616
3757.508,0.265209830979238,1252.67343763191
3758.3745,0.26510238712338136,1640.166498967182
3759.239,0.26405411027931047,1783.5092914266215
3760.106,0.2622808997032399,2229.941763685488
3760.971,0.26018618432927476,1857.318667811184
3761.8362,0.2581633594633385,3831.844447542525
3762.7036,0.25649299993116426,1579.7705013414627
3763.5693,0.2553398566044571,1893.0649741555328
3764.437,0.25478897383568305,1749.313192334229
3765.3032,0.25489816204518845,1940.2407747469215
3766.1714,0.25561537850970883,1495.0559396825308
3767.0378,0.25666288930535847,1451.1051453022583
3767.9043,0.2575676019549379,2511.0283877311194
3768.7732,0.2578890108463977,1417.54211190948
3769.6401,0.257506303561147,1577.1588115733425
3770.5095,0.25672146010211777,2956.4296113850837
3771.377,0.2560828656354292,1339.0583367116997
3772.2466,0.25606414744387174,1642.6618302936224
3773.1145,0.2568591810849159,2308.321391809547
3773.9824,0.25834737259691376,2680.258901354881
3774.8528,0.2601723976360737,3373.834518132407
3775.721,0.2618219352887494,1643.7608348384497
3776.5918,0.2628232084287004,1513.7520595228316
3777.4604,0.262942531471598,2847.249327865081
3778.3315,0.2623689034915996,18545.63569132356
3779.201,0.26161358549318264,2139.4120532120082
3780.0703,0.2611257149423211,1642.5201241942625
3780.942,0.26088755143021214,1405.8527575986936
3781.8118,0.26035845184570444,3782.7302278058596
3782.6838,0.2589127685396013,1252.8049846849929
3783.554,0.2564875544167444,1717.6815135071356
3784.4265,0.2538051673208647,3428.254117171301
3785.297,0.25200889821979616,1982.5212351204186
3786.168,0.25186294332827963,2148.931242979626
3787.041,0.2532685652853283,1682.1274756581893
3787.912,0.25531201311487683,2708.815496697755
3788.7856,0.25687364429592413,1342.3569439061675
3789.6572,0.25729866237225274,2538.077814416818
3790.531,0.2567596891982705,2684.385997344984
3791.403,0.25598097451926943,2849.7446814631053
3792.2754,0.25559931385253254,3161.53779749898
3793.15,0.25570704603532574,1776.3112784116295
3794.0225,0.2559159395555718,1572.5267144499187
3794.8972,0.25580369007876336,3394.091574391866
3795.7703,0.2552745951416143,2274.119026542111
3796.6455,0.2545451971009306,2063.2307788667713
3797.519,0.25389149419006807,1637.3347505526656
3798.3926,0.2534505662986585,1937.6931765888348
3799.2686,0.25325976926399046,2854.066864399523
3800.1426,0.2533758050787628,2874.770197476744
3801.0188,0.25387992053541164,1730.4610160227594
3801.8933,0.25475734272947803,8174.503654077012
3802.77,0.25581716971269813,2415.174895317844
3803.6448,0.25672951813176215,2772.421193467283
3804.522,0.2571868769191314,2553.6661117065155
3805.3972,0.2570146669415031,2211.7474495793463
3806.2727,0.25623459174329816,3385.778666728177
3807.1504,0.2550629174761246,1323.810386699801
3808.0261,0.25390310286865275,1403.955776668202
3808.9043,0.25323671815216836,1787.6633399607076
3809.7805,0.2534597340029225,1620.9373907370148
3810.659,0.25468618307644336,3278.7424946346905
3811.5356,0.2566882844838427,1648.209993227483
3812.4126,0.2590155140265009,2368.698163193798
3813.2917,0.26116591965923813,2276.948870113695
3814.169,0.2627284067774458,865.4022367469979
3815.0483,0.2635219657728579,3190.957160775559
3815.926,0.2635884455770588,1710.9430898314708
3816.806,0.2631238919697844,1995.389637254602
3817.684,0.26235491352049345,1985.990237750125
3818.5623,0.261476063385658,1764.755085775064
3819.4429,0.2606622366138268,1465.3637832056259
3820.3215,0.2600776930473693,2163.6565901615363
3821.2024,0.25980253915857027,3143.0839884654756
3822.0815,0.2597741880379609,1405.3683111365558
3822.963,0.2597948233788931,1459.6924313751865
3823.8423,0.25964339351398597,1650.7013851586821
3824.722,0.2591909338982735,3232.392480526328
3825.604,0.2584323273805595,1596.5471307998303
3826.4841,0.2574592322458311,1721.139509479024
3827.3665,0.25639354024354355,2313.1451939636245
3828.2468,0.25533951032590035,2101.765847197838
3829.1296,0.2542671986862815,2405.9842408554996
3830.0105,0.2529515296781543,2753.270304720643
3830.8916,0.25098010309205765,1753.8290770942922
3831.7751,0.24790401654049427,2234.3456338290725
3832.6565,0.24345734425507018,2138.9667005090296
3833.5403,0.2376548953137494,2473.997398715119
3834.4224,0.23103422151547884,2985.25833435245
3835.3064,0.2246407672809063,2893.698514230898
3836.1887,0.21992867693807697,3153.312619480935
3837.0713,0.2180709518396892,3881.9828392454597
3837.956,0.21938191361345358,2199.1450165309207
3838.839,0.22315961874735582,3873.549957459358
3839.7244,0.22824471619841574,2997.51661155136
3840.6077,0.2336296098661561,4311.057534301674
3841.4932,0.23879689068300394,2053.1688765033355
3842.377,0.24348754282076912,1109.027511718328
3843.261,0.24762534951906004,2254.983464008719
3844.1472,0.2512515938439548,1525.1857131034237
3845.0315,0.2544446084292632,1338.7350574742557
3845.9182,0.25719161038267346,2331.148180824165
3846.803,0.2592203862608871,1853.8671822986664
3847.69,0.2602488502577616,1687.12203788229
3848.5752,0.26033307359754165,2138.7762207582
3849.4604,0.26004887320861975,2887.851221495514
3850.3481,0.26017324983671986,1820.6044622101806
3851.234,0.2611618534681996,1865.957879556905
3852.122,0.26292784734015684,1554.2248073809765
3853.0083,0.265098565290532,1211.561130363885
3853.8967,0.26749076309651443,1508.2373572062893
3854.7832,0.27019855766229034,1985.2599019621075
3855.6702,0.273346018485899,2306.7106529521093
3856.559,0.2767184829928572,1623.6509424695553
3857.4463,0.27968954887130504,1738.7345114029795
3858.336,0.2815403330004116,1525.376220306196
3859.2234,0.2817809040501561,1321.6694944977753
3860.1135,0.2804180670458074,1629.4761631429608
3861.0015,0.27797631687644914,1798.6229917391047
3861.8896,0.27530896670167354,2006.397629225121
3862.7803,0.27329717769548967,1574.2143191061816
3863.6687,0.2725126527376472,2142.2476669609396
3864.5598,0.2729477230991607,1517.7768251864259
3865.4487,0.27406621295805655,1839.3520663299291
3866.34,0.2751161156885751,1465.249703517889
3867.2297,0.27547171537657117,1470.2125618512084
3868.1213,0.2748070150417308,2108.3203930173063
3869.0112,0.2730673066861096,2020.130472951622
3869.9014,0.27043677750629064,2152.5341100629203
3870.7937,0.26734276315950445,1956.6663226389667
3871.684,0.2643630543398453,2153.412631722467
3872.577,0.261878044113517,1333.6671731960716
3873.4678,0.2598819650788289,1576.0503280751043
3874.361,0.25799068336556685,1316.8989436925383
3875.2524,0.25580096476514225,1425.9781141215872
3876.1438,0.2531465935203463,1991.6070202741412
3877.0376,0.2501316510673994,2060.3055029694447
3877.9297,0.24695028130859886,1579.7272368878062
3878.8237,0.24364026318379242,1293.3708133590094
3879.716,0.24012736294855647,2212.117558873709
3880.6108,0.2362920286705273,1462.7960567768228
3881.5037,0.23213842469471097,2022.6746375689308
3882.3965,0.22775466846332315,1706.2249203863662
3883.2917,0.22329324357565972,3383.7991301666702
3884.185,0.2189212575272129,4738.940499928174
3885.0808,0.21466414158784233,2541.0851478967415
3885.9746,0.21053617451556939,3487.829630431055
3886.8706,0.20665940299019556,2455.9079457104785
3887.765,0.20351194486449375,2030.6890173314994
3888.6592,0.2017451044517824,1852.142215152118
3889.556,0.20178987471374055,2183.267663898026
3890.4507,0.20345040857877872,1889.1408104565808
3891.348,0.20594121651607747,5847.766094686112
3892.243,0.2083388539998351,2564.0170923551436
3893.1406,0.21018182099951838,2595.8463338474908
3894.0361,0.2116602138566025,3606.475054616363
3894.932,0.213443787056857,3237.281356399885
3895.83,0.21620513295309093,2891.3090975530213
3896.7263,0.22018632413195555,2411.472182095009
3897.625,0.22511198433597238,2179.4363309689106
3898.5215,0.23026518481239805,3270.749782752355
3899.4207,0.23490058758596735,2733.8094262705154
3900.3176,0.23845392541830782,1736.4765110163564
3901.2148,0.24080757981348885,1532.3765485290962
3902.1145,0.24224330508577693,1954.557402106796
3903.0122,0.24333428213674754,1917.8258932277054
3903.912,0.2448031286844693,2163.920938678898
3904.8103,0.247274168911205,1617.825576219073
3905.7107,0.25105015520097596,1772.2375246512518
3906.6094,0.2559200259043717,1458.7651099679342
3907.508,0.26134561418706803,2483.222185540809
3908.409,0.26680909704963335,1281.0574407741851
3909.308,0.27204264212947565,2687.255726600923
3910.2097,0.27705984900360026,1631.5214653419018
3911.1091,0.2817977680824019,1203.3423533692417
3912.011,0.2860882308306228,1372.3984796660643
3912.9111,0.28971793400560275,1767.0758838828629
3913.8113,0.2927316643964193,1132.2829473299166
3914.7136,0.29539551551866094,1607.7687393835604
3915.6143,0.2978978001644685,1576.9073443345078
3916.517,0.3001275905637866,1777.549529034878
3917.4182,0.3017046079506866,2041.9850630465126
3918.3215,0.3023647431587684,1487.7135406478615
3919.223,0.3022064865597726,1933.4813484615395
3920.1245,0.3016535650376244,2173.3470641520844
3921.0286,0.3011733886633854,1660.9228828417954
3921.9307,0.30105626479734976,1897.0639537634813
3922.835,0.30136151417091694,1108.9767378299562
3923.7373,0.30198129336510837,1288.9831429874653
3924.642,0.30268679483374844,1371.3452524614358
3925.5452,0.30312864365164616,1278.171208639096
3926.448,0.30293783940788793,1245.2680074441973
