wavl,flux,ivar
3566.9744,1.3354938376828132,236.95355505911394
3567.795,1.3302187409600577,217.84367393699708
3568.6177,1.3229778003341783,278.2729394950754
3569.4385,1.315196748455775,255.1307980626176
3570.2617,1.3077910063276506,247.6563931971797
3571.083,1.3013492164064648,227.32597603761948
3571.9065,1.2965166647443198,326.5466219132117
3572.7283,1.2946085175956759,254.86267450160457
3573.55,1.2974257324822696,256.1108885125851
3574.374,1.3063844580618469,270.8185847707165
3575.1963,1.320817075642336,234.35204577022978
3576.0208,1.3370816334685165,211.96611162969563
3576.8435,1.3493651927129828,295.3320155989008
3577.6682,1.3530877042384888,267.78534161593115
3578.4915,1.3475555463171318,286.9279115165208
3579.3145,1.3359292704251413,264.6674580914439
3580.14,1.3223333170058258,220.027536306407
3580.9636,1.3095048629779868,271.1950769997262
3581.7893,1.2982926722972794,255.1628603977133
3582.6133,1.2891131121169748,275.170167937309
3583.4395,1.2825066503361704,268.3968280419775
3584.264,1.2789362474451234,292.38241073646714
3585.0884,1.2781554677183555,228.73785400078452
3585.915,1.279507578655833,265.3888100372505
3586.74,1.2824828532185186,323.4341786232113
3587.5671,1.2868211611860685,389.1085228393135
3588.3923,1.2919151772397661,280.51097200081216
3589.22,1.2965486067239897,251.0406797314204
3590.0457,1.2993003690037324,190.06180643450898
3590.8716,1.2995950798543103,351.9462551840023
3591.6995,1.2980545337096074,288.35086954515083
3592.526,1.295909122103686,254.87894365837613
3593.3542,1.293966271187153,279.53192233672826
3594.181,1.2922658653646049,248.86655185731888
3595.0098,1.2904765064003183,292.9516864104257
3595.8367,1.288394864224274,361.1970071265972
3596.6638,1.2858837650390431,218.98817843510636
3597.4934,1.282750748256552,249.84981323422232
3598.3208,1.2790876312762613,297.643257267249
3599.1506,1.275658475444973,270.4575564475429
3599.9788,1.273803221005392,590.899399773646
3600.8088,1.2745155572524487,259.2424059778617
3601.6372,1.2777171057758936,263.09830354279745
3602.4678,1.2822962106346558,314.6833007922675
3603.2964,1.2866426759800917,257.7861026817919
3604.1252,1.2892912624191546,269.70578927412004
3604.9565,1.2892546132122398,212.70933880704965
3605.786,1.2863654427742834,225.62350170401015
3606.6172,1.2813891176076369,258.9566166973672
3607.447,1.2757217410825028,256.5757653210679
3608.2788,1.2706408548741446,265.0567587525628
3609.109,1.2668787542069495,301.10567782155397
3609.9392,1.2645183712785668,272.30011176172894
3610.7717,1.2632922772709052,299.72614772117316
3611.6023,1.262776777036874,255.87243317475046
3612.435,1.26249403563768,347.96933536499193
3613.266,1.2621052142503537,246.21761189612678
3614.0994,1.2615565776054987,252.29384297585693
3614.9307,1.2610038480727734,288.78989888417425
3615.7625,1.2605383647161152,268.09453073766554
3616.5962,1.2600715258893844,242.14954699144874
3617.4282,1.2595067028785523,278.98701522593655
3618.2625,1.2589969439726987,340.7950821059231
3619.0947,1.259069767126532,311.35670321608865
3619.9292,1.260480820347861,307.9722405014259
3620.762,1.2637356415541467,394.6864763950858
3621.595,1.268423294585889,279.4132366932848
3622.4302,1.272888376351278,343.0195775880917
3623.2634,1.2748516464119957,286.2248539483793
3624.0989,1.2729364483527557,237.35230924571007
3624.9326,1.2677600294031557,264.055049022775
3625.7686,1.2616456847182567,290.8923563018511
3626.6028,1.2571514948867422,399.195322904586
3627.437,1.2553288655063954,344.0984854283433
3628.2734,1.2553397511090516,407.66328966357247
3629.1082,1.2555705281678706,366.74036548642334
3629.945,1.2553091032642534,220.76326409509784
3630.78,1.2553700072517822,234.0049707064653
3631.6174,1.2571301240872115,345.12066356802
3632.453,1.2610711677078856,309.8191898652693
3633.2883,1.266287077796131,287.20035749558184
3634.1262,1.2710710764317021,230.02740833446256
3634.9622,1.2737269502398885,258.47234644130583
3635.8005,1.273211888488369,351.05893575734007
3636.637,1.2693947099879082,322.4827852192639
3637.4756,1.2631994667279167,272.91045024000886
3638.3123,1.2565808487589705,254.98328889253688
3639.1492,1.2519532919019773,285.33053272549705
3639.9885,1.2513633957303294,304.2449717919615
3640.826,1.255384002585937,304.25186664970715
3641.6653,1.262549594834619,344.0940976503408
3642.5032,1.2699998255477793,241.11992157726405
3643.343,1.2753248805757933,324.6275905405967
3644.1812,1.2779400939240497,265.9363825911332
3645.0195,1.2791194078371964,267.52522287532685
3645.86,1.2805503004565713,326.90329880397087
3646.699,1.282918334391095,301.74917862127995
3647.5398,1.285596756870162,257.8949439023854
3648.379,1.287364446670914,302.92006049844014
3649.2202,1.2874825113135195,241.3250956998162
3650.0596,1.2861858480723385,255.30263981253066
3650.8994,1.2843550967385,393.98141075738187
3651.7412,1.2826204586199028,267.21529661914565
3652.5813,1.2806970024110191,263.42346315772056
3653.4236,1.277557766970892,279.04956754576483
3654.2642,1.2724591312479487,273.45206910779706
3655.1067,1.2657786563910187,338.0755281924723
3655.9475,1.2591422880389864,253.99688686122616
3656.7886,1.2544623946887647,412.6775343040024
3657.6318,1.2528373119316965,326.6907919839019
3658.4734,1.2538827772244527,287.9537633602031
3659.317,1.256033778833361,168.95477844720074
3660.1587,1.257568346978446,294.37816810679556
3661.003,1.2575211967552056,307.3217654450533
3661.845,1.255880369913842,345.80810509994916
3662.6875,1.2533640163625606,218.87694184331286
3663.532,1.2512109127568154,274.1438639740229
3664.3748,1.2509304999352309,221.94783137537982
3665.2197,1.2536080172966697,315.3970629396731
3666.063,1.2590401769917943,350.2371642266433
3666.9084,1.2655299597812637,208.9010303673558
3667.752,1.2705604466435656,282.6353813814409
3668.5977,1.2721385322377496,260.2920215614412
3669.4417,1.2695347060471853,312.7488349187069
3670.286,1.2633179156835699,235.59160843932955
3671.132,1.2548153468361536,209.18092525355652
3671.9768,1.245756446129026,278.5194770849411
3672.8235,1.2379674434840204,271.871219315178
3673.6685,1.233325719271004,418.03449527890035
3674.5156,1.2331904231031723,326.4690929948222
3675.3608,1.2378186029538447,415.771332713684
3676.2063,1.245970650210526,297.0880827323966
3677.0542,1.2552935664717275,246.6273800680761
3677.9,1.2631984962740463,306.2751554684647
3678.748,1.268011980667876,241.81435075798777
3679.5945,1.2691580143764736,346.20089733061076
3680.4429,1.2669286372252695,258.69161830353346
3681.2896,1.2620158645998247,242.99449704882687
3682.1365,1.2553659573764069,338.0394036216942
3682.9856,1.2482733448431922,287.80316624713635
3683.8328,1.2424353940110375,237.33237943287222
3684.6824,1.2395399055949061,323.96518524095154
3685.53,1.2407706425537968,269.15611456210854
3686.38,1.246026187359879,338.71584520254544
3687.2278,1.2535276670312376,341.1538474373083
3688.0762,1.2604798283281644,328.38068771045477
3688.9265,1.264510023598253,233.75548713414886
3689.7751,1.265043379535901,324.84191805444414
3690.626,1.2634611161069431,266.89255393212795
3691.475,1.261809893092179,319.3785678027857
3692.3264,1.2612418757304982,248.35637506854042
3693.1758,1.2614758515517204,295.1669386523671
3694.0254,1.2614864622133093,311.7195948227074
3694.8772,1.2606240307916154,303.99600012179735
3695.7273,1.2591099038289244,253.80695295415273
3696.5793,1.2575453569493995,342.7519114291704
3697.43,1.256055680255493,322.2686949079498
3698.2825,1.253887135699203,204.88609571312404
3699.1333,1.2499709629709397,397.0918519083597
3699.9841,1.2439364169235112,313.0833165057394
3700.8374,1.23681062083454,329.24366296039784
3701.6887,1.2308257515323617,389.8170924141077
3702.5425,1.2280442613408642,249.89393340970193
3703.3943,1.2290465013749279,276.46440425918667
3704.2483,1.2324618001566467,263.12856497492663
3705.1003,1.23594133960545,338.8374607240154
3705.9526,1.2376926459799475,290.0074971159741
3706.8074,1.2372067901490884,278.18707492826644
3707.66,1.2349712256773786,258.21050057011126
3708.515,1.2317288166332303,335.38502112813876
3709.3682,1.228168499842268,290.8137236317324
3710.2234,1.2250330693923317,320.1155411385685
3711.0771,1.223345679019848,361.62629485166576
3711.9307,1.2240494299413314,321.28107722051664
3712.7866,1.2273509990880882,275.8560065068386
3713.6409,1.2322627560910464,374.76374017591945
3714.4973,1.2370774175428982,313.7896880427486
3715.3518,1.2403365923618284,314.6855459860652
3716.2085,1.2417173071179661,372.4740571262441
3717.0635,1.241889398566508,255.6226466515551
3717.9185,1.2417492738777567,278.65056251287535
3718.776,1.2416457557328104,298.96514067686155
3719.6313,1.2411903293487054,340.8535702382358
3720.489,1.2395475074121136,297.50541044625857
3721.345,1.2359329299770079,330.97872148258034
3722.2031,1.2300664162350643,332.32413966884565
3723.0593,1.222580445351806,315.36736565722805
3723.9158,1.2148515536413773,281.5717138177917
3724.7747,1.2084820273310053,251.74983362731246
3725.6316,1.204637143476624,272.19615512753836
3726.4905,1.2035008792461306,336.7032632234994
3727.348,1.2043304902486176,303.7848609307242
3728.2073,1.2058201658714722,320.351683484051
3729.065,1.2068771717656397,308.3464046712759
3729.9229,1.2074717686189256,299.4999181129952
3730.783,1.2087735996042384,342.5847182585556
3731.6414,1.21218922802898,325.2341772213469
3732.5017,1.2180236018110775,308.0160636547785
3733.3604,1.2249435887111129,299.5003381608887
3734.2214,1.2309945585204907,222.8879234931931
3735.0803,1.2349398658502966,248.7745688003946
3735.9417,1.2370283729406697,317.3364862125646
3736.8013,1.2382940527487964,329.4424525337581
3737.661,1.2394509939146554,274.49712975048374
3738.5227,1.2402666189476583,284.34450995633443
3739.3828,1.2399511551767852,329.1757298558411
3740.245,1.2380764418631123,325.49423673538877
3741.1055,1.2351218492036828,284.0470401004481
3741.9683,1.2321165179734863,222.22283927169462
3742.829,1.2298837295403333,299.4888883057926
3743.69,1.2285295480421068,367.2775661192978
3744.5532,1.227739262800362,280.1431194227915
3745.4148,1.2273227564619735,242.29948202654498
3746.2786,1.2273179224413384,281.2436314874386
3747.1404,1.2275268580821481,361.3529896827886
3748.0044,1.2270372660739446,235.76063230318408
3748.8667,1.2244490741738017,274.81686503434383
3749.729,1.218858694784307,291.6517079503586
3750.5938,1.210871532781332,312.83459248864204
3751.4565,1.2028694270962366,374.95109753224693
3752.3215,1.197841089221866,306.9733441357111
3753.1848,1.197856131377397,633.9129621506265
3754.0503,1.2028542085724792,371.4803089712822
3754.9138,1.2107904307093977,238.59833980124162
3755.7776,1.2189245469330001,326.87231043533484
3756.6438,1.225171299861652,271.9064166006219
3757.508,1.2287605372627128,284.49255525823673
3758.3745,1.230187732936187,314.74324819302655
3759.239,1.2304793390056508,267.36727089203464
3760.106,1.2305309320269455,307.1435675207356
3760.971,1.230654198444717,318.5324259072
3761.8362,1.230544380436058,279.5083104059402
3762.7036,1.2296541152235159,283.0815264417844
3763.5693,1.2277657529498616,264.31951879490606
3764.437,1.2252676523809816,387.23474592230673
3765.3032,1.2229432768942239,264.9294710510909
3766.1714,1.2214416321913644,267.3463564848541
3767.0378,1.2210093853364261,323.486211793895
3767.9043,1.2214613185868808,337.3062822981788
3768.7732,1.2222961318854006,287.63904962306896
3769.6401,1.222839684544625,255.94117020534952
3770.5095,1.2225444378066241,257.221479254013
3771.377,1.221256871089789,250.3874403479127
3772.2466,1.2192058820248481,271.84049638535413
3773.1145,1.216789950188832,276.22482883641743
3773.9824,1.2144343131329098,212.27202448807748
3774.8528,1.2127244229264107,304.60018514232223
3775.721,1.2124553130647209,232.20178181777322
3776.5918,1.2142833962564128,267.14520991784656
3777.4604,1.2182612512714959,314.5380527215267
3778.3315,1.223733239868389,302.0349929478764
3779.201,1.2295611378749283,275.8720076405389
3780.0703,1.234710007824149,317.5612748810646
3780.942,1.2386440152110243,302.60730507777544
3781.8118,1.2414351012426472,261.06281013957783
3782.6838,1.2434631765449637,292.5179345632301
3783.554,1.2446709547144261,490.1282175030922
3784.4265,1.2442972481900259,241.30913069690376
3785.297,1.2415180992137416,207.00363240387657
3786.168,1.2365076646814976,439.19055177286134
3787.041,1.230602768429083,358.22398874448174
3787.912,1.2252765113342519,263.90127968895695
3788.7856,1.2207951410584634,270.45290689427185
3789.6572,1.2161867431441027,315.3883128580846
3790.531,1.2101804516468424,282.77763351415285
3791.403,1.2025611630458428,308.0236792409467
3792.2754,1.1945749309790883,349.6313416748754
3793.15,1.188279223605866,477.98237783572483
3794.0225,1.1850765905432141,331.38361549398803
3794.8972,1.1844428827009805,332.28448369945716
3795.7703,1.1842740627836743,257.377712375042
3796.6455,1.1825284104818437,267.85382655949945
3797.519,1.1789369343641727,314.7693647324584
3798.3926,1.1752727002908854,330.9371422001576
3799.2686,1.1740999914316739,353.56018812134766
3800.1426,1.1770425085329628,238.19228704911686
3801.0188,1.1838051044525986,301.786747478833
3801.8933,1.192439252931516,312.9552089493746
3802.77,1.2006678650374552,301.8372151046356
3803.6448,1.2070338730833412,232.79800377726087
3804.522,1.211552880475483,370.8937048588999
3805.3972,1.2150891980196323,300.65490567759576
3806.2727,1.2185052937096932,301.93997626179197
3807.1504,1.2220420299870383,317.33085015919073
3808.0261,1.2252826869741904,293.6705546431115
3808.9043,1.2274656011524239,282.5923914371129
3809.7805,1.2278401811068584,304.9216524549005
3810.659,1.226306349192907,290.04468415363243
3811.5356,1.2238459145997156,300.1130527691677
3812.4126,1.2221940597981533,284.4264527172958
3813.2917,1.2227837710057174,333.0988797587627
3814.169,1.22568957630501,350.6315671148041
3815.0483,1.229494820262392,269.0683784243293
3815.926,1.2321479210390993,345.52033606300614
3816.806,1.232304694023645,289.50600053513585
3817.684,1.2300170674874777,239.73114338785587
3818.5623,1.226363678118539,238.9489701926603
3819.4429,1.2223472823878014,330.14998456917994
3820.3215,1.218179438146739,286.3156335768754
3821.2024,1.213410673831296,323.66271309938986
3822.0815,1.20782566201896,323.87188981653907
3822.963,1.2018625641055467,296.9477295552761
3823.8423,1.1964020858468765,328.9795350135075
3824.722,1.1918934900891602,323.8261496041607
3825.604,1.1879411078320707,327.88882723784536
3826.4841,1.1836430819155335,379.92187188580715
3827.3665,1.1783374164932803,361.23968162595725
3828.2468,1.1722196426697302,297.955593107757
3829.1296,1.1659835093239737,381.454493459186
3830.0105,1.1602132541900632,408.18747822630297
3830.8916,1.1548792192926935,352.9225290596378
3831.7751,1.1496502624563338,309.6301401850046
3832.6565,1.144405299366423,347.4724275268247
3833.5403,1.1392643294572997,376.2159564317162
3834.4224,1.1345251935091227,385.777424043917
3835.3064,1.1305269427511522,392.53021735671683
3836.1887,1.1278638105550574,444.76102203521884
3837.0713,1.1273049768692252,378.22523314263185
3837.956,1.1295457551539194,256.0104666524336
3838.839,1.1348116439998794,240.7072113230766
3839.7244,1.1426534332044298,296.9965600171257
3840.6077,1.1518053847787322,329.6444440174564
3841.4932,1.1606758876906982,308.71124072335056
3842.377,1.168020867833078,288.89076487735315
3843.261,1.1739012447019195,364.7811133637201
3844.1472,1.1796578526610153,329.3622890421548
3845.0315,1.1869104799347898,287.6476484125726
3845.9182,1.1963481569323875,517.569803749161
3846.803,1.20700368557157,285.6489607815468
3847.69,1.217112162229609,264.53468448967146
3848.5752,1.2253206292622276,252.29543807294996
3849.4604,1.231751497852782,396.09249045379374
3850.3481,1.2376301390621205,303.12981618000134
3851.234,1.2441386053723233,321.3266041887779
3852.122,1.2516180069301859,289.68318465217965
3853.0083,1.2593537010345646,301.3102259180376
3853.8967,1.2662664729908475,293.49651100487097
3854.7832,1.2714064757755823,318.6161466559084
3855.6702,1.2744232487524263,260.6681149213017
3856.559,1.2755584325143432,223.1477520197054
3857.4463,1.275542995105423,234.5353878324857
3858.336,1.275340890244644,292.4337084126758
3859.2234,1.2757545850001337,266.9895310364256
3860.1135,1.2770440722889487,292.55199032724704
3861.0015,1.2787322334358466,252.8733429310293
3861.8896,1.279805454835261,261.9339322027238
3862.7803,1.27921891155608,263.58339634033035
3863.6687,1.2765162746220244,291.71771780706143
3864.5598,1.2721064612445587,277.2399822582517
3865.4487,1.2670821113945896,266.5139915598381
3866.34,1.2625234092522095,297.80296424172326
3867.2297,1.2589971321047675,227.01403309718765
3868.1213,1.2562118300729037,228.2730246559853
3869.0112,1.2532251294962171,283.66517360188544
3869.9014,1.2488865840319363,276.9859510934747
3870.7937,1.2424736084090116,275.4665669182796
3871.684,1.2341497036574556,311.61802300886484
3872.577,1.224683183297419,296.5077561543022
3873.4678,1.214971784284201,328.3149031639732
3874.361,1.2053219427033648,279.65429313728754
3875.2524,1.1955835379596091,313.98687924983733
3876.1438,1.1852719356737407,310.94921049837495
3877.0376,1.1738797080450516,322.1651397577495
3877.9297,1.1611492487545525,383.7577570210189
3878.8237,1.1471459838709117,368.60334906158886
3879.716,1.1327205410272485,355.54621379578407
3880.6108,1.1191543535709412,512.6509353342989
3881.5037,1.107761382373976,301.07765681214744
3882.3965,1.0988508800057413,421.3679873180711
3883.2917,1.0914960108049676,307.1812535337256
3884.185,1.0840203868438982,387.81229952126245
3885.0808,1.0748319146735255,398.7411929979719
3885.9746,1.0634204258706104,554.3580385532917
3886.8706,1.0503960609591951,363.55725742574737
3887.765,1.0373584764697303,355.41558619515115
3888.6592,1.0261757877575874,417.36546151490074
3889.556,1.0185786773133712,429.52617998762577
3890.4507,1.0157834484064017,496.3852846948728
3891.348,1.0181067760779505,482.5588649050959
3892.243,1.0250569640696385,420.8288302212965
3893.1406,1.0357265537115774,412.6574089613724
3894.0361,1.0490090313231555,356.6819959869746
3894.932,1.06388440875983,341.9820892253748
3895.83,1.0792551510600799,374.0066312029537
3896.7263,1.0938224695928729,379.87318053546
3897.625,1.1066382474898784,471.88433195407674
3898.5215,1.1172981793980326,381.7099399269625
3899.4207,1.1264881983499637,349.9537863839208
3900.3176,1.1355036434481118,306.3734211676231
3901.2148,1.1456809263425565,309.0050238433039
3902.1145,1.1575773522113941,395.71718828312834
3903.0122,1.1706881280645547,362.1235008527338
3903.912,1.1840772274639113,336.9031076400886
3904.8103,1.196779780691957,326.4893094783434
3905.7107,1.2084978162044262,302.2469243716658
3906.6094,1.2195400900170237,288.36917737367946
3907.508,1.230796682474172,276.46546811567845
3908.409,1.2432019065079618,318.49082782652494
3909.308,1.257192740684853,252.05332050116962
3910.2097,1.2726802036942053,286.2163017470905
3911.1091,1.2886925407715328,260.38682565223826
3912.011,1.3036664418501636,306.88803016885566
3912.9111,1.315493413111514,228.7603196651784
3913.8113,1.3227031340021016,242.64566800296203
3914.7136,1.3253829507353032,245.6669959785745
3915.6143,1.3254240801271362,251.51696547878663
3916.517,1.3255289449067953,339.4037293416292
3917.4182,1.3276360308549249,219.86924142688815
3918.3215,1.332138522086658,221.9232686438375
3919.223,1.3382924216850667,254.81821824162498
3920.1245,1.3452855596805873,239.67123089112349
3921.0286,1.3527913760539019,277.56483560536924
3921.9307,1.3607330336865222,229.30442535092538
3922.835,1.3688621572005784,261.0265363979938
3923.7373,1.3762591853920605,210.9869712174041
3924.642,1.3817294637169193,253.65691063796643
3925.5452,1.3844705270996767,238.95035716262592
3926.448,1.3848221899152127,251.86840904833548
3927.3535,1.3839954092843265,258.7261896170464
3928.257,1.3831647027092528,217.0158690255176
3929.1628,1.382685098244766,217.28593076096425
3930.0667,1.3820972928590547,248.71892845153715
3930.9731,1.3806347374763523,251.146605818907
3931.8774,1.3777616637693313,248.9656484221339
3932.782,1.3734192095001072,243.9951240803951
3933.6887,1.3680108971481595,246.39158849259206
