wavl,flux,ivar
3566.9744,0.4296835091720388,1162.1948061940825
3567.795,0.42807814121769905,703.5324833814668
3568.6177,0.42701081791583995,757.0816466800534
3569.4385,0.4265963209261374,1373.4269613658985
3570.2617,0.42656694303041587,485.68996671508023
3571.083,0.426361725776617,655.7233676765658
3571.9065,0.42549054274617165,491.8463358004943
3572.7283,0.42385686680785867,792.4484315286588
3573.55,0.421674431248032,951.0643462910883
3574.374,0.41913435861690407,1644.9390338738528
3575.1963,0.41628135323851845,965.7553488459167
3576.0208,0.41322465315764967,2323.3496468615085
3576.8435,0.4105641316990518,1212.61308406547
3577.6682,0.4093212976837479,1322.3618250380543
3578.4915,0.41040691181297745,1006.3343658286365
3579.3145,0.4138692782950383,682.7802948138299
3580.14,0.41863725946586955,1017.9772592700712
3580.9636,0.4228786157758022,709.4923040303581
3581.7893,0.42500864432114527,489.1618427826046
3582.6133,0.42448962938023094,780.7393040348387
3583.4395,0.4220364138814482,886.7238243161308
3584.264,0.41894411038440393,680.2506503683377
3585.0884,0.4160862597668898,1301.1434167566395
3585.915,0.4134878417157085,600.6312976193767
3586.74,0.4107419516778414,1132.8304545746678
3587.5671,0.4076999504497142,1020.2954718656651
3588.3923,0.4048871939783414,1082.8441188889833
3589.22,0.403200958299634,1274.0147822893466
3590.0457,0.4033975768022094,828.8902268240869
3590.8716,0.4055668525239953,601.2184885214581
3591.6995,0.40898399230936705,811.6323650335737
3592.526,0.4123057082757489,789.2032666843601
3593.3542,0.4142298250099044,1026.8916377985724
3594.181,0.41413801363474273,760.5355098458023
3595.0098,0.41242549390023,607.4408594768815
3595.8367,0.41018842522977333,785.183711624036
3596.6638,0.40849900441566334,1447.229960212018
3597.4934,0.40785992781761055,1664.4354799749583
3598.3208,0.40815404534212774,1138.0817106829852
3599.1506,0.40899504612816695,703.4861472440211
3599.9788,0.410035144651831,883.9325189028111
3600.8088,0.41095790645610886,859.3929874191138
3601.6372,0.4113328467973394,980.7268652044376
3602.4678,0.4107602336403786,1497.2879901608926
3603.2964,0.40923796799541595,1149.6205443172908
3604.1252,0.4073201715446927,968.1218427769863
3604.9565,0.4058141921332994,698.6846126563582
3605.786,0.40528589849562474,1015.1354976527816
3606.6172,0.4057868566540879,894.3403795672159
3607.447,0.4069840528264112,936.7372613528414
3608.2788,0.4083440821312673,1121.290254602489
3609.109,0.40916130356122277,737.7691328805961
3609.9392,0.4087003915098802,821.1720958515564
3610.7717,0.40661462681496147,653.8856167824039
3611.6023,0.4034361470543845,739.6184305863691
3612.435,0.40043696024444275,1541.0383989633683
3613.266,0.3989380441033466,743.3015568939609
3614.0994,0.39950489779888837,1040.6335462234738
3614.9307,0.4017794138708539,813.6238643493665
3615.7625,0.40484085094033956,1116.2759259588775
3616.5962,0.4077112954927804,836.5230740192469
3617.4282,0.4096893312437653,717.7078323726587
3618.2625,0.41049980649466944,830.7948514472653
3619.0947,0.41015927651516815,1178.557210330085
3619.9292,0.40885939665854076,864.627466672599
3620.762,0.4069749277274827,853.4806619292217
3621.595,0.40506511518289884,1053.5981219134062
3622.4302,0.40365123330865404,1445.8598208931344
3623.2634,0.40282591311364213,1111.8177779158123
3624.0989,0.4021261642293036,1126.2150663276716
3624.9326,0.4010086070780932,970.0459671876378
3625.7686,0.39948112858696455,2592.0622090550637
3626.6028,0.3983142166440648,1056.535613334081
3627.437,0.3985005223551157,973.8361140490254
3628.2734,0.40048322162817374,1702.371654001321
3629.1082,0.4037428810983504,628.7290489319338
3629.945,0.4071413527149497,1112.0965754080803
3630.78,0.40958365383340506,739.7917158736416
3631.6174,0.41065510706457814,591.8982724634374
3632.453,0.4106785344841149,761.6821928064231
3633.2883,0.410372967741747,1012.7210635171506
3634.1262,0.41031945590954155,816.3245145181552
3634.9622,0.41067998371674613,539.3545736482226
3635.8005,0.4112745134166931,819.1738481925775
3636.637,0.4118105610559814,1036.4392886843825
3637.4756,0.4120182332535533,697.9771685904484
3638.3123,0.41162246953506093,723.508041979232
3639.1492,0.41034610377579933,970.84835153812
3639.9885,0.40802323013514274,784.1752021533731
3640.826,0.40479938645368735,772.8402875560984
3641.6653,0.4011653385234568,1800.422857645915
3642.5032,0.39794286830885295,1028.9031517952808
3643.343,0.3960206279147425,979.9350455886603
3644.1812,0.3960718906745853,1253.0122933439684
3645.0195,0.3982089297725372,992.2481383046328
3645.86,0.40189477968815956,907.2700979918492
3646.699,0.4060382826090289,761.126930517284
3647.5398,0.4093837943663838,1564.8596939345662
3648.379,0.4108927256715085,596.6856252497357
3649.2202,0.41022180389683116,590.0502694425927
3650.0596,0.40787491445595947,945.0463538769798
3650.8994,0.40494063857387175,637.7702545746429
3651.7412,0.4025809142029136,1401.744868624976
3652.5813,0.4016591218650023,1051.2409729373396
3653.4236,0.4025791457476294,1490.4310657583385
3654.2642,0.40523483821945255,1028.0864724681167
3655.1067,0.408946626045461,1489.3730658624577
3655.9475,0.41254537240441563,719.6831092290679
3656.7886,0.4148958720315074,595.4007039066357
3657.6318,0.41542601264310164,817.8625389157473
3658.4734,0.4143770890776361,1578.4806081322145
3659.317,0.4125676669755048,718.2531971707122
3660.1587,0.4108593265033999,1781.4978910131597
3661.003,0.40959297272586165,1025.1338378089413
3661.845,0.4084169332116547,854.70644981647
3662.6875,0.406613535943924,634.1566297113607
3663.532,0.4037956940785246,715.2072560731998
3664.3748,0.40032823797684625,2983.512549501983
3665.2197,0.3970058544630889,869.5893388588784
3666.063,0.394498410901924,748.4826544559262
3666.9084,0.3929795527900633,832.1277627672662
3667.752,0.39229218257356735,1709.7316953570075
3668.5977,0.39214126525533605,1132.9630356869854
3669.4417,0.39219565147651125,1114.6244397913968
3670.286,0.392107754045369,1075.376059041598
3671.132,0.39163169548183846,767.5232666157528
3671.9768,0.39082431116428523,1077.1502332373138
3672.8235,0.3901359654939667,719.7373731464545
3673.6685,0.39024620721130965,1318.558253158029
3674.5156,0.39166886632708725,1170.4784280731042
3675.3608,0.39442847822313626,955.4747335088341
3676.2063,0.3980746545451539,1056.3454060555184
3677.0542,0.4019135495078343,1081.940907916895
3677.9,0.4051867188000876,588.1896628617235
3678.748,0.40723634423125116,812.0484960656302
3679.5945,0.4075313862445748,939.1460133637463
3680.4429,0.405905900028877,675.068972567922
3681.2896,0.4027713035168614,640.70234133086
3682.1365,0.39909172304985263,1067.0303895772497
3682.9856,0.39601718865102964,719.9887549739291
3683.8328,0.39432443164958986,666.2436440103965
3684.6824,0.3939681626570784,962.2304347252951
3685.53,0.39421499466500504,987.5067676970527
3686.38,0.39417520365446396,1526.105273214195
3687.2278,0.39340736751397665,628.7236435013865
3688.0762,0.39217121193822363,1555.4250410961092
3688.9265,0.391219376487063,926.349985972181
3689.7751,0.39128807991526043,843.9262229918176
3690.626,0.3925626013160395,1118.4471569326793
3691.475,0.3944678054691839,1309.0882412705903
3692.3264,0.39597957059189404,1075.3320374568384
3693.1758,0.3962355935470846,1006.5791760805283
3694.0254,0.3951203572228756,1053.680710968488
3694.8772,0.3933731769428983,837.5178749535688
3695.7273,0.39224611484784144,1163.8814961612438
3696.5793,0.3927952009529557,2278.8205006754974
3697.43,0.3952297826213673,977.6559813141143
3698.2825,0.39868314863110327,817.5363577042103
3699.1333,0.40157613172683393,1167.5746928186472
3699.9841,0.4025026827017479,927.040526608681
3700.8374,0.40094992119359707,755.7399703537286
3701.6887,0.3975358949839825,957.5858588750741
3702.5425,0.39354366833087384,1018.7787505997919
3703.3943,0.39026867961526984,1087.128430606369
3704.2483,0.3884590731629982,1631.6021574633887
3705.1003,0.38827686816209595,1292.7950980185788
3705.9526,0.3893578722200765,942.7826851354412
3706.8074,0.3909288926120569,932.5221494172605
3707.66,0.39198894926638245,889.7222171351641
3708.515,0.3918370590535402,870.561214327181
3709.3682,0.39063037985197036,1043.8326419550544
3710.2234,0.38944537109803995,1420.0980311895826
3711.0771,0.38954516148365553,970.2151212621092
3711.9307,0.3913306094498631,750.3911507769983
3712.7866,0.3939512788060983,1253.1811037806604
3713.6409,0.395865779117447,1146.1234166482145
3714.4973,0.39597913084436054,902.1080601320543
3715.3518,0.39434410743400267,842.8927094291626
3716.2085,0.39201864361828087,779.325324014826
3717.0635,0.3902807359709193,1611.222577911009
3717.9185,0.3897708553018085,744.8113627405926
3718.776,0.3902239711594861,835.885295426807
3719.6313,0.3907862839877748,646.6100517744085
3720.489,0.39064715254487853,1323.9876025746005
3721.345,0.38952871625429847,1092.5927610999981
3722.2031,0.3877860785686152,821.3716487634974
3723.0593,0.3861326466704187,1218.0145449044287
3723.9158,0.3851245935112356,1212.1883608122598
3724.7747,0.3848083504874954,1215.348906878623
3725.6316,0.38470642064388166,740.8080238993039
3726.4905,0.38415513794718587,1701.2279683603606
3727.348,0.3827750298275256,1239.0998837687462
3728.2073,0.3807490257102178,1463.989093658618
3729.065,0.3787764929774069,1467.0820251323016
3729.9229,0.3776536018070154,968.5684495360787
3730.783,0.37784545261254693,1529.2404100221725
3731.6414,0.37928510437248314,921.3444242514979
3732.5017,0.3815182767569108,1039.079484976186
3733.3604,0.38393171608627397,981.5987079236568
3734.2214,0.38590975915474557,775.161897964868
3735.0803,0.38681726953899864,682.3083129506887
3735.9417,0.3861549879263808,920.4149304676631
3736.8013,0.3838241777579606,827.3404657072408
3737.661,0.3803498214518376,1233.119682567299
3738.5227,0.3767515321076633,1153.2571594332396
3739.3828,0.3740819629267665,853.6653398247546
3740.245,0.37281036056675637,1442.012303336323
3741.1055,0.3726682487414273,1311.5680516133702
3741.9683,0.3729425124623965,1439.7060360326748
3742.829,0.3730265513913326,1485.6042599609568
3743.69,0.37275723264998617,793.651661435158
3744.5532,0.3723929222016443,1165.1908522379874
3745.4148,0.3724061263489943,960.3986702677589
3746.2786,0.37322396341673836,1256.183172778173
3747.1404,0.37496166192441927,717.3118887239478
3748.0044,0.3772680590797759,1411.5965876350956
3748.8667,0.3793927262416947,744.675724605965
3749.729,0.38059135545941913,1350.2780259777448
3750.5938,0.38049203549919636,1339.3818280137666
3751.4565,0.3792357291259769,625.0275698389947
3752.3215,0.37731100559573966,1524.6798467331025
3753.1848,0.3752935236272482,883.6814182072517
3754.0503,0.3736123862443779,815.2989931976241
3754.9138,0.37252663206852965,1020.0146655088855
3755.7776,0.3721365597013158,1216.6427827557677
3756.6438,0.3724464309551811,1221.5865180867609
3757.508,0.3733622001552096,1002.0638503764153
3758.3745,0.37470226982910065,1332.6880634353968
3759.239,0.37622442059249206,884.4367010969224
3760.106,0.3777303246853966,885.6907536399382
3760.971,0.3791060333640259,1360.5265750365472
3761.8362,0.3803534667560301,913.14519175842
3762.7036,0.3815058447539913,880.7789860544833
3763.5693,0.3825144445910306,1309.5586567737494
3764.437,0.383212356704219,1067.6276136146766
3765.3032,0.383374849504774,1057.3524749038495
3766.1714,0.38289550948866086,1056.3372244553136
3767.0378,0.38189440972212857,1116.5530444626525
3767.9043,0.38064446903594085,1192.0028350255982
3768.7732,0.37934890739304755,1100.7526549692427
3769.6401,0.3779512280542035,888.0027992567565
3770.5095,0.3761256329371842,1027.9490959447437
3771.377,0.3735956034031412,1241.7823221309936
3772.2466,0.37046000269491947,930.5375796924601
3773.1145,0.3673797169166023,1503.3447091330027
3773.9824,0.36529651764800797,1100.92073988609
3774.8528,0.36496416836056483,1350.4365506851116
3775.721,0.3664750751933317,2643.3651706498117
3776.5918,0.36913065108742704,2117.6040324991654
3777.4604,0.3717552177447221,1108.4756217736174
3778.3315,0.37337835345054116,1043.7517313830347
3779.201,0.37370162157251313,1315.402137253504
3780.0703,0.3731560371396743,1058.6103878068943
3780.942,0.37241417924651854,1641.6823666046062
3781.8118,0.37184121877282106,1496.0168799441262
3782.6838,0.37130719648691235,990.4590425657168
3783.554,0.37051241347584096,1240.7733330196595
3784.4265,0.36937262155545436,1132.7921077040342
3785.297,0.3680750268874941,813.8904913889646
3786.168,0.36678483596069156,1121.7335827308686
3787.041,0.3654856212804791,1272.6194893369989
3787.912,0.3641494778516524,897.2904009957439
3788.7856,0.3629696539938085,1297.6886635798794
3789.6572,0.36236670517653974,1211.8126917629418
3790.531,0.3626372856074294,1422.2053562471463
3791.403,0.36365115562683653,1267.635121091895
3792.2754,0.3648742031613164,1094.3500103705064
3793.15,0.3656801970761256,911.8587716861821
3794.0225,0.3656329697862375,1102.3056843133927
3794.8972,0.36456657418972704,1247.0167293393117
3795.7703,0.3625285426346251,1137.457411763665
3796.6455,0.35973382754831035,1073.8445589291482
3797.519,0.3566122161600123,1520.264133275327
3798.3926,0.35373288626219457,910.3757207469737
3799.2686,0.35171175525667875,1198.2321003146878
3800.1426,0.35107662493310937,1483.4607713537937
3801.0188,0.3520507895606861,1218.1020868148657
3801.8933,0.35437038349000605,897.4761056013033
3802.77,0.35724857388327086,1166.1017052703344
3803.6448,0.3596188391091208,1330.401794280179
3804.522,0.3607407931225694,1729.9666156614799
3805.3972,0.36065462344725174,1464.0401708311852
3806.2727,0.36022205106040023,987.7435086549456
3807.1504,0.36057696350168067,1097.7465321445975
3808.0261,0.36241105349583486,1474.6133712720368
3808.9043,0.365616396748807,709.4838654719666
3809.7805,0.3694475946726536,835.5153064050212
3810.659,0.3731039644881782,1840.9080399834938
3811.5356,0.37607888987605714,1135.6006433564717
3812.4126,0.37826385222908115,1111.3018217573444
3813.2917,0.3796922817276618,1142.3685802292857
3814.169,0.38031679881837377,947.2087094119555
3815.0483,0.38000846953237577,940.2842143319049
3815.926,0.37871762683475935,940.336482743619
3816.806,0.37665321069266555,910.6197774299119
3817.684,0.3743169327633734,1128.8166398305618
3818.5623,0.3722849009638712,1062.381925522842
3819.4429,0.37096026397583615,1525.438378629654
3820.3215,0.3704275088694503,1191.6749886767068
3821.2024,0.37044302115281763,1097.57447588666
3822.0815,0.3705615023399728,1304.3727728047136
3822.963,0.3702868015067373,1105.7449410951294
3823.8423,0.36925413695914655,373.18045011622047
3824.722,0.3673421647004242,1203.748312794464
3825.604,0.3645968498777449,936.6548906312023
3826.4841,0.36108819386769603,1758.9553222166378
3827.3665,0.3568401064365247,1348.9850933062708
3828.2468,0.35208162098474155,1356.083529081685
3829.1296,0.3472594606188793,1559.3523225281049
3830.0105,0.3429051036496687,1484.9777353160716
3830.8916,0.3392407641698521,1177.0840042646273
3831.7751,0.336198111761726,1548.5495454098766
3832.6565,0.3337197880118189,1097.1009277562157
3833.5403,0.33197731527655255,1313.8327045923622
3834.4224,0.33141198941693384,3177.834488468834
3835.3064,0.332434582879809,1722.8311003755139
3836.1887,0.33509078807950504,1707.8915436383925
3837.0713,0.33888020544969694,1927.8485942639827
3837.956,0.3429078963871472,1999.8321160737132
3838.839,0.34631271066574726,922.0627439109506
3839.7244,0.3487659920107877,1333.9442407108352
3840.6077,0.35044871114786963,1173.98376914124
3841.4932,0.3517504165223761,1556.3067734842757
3842.377,0.3529209803777807,974.929587562132
3843.261,0.3540753564593459,786.6958465166718
3844.1472,0.3552756614705324,1142.2594542900438
3845.0315,0.3564759358692413,872.1389067052123
3845.9182,0.3574620669188427,1244.9116213022398
3846.803,0.3579688199525558,1138.1148737886504
3847.69,0.35798297454594724,1470.0387765264109
3848.5752,0.35783379257588027,1178.8173166156892
3849.4604,0.3579848139847727,1380.2451627342439
3850.3481,0.3587561074132095,1220.5950474475756
3851.234,0.3602233757775654,1489.3519475596881
3852.122,0.3623024449549721,1152.704938534141
3853.0083,0.36475828176445313,1328.7994477238929
3853.8967,0.36721365645883103,1169.729180061272
3854.7832,0.3691781709537009,1233.1447485794743
3855.6702,0.3703509970570034,1390.9519601845618
3856.559,0.37086632707355993,878.3993670344918
3857.4463,0.3712825185350595,1296.5457731989748
3858.336,0.37222036336807635,1167.7142899042328
3859.2234,0.37389882022127463,1126.7476018822379
3860.1135,0.3759952940079748,1323.4669356348345
3861.0015,0.3778592912177589,1297.964568751435
3861.8896,0.37899039902773735,1196.8064017457832
3862.7803,0.3793042389099608,1028.12116695685
3863.6687,0.3790901079659281,1306.9687131026383
3864.5598,0.37870639446219617,951.9193009134051
3865.4487,0.3782706246001904,1210.0292173280545
3866.34,0.37758017881873474,961.8968582000794
3867.2297,0.37632189934348,1662.727297559445
3868.1213,0.374319308000024,672.0731544570097
3869.0112,0.37164883261581483,1858.1430889019596
3869.9014,0.3685405683368206,1320.51620668314
3870.7937,0.36531562825241215,737.5174230691805
3871.684,0.362385133378409,1280.5270417932936
3872.577,0.36008439507072976,1523.1600370182164
3873.4678,0.35849817517887933,1458.2517700215917
3874.361,0.35728805549145237,984.1911102514009
3875.2524,0.3558912643979234,1139.3562655040255
3876.1438,0.3538549936244766,1487.0599705439993
3877.0376,0.35108508781562653,1140.6857533382433
3877.9297,0.347817727320289,1638.432068897534
3878.8237,0.3443009371992107,1041.861646285745
3879.716,0.3406131466322673,1271.3595503155077
3880.6108,0.33659390816328133,1202.2484128345457
3881.5037,0.3320991138915631,1070.2809942446677
3882.3965,0.32712901236548664,1135.6527061064498
3883.2917,0.3218687333060422,1460.751532328588
3884.185,0.31657481908008916,1921.4286341925808
3885.0808,0.3113328565851608,1398.255968191181
3885.9746,0.30620778802443704,1741.593399250754
3886.8706,0.30134511218083415,1523.7091038914937
3887.765,0.29717557772404535,2544.1312866280705
3888.6592,0.2941939681592873,2877.8743046163077
3889.556,0.2927088033472649,2100.6209773115233
3890.4507,0.29266647535420504,2938.4338723946066
3891.348,0.29370069137868293,2340.593241779393
3892.243,0.29538228907887515,1464.126895842511
3893.1406,0.2974922524099062,1631.9857194617007
3894.0361,0.30010556118521986,1421.6288233435926
3894.932,0.3035074653158622,1891.2416018033343
3895.83,0.3078557101738331,1572.5335343681472
3896.7263,0.31285544049493846,1524.5289751993887
3897.625,0.3179038367669141,1717.089434797254
3898.5215,0.3224224567323265,1477.8891807741534
3899.4207,0.32636993415219745,1661.6430099199472
3900.3176,0.33018332082948304,1515.049776843755
3901.2148,0.33450525759199984,1898.151000681929
3902.1145,0.3397198390257828,1143.6796763219368
3903.0122,0.34571337706994953,924.6051890332274
3903.912,0.3520942614634623,896.531140553711
3904.8103,0.35835321171937906,1452.468553265085
3905.7107,0.36412043612109307,1185.7715421729363
3906.6094,0.36905322841198274,1614.4621079250492
3907.508,0.3729242301127099,1162.7722982504326
3908.409,0.3756734126188072,1134.490942532589
3909.308,0.37748252245291636,1197.2592346628824
3910.2097,0.3787754194620886,1011.632086383883
3911.1091,0.3800493095307496,1208.8868202210483
3912.011,0.3817746343534953,992.9083059702734
3912.9111,0.38425571478686926,1244.5130200690985
3913.8113,0.3875631719323235,1384.2744252030561
3914.7136,0.39149573378122565,1114.1152093121575
3915.6143,0.39559936637079307,901.6753806866275
3916.517,0.3993592557324166,776.0851509916129
3917.4182,0.4023189585207151,860.5541063252999
3918.3215,0.4043420569955574,895.8062415109173
3919.223,0.40565862156544,1008.2720163922688
3920.1245,0.406760490226672,748.9199256556788
3921.0286,0.4080572009364211,823.5497606930893
3921.9307,0.40961809601761556,867.0958249782788
3922.835,0.4112392417514202,1173.162511422759
3923.7373,0.4126693906622454,947.8966813239801
3924.642,0.4138060422526041,994.0003393853488
3925.5452,0.41461856607421,996.2668962343713
3926.448,0.41505243555540655,907.2818408617094
3927.3535,0.4150193290763135,835.6355330965814
3928.257,0.4144968813737055,1039.1811702026157
3929.1628,0.41360025484223006,868.0641398140366
