wavl,flux,ivar
3566.9744,0.6208725176707985,615.8650647686436
3567.795,0.6198461693940766,759.040842829485
3568.6177,0.618081681112556,841.1624841372935
3569.4385,0.6165610819152472,881.5821935782658
3570.2617,0.6159099918791789,666.6271399614686
3571.083,0.6161469585678045,545.5008239028662
3571.9065,0.6166180597653835,1064.1026232866643
3572.7283,0.6163126692236098,640.7734517758304
3573.55,0.6145547695801282,461.1898352942821
3574.374,0.6115561621824732,582.0126985513087
3575.1963,0.6083148164698808,825.1153076211766
3576.0208,0.6058092004582318,549.7753877227351
3576.8435,0.6044176818471387,478.0392115888614
3577.6682,0.6038971225263158,579.0877596373006
3578.4915,0.6038632177079674,724.9948868185181
3579.3145,0.6040939365655842,898.5293962057906
3580.14,0.6044706389642637,619.7136495760249
3580.9636,0.6047350739286239,795.6795069162449
3581.7893,0.6044262486015171,846.6503595195103
3582.6133,0.6030861023089064,713.8315825816068
3583.4395,0.6005297605119908,698.952443739999
3584.264,0.596992382026156,910.5198366388947
3585.0884,0.5930273832195448,434.37810087160284
3585.915,0.5893806160564014,895.1115617590401
3586.74,0.58684614870411,766.9032997464614
3587.5671,0.5859451400626863,635.902161553423
3588.3923,0.5867013028870628,608.0810087027
3589.22,0.5885724927996703,967.0991584876699
3590.0457,0.5906842641141211,666.474846338376
3590.8716,0.5922465680502262,615.6576468740673
3591.6995,0.592857169373063,804.1545272170633
3592.526,0.5926205739335979,593.8311206875114
3593.3542,0.5919909704923513,588.671030908233
3594.181,0.5913926694133319,596.3635568603826
3595.0098,0.5908813779081754,522.7268055180966
3595.8367,0.5901458507177989,720.2861651528938
3596.6638,0.5888163398824784,585.4307682792354
3597.4934,0.5868508304588523,466.71788006380405
3598.3208,0.5847330956195025,899.916359403121
3599.1506,0.5832430428161871,672.6702653570497
3599.9788,0.5829817001120217,1012.4406511113718
3600.8088,0.5838459966665771,625.3079490539856
3601.6372,0.5850155046911792,639.8579721734125
3602.4678,0.5855201933634808,968.7904432091167
3603.2964,0.5848698469704809,630.3549894452966
3604.1252,0.5832085288095588,642.3636906083577
3604.9565,0.580970910686474,714.3628479872982
3605.786,0.5786259335389146,769.5087668325177
3606.6172,0.5766998760427217,456.1060845301149
3607.447,0.5759731297340023,705.2346286849989
3608.2788,0.57729834214755,989.6945879293244
3609.109,0.5810958003776133,630.4696629496663
3609.9392,0.5868957868708407,519.233274128931
3610.7717,0.593359470194003,832.1810646956923
3611.6023,0.5988267597321717,455.49067901588086
3612.435,0.6022740209344627,548.6394256393112
3613.266,0.6036633425535234,647.2039395795252
3614.0994,0.6036894406313121,790.9184808321068
3614.9307,0.6029634812756723,363.5827025430519
3615.7625,0.6014657183773016,788.7881038830859
3616.5962,0.598620204338655,618.4297766830817
3617.4282,0.5938946709996226,714.5743149045079
3618.2625,0.5873867185040451,790.0622812868031
3619.0947,0.580243705895679,648.7637434526875
3619.9292,0.5742963532655465,812.9466532661329
3620.762,0.5713266946833007,885.1565996798834
3621.595,0.5719731946463639,505.8020287279073
3622.4302,0.5754471080511593,549.260535811369
3623.2634,0.5800828774176371,1469.1737883849967
3624.0989,0.5844191378579955,828.7357624135083
3624.9326,0.5876735945910893,1016.3897581925598
3625.7686,0.5896622012736124,762.2381507087387
3626.6028,0.5903697454073897,537.0068671690497
3627.437,0.5898515709973707,393.79627541193656
3628.2734,0.5882385103736043,749.5978114390603
3629.1082,0.5857356941761909,482.7748656517018
3629.945,0.5825462142123722,618.7441044402974
3630.78,0.5789794848649845,684.0710040790143
3631.6174,0.5754391819707604,534.5809437409366
3632.453,0.5723145572716426,743.4418641380778
3633.2883,0.5696183116030267,517.4873336017353
3634.1262,0.5669685319581816,656.7642364145448
3634.9622,0.5639764860277008,813.8637702089648
3635.8005,0.5606688394038826,664.9711204830899
3636.637,0.5576304788556481,1033.5569519158846
3637.4756,0.5555026815061272,1033.770872396005
3638.3123,0.5545188127320835,851.3565138476395
3639.1492,0.5543762860964907,792.7393268203358
3639.9885,0.5545739034295275,621.8683546078574
3640.826,0.5546731913167686,1037.1530766963872
3641.6653,0.5543551025485662,1069.3433771260131
3642.5032,0.5534998394934912,623.3246294208918
3643.343,0.5523687737114982,940.8325770323762
3644.1812,0.5515893265966288,828.9617789627139
3645.0195,0.5517282043038294,891.5926977289698
3645.86,0.5528662004260471,886.673626504484
3646.699,0.5545095832446125,777.6276998696959
3647.5398,0.5558746303422729,936.7073589640075
3648.379,0.5562156546108046,912.3472047741468
3649.2202,0.5551440004627001,646.768569137332
3650.0596,0.5528164322853846,722.0466382292152
3650.8994,0.5498548372035754,1324.6269211467134
3651.7412,0.5470015075742469,789.9469418299452
3652.5813,0.5447381447140011,558.0539185795274
3653.4236,0.5430953310221404,1246.5737474535654
3654.2642,0.5418534877904371,732.8439010789308
3655.1067,0.5407777099327087,799.6802512021818
3655.9475,0.5397995831486374,821.3368402275794
3656.7886,0.5390163128331853,968.5457923640306
3657.6318,0.5386749230048375,974.5140134692671
3658.4734,0.5391076998303885,970.7622779175833
3659.317,0.540500326374253,840.8366368827991
3660.1587,0.5425217943271594,966.0172080261043
3661.003,0.5442298367527039,582.0488101113855
3661.845,0.5444957155507145,742.9472876784432
3662.6875,0.5428129295213876,723.87960781202
3663.532,0.5396938665741421,779.4450857665553
3664.3748,0.5364176796983742,1217.485807337117
3665.2197,0.5342343501442777,771.6628457116057
3666.063,0.533732025612251,859.205627984302
3666.9084,0.5345406412969911,1522.6876123316042
3667.752,0.5355937087142525,916.0719275433728
3668.5977,0.535771612240433,830.2198175555191
3669.4417,0.5345577056389899,724.0455534960158
3670.286,0.5323095419057613,784.1271114224614
3671.132,0.5299715187409657,1164.4511739300408
3671.9768,0.5285550762069122,728.4381784355758
3672.8235,0.5286870894927144,725.3374781328346
3673.6685,0.5304598664729646,679.2247469277298
3674.5156,0.5334422159202186,923.1859788490644
3675.3608,0.536777990353965,1165.5961473489006
3676.2063,0.5394978791799279,1073.7647173438606
3677.0542,0.5408039143123367,840.8405994336022
3677.9,0.5402551139368665,1078.7544650038471
3678.748,0.5377914702267046,1234.7581646638835
3679.5945,0.5337123394632302,684.7135316460648
3680.4429,0.528670252805072,912.2641101072234
3681.2896,0.5237152028139663,758.5245072077021
3682.1365,0.519933764155677,952.6802890910207
3682.9856,0.5179481181631636,960.0902740210336
3683.8328,0.5175059777406824,1086.0004120472531
3684.6824,0.5175918823183592,1387.69360981428
3685.53,0.5171018212404964,891.463188996306
3686.38,0.515491759202196,897.3482623460349
3687.2278,0.5129827604361132,1118.8989442449931
3688.0762,0.510271757027657,1146.656829638826
3688.9265,0.5081701815438657,1139.2698772695414
3689.7751,0.5073713075308734,809.305962205068
3690.626,0.5082993422666339,1080.7952399368023
3691.475,0.5110008525049743,1177.579404695128
3692.3264,0.5150418383552313,1127.2396199269335
3693.1758,0.5194837076023677,468.2519145651285
3694.0254,0.5232526707211053,711.2698744320023
3694.8772,0.5255749249246695,530.6899162499776
3695.7273,0.5262606629686726,782.839135089027
3696.5793,0.5256360514087368,789.2006289438868
3697.43,0.52420346234051,1036.0567941444249
3698.2825,0.5223963343475537,1011.4817845604513
3699.1333,0.5205548926857235,814.1800215922862
3699.9841,0.5189711860250983,736.3655783746491
3700.8374,0.5179711967749346,1051.00622674946
3701.6887,0.5178890829384881,983.985125635923
3702.5425,0.5188345307238652,788.3403962692737
3703.3943,0.5203874943852076,761.710452823571
3704.2483,0.5215782893156048,732.5526453283628
3705.1003,0.5213613559011367,1128.7044065599912
3705.9526,0.5193826768636526,797.5168828925737
3706.8074,0.5162961398668126,904.1565829654926
3707.66,0.5133770840637601,1027.1884571852013
3708.515,0.5116295688873035,869.5214681243069
3709.3682,0.511352952246431,937.4922766628029
3710.2234,0.5123404792393783,876.6531434790606
3711.0771,0.5144397648337952,891.9767420695988
3711.9307,0.5177357187471336,769.2180651163078
3712.7866,0.5221550154910302,993.3938627428469
3713.6409,0.5269154579503031,1008.2368976029934
3714.4973,0.5306665345299317,560.084871380729
3715.3518,0.5321552539482537,968.3123306945517
3716.2085,0.5311067046860766,607.2427172105258
3717.0635,0.5283863449419484,821.419473961702
3717.9185,0.5254224914216754,1177.5137292545953
3718.776,0.5233893025237327,767.6249907575937
3719.6313,0.5227846614270489,735.1868840196722
3720.489,0.5234720285170379,1282.2832140201149
3721.345,0.5249735004651597,850.554370452748
3722.2031,0.5266647933572461,836.1053668658818
3723.0593,0.5278640758307012,769.9097657757003
3723.9158,0.5280510658606028,874.8994374095889
3724.7747,0.5271120199928201,853.1530919008045
3725.6316,0.5254848701118082,633.9793163155134
3726.4905,0.5239414977585971,1144.0312169856566
3727.348,0.5231550871156471,874.0724991206566
3728.2073,0.5232710096675648,671.041673963904
3729.065,0.5238107302746945,924.8200197637293
3729.9229,0.5239257009697831,732.3834394892557
3730.783,0.5229020671843915,823.0928687173388
3731.6414,0.5207086959534858,653.2825735337275
3732.5017,0.5181523646547372,967.7835021441695
3733.3604,0.516416310048699,848.4418250009476
3734.2214,0.5161281702130549,1066.6429281684393
3735.0803,0.5168672487971936,852.7489401526014
3735.9417,0.5175505338934484,1011.0032872220424
3736.8013,0.5173720312530821,962.5453781264437
3737.661,0.5164116793447727,829.1220342614112
3738.5227,0.5153702338222458,841.4869722486411
3739.3828,0.514798175282294,864.6247517671312
3740.245,0.5145471200513844,1026.9799562639992
3741.1055,0.5139948307544288,831.9446657027166
3741.9683,0.5127247104356528,1096.0952303855274
3742.829,0.5109716904272934,634.1109364907308
3743.69,0.5093867678485101,812.668988259785
3744.5532,0.5085295869230487,701.5139005717105
3745.4148,0.5086147616805434,775.8846829940163
3746.2786,0.5096051763418115,1382.2159917903593
3747.1404,0.5113847115651174,1043.0143962690076
3748.0044,0.513809154755096,782.5706039916366
3748.8667,0.5166011627789393,1062.593297838925
3749.729,0.5193127915264241,655.2907209246214
3750.5938,0.5213407754895777,753.0375666931183
3751.4565,0.5221249688414229,910.1213680344865
3752.3215,0.5214976018925562,644.6568878619888
3753.1848,0.5197967908094409,837.6518119948239
3754.0503,0.5176107000465922,1512.2238509394358
3754.9138,0.5153828684463808,770.1439128404995
3755.7776,0.513190570716043,688.3898993050134
3756.6438,0.5109428196572068,1023.2060610128849
3757.508,0.5086896336378276,810.3640863795993
3758.3745,0.5066582823072199,1132.4397822600033
3759.239,0.5051185677027336,899.2169289414275
3760.106,0.5041585249965724,839.08255444274
3760.971,0.5037226547987469,948.5435644959157
3761.8362,0.5037635933154062,747.1852217555155
3762.7036,0.5043823987269078,825.3361385518148
3763.5693,0.5057435029746749,891.9482754879995
3764.437,0.5078623943160954,1090.7101560382057
3765.3032,0.5104202652103675,921.8910151696496
3766.1714,0.5128565938572185,940.403022946719
3767.0378,0.5145968468230822,763.5176930325763
3767.9043,0.5153897559971858,763.3536846566201
3768.7732,0.5154304559838491,919.2605814089702
3769.6401,0.5152366121225479,744.7359623917554
3770.5095,0.515299860392264,762.6135454718511
3771.377,0.5157695981687513,948.3368838279732
3772.2466,0.5164236432710487,766.8190012216598
3773.1145,0.5168917100642962,1441.1558750680622
3773.9824,0.5168867306056628,849.9939833580045
3774.8528,0.516209136342754,957.2179418425078
3775.721,0.5146619875001639,930.0505287404003
3776.5918,0.512079001505593,937.6690581303603
3777.4604,0.5086132501952957,666.4733663445697
3778.3315,0.5048884198984894,1004.2413611160157
3779.201,0.5019267168522783,972.9827816949748
3780.0703,0.5006358833089384,1338.416691715493
3780.942,0.5014144682869721,927.8312954044982
3781.8118,0.5039698074859139,860.1617696233251
3782.6838,0.5074173318261375,2555.675617373071
3783.554,0.5105008862567358,776.0278660338092
3784.4265,0.5121045050525507,788.2916008127802
3785.297,0.5117232276057412,699.0943285542062
3786.168,0.5096948772383214,742.5368027299172
3787.041,0.506846275551122,938.3860911363882
3787.912,0.5039897998152841,863.4251204896152
3788.7856,0.5015928635290348,808.9676262181825
3789.6572,0.49990281069869497,1000.6725828092592
3790.531,0.49904481162437664,779.630087778174
3791.403,0.49901399474360697,882.4925782604306
3792.2754,0.49950351008085675,767.7554869576601
3793.15,0.4999055480971149,980.1841332441791
3794.0225,0.4995547452673041,950.1459853464384
3794.8972,0.49806357365735,1051.7235781909494
3795.7703,0.4955010644805288,1346.8518111650087
3796.6455,0.4923349165177628,835.9849489318144
3797.519,0.4893435281192141,1210.5077708855206
3798.3926,0.4873517039781997,1021.7019557073401
3799.2686,0.4868987855366549,950.112954387909
3800.1426,0.4878863426033623,877.8242263584336
3801.0188,0.4895571469993483,918.2588273542083
3801.8933,0.4909001285497529,1373.5115300269408
3802.77,0.491235027780525,993.1392651153182
3803.6448,0.49055380662182085,902.098665366862
3804.522,0.48953647799555755,929.9167279095861
3805.3972,0.48922522315375716,927.0978360405413
3806.2727,0.49042267067925677,1305.3367963521182
3807.1504,0.49317455700456153,966.2554078914907
3808.0261,0.4966750525744396,841.3704605066165
3808.9043,0.4998366146631743,848.3300761261236
3809.7805,0.5019146582896387,902.0109602700395
3810.659,0.5028716111551143,1284.0851585734517
3811.5356,0.5031502763613058,1412.7903829766594
3812.4126,0.503297856518494,661.0398901043455
3813.2917,0.5036374565669284,1050.9059572769127
3814.169,0.5041343108409054,1003.616428976049
3815.0483,0.5044924684502718,1239.696959384902
3815.926,0.5044369919002273,1556.5837236790687
3816.806,0.5039887509542395,880.2684345278392
3817.684,0.5034369083062713,917.0022028336308
3818.5623,0.5030049247743607,774.9003348757573
3819.4429,0.50257338089509,883.2259653203773
3820.3215,0.501759232861303,722.2398753958487
3821.2024,0.5002380053844255,697.5047672988504
3822.0815,0.4979906039671518,766.7996676257845
3822.963,0.4952204386278034,856.6985413564163
3823.8423,0.4922073464399534,1019.8881642157526
3824.722,0.48919547480557485,840.7627478370244
3825.604,0.486501029137654,900.6554142267711
3826.4841,0.48458059776950496,962.638018759882
3827.3665,0.4838044073310931,1048.3220866928193
3828.2468,0.48415254916198724,889.4343357208351
3829.1296,0.4850429786833899,962.5632707936533
3830.0105,0.48556953571676365,930.8349877157891
3830.8916,0.484999949079408,966.2484235766294
3831.7751,0.4831468090579963,748.4612921199822
3832.6565,0.48045715649867055,1162.376225567192
3833.5403,0.47770547390488266,1024.8197678743413
3834.4224,0.4755852641939264,1352.8194804710436
3835.3064,0.47430442677674056,949.6452572297185
3836.1887,0.4736322634329004,1342.4731756407664
3837.0713,0.4732504158686778,1198.2733563064085
3837.956,0.4731305702612154,866.0386204076169
3838.839,0.47353330942816324,876.427194123318
3839.7244,0.47469158063768613,868.8619237758982
3840.6077,0.47653391218760177,905.2507829558701
3841.4932,0.478749451025128,955.4863438195189
3842.377,0.48101386041834227,821.0771000352961
3843.261,0.4832181065212441,715.9688636427882
3844.1472,0.4854416068357234,895.4320616109887
3845.0315,0.4877686608351564,1086.155163176486
3845.9182,0.4901687365619246,1147.3029292714932
3846.803,0.49247233753203445,835.1767348501543
3847.69,0.49462375405389764,795.9821990012704
3848.5752,0.49678891668191794,847.1497754250713
3849.4604,0.49922827446832096,1035.0719533210859
3850.3481,0.5019469874061991,719.2818569624459
3851.234,0.5046086335485386,827.6150107503845
3852.122,0.5069655776505823,713.1791542922623
3853.0083,0.5091711506764904,976.2493879149575
3853.8967,0.511629751072936,1185.2882024484506
3854.7832,0.5143642513524934,711.7504959514193
3855.6702,0.5168111226154294,889.7884444230198
3856.559,0.5182386374250149,822.2575736145631
3857.4463,0.518393089202802,905.9672016149044
3858.336,0.5176578833095933,1186.841498239711
3859.2234,0.5166035952040381,804.2021761508573
3860.1135,0.5154927550372268,808.6414022635654
3861.0015,0.5142422759061316,766.7085266315561
3861.8896,0.5126600455324376,752.5519779131695
3862.7803,0.510622856418183,886.4016937859318
3863.6687,0.508059554815225,959.1922814902333
3864.5598,0.5048852167739163,635.0667527382195
3865.4487,0.5011976001692612,913.6675020469271
3866.34,0.49734504395983475,1156.0294157826627
3867.2297,0.49389681763457155,981.2180849294118
3868.1213,0.4913295734500478,774.9713052608779
3869.0112,0.49002292936492914,1077.2768709373636
3869.9014,0.49044229870328404,865.2830948580513
3870.7937,0.4932836727638875,1024.990417394809
3871.684,0.4989489885877844,908.42806288768
3872.577,0.5066426334269476,1020.9261838260552
3873.4678,0.5137729994655057,1253.6267191451807
3874.361,0.5170418103017561,859.404258651924
3875.2524,0.5144574877554149,1411.6553967719713
3876.1438,0.5068934150174166,1023.5680482296099
3877.0376,0.49735113378244244,1075.3885985941088
3877.9297,0.4888151421631663,1101.76329738266
3878.8237,0.4822715565340172,803.9147132818059
3879.716,0.4768263892754751,1051.565222978113
3880.6108,0.47097872217412917,734.9757446194465
3881.5037,0.4641374322317877,1098.8248297361865
3882.3965,0.45693490330301967,1056.8359961260485
3883.2917,0.450626141860981,1281.9482384300375
3884.185,0.44610709669891874,1370.5283931397867
3885.0808,0.4431748097274081,1576.2128561823633
3885.9746,0.44082891498051613,968.714207671476
3886.8706,0.4380592422514508,1130.971506649029
3887.765,0.4346941243664207,1357.7362610298935
3888.6592,0.43146671726537067,1400.3162099998262
3889.556,0.4294312430054515,1035.5375540691443
3890.4507,0.429193088922084,1248.5008880432347
3891.348,0.4305045206010583,1277.513178680915
3892.243,0.43252731833247815,1561.1380000235317
3893.1406,0.43448865281588184,1064.9739690087936
3894.0361,0.4361535160931386,1648.0988168856022
3894.932,0.43788790203234607,1154.680326744625
3895.83,0.44026843612570504,1057.3696142317324
3896.7263,0.44364412956905797,1331.5440881193313
3897.625,0.4479850275027069,922.4244154125239
3898.5215,0.45284692724045295,1075.6243666361083
3899.4207,0.45761691874078053,801.594542256499
3900.3176,0.4616704664038546,859.5125157607731
3901.2148,0.4647836879557759,1275.3813490278044
3902.1145,0.4673033117031271,877.2612472670788
3903.0122,0.47004111210371213,1084.7505055469292
3903.912,0.4739182897211221,962.9514299780703
3904.8103,0.47947240520882184,1752.205655906665
3905.7107,0.48668619501364363,1076.7657886837562
3906.6094,0.4948509770107985,892.7634331590409
3907.508,0.5028206653070765,744.7516034703874
3908.409,0.5093697861174569,844.4620630548081
3909.308,0.5136913253699744,1017.1017511548998
3910.2097,0.5158432432825926,1072.2995553523403
3911.1091,0.5165889516380479,652.6139658246523
3912.011,0.5170158540104688,776.8725994256297
3912.9111,0.5179989482518336,917.9821671513625
3913.8113,0.5198372277374914,752.8654078026003
3914.7136,0.5221728370445237,1143.4760553839835
3915.6143,0.5242674684471335,869.9767646621999
3916.517,0.5255881453231176,837.0369642349248
3917.4182,0.5262070449882539,772.9339780662415
3918.3215,0.5268119883334006,1020.5132204400703
3919.223,0.5282506208772226,878.2847562301229
3920.1245,0.5309793270408394,873.149818592117
3921.0286,0.5347243671102251,779.4455278197905
3921.9307,0.5385119054555413,866.56970426042
3922.835,0.5411936192661535,675.8602297302929
3923.7373,0.5419705472709193,796.4376585380598
3924.642,0.5407604743487217,924.7305812635539
3925.5452,0.538089454761268,727.8698544627715
3926.448,0.5347278458989555,780.9753803385267
3927.3535,0.5313595486091655,689.6991505933228
3928.257,0.5284915565230892,1053.8117246010006
3929.1628,0.5264017258795676,886.324349573335
3930.0667,0.5252036779536771,815.6719021376704
3930.9731,0.5247984805024851,749.5335525564242
3931.8774,0.5249449871990955,763.8237887557674
3932.782,0.5253905899595284,790.5676655319005
3933.6887,0.5260127453715727,713.1094995459197
3934.5938,0.5267992065290731,710.3221175121774
