wavl,flux,ivar
3566.9744,0.35703646034652553,366.8664036331639
3567.795,0.3556639365990509,491.7039325937775
3568.6177,0.3543715580363792,654.8670395270319
3569.4385,0.353292233031326,681.6863549080518
3570.2617,0.352356784356581,543.6900991225361
3571.083,0.35149137243194734,543.5091841464719
3571.9065,0.35071962645574245,514.1597327517385
3572.7283,0.3501186778046921,460.39797897311087
3573.55,0.349669124460216,1351.1894528592563
3574.374,0.3492981993618639,627.90786171607
3575.1963,0.34913670927639495,430.33440592481367
3576.0208,0.34967123111442416,1555.654007310523
3576.8435,0.35146527430237917,1567.2159615279902
3577.6682,0.3546068391017372,714.9493736284966
3578.4915,0.3583849103652612,773.315956993554
3579.3145,0.36166657505992966,939.3021836410248
3580.14,0.36358742478796946,1427.710312658353
3580.9636,0.36397926791349944,535.6130700575368
3581.7893,0.3632367189267192,533.5821246241759
3582.6133,0.36177890414732994,485.4974356078442
3583.4395,0.35971377768611124,384.1911675878512
3584.264,0.3570048369574153,676.7773472333788
3585.0884,0.35378879102701594,660.1901695752019
3585.915,0.3505246357660163,693.0765589479289
3586.74,0.3478499272086351,614.642399151575
3587.5671,0.3462447088099593,408.3677527408121
3588.3923,0.34589692928551913,885.8927516978614
3589.22,0.3466394633024845,587.4000919638728
3590.0457,0.3480176672012904,737.2969008965405
3590.8716,0.3494280387482034,459.25184442904435
3591.6995,0.3502947177840762,581.3445385058822
3592.526,0.3502267428102004,929.9503544380894
3593.3542,0.3490967028268235,678.5263296429305
3594.181,0.34703001555602164,421.42153035974366
3595.0098,0.3443485467122409,595.3252722829301
3595.8367,0.34156391097877115,559.7094731907177
3596.6638,0.33923148417558974,562.3203400088527
3597.4934,0.3377860077548408,870.3210132120175
3598.3208,0.3373649141081785,830.9232582721679
3599.1506,0.33776075294565266,968.7494362692057
3599.9788,0.33858707146374095,883.0389957451476
3600.8088,0.3394551753692977,813.9946290568209
3601.6372,0.34001502978691545,801.8561141959708
3602.4678,0.3399449131413795,893.127331261749
3603.2964,0.3390030925088494,463.57841580619777
3604.1252,0.3371918164235711,644.6980663615049
3604.9565,0.3348565468717523,353.4096821252145
3605.786,0.33260547661038575,415.48780813019954
3606.6172,0.3309813190223836,704.2202185083613
3607.447,0.33023052652049745,1039.3816622555423
3608.2788,0.33019841407196066,870.8910791569597
3609.109,0.3304724629451714,668.521728220258
3609.9392,0.3306197595472549,1082.0692570329506
3610.7717,0.3304038562608971,638.529458462083
3611.6023,0.32987981612884926,492.6582644544275
3612.435,0.3293385029608355,485.41818827465744
3613.266,0.3291637833661151,656.8890904282882
3614.0994,0.32961505134727737,568.8456137508534
3614.9307,0.33060445876572414,937.6025945176486
3615.7625,0.33162504413896826,964.804384322877
3616.5962,0.33198291406345687,892.8365244134311
3617.4282,0.3312770024046377,820.6521175597497
3618.2625,0.329746988934425,607.9686398851416
3619.0947,0.3281663638726519,722.7602526197848
3619.9292,0.32730266764924404,746.4037856269251
3620.762,0.3274528932202329,813.0908619215645
3621.595,0.32834577488442085,809.7628553288956
3622.4302,0.3294784957390005,987.3192618625528
3623.2634,0.3305052533368553,640.653999306503
3624.0989,0.3314063019895847,1008.417313330851
3624.9326,0.33228691512801084,731.5504340519101
3625.7686,0.3331003566035712,610.8420461545999
3626.6028,0.3335390611132299,611.7663052388109
3627.437,0.3332700429325117,412.9720850541918
3628.2734,0.33223874598539294,1550.3087783988371
3629.1082,0.3307728572329952,485.1368159003679
3629.945,0.3293492317429552,804.0238845428116
3630.78,0.328317082414083,668.5648500497349
3631.6174,0.32774408373798297,430.87692064071587
3632.453,0.3274971962455045,532.9025340238538
3633.2883,0.3273300374060633,784.2278729569828
3634.1262,0.3269646583879404,703.7374228989515
3634.9622,0.3262199054588347,687.4058773252162
3635.8005,0.3251530135080282,733.2507792747774
3636.637,0.32405026254648234,611.2922660201685
3637.4756,0.32314001120248065,1010.1430693197409
3638.3123,0.3223731137700099,625.5603347839874
3639.1492,0.3214995788299397,712.8705026411269
3639.9885,0.32039885892137115,799.6052964497918
3640.826,0.3192584381655493,1131.8253007028047
3641.6653,0.318424242835679,843.2912849624627
3642.5032,0.3182365725043893,736.2618670283327
3643.343,0.318993542167555,583.578037262343
3644.1812,0.32093882728356793,686.2186727445888
3645.0195,0.3240670895614255,2066.6857023875505
3645.86,0.32786667398800445,778.7444654339035
3646.699,0.33130873079088863,733.8114421393603
3647.5398,0.3333478988301582,614.6421396648705
3648.379,0.33346376583530846,763.6694630311712
3649.2202,0.33202057650671674,923.5291418173714
3650.0596,0.33008613969425477,995.2224047601007
3650.8994,0.3287839775349228,1000.6290806150764
3651.7412,0.32860175306557166,673.9568732131006
3652.5813,0.32910596076411613,586.2291921267984
3653.4236,0.32935395051907124,706.7322158556266
3654.2642,0.3286952894623505,747.6661962515411
3655.1067,0.3273073667970121,554.1798630942612
3655.9475,0.32604607679533687,707.4094347719238
3656.7886,0.32574509634572874,1752.3275121726183
3657.6318,0.32660023561451285,734.7513054554253
3658.4734,0.3280426943019769,619.6965501950136
3659.317,0.32918529098288246,574.9907781588365
3660.1587,0.32942013604745024,629.8499942975694
3661.003,0.32879815539751356,522.2656043761688
3661.845,0.3279351284105849,714.1675529188357
3662.6875,0.3275671226427863,779.5827041267565
3663.532,0.32811212978904103,828.2259969012688
3664.3748,0.32948584999279185,737.9163713659217
3665.2197,0.33123743256878546,545.3262120524219
3666.063,0.33278403892466457,572.6770980217566
3666.9084,0.33368133594411076,621.9763001971119
3667.752,0.3337714263320217,651.2667542677843
3668.5977,0.333235966066021,646.736254560088
3669.4417,0.3324589006091071,998.7313562469122
3670.286,0.33180043321777164,575.5506464199127
3671.132,0.3314426023265337,690.8067137614283
3671.9768,0.3313593206649742,653.9852847493916
3672.8235,0.33137135203267765,660.8988149318606
3673.6685,0.3312658313980325,701.0968206473134
3674.5156,0.33093398297517923,490.287569649775
3675.3608,0.3304352541845125,1067.622023066635
3676.2063,0.32989809014391397,880.5366287149577
3677.0542,0.3293699064175973,789.3244544105091
3677.9,0.3287871966893187,689.4097273444827
3678.748,0.3280702205655048,658.5039836777513
3679.5945,0.32724676965118177,739.9108633443153
3680.4429,0.32644495658388417,570.0284839596034
3681.2896,0.325804512871051,1739.478003701623
3682.1365,0.32532754544599524,635.6237554759168
3682.9856,0.3248346850892913,511.6793842743989
3683.8328,0.32408227168529613,580.4109201862253
3684.6824,0.3229415811964667,763.2558368277656
3685.53,0.32150528533518863,815.6746381398434
3686.38,0.3200012325198438,816.8438128853193
3687.2278,0.3186744952196026,875.8705954812865
3688.0762,0.31760671522237466,784.9016428171375
3688.9265,0.3166419610894048,960.3795961587297
3689.7751,0.3154889464335403,772.4721229577228
3690.626,0.31399089238990974,754.4285931308644
3691.475,0.3123761031584138,764.3735908578715
3692.3264,0.3111491179044829,1116.2523718032025
3693.1758,0.3107506698816182,777.2136671401372
3694.0254,0.31119202386218986,1151.6279353199416
3694.8772,0.3120407721704234,800.1804901121966
3695.7273,0.312728077517662,1106.1250924037863
3696.5793,0.31299317087511314,724.5668915874426
3697.43,0.3130785435464364,741.4223329046139
3698.2825,0.31355409498672554,657.5007033622741
3699.1333,0.31488300408744285,923.5236296338562
3699.9841,0.31707964448786924,1325.3466074096414
3700.8374,0.3196808952573729,901.1672898645177
3701.6887,0.32197240270916994,1072.4139403278675
3702.5425,0.3233723888038467,827.672378509357
3703.3943,0.32361500075863303,1004.1471631355652
3704.2483,0.32281716752948053,820.3918060161516
3705.1003,0.32138300820140414,655.311761413434
3705.9526,0.31985740776211974,810.1461110432997
3706.8074,0.3187643238506928,951.4852256987358
3707.66,0.3184058443707351,681.3679888353249
3708.515,0.31864755655633004,658.0140904158112
3709.3682,0.31890659349718725,824.3883307303196
3710.2234,0.3184284913479222,570.8762650276149
3711.0771,0.3167635215496042,620.4403420468298
3711.9307,0.3140936016918303,1098.676952918803
3712.7866,0.3111134853802161,1011.8464718769488
3713.6409,0.30858963851377263,774.167518858676
3714.4973,0.3068659643435099,556.8962029237894
3715.3518,0.305844617697495,710.0126349017305
3716.2085,0.30523960504938374,912.3723644818822
3717.0635,0.30490732950512534,710.1890934761844
3717.9185,0.3049074680393697,741.9032540575255
3718.776,0.30538580352585587,685.0891361990062
3719.6313,0.306440752600538,1212.8381652944397
3720.489,0.30810681503940895,1329.7181319864728
3721.345,0.31032288436703626,1341.517175112238
3722.2031,0.31287756412940443,988.9683775349938
3723.0593,0.3152966803729057,693.2191193323586
3723.9158,0.31699996706284334,696.0424854921491
3724.7747,0.3175917676516316,932.1660012358151
3725.6316,0.3171368236248659,989.5644873170418
3726.4905,0.3161290839688372,1001.0359250388527
3727.348,0.31516523525900725,684.2756085978579
3728.2073,0.31461397656598417,768.806542468351
3729.065,0.3145528137827809,838.2581498424039
3729.9229,0.31488321686716014,718.8774009418801
3730.783,0.31546121721936915,563.6226059700161
3731.6414,0.31612506320131517,1104.8129737811119
3732.5017,0.31672997863882313,669.8419026722861
3733.3604,0.31721840018809244,551.6197461977443
3734.2214,0.3177005144838072,848.2610523485388
3735.0803,0.31840617875832405,556.111847481533
3735.9417,0.319552960155008,693.575787733261
3736.8013,0.3211533326063989,606.1606099395729
3737.661,0.3228995044035804,902.9604686234406
3738.5227,0.3241638050769166,478.7530977441724
3739.3828,0.32422730551977025,616.3310502481318
3740.245,0.3227124506684811,972.7615822048035
3741.1055,0.3199110754528531,794.6946794296314
3741.9683,0.3167013447906274,668.3753026877803
3742.829,0.31413284733563535,970.8256375366959
3743.69,0.31277897996336196,950.3381156577364
3744.5532,0.3124318580525809,823.9335249523745
3745.4148,0.312270810583389,736.4661942170454
3746.2786,0.3114774802737141,805.1335289263807
3747.1404,0.30987451427957835,945.5069365092401
3748.0044,0.3080004137155121,524.6202054165201
3748.8667,0.30658492406465976,660.790310163955
3749.729,0.30585613152145474,811.1081998250494
3750.5938,0.3054406636518199,824.2039067427686
3751.4565,0.3048841633947838,550.8566614269564
3752.3215,0.30421882857486476,726.4316100357978
3753.1848,0.3040022838522693,453.75468790234237
3754.0503,0.30480180271931917,587.4459350215244
3754.9138,0.30665981935489434,875.7261075228475
3755.7776,0.30899337376029234,761.1544736491524
3756.6438,0.31094217810151975,554.2220174199224
3757.508,0.3118873126848848,997.2939236724854
3758.3745,0.31184476060357325,658.7346448628996
3759.239,0.31138475927524234,995.6183203159983
3760.106,0.31120544302134623,1242.8595396755215
3760.971,0.311682640034997,717.8816664553219
3761.8362,0.3127296753630331,611.4094042132665
3762.7036,0.3139848945880005,863.1160589204746
3763.5693,0.31503406747684193,877.078585043324
3764.437,0.31553770536987913,817.7822916278077
3765.3032,0.31525845223768223,660.8000392318309
3766.1714,0.31415420235867264,788.7208893634478
3767.0378,0.3124668211217002,1329.0105058251927
3767.9043,0.310644706665828,830.8511359443115
3768.7732,0.3091033524889845,745.6958425843031
3769.6401,0.3079846052446184,1069.527569737616
3770.5095,0.307076008909053,1969.9983341314778
3771.377,0.30602978831368155,813.0880119435616
3772.2466,0.3046144014817068,619.9145532958552
3773.1145,0.3028744536616654,743.4836978642327
3773.9824,0.30104456573819777,834.8620544726143
3774.8528,0.29939235058464897,846.1248495204377
3775.721,0.2981219076988786,702.1027792073698
3776.5918,0.2973313448469918,595.7447184019406
3777.4604,0.2970488066229252,2221.8902796281222
3778.3315,0.2971882119065494,686.5194949690888
3779.201,0.29757308193397153,1593.4869356187987
3780.0703,0.2980938407671544,903.0033987653369
3780.942,0.29890379247836846,1002.7917982567377
3781.8118,0.30036548383596895,726.9059675107093
3782.6838,0.3026920026706366,872.4135640004354
3783.554,0.3055236296453642,691.140874635359
3784.4265,0.30797657945916423,531.6616379251013
3785.297,0.3090649042561988,576.768035976133
3786.168,0.308326138879777,867.7062990389012
3787.041,0.3060988382903406,868.3073231313119
3787.912,0.303459861485461,1040.3186383695122
3788.7856,0.3017448134233854,902.4006494611335
3789.6572,0.30195830650025984,1051.0532800988888
3790.531,0.3042195220069878,556.9963854137939
3791.403,0.30766570124825726,924.272974122491
3792.2754,0.31094977440510085,679.7058448303562
3793.15,0.312989429179141,938.4917497171498
3794.0225,0.313504125969339,621.6843876523959
3794.8972,0.3130300153063382,1226.2418384874106
3795.7703,0.31239504109390126,1351.6550311203807
3796.6455,0.3121035190594194,771.7440552752483
3797.519,0.3120379219408296,994.4486447465777
3798.3926,0.31164361150959435,717.0396307131836
3799.2686,0.3104339793747345,582.6045275305422
3800.1426,0.3084003762685295,741.7268613506611
3801.0188,0.3059435989573866,885.0999651221396
3801.8933,0.30351397472849956,1169.177979918761
3802.77,0.30125310345113204,1654.4009496133085
3803.6448,0.2990773928208454,1030.7809855147386
3804.522,0.29689583774296535,814.0807381799117
3805.3972,0.2948129257015664,1073.6660833491678
3806.2727,0.29303946972750944,937.7158882978123
3807.1504,0.2917975755850537,1263.602148207748
3808.0261,0.29127056828502773,703.944104180453
3808.9043,0.2915606792818372,947.3226544171571
3809.7805,0.29263901546308,924.1527195340191
3810.659,0.294299662845335,852.5424083972972
3811.5356,0.29618161305765794,829.141361070173
3812.4126,0.29792275640291055,738.210400154504
3813.2917,0.2992805895333531,863.141512340924
3814.169,0.300148866797275,626.9081121445255
3815.0483,0.30047728538605895,645.8757384682964
3815.926,0.3001619212590638,1160.663729060827
3816.806,0.2991224709452184,671.3327500492732
3817.684,0.29751296107615727,1045.3177030813372
3818.5623,0.2957978684527888,878.3587720958054
3819.4429,0.294553279593447,1094.0738727660525
3820.3215,0.2941262222087602,549.8257852268692
3821.2024,0.2944289143365892,752.0120575328763
3822.0815,0.29506879124142615,797.4008898561169
3822.963,0.29562440331962975,1332.4005021235926
3823.8423,0.2958317623412294,895.9148955498396
3824.722,0.2956113243146698,699.7573020833827
3825.604,0.29497546460767216,796.1540407876414
3826.4841,0.29396264894526597,785.7445582992815
3827.3665,0.29260228256226717,918.9394263390243
3828.2468,0.29094225951268177,744.3329709074592
3829.1296,0.28903494578300654,796.5134708948601
3830.0105,0.286976033208833,1099.7400075287987
3830.8916,0.2848776643632638,902.105951344203
3831.7751,0.2828919351092336,1129.067085328491
3832.6565,0.28122978956705,1231.7303634579557
3833.5403,0.2800820727193747,991.0345460276405
3834.4224,0.2795532087211822,806.1145705114237
3835.3064,0.279583809784681,1227.3740140860125
3836.1887,0.2800413990214946,1099.987033201087
3837.0713,0.28085930863136654,1098.7267252467275
3837.956,0.282065778116553,1477.3057749703057
3838.839,0.2836434942168961,1000.8370625094528
3839.7244,0.2854355080489965,1030.8065156479113
3840.6077,0.2871794308230754,1250.07433620137
3841.4932,0.28871701503430297,1114.1709528478357
3842.377,0.2900576243267399,1006.6640789678387
3843.261,0.29131312154158123,874.5480960298548
3844.1472,0.2925161580914308,985.0254083976248
3845.0315,0.29353186531401093,951.1986467406622
3845.9182,0.2941583085818403,777.414426728153
3846.803,0.2942990126796677,733.9399471860455
3847.69,0.2941370847762527,841.7230561548023
3848.5752,0.29412336092425795,1040.2083988943582
3849.4604,0.29475857545620987,863.2143014048021
3850.3481,0.296297011627929,1050.2894741013604
3851.234,0.2985554087542578,1037.88420192626
3852.122,0.3010332241224051,952.5374750359507
3853.0083,0.3031698366737085,775.9963328894564
3853.8967,0.30468371374108594,732.7268404733113
3854.7832,0.30563412543163593,774.1707955946496
3855.6702,0.3063014586477895,1064.0988514792614
3856.559,0.30690705905241644,842.044488524889
3857.4463,0.3074409459398639,1091.3822066091593
3858.336,0.3077122640508393,801.8198333810307
3859.2234,0.30753875724842783,887.980047914464
3860.1135,0.30692135828681255,693.2334984491683
3861.0015,0.3060609785141695,624.7781917714085
3861.8896,0.3052127739411969,681.7808184925939
3862.7803,0.30452012945525075,812.8896548739544
3863.6687,0.3039289288760232,760.057389654808
3864.5598,0.30321269432674763,1122.307011034116
3865.4487,0.30213000186248734,1000.1772871179953
3866.34,0.3005702291029006,934.2905159185195
3867.2297,0.2986524046969954,643.8213591956857
3868.1213,0.2966283099321988,1073.1181851646063
3869.0112,0.29475379557684006,821.9066198568872
3869.9014,0.2931433009941514,1272.9830703125494
3870.7937,0.29177351726266193,1065.820721659193
3871.684,0.2905358934068685,836.3457556338584
3872.577,0.2892569471422252,936.3554159386466
3873.4678,0.28778693730814375,802.5727460368696
3874.361,0.28610623229822013,807.8472029180809
3875.2524,0.2844873452749934,645.5454481976425
3876.1438,0.2834108690417782,931.2892889396069
3877.0376,0.2832650820541653,888.8179713283471
3877.9297,0.2840065115890069,766.3907487571566
3878.8237,0.2851567840987911,875.5875412633758
3879.716,0.28616131358424196,562.0055272389139
3880.6108,0.286765083553124,693.4427229041412
3881.5037,0.2870124597064347,561.8216102270941
3882.3965,0.28699975766307706,1182.1968693256858
3883.2917,0.28667766108928533,796.5721573686828
3884.185,0.2859191363782588,419.17181340447894
3885.0808,0.28467217009032675,1405.7105972702964
3885.9746,0.2830067888500548,1183.4742949701151
3886.8706,0.2810110925530241,851.2297319484195
3887.765,0.27880894715457166,1051.5503071070573
3888.6592,0.27660728630737086,1079.7268443396022
3889.556,0.2747020118069215,1227.2818494133226
3890.4507,0.2733604784773063,1296.8327983249142
3891.348,0.27269857812869375,969.9057370311069
3892.243,0.27276080518565854,863.5368932430473
3893.1406,0.2735948588541289,1309.844559185893
3894.0361,0.27523192186636763,1327.4844761413185
3894.932,0.27761178977757317,1078.1698358315095
3895.83,0.2805399865546253,708.0453186891529
3896.7263,0.2836905228328476,987.5578554460988
3897.625,0.28673423058803044,1084.968084339128
3898.5215,0.2893749927829858,1153.976719762395
3899.4207,0.2914852878884962,813.0483921984294
3900.3176,0.29306898897778383,959.4410958123101
3901.2148,0.2942566949380489,622.0560703925526
3902.1145,0.295197612054798,887.5131259217139
3903.0122,0.295976614020363,598.1381918061217
3903.912,0.29660837983492894,1165.8851542484208
3904.8103,0.297097758422442,729.5260181772444
3905.7107,0.2975618380569835,847.1151865654715
3906.6094,0.2982251302952973,966.006732327969
3907.508,0.29926600315300345,1069.643556281426
3908.409,0.30063233713495907,721.5073623507205
3909.308,0.30203309921007077,933.928510739641
3910.2097,0.3031858500153687,671.6719364704022
3911.1091,0.30402913667986403,760.2223793927684
3912.011,0.304753326511499,1012.4506081204722
3912.9111,0.3055657894622131,970.5203055677182
3913.8113,0.306508648383477,1021.3973525983586
3914.7136,0.30749877834693257,890.0991545461146
3915.6143,0.3085385578049799,764.0527587060496
3916.517,0.30985018464587066,602.0771426421443
3917.4182,0.3117187318799506,809.1828509717584
3918.3215,0.31427011429767104,863.1294679095627
3919.223,0.31732285361009444,598.2792618088179
3920.1245,0.32051106946923813,745.8070126977731
3921.0286,0.323421172106611,744.1698459826938
3921.9307,0.325654253676169,633.9102566222739
3922.835,0.32688393489748824,650.1646372391359
3923.7373,0.3268559722001017,934.8974504987398
3924.642,0.3255235537811623,815.1085011078491
3925.5452,0.3231500309895335,1129.3761475056647
3926.448,0.3202451860342708,690.0085135706094
3927.3535,0.31735492523550796,1070.9912845309607
3928.257,0.314872307600738,819.8360757188257
3929.1628,0.3128859470528755,862.5682670365476
3930.0667,0.31127868273268083,608.8779852313527
3930.9731,0.3098265703822996,682.4731654989489
3931.8774,0.30835811014524334,833.9078113565447
