wavl,flux,ivar
3566.9744,1.7271367522160195,453.1279825078144
3567.795,1.7212964275339329,409.2366776723984
3568.6177,1.7178247299201392,452.91839355168605
3569.4385,1.7152224459003704,449.7002921851747
3570.2617,1.7122988381152793,537.6569257308158
3571.083,1.7090923893971561,484.2152820042422
3571.9065,1.7067586739468439,438.8530097801461
3572.7283,1.7067253689499504,529.2528484621237
3573.55,1.7096067016784613,469.76377903114786
3574.374,1.7147764535685786,467.2909760335043
3575.1963,1.7206099211708537,476.733858792113
3576.0208,1.7253969573549688,389.89042800260484
3576.8435,1.7281108690887172,361.7911480780082
3577.6682,1.7288859715949911,417.1069105277812
3578.4915,1.7286774137914527,430.405079677343
3579.3145,1.7285542193766656,445.12565447222045
3580.14,1.7290360292088904,432.8943701166466
3580.9636,1.7299146414063216,436.36860053999163
3581.7893,1.730600044498099,388.32302512126626
3582.6133,1.7305931667158443,435.6960528857455
3583.4395,1.7296707549815682,413.8059702677888
3584.264,1.727724721179361,397.91491117337745
3585.0884,1.724607258407254,427.5062509748567
3585.915,1.7202258429914263,380.2637045711558
3586.74,1.7147992645759127,497.0191653308609
3587.5671,1.708885419828272,481.6613798755531
3588.3923,1.703435805800251,393.1858277304248
3589.22,1.6994916335621155,479.35594250730384
3590.0457,1.6978890336945216,490.4503404726776
3590.8716,1.698690215863962,396.12023479092505
3591.6995,1.7010164932363878,444.8032114922549
3592.526,1.7033461907146428,444.71811229261084
3593.3542,1.7042677058188984,466.9630008855934
3594.181,1.7030516622294294,413.55054510194714
3595.0098,1.6998285095031367,433.27960735360637
3595.8367,1.6954963274644421,432.45101053918495
3596.6638,1.6914790020851702,414.51933916067554
3597.4934,1.6894145971748766,419.7917862659003
3598.3208,1.6905639249692057,399.40411617481715
3599.1506,1.6951452831802445,404.4713540326727
3599.9788,1.702069126909126,540.0933526700713
3600.8088,1.709415005347341,394.74375241207616
3601.6372,1.7151952742433727,520.4898534283953
3602.4678,1.7182677311464918,418.90339525980784
3603.2964,1.7183973594323867,464.1645758692283
3604.1252,1.7157175455540168,415.5486583538988
3604.9565,1.7099688545722231,420.0420376704108
3605.786,1.7006557594507479,376.4898135463369
3606.6172,1.687856885613296,413.00534504717103
3607.447,1.6731987852591013,413.62810838025564
3608.2788,1.659373544038443,419.44903866553244
3609.109,1.649067265157304,468.22218118085266
3609.9392,1.643447028740732,532.5998544350523
3610.7717,1.641901659602288,431.0323424668921
3611.6023,1.6426496008177174,404.55377038525626
3612.435,1.6438502386063623,484.7045291142195
3613.266,1.6444905298431922,476.8545378099576
3614.0994,1.644609393937421,441.09341922219784
3614.9307,1.6448676311066797,513.6920306959203
3615.7625,1.6458986666692288,491.2021466097934
3616.5962,1.6479067543936143,404.6829720157725
3617.4282,1.6506666394621239,536.5368334546162
3618.2625,1.6537662484306686,437.0831156408994
3619.0947,1.6566620893075974,442.0032430010056
3619.9292,1.6587408672734862,467.262391491865
3620.762,1.6593681566829894,423.7755065112421
3621.595,1.6581876454858353,462.03283080278476
3622.4302,1.6553753363422898,427.54831441318385
3623.2634,1.6517820392113145,464.7897095789016
3624.0989,1.64869994062275,450.0031201217138
3624.9326,1.6474825828080955,395.0213193637222
3625.7686,1.6489030809702283,452.55363444034174
3626.6028,1.6526074180560946,544.7342332760325
3627.437,1.6570323286825477,436.66308177245037
3628.2734,1.6601593149709504,470.38336802571024
3629.1082,1.6607411926195155,423.5280195272119
3629.945,1.6590872950561177,474.7670954011774
3630.78,1.65661028894319,471.82650416087546
3631.6174,1.6546880568680657,440.91472209373006
3632.453,1.653978920425051,455.94100940131165
3633.2883,1.6545105879339752,396.1388864491251
3634.1262,1.6562136056665926,514.442188306055
3634.9622,1.659124725387374,407.5799421191695
3635.8005,1.6632167552637658,468.4978985812672
3636.637,1.6680265224613,409.5163199051919
3637.4756,1.672763746976235,414.5672561741104
3638.3123,1.6766938653855465,393.0723044344783
3639.1492,1.6797049625814422,402.6895874246989
3639.9885,1.6822241916206653,472.9722703144585
3640.826,1.6846595680491059,403.4171718673459
3641.6653,1.6870208139691412,388.36442025271293
3642.5032,1.6890125528955862,423.02811951936195
3643.343,1.6904496554472617,494.4903357190082
3644.1812,1.6913027498554893,431.0652921071887
3645.0195,1.6915345517223437,446.3024578309635
3645.86,1.6910773830791168,379.9863173852798
3646.699,1.690116823521842,389.315441597501
3647.5398,1.689237316326235,554.6914915235473
3648.379,1.6891541479454624,479.840537917542
3649.2202,1.6901923490424728,449.7164896642087
3650.0596,1.6919921887910336,406.5481360459407
3650.8994,1.6936840156116728,428.94757405662756
3651.7412,1.6943411253242258,481.1470731114689
3652.5813,1.693417052991793,415.35385297658894
3653.4236,1.6908566747573321,492.75326508954964
3654.2642,1.686814158221715,497.8751510288464
3655.1067,1.6811127861935784,433.3990671118193
3655.9475,1.6730506586871827,409.2070800021284
3656.7886,1.6616895621941907,452.1580352795506
3657.6318,1.646981345541074,443.4736368679339
3658.4734,1.6312511316467166,468.4723560724028
3659.317,1.6192805593358512,431.6410978743711
3660.1587,1.6166677465347952,454.50730951308276
3661.003,1.6262761193920294,517.3034245020292
3661.845,1.6458869659654103,449.44796413802834
3662.6875,1.6692310250089355,418.6209082008396
3663.532,1.6893861628214384,425.30256698514887
3664.3748,1.7020018225448919,444.8685271665392
3665.2197,1.7067728980417705,420.58481705118317
3666.063,1.70617067235044,510.4248310721084
3666.9084,1.703429619663324,471.95858019400805
3667.752,1.7006799652523132,424.71886926338533
3668.5977,1.6982850319999083,402.2126433818961
3669.4417,1.69554976634549,418.09442612191594
3670.286,1.6918110576864411,435.29402646868937
3671.132,1.6870908617118539,453.6423414853426
3671.9768,1.6820376319822254,460.3897660259825
3672.8235,1.6774546332421014,450.0809064227172
3673.6685,1.6740541619733937,448.72189541372916
3674.5156,1.6721726716853007,500.4467780082254
3675.3608,1.6716810361611891,426.3883613938989
3676.2063,1.6719829512034607,468.7410955076376
3677.0542,1.6722879393801644,476.108387428065
3677.9,1.671892269948194,441.1274227864263
3678.748,1.6703579337560572,455.4533781793038
3679.5945,1.667601536453232,412.80677800026024
3680.4429,1.6638986080895322,534.577043192518
3681.2896,1.6599114376876738,512.2380370578567
3682.1365,1.6565507839909017,446.62391793394283
3682.9856,1.6548252089828472,460.3120657504274
3683.8328,1.6555458748913852,484.67847880092506
3684.6824,1.6589439046628436,377.81080713583543
3685.53,1.6643717848080102,464.04603889091595
3686.38,1.6704024297460665,416.8961918893504
3687.2278,1.6752316465043051,449.4170797370547
3688.0762,1.677558128684145,395.462469136828
3688.9265,1.6770768360000443,474.96263842970626
3689.7751,1.6744411885719745,465.9629360140365
3690.626,1.6706797907970325,446.2553983796713
3691.475,1.6667315706511938,424.58163275573554
3692.3264,1.663262767887791,471.1394556950048
3693.1758,1.6607975731391877,420.4250467760302
3694.0254,1.65959622326937,381.7527270095185
3694.8772,1.6595001993193097,502.9642885760383
3695.7273,1.6599050976764422,433.19499772162476
3696.5793,1.6601473614751112,504.0724776248161
3697.43,1.660022873772406,415.84687485334155
3698.2825,1.659866574104069,480.45575950446937
3699.1333,1.6600212109713908,471.9679538737085
3699.9841,1.6602551560023129,464.43490547701197
3700.8374,1.659765437164087,426.73029975062724
3701.6887,1.6577264454373135,436.28736555538444
3702.5425,1.6537943992172814,452.9757988948996
3703.3943,1.6483043103832258,470.8669714044055
3704.2483,1.6420668616606706,453.47558237931486
3705.1003,1.636223409417589,520.7579871245835
3705.9526,1.6317977241364527,443.2705718151036
3706.8074,1.6293805528859098,411.61915739195234
3707.66,1.6289322606886778,541.6472370656579
3708.515,1.6298348495075468,519.2941384368822
3709.3682,1.6311924182196915,478.06476471850937
3710.2234,1.6321562721054497,491.22806157092174
3711.0771,1.6321590485923587,501.78413607783716
3711.9307,1.631038443244681,531.6774761231029
3712.7866,1.6289928921911687,498.21236278652975
3713.6409,1.6265394243499838,414.79677189707854
3714.4973,1.6244110550737474,481.044389482305
3715.3518,1.6234284401172956,561.9079437180078
3716.2085,1.6241339958688028,493.6546928582443
3717.0635,1.6264674654042879,443.68562528450025
3717.9185,1.629692272642025,495.60723738920217
3718.776,1.632705322802437,490.2053086454462
3719.6313,1.6345815979428797,522.542418259387
3720.489,1.6351738700693024,525.557731061875
3721.345,1.6351539322357034,478.4341651820888
3722.2031,1.6354145625714105,377.8197794078304
3723.0593,1.6362023700605763,531.940001343359
3723.9158,1.6368576451348196,438.3058360258504
3724.7747,1.6364222542575892,577.4393141724616
3725.6316,1.6344951613820518,511.3317909058491
3726.4905,1.6314871159244755,513.6557570536421
3727.348,1.628226786997924,421.41706425674283
3728.2073,1.6253708637625686,511.7370303021592
3729.065,1.62324446207585,564.7029028889862
3729.9229,1.621904384880844,477.1518923895276
3730.783,1.6212916438801388,563.6024880485732
3731.6414,1.621221960268924,504.8721095426455
3732.5017,1.62131553124156,454.3421210385395
3733.3604,1.6210222360464372,515.7671062653935
3734.2214,1.6197948850237336,436.5469564868386
3735.0803,1.6174068299997597,454.08831385416465
3735.9417,1.6141696887327799,571.5820171339548
3736.8013,1.6109043973393746,505.03121410525966
3737.661,1.6084473122471106,471.0850722384831
3738.5227,1.6071963256499653,484.0681621021909
3739.3828,1.6069848642057691,429.1894268443613
3740.245,1.6072923741014495,488.6071846663805
3741.1055,1.6075139252320896,490.16449836707415
3741.9683,1.6070453132268172,464.21877296444995
3742.829,1.6053236285330523,475.4094329285043
3743.69,1.6020316380393267,520.0519384618709
3744.5532,1.597431852425318,499.043768743958
3745.4148,1.5925929254451854,546.0124335964962
3746.2786,1.5890143424822536,585.7144138578892
3747.1404,1.5879743222083547,507.4744991167615
3748.0044,1.589781668454766,538.4441655415317
3748.8667,1.593615461420753,534.3067725845032
3749.729,1.597961848157194,464.47488647447403
3750.5938,1.6013275823099715,439.0790923164684
3751.4565,1.6028288576450567,537.8732339738208
3752.3215,1.6025592336115115,428.6131600872566
3753.1848,1.6014482116735986,503.29772600450656
3754.0503,1.600691594602247,495.8327035674919
3754.9138,1.6009292011009315,497.09019377305435
3755.7776,1.6016974101283667,413.85622252934195
3756.6438,1.6017007782284953,503.3084680984532
3757.508,1.5997749747370043,502.23047582040755
3758.3745,1.5958017868933587,577.6167006035463
3759.239,1.5908761828572324,549.2206259662806
3760.106,1.5865073428727587,496.9496246970149
3760.971,1.5837182122115323,464.4502828715306
3761.8362,1.58245828194918,423.84152934499576
3762.7036,1.581905606002537,477.66767154126285
3763.5693,1.5811923499813978,539.4561431693421
3764.437,1.5800146977318614,550.000556722633
3765.3032,1.5787123726967416,519.906947180961
3766.1714,1.5778289989351768,477.16083769608326
3767.0378,1.577667698248153,491.11256991189674
3767.9043,1.5781602887877033,489.136587927611
3768.7732,1.579068184635925,535.0210362668656
3769.6401,1.5801258687390924,571.6463210002125
3770.5095,1.581014506078602,491.9652167009279
3771.377,1.5813414024037782,534.6795859542405
3772.2466,1.5809449686105774,465.10286689359856
3773.1145,1.5802322969242917,500.2877377014361
3773.9824,1.5800478051069464,624.6481185977718
3774.8528,1.5810330447620078,539.3068106738649
3775.721,1.5830665776750765,489.3627188276462
3776.5918,1.585418629785824,545.0544133081546
3777.4604,1.5873873387654818,478.5216003348316
3778.3315,1.5889059430887909,501.6768776464969
3779.201,1.5904736059218374,543.4089665294764
3780.0703,1.5926189961834556,479.83438590729105
3780.942,1.595257136073685,515.2234226792144
3781.8118,1.5974923197724855,465.58676308122114
3782.6838,1.5981739643093207,440.2499195370303
3783.554,1.5967300493059007,532.8576232216125
3784.4265,1.5936316968235285,568.5051326642878
3785.297,1.5900317784556643,514.4499855660362
3786.168,1.5868547245225781,497.40299368733616
3787.041,1.5842704034168988,544.1907513467512
3787.912,1.5818358981136242,479.0563458887964
3788.7856,1.5789460613340451,534.6633523945309
3789.6572,1.5753011243759152,473.6533831978491
3790.531,1.5710241759955765,462.22306271145175
3791.403,1.5666908251080502,465.4194176547223
3792.2754,1.5629996230025305,498.88159485235775
3793.15,1.5603740435579558,498.3865277632904
3794.0225,1.558627862662427,537.5569134490738
3794.8972,1.5569531944689898,453.48117396268765
3795.7703,1.554404898913594,458.5142030603997
3796.6455,1.550444063264722,555.6157851231033
3797.519,1.5453439526402184,519.0450198709498
3798.3926,1.540083118434058,563.5651638354304
3799.2686,1.5360005898454097,544.9226178645612
3800.1426,1.534366242602176,626.3579403817971
3801.0188,1.5359210981255809,536.3507342188334
3801.8933,1.5406550053121297,498.9877949364791
3802.77,1.5478099217418846,492.29375815581506
3803.6448,1.5560872177647609,507.0588084332268
3804.522,1.564320229961611,434.8472920217313
3805.3972,1.5718235362079036,614.6779679696521
3806.2727,1.5786028474000424,424.9088710852354
3807.1504,1.5848760469762908,429.8152513127985
3808.0261,1.5905533946020818,458.3401873422077
3808.9043,1.595215617325314,459.5917502240343
3809.7805,1.598310076856384,519.025315673929
3810.659,1.5996555047791081,458.7546461468851
3811.5356,1.5995598508301179,482.3742260481225
3812.4126,1.5986646270402423,545.1444138802124
3813.2917,1.5975334575617925,477.9068817425282
3814.169,1.596387821143134,542.2332392421293
3815.0483,1.595153506232687,538.6059873799103
3815.926,1.5937812731562349,451.5580361838621
3816.806,1.5923707432792575,479.8734478967636
3817.684,1.59099664966228,495.69799628911227
3818.5623,1.589448378308768,513.8484856280497
3819.4429,1.5873621590314937,426.93763129095305
3820.3215,1.5846231556496135,505.26540660576825
3821.2024,1.5814115198331893,535.254974850888
3822.0815,1.5778201051377603,533.38795670659
3822.963,1.573354883923002,492.2339770830146
3823.8423,1.5671806569236655,449.5795767794035
3824.722,1.5588023787174397,553.783934285244
3825.604,1.5487113958642464,527.1568027867361
3826.4841,1.5383754955319544,493.7663761359914
3827.3665,1.5292374767735715,518.9644480158214
3828.2468,1.5219700562436154,569.2341148133769
3829.1296,1.5159709518010727,473.56679618005444
3830.0105,1.509961145474054,501.0116300886475
3830.8916,1.5027162225516315,580.9816865690976
3831.7751,1.4937542985207615,626.0390006016389
3832.6565,1.4835710430366333,543.7249216165596
3833.5403,1.4732013320178239,617.2696796031234
3834.4224,1.4639931301559563,539.585074465793
3835.3064,1.4570762558045225,562.4831720123633
3836.1887,1.4532914880995493,574.1989793293988
3837.0713,1.4529557392602472,550.0322009231616
3837.956,1.4559337772953174,715.2254280133866
3838.839,1.461731957441139,588.8261929203704
3839.7244,1.4697392927537383,692.436453165323
3840.6077,1.4791705035343599,536.4279911024136
3841.4932,1.489168327019959,522.7468703340676
3842.377,1.4987791698270068,538.9398381389832
3843.261,1.5074746585772727,545.8140330226604
3844.1472,1.5153597385877964,541.8231800288753
3845.0315,1.5230290830587518,513.70555028222
3845.9182,1.5313292595115982,461.29879178963154
3846.803,1.5408719142409295,547.0593482425809
3847.69,1.5520126942619215,536.2034931450426
3848.5752,1.5645078374918786,525.8462702425463
3849.4604,1.5775553175511297,479.725317734251
3850.3481,1.5899028131741675,507.07034822255343
3851.234,1.6003211244523652,473.8007878339858
3852.122,1.6085122400142704,469.99295991119885
3853.0083,1.6151451983676441,475.82665660485475
3853.8967,1.6215123604462174,454.42864312420096
3854.7832,1.6285007738431896,430.54675887393404
3855.6702,1.6361443207427842,463.2745024180647
3856.559,1.6437097912114287,407.7256530099205
3857.4463,1.6502381004427071,497.83536259866423
3858.336,1.6551421056878355,447.2840561341908
3859.2234,1.6582005550368573,355.73135052252394
3860.1135,1.659466820258221,456.85042066614295
3861.0015,1.6590057723475573,427.26551251806336
3861.8896,1.6569196525098724,446.9924314355087
3862.7803,1.6534873019349112,483.58920926880563
3863.6687,1.6493419336066986,446.4168883304788
3864.5598,1.6452571894124621,483.4476113477918
3865.4487,1.6418085640569484,519.648302551422
3866.34,1.638929959859016,490.9534768610024
3867.2297,1.6360258518554278,451.73176521379384
3868.1213,1.632317560827243,468.66983721224847
3869.0112,1.6272969143366662,490.2654258388496
3869.9014,1.6207482372689055,454.9596278804452
3870.7937,1.6125806854608613,482.04164426663806
3871.684,1.602795024108305,469.29812122395316
3872.577,1.5914583164446872,496.7611075957052
3873.4678,1.5790298059777503,456.41490008785667
3874.361,1.5660155590235996,545.5891737480881
3875.2524,1.5528667261526987,545.4514220935563
3876.1438,1.5395434473397587,465.1168395965226
3877.0376,1.5257033231389205,600.6752604300608
3877.9297,1.5111144728131845,567.8758993534898
3878.8237,1.495658652711553,540.3864289915282
3879.716,1.4796025318564467,715.6334678266653
3880.6108,1.4631942002238478,663.4765569278951
3881.5037,1.4467518151701317,631.8239213870385
3882.3965,1.4302411252216223,576.7587516190345
3883.2917,1.4133733641737156,548.5686324319126
3884.185,1.395914985075647,642.338357916383
3885.0808,1.3776914732403331,595.7795501346075
3885.9746,1.3591927068558618,702.8856191114534
3886.8706,1.3412109710838744,710.3755915240872
3887.765,1.324865509248921,749.3853840781235
3888.6592,1.311068034958361,755.5164415668459
3889.556,1.3007565333139024,712.3289781055997
3890.4507,1.2951624696602604,803.2651358008039
3891.348,1.2953850776539573,720.2137549844739
3892.243,1.30170993698847,735.4756840930705
3893.1406,1.313107217316928,718.1158447718456
3894.0361,1.3275648152761494,690.3099877542635
3894.932,1.3434667779409948,711.31475799812
3895.83,1.3604400314903136,703.254502477126
3896.7263,1.3790873764120617,757.2715854538344
3897.625,1.4003141480039005,725.5491807097274
3898.5215,1.4240225341529398,677.1258765684026
3899.4207,1.449388036720466,586.3982871978087
3900.3176,1.4748734192328703,613.4842137348004
3901.2148,1.4993057820343876,586.4849601879707
3902.1145,1.5219104413450693,563.7166268228467
3903.0122,1.5420984581479247,536.3253304501865
3903.912,1.5597374703152318,549.8230583179185
3904.8103,1.5748363033184751,483.7293960636015
3905.7107,1.588013697739018,504.88371923034254
3906.6094,1.6002326375598441,552.4516712066769
3907.508,1.6126736692075514,466.42369446804105
3908.409,1.6261306921798127,503.24236483408805
3909.308,1.6405856460211465,476.39804904061873
3910.2097,1.6555732156301668,447.7511144680005
3911.1091,1.6703831284999644,411.1344184539534
3912.011,1.6847166575261239,427.61565468855
3912.9111,1.6983907270720675,475.5183398926282
3913.8113,1.711346464280593,429.07432571659257
3914.7136,1.7234402904820105,415.08359471120195
3915.6143,1.7345088344718462,396.326510851193
3916.517,1.7447401691145945,495.10067019857496
3917.4182,1.7543744955171567,384.33852263338883
3918.3215,1.763500065030999,394.24547399434226
3919.223,1.7716707653287642,417.2473568213501
3920.1245,1.7783504424740293,351.0690493125804
3921.0286,1.7833764337344382,403.78523720168994
3921.9307,1.7871364938030383,417.9889961166782
3922.835,1.7903050200348243,382.40634879217686
3923.7373,1.7932978832597741,350.5825337771727
3924.642,1.7962012405361558,415.54014327380855
3925.5452,1.7988708787557626,407.1923567438883
3926.448,1.8011186271511535,342.12607712197973
3927.3535,1.802735206830751,378.24165085244323
3928.257,1.803555888234618,388.1900000659242
3929.1628,1.8035847472987185,367.8661983768266
3930.0667,1.8029018550112008,376.92246170833386
3930.9731,1.8014024856859372,416.8393582008066
3931.8774,1.7986751209469916,428.85694429220973
3932.782,1.794238213164075,400.16108780068373
3933.6887,1.7880399394980735,405.1857505757393
3934.5938,1.7807540026786484,385.64585405962634
3935.501,1.7733450276619482,464.34510428591517
