wavl,flux,ivar
3566.9744,0.19531523738146983,1970.642569939389
3567.795,0.1972345877803556,2337.6682462960816
3568.6177,0.19857939559751478,4183.0760498661875
3569.4385,0.1995061363864719,6510.140914199024
3570.2617,0.20061164421563546,3199.322143808694
3571.083,0.20236471029185613,3514.9189514073487
3571.9065,0.2045681184164506,5888.935398628935
3572.7283,0.20632545610078454,11973.441582526142
3573.55,0.20671033761425903,1485.3255598806088
3574.374,0.20541352088713646,3286.4436623236643
3575.1963,0.20288547094178913,2973.514854888449
3576.0208,0.1998885905691446,3156.635972485975
3576.8435,0.1970346194151521,5218.207943440821
3577.6682,0.19451665782566202,6449.220421057458
3578.4915,0.19224904506662496,2114.5026905365144
3579.3145,0.19004316485202208,2635.313146189046
3580.14,0.1877651189919851,11518.440055225667
3580.9636,0.18537709217277795,11347.178982778696
3581.7893,0.18287206852367577,2665.268004958435
3582.6133,0.18036237881095957,39737.775625085815
3583.4395,0.1781565558517708,1270.318467555102
3584.264,0.1768901855277896,8138.588198417235
3585.0884,0.1774002653425743,3981.24540910805
3585.915,0.18040021923223137,3356.8491468871803
3586.74,0.18587465382291615,6859.140769380171
3587.5671,0.19275875231016878,6943.186630716544
3588.3923,0.19917742918304585,2266.204560901478
3589.22,0.20358020737825122,4309.4597354251655
3590.0457,0.20549960004908158,3390.3063154704173
3590.8716,0.2055840500873655,5447.143459533378
3591.6995,0.20477254556271693,2002.160519403069
3592.526,0.20373398804783538,2383.735961821357
3593.3542,0.20286285146195468,4174.753931923833
3594.181,0.20247554376678262,9474.767019189454
3595.0098,0.20271479730984118,3553.9853522848384
3595.8367,0.20336088833001317,3700.199462751704
3596.6638,0.20388823172931209,3037.0623468328245
3597.4934,0.2037415027628158,8983.044878120354
3598.3208,0.20254481447402267,4246.449178517538
3599.1506,0.20012697297005502,2846.6584805741822
3599.9788,0.19659671910504467,7243.323382990686
3600.8088,0.19245446568652683,5925.03427377836
3601.6372,0.18869399765372186,31515.65727545986
3602.4678,0.18640091328299924,10111.562236960772
3603.2964,0.1861995686765707,7261.99165994967
3604.1252,0.18783069125526028,3372.9959107142504
3604.9565,0.1904222644300804,1991.5828873095102
3605.786,0.19307214909970524,4443.9844793027605
3606.6172,0.19528627656206488,5063.035834267411
3607.447,0.1968300737681434,2817.3013139562786
3608.2788,0.19753572720652102,5615.748483109103
3609.109,0.1973263582680878,3977.0831775837864
3609.9392,0.1964024007045013,3898.46126919428
3610.7717,0.19514544164875067,2099.155284875007
3611.6023,0.19383329980041838,12873.286036905412
3612.435,0.19250993735979036,8330.057181155636
3613.266,0.19124185321799617,2493.8655330844263
3614.0994,0.19030105183709153,5635.376600251255
3614.9307,0.19001792226026695,8670.012957156036
3615.7625,0.19041306574118838,4772.232860550798
3616.5962,0.19115303227183478,2335.4969878203783
3617.4282,0.1918607759497067,3060.4294173613666
3618.2625,0.19243463274410955,3598.3310791842414
3619.0947,0.19303088623614184,2288.3655666926097
3619.9292,0.19386494960312545,3133.570148289208
3620.762,0.19498873968942587,2506.34866301944
3621.595,0.19616829682164566,3280.301723915004
3622.4302,0.19688146080255567,5383.991242314696
3623.2634,0.1965510251506174,2467.766263916629
3624.0989,0.1949175237491093,1960.1500596853687
3624.9326,0.19224331775513784,1668.4315631185143
3625.7686,0.18915121034740176,8763.261418317335
3626.6028,0.1863541328177822,14922.185079575733
3627.437,0.1843221808161903,6851.131857549454
3628.2734,0.1831054742925072,6776.1100393921115
3629.1082,0.1822318759951428,13844.520488287679
3629.945,0.18080273454034165,2047.6325191644594
3630.78,0.17795424235905097,2172.830913626856
3631.6174,0.17338896992239652,2488.573556657274
3632.453,0.16775997141311838,40444.58191199144
3633.2883,0.16240113502536496,6511.814747983311
3634.1262,0.15872069134092093,6286.439717514685
3634.9622,0.15749295771543786,7224.0928821189755
3635.8005,0.1584073545833909,2322.633134431647
3636.637,0.16032549876203878,8647.814731621735
3637.4756,0.1620013914342237,4288.84752741711
3638.3123,0.16273636188484178,6542.525293586808
3639.1492,0.1625711804140435,8340.656937563896
3639.9885,0.16192851673133823,5729.999852324073
3640.826,0.16121339264293294,13377.779555980373
3641.6653,0.16064734820823312,5243.360298361486
3642.5032,0.16032795935941008,6742.457924556861
3643.343,0.16024453181997564,4557.742039430077
3644.1812,0.16024780914589806,2417.8488320150736
3645.0195,0.16010218373694138,9689.825621806223
3645.86,0.15968420133978925,8517.75262034128
3646.699,0.15916572603652734,2672.721179004086
3647.5398,0.1589547433916926,8757.144876207076
3648.379,0.15941119325792102,4815.851174262267
3649.2202,0.1605706913081764,5655.255600416349
3650.0596,0.1621320327129706,5369.057312068035
3650.8994,0.16374284926433438,36171.12423977275
3651.7412,0.16525067045043867,4268.104616913421
3652.5813,0.1666817997686835,2763.6833087594428
3653.4236,0.1680067950232986,4334.6317864886305
3654.2642,0.16892771537034437,2822.7335560331276
3655.1067,0.16904303534394052,3219.148638313965
3655.9475,0.1681965370038215,3423.763351541987
3656.7886,0.16667284434778862,65899.7204805561
3657.6318,0.1650035096932228,3965.495511983975
3658.4734,0.16363943577555387,8665.662166762044
3659.317,0.16275540089736049,2202.2635611746173
3660.1587,0.16229081393805167,24011.86870531415
3661.003,0.16195975879829247,12503.713358854267
3661.845,0.16134362705783917,6003.479137981241
3662.6875,0.16019991480177848,3292.0347291111084
3663.532,0.15883535196300907,6439.226456009846
3664.3748,0.15805967188667722,4912.187843942293
3665.2197,0.1585557907632234,3452.101206226197
3666.063,0.16025849595940686,3032.692069774723
3666.9084,0.16236254686450605,4799.4890619574135
3667.752,0.16393488065253267,4340.188309666749
3668.5977,0.1645892124160394,6575.657200307054
3669.4417,0.1645526584564433,4934.4661840869885
3670.286,0.16430898265238453,3099.4278892508137
3671.132,0.16423072945072642,2805.9417489191937
3671.9768,0.16448469877193575,3486.0425525511873
3672.8235,0.16506627829459322,7322.694737720505
3673.6685,0.16580215309526364,6333.202662506215
3674.5156,0.1663825336589044,5061.355151918902
3675.3608,0.1664813842301185,12336.686037151096
3676.2063,0.16595116150014014,13286.761380860835
3677.0542,0.1649146555842522,8226.84975019301
3677.9,0.1637381100820284,1732.0608052747332
3678.748,0.16286725229918905,10845.869109444133
3679.5945,0.16268012135081014,7722.320174383248
3680.4429,0.16333355864379875,4330.216453399457
3681.2896,0.164677210052961,5416.327913086169
3682.1365,0.1662536899448209,6913.87243835677
3682.9856,0.1674396876721679,3027.07929840435
3683.8328,0.16775098691223214,2307.320447988119
3684.6824,0.16717650135924075,6639.040578663261
3685.53,0.16621484475266907,5093.524060593691
3686.38,0.16553467520606266,6954.432441805309
3687.2278,0.16550476329732142,7322.648589312177
3688.0762,0.16588881630290697,8329.709508442158
3688.9265,0.16591946844248143,4015.8447762429114
3689.7751,0.16469907329860656,6287.613169880387
3690.626,0.16178303281335904,5732.771437462511
3691.475,0.15769829342689629,8464.639280731397
3692.3264,0.15389781251710358,3464.507807161909
3693.1758,0.15212197420963222,5664.79770671791
3694.0254,0.1532757040554584,15331.514847607283
3694.8772,0.15687023809596579,3642.933546457445
3695.7273,0.16134515350852635,2118.191113058452
3696.5793,0.16516949735591008,3087.4952485843596
3697.43,0.16757367194998324,5004.404471778188
3698.2825,0.1685916686993127,4701.4510984368235
3699.1333,0.16849886999215216,3541.680242185947
3699.9841,0.16748086445206908,3281.2496851505484
3700.8374,0.16570152921714754,3873.252417802697
3701.6887,0.16352879999531897,14014.714032551492
3702.5425,0.16145584170252986,6822.293982187983
3703.3943,0.15989295884995647,12855.768912824946
3704.2483,0.1589642739783927,4963.203682286907
3705.1003,0.15857055162655642,5790.079728364337
3705.9526,0.15849089670737002,5501.876154308939
3706.8074,0.15848059871138873,13898.52438539562
3707.66,0.1582941120632076,4338.98815521364
3708.515,0.1576783054001144,6330.623667161375
3709.3682,0.15641464790473011,3467.9958954555805
3710.2234,0.15444657463056585,6206.1873382676
3711.0771,0.15207894544241216,3953.9044084305306
3711.9307,0.14998067808831458,23792.620172271225
3712.7866,0.14895158388627414,13067.204394555809
3713.6409,0.14951315057855638,3035.3622491128995
3714.4973,0.15155015249212184,4922.262982276255
3715.3518,0.15427589804922653,3984.1033512167483
3716.2085,0.15663897004940447,5246.229039422908
3717.0635,0.15787673679548084,3083.9022599719588
3717.9185,0.15798710914892528,5474.63972424385
3718.776,0.15764315439165824,4568.020256324624
3719.6313,0.15765492211999968,17951.454551467352
3720.489,0.15833542842418308,6166.129445128226
3721.345,0.1592922146882238,3452.7306218788226
3722.2031,0.1597940706971065,2595.0024827676775
3723.0593,0.15932653108405903,2273.674201729905
3723.9158,0.15789738105384832,3685.2900030279498
3724.7747,0.1559083435729308,14864.280519850778
3725.6316,0.1538798552723454,10061.626303837746
3726.4905,0.15220332150666324,7690.783610903278
3727.348,0.15112761866678304,3644.950747591793
3728.2073,0.15077973892043503,3934.0015978513406
3729.065,0.1512157292659877,8383.453260295493
3729.9229,0.1523724464237129,4121.583461090697
3730.783,0.15399387285121108,12824.233213890917
3731.6414,0.1556270051002362,2738.5102650487897
3732.5017,0.15683915496203696,2647.4054691428314
3733.3604,0.15742630233306096,5243.982027958908
3734.2214,0.1574793991692335,8582.85936832843
3735.0803,0.15721304030666192,2997.9688516042534
3735.9417,0.1567922570042561,6465.95770739308
3736.8013,0.15629589523913945,5232.6501167384295
3737.661,0.15578270486075907,3915.9115619201666
3738.5227,0.15538000800304835,5548.0183347754955
3739.3828,0.15530056947524817,9809.595383664426
3740.245,0.15572625330415413,7262.904962456071
3741.1055,0.15663462624492755,5620.915490723188
3741.9683,0.15777042992700854,4650.976912904473
3742.829,0.15884394074025265,19043.51092704985
3743.69,0.15983693643209346,6777.893808684671
3744.5532,0.16102956495700393,3984.3918774648164
3745.4148,0.16268121152205836,8649.485619763012
3746.2786,0.16469356458313225,3624.192253682181
3747.1404,0.16655407134619463,4715.516725314259
3748.0044,0.16771711246027401,12865.25092195121
3748.8667,0.16794450735528835,2058.4101569541763
3749.729,0.16736865434987694,6880.570391863728
3750.5938,0.1662192721941336,5823.555005151072
3751.4565,0.16463843934549854,8070.76872029249
3752.3215,0.16274661198157345,6924.274306591979
3753.1848,0.16087753322161727,5905.406905591712
3754.0503,0.1595166373775785,25086.616875671265
3754.9138,0.1589924808767909,2403.648141929567
3755.7776,0.1591383216132984,4021.7580594114647
3756.6438,0.15936259482958992,5811.5203893219095
3757.508,0.15904718006574686,4621.016849554674
3758.3745,0.15798281049425342,6551.173991952928
3759.239,0.15653045095411566,4373.8371194819065
3760.106,0.15539774346582919,5813.300681600462
3760.971,0.15522791441381256,3944.7927460464607
3761.8362,0.15618291599226167,4257.166859405398
3762.7036,0.15786411764437952,6647.230632341408
3763.5693,0.15956084581999658,4305.852194494123
3764.437,0.16070259882401217,6395.017108461405
3765.3032,0.16109899401647684,4143.826137655806
3766.1714,0.1609095579624542,4639.859415340829
3767.0378,0.1603918122623423,4002.7606543234706
3767.9043,0.15968748839594055,7154.010407055371
3768.7732,0.1587844186895598,4274.843141232952
3769.6401,0.15765108893607943,3671.776770199634
3770.5095,0.15638228708439647,5805.342151708409
3771.377,0.1553128556584378,4205.637112574807
3772.2466,0.15497375892190976,7077.580289965805
3773.1145,0.1559383956380946,5262.5680430144275
3773.9824,0.15847238289335622,11100.011339183204
3774.8528,0.16218027505835766,5099.26321314748
3775.721,0.16589971954014368,4315.859353954427
3776.5918,0.16825630106204711,1949.3761477198352
3777.4604,0.16837444928752884,8843.317774839112
3778.3315,0.16639051562935553,9340.796812069128
3779.201,0.1632706476201254,5370.639639172828
3780.0703,0.16019931136259863,5086.093200801715
3780.942,0.1580463198050547,4423.9047664467935
3781.8118,0.1571548421009339,8578.19520473936
3782.6838,0.15736490819211904,22266.717382123425
3783.554,0.158221721684134,9874.576773455234
3784.4265,0.15919561462194665,5508.978523914655
3785.297,0.15985978803850623,7825.696991282886
3786.168,0.16002693234503187,6715.284541908943
3787.041,0.15975595907521592,5546.75543915833
3787.912,0.15926105933089846,6325.951370234229
3788.7856,0.15874317836890267,4918.19501964315
3789.6572,0.15828117787464346,5222.105240594344
3790.531,0.15782827699797555,5255.02107195064
3791.403,0.1573048087138502,5120.0300701305705
3792.2754,0.15664988334886334,6777.4022006344
3793.15,0.1558241491124244,5304.492430837964
3794.0225,0.15480430790378163,6332.821270092092
3794.8972,0.15357961236307702,4017.4550602372647
3795.7703,0.15219894675298828,5073.312626971629
3796.6455,0.15076322277370424,5954.005897057558
3797.519,0.14942377744089144,6970.5300332674105
3798.3926,0.14831654539594583,15287.58471253737
3799.2686,0.14757058459887198,6688.255852587184
3800.1426,0.14735792830196848,7128.4866082207445
3801.0188,0.1478770554451368,4283.9094170971875
3801.8933,0.14921314781642417,13813.897641173773
3802.77,0.1511523266718276,7514.296687678259
3803.6448,0.15312975171496682,4582.688368301666
3804.522,0.1545317982254436,3079.109186625419
3805.3972,0.1550931257971273,3324.0074272532283
3806.2727,0.15514206518988347,5435.692667664104
3807.1504,0.1553425017734434,6042.218757171749
3808.0261,0.15614956785706033,3496.85879708266
3808.9043,0.1574023155234953,7104.851552239639
3809.7805,0.1583406502458655,12929.142587193333
3810.659,0.15808256358105463,4210.785292259938
3811.5356,0.15624708927059097,8910.084246667477
3812.4126,0.15337731871326596,6096.597905757242
3813.2917,0.1507757259706811,9213.969643186103
3814.169,0.14976502187775106,4298.971640252505
3815.0483,0.15082252738201382,4351.466771735424
3815.926,0.15338517858219022,7369.518068522912
3816.806,0.1563850420478144,9105.049815671227
3817.684,0.1589051625494338,5149.116975574377
3818.5623,0.16052716133123984,8897.960049585057
3819.4429,0.16120261739193498,7709.393717858176
3820.3215,0.1610564105816434,5793.067151915591
3821.2024,0.16029383967857846,10114.582731630637
3822.0815,0.15916420895484737,3136.450589102391
3822.963,0.15790712816679014,3992.8525900542395
3823.8423,0.15671488279774592,10612.697273900783
3824.722,0.15567609288690695,3443.1923034702954
3825.604,0.15478628239110762,5527.275171825508
3826.4841,0.1539863472819389,7482.160588607345
3827.3665,0.153192831777814,8684.997251852195
3828.2468,0.152344266990637,8834.964784702857
3829.1296,0.15139121818564052,6118.88055407029
3830.0105,0.15031060071432148,3775.071297975627
3830.8916,0.14908889443322004,5560.00899329751
3831.7751,0.14771867314915071,4005.1142984736493
3832.6565,0.146194261893956,7224.3011738108535
3833.5403,0.14449742917098457,3468.2715315953556
3834.4224,0.14269083287663742,10239.3399967148
3835.3064,0.14095198065246883,6937.34754947461
3836.1887,0.1395784911191998,18565.53742823065
3837.0713,0.1388151318696652,8023.807393401243
3837.956,0.1386970553015667,6443.460482116406
3838.839,0.13902074724720495,9259.804335925819
3839.7244,0.13953573635309044,6491.300260394901
3840.6077,0.14018497087689252,9666.766666458494
3841.4932,0.1411669178760641,21462.81310273659
3842.377,0.14273376719915706,12012.593112460325
3843.261,0.14494896278841493,8414.502280200955
3844.1472,0.14755249729102793,5143.412959139095
3845.0315,0.15001032053995206,14363.361472734237
3845.9182,0.15181975839177303,5124.68617142682
3846.803,0.15278606994577903,3714.7623723203465
3847.69,0.15319165154721556,5927.002402058423
3848.5752,0.15358125169326398,7486.558595108356
3849.4604,0.1543980965670499,8271.322781751589
3850.3481,0.15574272352764143,3462.6120809908607
3851.234,0.15740901985711347,5264.540143910129
3852.122,0.15913628388862475,5527.788226189288
3853.0083,0.16076602394253695,4799.947063600598
3853.8967,0.16230602064459218,3312.6705007391347
3854.7832,0.16380787760846452,3216.3065160348865
3855.6702,0.1652785118930655,8179.48064461678
3856.559,0.16661477179539586,5522.31948365705
3857.4463,0.16763199033561366,4894.179070807455
3858.336,0.16816360836539043,9732.748484917902
3859.2234,0.16813257886767866,4586.779181129953
3860.1135,0.16762540516642696,4086.7995892350173
3861.0015,0.16688941865177548,6287.435210971381
3861.8896,0.16621235564950843,6908.604903510231
3862.7803,0.1657500587321322,6173.280199358411
3863.6687,0.1654352511098547,6263.460593857258
3864.5598,0.1650620556533463,2874.6508893108617
3865.4487,0.16450411086663186,3321.865215418996
3866.34,0.16383502965890043,7453.889315708692
3867.2297,0.16325919567137034,2773.6386498041447
3868.1213,0.16288620743519694,12565.576023696127
3869.0112,0.16260507087949747,6088.28464583949
3869.9014,0.16215883332568656,2324.2999713652207
3870.7937,0.16134625113312093,6218.785554229586
3871.684,0.1601550609117235,4991.534188547396
3872.577,0.15873097850046877,4783.614666768023
3873.4678,0.15731207760966381,7465.542902796083
3874.361,0.15608756845702043,5348.2003752311375
3875.2524,0.15509581725405858,5063.2418093095275
3876.1438,0.15416567336112916,4760.054360715467
3877.0376,0.1530753475000455,6355.276081438948
3877.9297,0.15177597252561104,5521.7621384287
3878.8237,0.15039365338159974,4441.176076317224
3879.716,0.1490183335100017,8048.667634183961
3880.6108,0.14745874790954702,5162.018433998892
3881.5037,0.14532681502187245,5403.13567771694
3882.3965,0.14231917678790418,4744.908807468813
3883.2917,0.13849378954160846,5447.706745721583
3884.185,0.13431805094614854,6418.032743040486
3885.0808,0.13035381256835082,6335.086129380879
3885.9746,0.12704906698845309,20478.9871740049
3886.8706,0.12455891713983894,8069.31200066628
3887.765,0.12289578078672081,8518.58269526561
3888.6592,0.12203560721088287,6726.5482989781785
3889.556,0.12201090174093653,20554.412525629774
3890.4507,0.12284974818203158,11864.874995708054
3891.348,0.12446641824083517,8487.7805710856
3892.243,0.12660086757726952,7063.254688271768
3893.1406,0.1289515728465737,13020.624164271721
3894.0361,0.13129948126401353,7581.552656159971
3894.932,0.13360923621794346,19412.574733012978
3895.83,0.1358917618376719,10710.926986789427
3896.7263,0.13802305127078923,5241.293132242571
3897.625,0.13977017702008945,7914.042700073335
3898.5215,0.1409583633421889,6262.401380143594
3899.4207,0.14176540799212276,9913.545501898177
3900.3176,0.14274935597124275,9499.210805479253
3901.2148,0.14460099825120334,6239.0436051392835
3902.1145,0.14771692368740713,4317.525546190576
3903.0122,0.15188627018477407,4284.693160840021
3903.912,0.15642980387733682,3668.319749715616
3904.8103,0.16052493527111195,5824.924323171272
3905.7107,0.16369487709544578,8578.919649564217
3906.6094,0.16592006557388023,4338.494226714125
3907.508,0.1675802767631448,3537.943914794643
3908.409,0.16916174993639957,4494.10403880349
3909.308,0.17097307815790466,2566.6977226780773
3910.2097,0.17301387020175713,2408.579610088961
3911.1091,0.17499372926738638,5234.0458089401345
3912.011,0.17659638876408157,5502.8587694186335
3912.9111,0.17766775676878246,3347.997166902069
3913.8113,0.1783167341389731,3718.055240212196
3914.7136,0.17881521924443894,4156.515861994333
3915.6143,0.1794385670715835,3347.049998529768
3916.517,0.18032301776403242,8805.394365061982
3917.4182,0.18137648595927844,5140.347366454566
3918.3215,0.18235144265739694,3617.868541879191
3919.223,0.18301232960999625,4438.342576751681
3920.1245,0.183323865439579,2647.9274603119547
3921.0286,0.18344211941710734,2711.492106194145
3921.9307,0.1835508406537663,4711.483369353744
3922.835,0.1837205625253652,5677.56787301274
3923.7373,0.18393403718410262,2915.5350759388075
3924.642,0.18419912661695315,5338.839463503739
3925.5452,0.18454610906538235,3417.043865090336
3926.448,0.18492069426542343,4566.820986513687
3927.3535,0.18514429859180956,3376.3772513790414
