wavl,flux,ivar
3566.9744,0.3091052126379443,1605.3775682919286
3567.795,0.3056383676830901,1708.4640827081457
3568.6177,0.30100853994403526,2596.376933986526
3569.4385,0.2962613315732694,1605.5934592498463
3570.2617,0.2920955652024353,2680.2535292859716
3571.083,0.2889339800623825,3542.3941733775373
3571.9065,0.2871239190722614,1153.814227746534
3572.7283,0.287067373848563,1598.146030923599
3573.55,0.2888422942821583,2091.9706554811078
3574.374,0.291937996246098,1538.5649618556013
3575.1963,0.295443497006254,799.5320112645807
3576.0208,0.29868412942786354,1769.1341856777788
3576.8435,0.30149738375844004,993.6062792246598
3577.6682,0.30409188350688715,960.3448200976603
3578.4915,0.3065467274506921,1962.6451677536618
3579.3145,0.3085693269750392,2377.0521719164713
3580.14,0.30950740625128825,1443.810199093625
3580.9636,0.3086365856538071,1037.3002176920213
3581.7893,0.3056587336289796,787.9558422112593
3582.6133,0.30115503183579534,1689.131199948668
3583.4395,0.29649490884756224,2933.8674824935188
3584.264,0.29323858176463274,1990.3488012749576
3585.0884,0.2922380827909727,1248.2085843029802
3585.915,0.2933750436165389,1909.6890321387577
3586.74,0.29585572315966707,1977.5172001309786
3587.5671,0.29874736422445325,1206.7347856868012
3588.3923,0.3012325897193043,1222.7986736274934
3589.22,0.30272916327819777,2281.173495481176
3590.0457,0.30288344010397267,1703.9001110234528
3590.8716,0.30166253888580813,1168.4459509004894
3591.6995,0.29935567415076303,1561.3852353882855
3592.526,0.296561680835489,1384.1390909930851
3593.3542,0.2940090488521769,2373.866670010387
3594.181,0.2923092721144483,1554.7024443457944
3595.0098,0.29161508333353553,1118.8624957607449
3595.8367,0.2916148177731402,3112.724335694308
3596.6638,0.2918631458278935,1445.2113945390797
3597.4934,0.2922301036204977,1782.1729498450932
3598.3208,0.29297830484707055,1554.7799182183167
3599.1506,0.29438140965162535,2771.140123316876
3599.9788,0.29622864617176603,3153.80334088798
3600.8088,0.2978238700335729,1457.9585256108664
3601.6372,0.2984771679354521,1361.1446538292507
3602.4678,0.29808590711213856,2246.4383185156066
3603.2964,0.29716540652480145,1203.1826262741122
3604.1252,0.29636418701592954,1599.74344608837
3604.9565,0.2959496494800184,2168.529149424763
3605.786,0.29567835392563946,1035.5131260135113
3606.6172,0.29506371526645114,1146.7684616074232
3607.447,0.29380475818948987,2209.2992670862686
3608.2788,0.29201100822800513,3925.309141647916
3609.109,0.29010118257555784,6367.507032019855
3609.9392,0.28842340128208993,1642.8239733920839
3610.7717,0.28703683705436756,2005.2364741480878
3611.6023,0.28582380539315644,1839.1520242748686
3612.435,0.28474115898537566,18708.71449403234
3613.266,0.2839704949278308,1492.6386208593551
3614.0994,0.2837779762061977,1430.034848690657
3614.9307,0.28431436785736713,1453.3504925708562
3615.7625,0.28547729077558426,2282.592718711938
3616.5962,0.286908844509244,2683.952829882017
3617.4282,0.2880927470367268,1583.679586726137
3618.2625,0.2885944084607776,2113.4824915302115
3619.0947,0.288293135582317,1303.689458047308
3619.9292,0.28750112623001745,1378.597642819281
3620.762,0.2868128970524466,1840.8840635025063
3621.595,0.2867480433496247,1456.0388952161627
3622.4302,0.28743731131383676,2056.907806764065
3623.2634,0.2885161989167453,4884.299976003692
3624.0989,0.2893515110397658,2721.073965368407
3624.9326,0.2894476299093089,2234.0548957737747
3625.7686,0.288792597364381,1576.7983717276763
3626.6028,0.2878301349949131,1723.9068124538962
3627.437,0.28710739983332456,1545.6699500028362
3628.2734,0.28694406656568744,3319.412473689148
3629.1082,0.2873360915545939,1556.8623087032013
3629.945,0.28803762434903557,2546.085048864618
3630.78,0.2886709866537854,1265.7161066733368
3631.6174,0.2888559824057437,2726.3407242093162
3632.453,0.2883595318685043,1040.0657217336623
3633.2883,0.28724137241402925,1806.922308597477
3634.1262,0.28584397900187325,1542.8859093613537
3634.9622,0.2846482757381346,1619.8394782942266
3635.8005,0.2840753337749637,2389.636171440609
3636.637,0.2844573795532866,1721.7926132959026
3637.4756,0.2860333523707598,2229.1861668684573
3638.3123,0.2888279667932796,2065.8754506410587
3639.1492,0.29247197994973084,2584.1484356690144
3639.9885,0.2961638392563473,1108.9121167097364
3640.826,0.29894437584568245,1877.5490980168038
3641.6653,0.3002464895985154,1057.9336412422563
3642.5032,0.30010839574389714,1627.827555245998
3643.343,0.29899883949569594,1691.4680495399343
3644.1812,0.29737563811469064,1235.1893428541355
3645.0195,0.29545038299171883,1683.1192724870807
3645.86,0.2933529168876683,2042.9882457649746
3646.699,0.29138253163147027,1425.259827707154
3647.5398,0.2899298927263574,1079.5577344857472
3648.379,0.2892390469521875,2029.656543428578
3649.2202,0.2892162884398902,1675.3375732085813
3650.0596,0.28954370792549516,1911.149675719849
3650.8994,0.2899356896235543,1485.6950951053436
3651.7412,0.29035029372185484,1109.939720295682
3652.5813,0.29100528462274494,1559.89206779567
3653.4236,0.2921946704582462,1366.174794037798
3654.2642,0.2939951783804293,1580.0670423151166
3655.1067,0.29614318048737337,1622.7016239642078
3655.9475,0.2981270033431819,1184.086164631927
3656.7886,0.29947939756850256,1630.252859309505
3657.6318,0.2999058893570105,1627.0815483810957
3658.4734,0.29927223811140774,2822.755838843031
3659.317,0.29762449595479723,2301.9704046916613
3660.1587,0.2953337190674322,1466.086802127708
3661.003,0.2931013944582988,1566.9566674024284
3661.845,0.29173022738625065,4455.08443808461
3662.6875,0.29165617802963034,1199.2263788349785
3663.532,0.29271505362189787,1384.1115534870883
3664.3748,0.29419396856977764,1504.5563323073177
3665.2197,0.2952172745918512,1094.1646559839105
3666.063,0.2951970099580775,2312.4970811152307
3666.9084,0.2941380153329451,2059.9284351127208
3667.752,0.2925613629413857,1196.3183599600902
3668.5977,0.29110846433297166,2594.655553953522
3669.4417,0.29016607824455654,1272.9008908182686
3670.286,0.28967526176989733,2247.178911250244
3671.132,0.2892690458972714,1770.1250237600068
3671.9768,0.28856337154724004,2184.422298821754
3672.8235,0.2874046613874698,1864.1819795006536
3673.6685,0.28593984069053857,2705.1032112214048
3674.5156,0.284450921176095,1999.340236337918
3675.3608,0.2831812541932614,7869.220276854122
3676.2063,0.28223297955426674,1602.7366313242078
3677.0542,0.2816410895466008,1352.161907858545
3677.9,0.2814177723879781,1556.9056820351639
3678.748,0.28147517973215924,1548.3167119635164
3679.5945,0.2815871620624277,1648.2872990423805
3680.4429,0.2815375228135239,1577.512698720932
3681.2896,0.2813575739039844,1588.6654532312973
3682.1365,0.28137002448676474,2823.1172014386425
3682.9856,0.28197937722825717,2818.8462026243005
3683.8328,0.28339722669585704,1221.8598724745402
3684.6824,0.2855023216638295,1549.4733364624788
3685.53,0.287798956055512,1642.9846362466742
3686.38,0.2896208828734456,2810.9856007190947
3687.2278,0.2904368075466442,2802.872909884819
3688.0762,0.29018496274772443,1086.6550175154348
3688.9265,0.289233476073918,2089.309394969611
3689.7751,0.28808395266113324,1218.0211973594162
3690.626,0.2870566401187384,1613.6590704413952
3691.475,0.28625687230689706,1960.095971764078
3692.3264,0.28570416263783205,2443.792181650861
3693.1758,0.2854867566362857,2160.5597061789217
3694.0254,0.2857367836403929,2065.474752641497
3694.8772,0.2864929144215308,2818.3119373104055
3695.7273,0.2875788596270145,1237.2980056759798
3696.5793,0.28867653369800245,2442.7187688621834
3697.43,0.28948493628070515,2726.681600521011
3698.2825,0.28984649990936334,3275.866201715186
3699.1333,0.2897017843605614,1327.0602784668574
3699.9841,0.28899628364490143,3076.797912936735
3700.8374,0.2876234522947773,1787.2944968520262
3701.6887,0.2855022793681888,1504.3588261273098
3702.5425,0.2826903565786954,1517.0831944779802
3703.3943,0.27953699098239126,2684.5448912485763
3704.2483,0.27656723191463384,1495.4916252819653
3705.1003,0.2742979981089045,1595.320487400863
3705.9526,0.272958680308088,3235.1899319594186
3706.8074,0.27249302407029186,2198.772890652905
3707.66,0.2726859173423711,2313.2164057414498
3708.515,0.27326115927466893,1629.1064677156737
3709.3682,0.27388133609370074,1488.0081389951788
3710.2234,0.27419586389659073,1520.7266955865955
3711.0771,0.2740134357945705,1663.9041412365923
3711.9307,0.27344770842919724,1900.0524349257778
3712.7866,0.2727856729244462,3475.607179275203
3713.6409,0.27221479719834024,1775.0366814536087
3714.4973,0.27170639689845816,2949.165200984677
3715.3518,0.2711788812191935,2346.075556912311
3716.2085,0.27062847436301024,2507.429841038203
3717.0635,0.27007677707695293,1724.2334492237737
3717.9185,0.2694441018706391,2961.6645339674455
3718.776,0.2686033790420587,2151.6762197446474
3719.6313,0.2675712198382281,1783.5920066546814
3720.489,0.26656301408493793,2160.9907626175723
3721.345,0.26586452661508964,2524.191312878437
3722.2031,0.26563605009324787,2398.7336212695777
3723.0593,0.26591656251770984,1912.9084465096046
3723.9158,0.26671872735004787,1752.9690210677647
3724.7747,0.26803006937310425,3203.306520457977
3725.6316,0.26967535692189765,2272.9923655917355
3726.4905,0.2713232866659136,1546.9727674966252
3727.348,0.2726485926519916,3131.491693033193
3728.2073,0.27356128789061473,7098.841264619601
3729.065,0.27419253800107907,2024.2281664782422
3729.9229,0.2747459778905982,1621.737427716232
3730.783,0.2753437992693176,1375.2674644206356
3731.6414,0.27598076461525095,1451.280710502447
3732.5017,0.27654169335556605,1776.2921859776857
3733.3604,0.2768141461961013,1590.6911699137122
3734.2214,0.2765736045198846,2119.459442194078
3735.0803,0.27571770865540984,1904.9622523749815
3735.9417,0.27434995173935234,1815.3717053128385
3736.8013,0.27274765212631735,3350.9756548580153
3737.661,0.27119886188338727,2218.4610831277723
3738.5227,0.2699052749381666,1434.0008870722409
3739.3828,0.26899125547531527,1522.702785816548
3740.245,0.2685241662532214,4161.645882834429
3741.1055,0.26852894117566684,1905.7637842102793
3741.9683,0.2689646555445908,2445.0640603359034
3742.829,0.2697621621241832,2115.2841126044987
3743.69,0.27087672357716047,2201.850397586237
3744.5532,0.2722429520398716,2447.2820587308183
3745.4148,0.27364203170667195,1417.4024302106247
3746.2786,0.2746875237488833,2418.7308784087163
3747.1404,0.2749344760794236,2695.994941426359
3748.0044,0.2741002629754473,1705.2521244737263
3748.8667,0.2721993577002619,2558.0406649187316
3749.729,0.269569505344741,1939.436454393418
3750.5938,0.2668422972629563,1672.7949714092015
3751.4565,0.26488177377103106,1811.0964762859671
3752.3215,0.2645078013964255,3986.2224124418967
3753.1848,0.2661700812184574,3335.2578599059943
3754.0503,0.2696643936497087,2215.701423236317
3754.9138,0.2740981890513481,2331.325670917987
3755.7776,0.2782236786602168,2044.9075741130944
3756.6438,0.28084816140824614,1193.2575401393494
3757.508,0.28127339907593335,1203.3717898717189
3758.3745,0.27962329792280555,1247.733251102034
3759.239,0.2767509599456264,1465.5045221860364
3760.106,0.273752476471793,2041.1908911353937
3760.971,0.271482725734488,1692.292840413456
3761.8362,0.2702668439625965,1603.9967410728336
3762.7036,0.2700142819700315,1580.7633512732612
3763.5693,0.2703530717915798,2309.360439932799
3764.437,0.2706962037788592,2285.8285026148624
3765.3032,0.27038911198818066,2177.9249743971864
3766.1714,0.26906498447403593,1102.4157461708344
3767.0378,0.2669960780695582,1952.7934729169244
3767.9043,0.265024715289286,2594.1218736802466
3768.7732,0.2640619430770021,2511.8594875664153
3769.6401,0.26451567763181905,2023.8769492662282
3770.5095,0.2660664290077992,1570.3473277399617
3771.377,0.2679042433239369,2270.572065428228
3772.2466,0.2692063037742537,1760.813520169901
3773.1145,0.2694961091362954,2687.914589342377
3773.9824,0.2688326285989669,2186.2636010096708
3774.8528,0.2676968814117993,1924.1190727003157
3775.721,0.2667118930336108,1490.5847349821454
3776.5918,0.2663151755708737,2479.703820850503
3777.4604,0.26667354137032306,1365.0012177583512
3778.3315,0.2677835148248209,2189.785929978042
3779.201,0.2695611892222119,2288.57973675961
3780.0703,0.27180058656800477,1502.4957209432948
3780.942,0.27410343407257565,1633.425438425234
3781.8118,0.27596535050247584,1843.1884926942446
3782.6838,0.2770426122665228,1762.5707819255733
3783.554,0.2772626058635784,1838.9869879083776
3784.4265,0.2767800312153975,1726.7126394157071
3785.297,0.27578693082068895,2544.2775815951854
3786.168,0.27436840553219166,1513.1033346396862
3787.041,0.2725313556712638,1677.1828644812354
3787.912,0.27039452326823415,1620.7127244395085
3788.7856,0.268278082377077,1733.579290786426
3789.6572,0.2666435823211205,1604.9187742698552
3790.531,0.26579242991487906,2112.6563383176604
3791.403,0.2656888400214923,1774.3311081427264
3792.2754,0.2659665858038021,2108.970531883491
3793.15,0.26618523829459867,1470.6008667905157
3794.0225,0.2661106446334583,2610.3100663981263
3794.8972,0.2657991985887144,1721.0567426055634
3795.7703,0.2654072135540529,2800.2373020756295
3796.6455,0.2649540186392328,1464.8497343331421
3797.519,0.2643382839414096,3417.117823270497
3798.3926,0.2635478464342832,2146.1165063322555
3799.2686,0.26276197817886077,2014.6723708872246
3800.1426,0.26216790206834306,1798.9311030679696
3801.0188,0.261673664668208,2917.300219871563
3801.8933,0.26090507786451633,2240.052955041695
3802.77,0.25949915770538157,2014.690382575513
3803.6448,0.2574771837418605,2253.784420366893
3804.522,0.2553275307282933,2836.2500093720787
3805.3972,0.25384336619380193,2680.793977220251
3806.2727,0.2537144423615001,4649.46285685086
3807.1504,0.2551937099901891,3279.1085991710306
3808.0261,0.2579111658616262,2596.502128103483
3808.9043,0.2610960333498886,2668.2602099476235
3809.7805,0.26399895121033123,3536.1349712567235
3810.659,0.26633383453807147,1078.7426760696685
3811.5356,0.2681931224405416,1701.9921692259659
3812.4126,0.2697157832609216,2434.939160612092
3813.2917,0.27079491791457,1276.1853958618874
3814.169,0.27120008272870655,1350.5673248529008
3815.0483,0.27093248997650116,2361.1004564331997
3815.926,0.2703432234887562,1639.893626030289
3816.806,0.26988544732966585,2487.0002034642916
3817.684,0.26978100857676524,2034.2882654102305
3818.5623,0.2699318728663927,4097.894452577493
3819.4429,0.2701220865708841,1803.3060258165403
3820.3215,0.27021332664095965,2226.217819908144
3821.2024,0.27015383838951673,1818.5261663469755
3822.0815,0.26988545016821885,1657.3001379113336
3822.963,0.2693404234749076,1782.7338250785733
3823.8423,0.26851586796134524,2049.8457991571054
3824.722,0.2674359428865657,1989.5145706413732
3825.604,0.2660210572547674,2130.0126107028846
3826.4841,0.2640756347154126,3079.2804467855394
3827.3665,0.26143850332566976,1708.3803436578514
3828.2468,0.25820553774686006,1574.477307349187
3829.1296,0.2546294601274052,1708.5532115409958
3830.0105,0.2509488666028197,3076.04284557368
3830.8916,0.24721440324748906,2747.813988436575
3831.7751,0.24349203260539104,2599.726797052008
3832.6565,0.24017803921075015,1741.7063349301027
3833.5403,0.23796861936322455,4302.281072945918
3834.4224,0.23755700870970492,3166.742688215109
3835.3064,0.23909573431793,2730.031341632752
3836.1887,0.24199643780931035,3039.2976893322184
3837.0713,0.24520482273905625,2570.6486963122607
3837.956,0.2477288899162548,2138.503630043659
3838.839,0.24909242208455276,2427.492752897814
3839.7244,0.24954647265109028,2094.193964833299
3840.6077,0.24985476774269924,1682.005613535999
3841.4932,0.2508609538527559,2526.1695216800244
3842.377,0.25299958345248896,3960.251956573231
3843.261,0.25606228600231806,3899.560652381885
3844.1472,0.2593136178400037,1976.438548443463
3845.0315,0.2618860620773496,2304.50875039827
3845.9182,0.26334017871914256,1946.9261592836522
3846.803,0.26392452620611206,2359.059240007092
3847.69,0.2645044181496895,1861.8198837862328
3848.5752,0.26604813891828016,2360.979671949538
3849.4604,0.26903074903680035,1898.968409024823
3850.3481,0.2731206344112787,2015.1361098869395
3851.234,0.2773293066186104,1725.3070213190063
3852.122,0.280662538973811,1698.7366294320934
3853.0083,0.28260269982285524,1973.3596229265374
3853.8967,0.2833327323272143,1396.286175780387
3854.7832,0.28343720129991823,2346.5567004663526
3855.6702,0.2835009921740107,2055.924742298508
3856.559,0.28382073845710526,2467.9505674020957
3857.4463,0.2843810063314602,1654.0495700358456
3858.336,0.2850076889075933,1812.978089770886
3859.2234,0.2854972150880836,1644.9456089913856
3860.1135,0.2856468737664618,2081.8583967472446
3861.0015,0.285203233501252,1358.9332382881735
3861.8896,0.283900171438067,1923.9793575285023
3862.7803,0.28161559005413617,2061.4197912913232
3863.6687,0.2785929586748445,1626.5738223172038
3864.5598,0.27542703164146615,2411.0394797731137
3865.4487,0.27289723843852315,1638.8356463357802
3866.34,0.27152492609684287,2628.188851965504
3867.2297,0.27131397136733415,1893.656146256271
3868.1213,0.2716868102392496,1575.7175085610052
3869.0112,0.27178021507104316,1340.7060580375435
3869.9014,0.270924643286291,1975.4182785720136
3870.7937,0.2690279899094879,1667.6794222714575
3871.684,0.2666211986076061,2236.2838210507834
3872.577,0.2644058338438385,2870.20146335932
3873.4678,0.26271199279429797,5334.155244257932
3874.361,0.2611807382167689,956.6544652461539
3875.2524,0.25909012388607544,1993.8071233281512
3876.1438,0.2559486519185989,2095.3666439664203
3877.0376,0.25188805081337556,1987.814249249029
3877.9297,0.24754150109067807,3450.937345247873
3878.8237,0.24351062019089514,2547.1238468522592
3879.716,0.24015333789036228,2316.1124967091187
3880.6108,0.23757002811773417,2572.6433223163294
3881.5037,0.23575583042374867,2014.1589919734893
3882.3965,0.2344849370458191,1765.2756619997817
3883.2917,0.2332684674618256,3402.7402269605673
3884.185,0.23153489712126765,3396.291942896457
3885.0808,0.22895670021997191,3039.129589868212
3885.9746,0.22570229574691564,3837.997466998366
3886.8706,0.22226742802290345,3042.454674810682
3887.765,0.21920184592315645,6748.880246132506
3888.6592,0.2168279017177263,2546.0490776908314
3889.556,0.21529269700752088,2450.6486698853846
3890.4507,0.21472320322780386,4019.5226321425343
3891.348,0.2152501807536472,3638.4575183198867
3892.243,0.21693118685968857,4604.73583885329
3893.1406,0.21970786955605248,2661.430248773127
3894.0361,0.223427720928655,4598.3533212268785
3894.932,0.22794629323038484,1925.4524857817526
3895.83,0.23305943366922144,1791.3106560866208
3896.7263,0.2383828423652128,2473.611866433915
3897.625,0.2435028784744985,1743.7952892663106
3898.5215,0.24806706620105223,2128.3240152977964
3899.4207,0.25202213092445636,2864.5415805708476
3900.3176,0.2554693666999096,2530.634637142883
3901.2148,0.25857307755968983,1534.1378956102312
3902.1145,0.2613820752290545,1609.5222831939425
3903.0122,0.2637919654579309,1965.8903502053886
3903.912,0.26567621426419635,2532.7690203870507
3904.8103,0.2669791631037371,1633.8191909224067
3905.7107,0.26786982147611865,2146.3267032395343
3906.6094,0.2687543514919499,1506.0334287320388
3907.508,0.2701878170555866,1539.9643340321159
3908.409,0.2726348540248073,2985.4576603086134
3909.308,0.2761772995844554,1912.1018182309763
3910.2097,0.28043116162927123,1566.784073245338
3911.1091,0.2846206500398947,1080.5957813657583
3912.011,0.28800868473476504,1566.3467233614451
3912.9111,0.29018799457630323,1689.4810993847766
3913.8113,0.29131295598305823,1296.137672624699
3914.7136,0.29195295193278775,1497.740689478488
3915.6143,0.2927589144667285,1874.2419728026407
3916.517,0.29411227625475767,2485.7556319179084
3917.4182,0.29595181977570795,1437.6366315973976
3918.3215,0.2979452582515278,1605.300398746802
3919.223,0.29975148290138204,1424.5924227115784
3920.1245,0.30121555318016097,1514.542007182094
3921.0286,0.30230732334381555,1355.9793004519174
3921.9307,0.30302195013956446,1688.5304997015621
3922.835,0.30338744945115687,1855.985809092523
3923.7373,0.3034719972599533,1570.8100217069612
3924.642,0.3033506934715783,1475.479146396271
3925.5452,0.3030591034649283,1958.4410444318498
3926.448,0.30264331777512377,1407.9250958463197
