wavl,flux,ivar
3566.9744,0.8107648563913687,508.8012441966421
3567.795,0.8148591124462928,283.0462721559437
3568.6177,0.8201217549174749,379.3916184124611
3569.4385,0.8254544909838287,223.72413579965354
3570.2617,0.8300524977431295,460.72941798826787
3571.083,0.8333614595506214,317.3236704012337
3571.9065,0.834994304584308,243.59650884387335
3572.7283,0.8344655356072499,250.94293212379554
3573.55,0.8313178218012526,224.0824969567534
3574.374,0.8254986900467162,277.80601961121613
3575.1963,0.8177994960717447,260.39875319927614
3576.0208,0.8096509712361002,346.8220501840259
3576.8435,0.8027022269643161,294.014823228046
3577.6682,0.7981331974234978,306.99601533568756
3578.4915,0.7965522406405625,265.81367028389985
3579.3145,0.7978984604115036,462.3900825992798
3580.14,0.8014376709852253,295.9246417014765
3580.9636,0.8056996939702916,273.3518277991793
3581.7893,0.8088774911093763,368.08126392155765
3582.6133,0.809483359835729,230.45087232965946
3583.4395,0.8071042948968806,221.6833803661221
3584.264,0.8026561444955769,317.64101116532703
3585.0884,0.7979450650029987,260.18465919229953
3585.915,0.7947588716453019,434.16650737710125
3586.74,0.7939791176812383,299.65366521255004
3587.5671,0.7951948796614728,294.35540077337583
3588.3923,0.7972045635619098,263.6713968290634
3589.22,0.7989731120700201,355.8307795067081
3590.0457,0.8002493750980658,268.42654773804776
3590.8716,0.801463468091378,262.48634252150066
3591.6995,0.803024569597869,349.9675594638157
3592.526,0.8047595040754122,343.97360644051577
3593.3542,0.8059878064221991,324.739709706052
3594.181,0.8060278663551531,254.3978633479926
3595.0098,0.8046916290317419,264.7185148465467
3595.8367,0.8023476986974545,288.33345687811567
3596.6638,0.7996070379031293,353.5923959154326
3597.4934,0.796973405916365,299.383171507995
3598.3208,0.7946861953592995,318.9818047731336
3599.1506,0.7927065513992747,384.166086492399
3599.9788,0.7909007220741007,426.47884734679616
3600.8088,0.7890536814273864,281.49388244631143
3601.6372,0.7868810900960604,340.1849561650059
3602.4678,0.7840757863845474,406.93456391401696
3603.2964,0.7806004734221309,314.57500349335277
3604.1252,0.7768286428000826,284.798691617919
3604.9565,0.7734656073107694,402.27149975118004
3605.786,0.7712543763972244,271.4508991025125
3606.6172,0.7706201451654509,364.4911562088592
3607.447,0.7716021860124338,395.222364711674
3608.2788,0.7739059774469259,362.57357500035795
3609.109,0.7770002538422253,358.5524453047293
3609.9392,0.7802567386111287,216.968470239404
3610.7717,0.7831145342421009,264.73758384462167
3611.6023,0.7852556569694082,300.7830189128401
3612.435,0.7866311386031142,334.9687351193654
3613.266,0.7871781262153377,284.26746995733845
3614.0994,0.7867892604106581,288.99848137240826
3614.9307,0.7856210873496301,285.56033382928985
3615.7625,0.7843306555107694,316.72830978042845
3616.5962,0.7837750718956521,316.6158170617371
3617.4282,0.7843765747214755,326.4758998768495
3618.2625,0.785744776864067,302.00440009124816
3619.0947,0.7868082756106167,278.52187547300406
3619.9292,0.7862970658417391,251.72417021293805
3620.762,0.7832774751449916,251.90367108887725
3621.595,0.777622543216216,254.1819010599996
3622.4302,0.7702209691776226,300.66841726935786
3623.2634,0.7628535323069594,265.6974002102498
3624.0989,0.75742368786312,374.4053464408841
3624.9326,0.7552553496806564,343.94234791787466
3625.7686,0.7564144122915974,330.8050334718314
3626.6028,0.759747890069247,320.89412519784446
3627.437,0.7635176554592609,306.9315285840224
3628.2734,0.7663129727946331,261.1307532962196
3629.1082,0.7676561395199516,264.6303158244817
3629.945,0.7680363325884898,224.96540548280404
3630.78,0.7682985578201083,271.5798068559471
3631.6174,0.7689575179469534,310.0594676242716
3632.453,0.76985842606942,303.3577571459257
3633.2883,0.7704200531780718,511.721288653277
3634.1262,0.770193684908068,316.54406054290183
3634.9622,0.7693195090519466,266.3504824549462
3635.8005,0.7684771924293283,516.1217529088118
3636.637,0.7683448193414993,293.2922087108786
3637.4756,0.7689830659609648,263.7829706458115
3638.3123,0.7697527715333151,352.22916010101534
3639.1492,0.7698685705712307,264.06611797153124
3639.9885,0.7690657528090881,304.7564892949326
3640.826,0.7677938409704513,384.9584821816328
3641.6653,0.7667581834361682,338.20533083190145
3642.5032,0.7663688208681174,287.4766541657538
3643.343,0.7666150578718562,374.3736518798132
3644.1812,0.7674118832257857,251.00335429010445
3645.0195,0.76885660325118,299.50269888519665
3645.86,0.7710285138951863,404.6049184072486
3646.699,0.773537884804714,292.16185533036014
3647.5398,0.7754557457172769,311.60465368934
3648.379,0.7757190242478524,299.35178541335654
3649.2202,0.7737795361403008,293.88224263818404
3650.0596,0.7698804008049883,347.4970376808136
3650.8994,0.7647971154887643,315.8634598600559
3651.7412,0.7594226071598581,347.43985381647497
3652.5813,0.754501550025119,451.18287563169577
3653.4236,0.7504145304617583,432.4673951562117
3654.2642,0.7472783374457991,307.70609692867885
3655.1067,0.7450438054441082,320.2251048442126
3655.9475,0.7437227127987884,486.7524166352268
3656.7886,0.7432982291397946,358.54378444811164
3657.6318,0.7435787196428284,325.1273603357932
3658.4734,0.7442037453686029,324.07511108445067
3659.317,0.7448499888565344,499.82691798863254
3660.1587,0.74531750573116,382.65673137760086
3661.003,0.7454608038929195,371.57093423867263
3661.845,0.7451639941796221,447.4036780880395
3662.6875,0.7444614396390499,340.5653045283658
3663.532,0.7435804211579495,286.8482127778928
3664.3748,0.7428296884472709,406.74015647697064
3665.2197,0.7424710111189492,358.3935650322969
3666.063,0.7427375981584806,272.52163667251705
3666.9084,0.7438328969646929,295.663317095004
3667.752,0.7457961565001443,371.984296510438
3668.5977,0.748361413918021,318.34872273588746
3669.4417,0.750905797064071,336.1420190829914
3670.286,0.7527147244349842,269.0734857273791
3671.132,0.7533627756472342,254.53073613242577
3671.9768,0.7530141415701077,294.38450954072573
3672.8235,0.7522724598221429,383.93420043000276
3673.6685,0.7516160402832026,310.45063422111474
3674.5156,0.7509679390568351,324.44670686323667
3675.3608,0.7498809190027741,330.00650863409896
3676.2063,0.748082348726546,390.5265465385039
3677.0542,0.7458276431748799,371.04527186976935
3677.9,0.743787697478578,359.75859871349894
3678.748,0.7425589982451245,536.9200838983904
3679.5945,0.7422991700192673,406.91337844924414
3680.4429,0.7426238304585764,329.38122459317697
3681.2896,0.742940419158601,360.5620119727705
3682.1365,0.7429364519240543,289.3502450929778
3682.9856,0.7427832887073137,484.28715036958846
3683.8328,0.7428684325019953,335.4549863261586
3684.6824,0.743356314255041,405.1167113875325
3685.53,0.7440275751790845,293.9762823345533
3686.38,0.7444811517002132,530.4180147818947
3687.2278,0.7443987430788375,409.4590056060397
3688.0762,0.7436917888638506,402.9656816559626
3688.9265,0.742486974203055,369.31452708762674
3689.7751,0.7410475897923,406.6410527381665
3690.626,0.7396317240641168,365.24353026408227
3691.475,0.7384302867313053,423.0681261016982
3692.3264,0.737529945472613,458.0081381662613
3693.1758,0.736948080601376,272.59081759033285
3694.0254,0.7365981365723022,373.16291741728173
3694.8772,0.7362749311764615,415.7829917950728
3695.7273,0.7357078201079355,324.04664174561236
3696.5793,0.7346939704012715,289.44046198108066
3697.43,0.7332324274387617,285.4712931113204
3698.2825,0.7315095771791441,492.0254025306151
3699.1333,0.7298228177331881,365.90382834228416
3699.9841,0.7284910070027577,327.83131130599196
3700.8374,0.7279083927812514,388.9791275001052
3701.6887,0.7285651788928583,381.93614188832447
3702.5425,0.7308273793944727,264.86909708125506
3703.3943,0.7344779845582549,308.0580602762702
3704.2483,0.7384792419184758,371.924253030767
3705.1003,0.7412429024478528,332.8386249277291
3705.9526,0.7416104163104426,290.89486075070454
3706.8074,0.739627236260348,342.56843207322527
3707.66,0.7365765208924552,494.6936666912897
3708.515,0.7340748250927691,327.752565496467
3709.3682,0.7331602173880138,299.3755346648241
3710.2234,0.7338863056697106,438.57260300267285
3711.0771,0.7355364620893612,476.83466776438604
3711.9307,0.7370102365058698,330.40076104803603
3712.7866,0.7372644027763803,408.7148723342162
3713.6409,0.7357983523520195,318.38996915140945
3714.4973,0.7328926868033747,412.5977605910463
3715.3518,0.7293388246636602,428.0024784851655
3716.2085,0.7258338604721092,435.0133618236256
3717.0635,0.7227913365892396,385.08503354037697
3717.9185,0.7204349216112389,305.86325214449187
3718.776,0.7189405421927777,271.5649962335252
3719.6313,0.7182814750737372,390.4711100701724
3720.489,0.718043127587806,342.12416558368795
3721.345,0.7176080997667356,334.40543060938063
3722.2031,0.7165346369227565,374.9234196299429
3723.0593,0.7147999474903828,467.557412722488
3723.9158,0.7126864702439328,357.9272204372051
3724.7747,0.7105623971585115,348.2639585445801
3725.6316,0.7088075149642838,298.2829592966989
3726.4905,0.7077749760521382,359.1936991038926
3727.348,0.7077026829815016,367.6842491011897
3728.2073,0.7085080320234575,445.850816057671
3729.065,0.7098445726572349,493.8228174116117
3729.9229,0.711477347594446,272.4054921902267
3730.783,0.7135259332829448,491.06671955908797
3731.6414,0.7161830800941213,404.11535458360675
3732.5017,0.7192370782856786,444.092262235451
3733.3604,0.7218937850198015,310.440848592038
3734.2214,0.7232613236177082,335.60090570455606
3735.0803,0.7228972914157167,294.32700289196225
3735.9417,0.7210774475871957,430.23720857995374
3736.8013,0.718607969386959,391.24239534207845
3737.661,0.7163864655559237,454.3613288484069
3738.5227,0.7150248955884517,416.13994493835503
3739.3828,0.7146655971481688,358.0416337200756
3740.245,0.7150094144138192,356.8351713625796
3741.1055,0.7155458039282776,428.57173310686375
3741.9683,0.7158166079037008,303.53166806536933
3742.829,0.71555692161261,401.03328502540666
3743.69,0.7146437957709996,454.6180753991084
3744.5532,0.7129235895066104,340.16487121642825
3745.4148,0.7101924839066565,292.6221739206054
3746.2786,0.7063324824897946,393.497545288964
3747.1404,0.7015670324923573,394.62419655653053
3748.0044,0.6964414564662836,439.0013661246282
3748.8667,0.691820420204341,304.9815570842132
3749.729,0.6886107396203741,424.0723960417322
3750.5938,0.6874289592509735,465.95346298306674
3751.4565,0.6881558366552234,547.1273271706452
3752.3215,0.6898335227836614,358.56207103395286
3753.1848,0.6912187058340157,293.24908556928585
3754.0503,0.6916610761661361,356.8383834824275
3754.9138,0.6915295618264988,352.3071360678958
3755.7776,0.6918315470157873,382.3526502246554
3756.6438,0.6932951705890114,567.5138406857882
3757.508,0.6956989942044299,338.8233302126894
3758.3745,0.6980960694700681,382.9263415847737
3759.239,0.6995827235623792,345.160699663439
3760.106,0.699896945729416,461.7684827725815
3760.971,0.6992339777834975,368.39637322158086
3761.8362,0.69780592083684,388.59399359967995
3762.7036,0.6957470936955643,391.36691289754856
3763.5693,0.6934233168532836,306.36921046534206
3764.437,0.6915143358443391,370.8133905775078
3765.3032,0.6907043477653594,409.6769407293294
3766.1714,0.6911732804762689,429.10856834342894
3767.0378,0.6924656423940128,504.4776758146418
3767.9043,0.6938310069760497,323.56671889106025
3768.7732,0.6947610914135881,408.6671185084381
3769.6401,0.6952952578824809,387.3955014290135
3770.5095,0.695901223716281,311.9733461031753
3771.377,0.6969904518352448,390.34550084088164
3772.2466,0.6984997339921349,369.82860130613864
3773.1145,0.6998122505037362,608.7046365454795
3773.9824,0.7001636028543919,393.69826089452766
3774.8528,0.6991704147408625,384.96470864252905
3775.721,0.6971035741662261,408.0791305439657
3776.5918,0.6945783699034584,510.30359363088985
3777.4604,0.6920408522524125,333.29445694336016
3778.3315,0.6894884172737339,349.6980359825037
3779.201,0.686854619136513,447.99092158689064
3780.0703,0.6844299433130164,386.68575345324587
3780.942,0.6829186034314513,451.0524220195241
3781.8118,0.6830242620090237,325.0054627012603
3782.6838,0.6849589498370927,359.9363929023461
3783.554,0.688239263731148,332.6853757059697
3784.4265,0.6918435091698105,408.8838378365167
3785.297,0.6945286053264169,394.7775983441048
3786.168,0.6953977357931647,413.3071681193758
3787.041,0.6942441161887556,404.68762381330123
3787.912,0.6915598454219835,407.7729852648131
3788.7856,0.6881055446983887,357.6927256542323
3789.6572,0.6845571009768703,409.0029216640121
3790.531,0.6813703122921396,323.06661572123437
3791.403,0.6789645371531856,312.17806484730016
3792.2754,0.6776517918580723,373.63981015123585
3793.15,0.677475667088376,388.6593364852598
3794.0225,0.6781227244999017,466.6133197248207
3794.8972,0.6791117654775795,409.17280564256896
3795.7703,0.6800350686570875,415.6615950116944
3796.6455,0.6806330969026925,466.624845629246
3797.519,0.6806870303179304,377.6104397794764
3798.3926,0.6799712100290619,361.61681034533797
3799.2686,0.6782978316095197,381.30580446625567
3800.1426,0.6756709311660865,353.44518976506373
3801.0188,0.6724050320895154,280.0510850855886
3801.8933,0.6692187873725742,547.5258542071196
3802.77,0.666951653600533,407.14737589083177
3803.6448,0.6661346804846061,552.3141522846067
3804.522,0.6666064592517551,367.9128965542169
3805.3972,0.6676812308937204,434.09332496439714
3806.2727,0.6687066464101962,364.8747556278311
3807.1504,0.6695311672024359,422.4885390771591
3808.0261,0.6704897402759074,386.6196381492639
3808.9043,0.6719974632347961,393.60492965115907
3809.7805,0.6740809254879131,423.1765384904035
3810.659,0.6762747214447322,716.020244330262
3811.5356,0.6778335412048369,566.1054513835104
3812.4126,0.6782367577126246,359.0434158913971
3813.2917,0.6775525480509113,283.4113563772273
3814.169,0.6764065397372095,402.9493602879703
3815.0483,0.6754302411518934,410.94817786893645
3815.926,0.674713127924314,316.4019730440848
3816.806,0.673780381446299,457.291008488522
3817.684,0.6721615822759206,369.2354856471544
3818.5623,0.6698914673682639,374.6607912688351
3819.4429,0.6675097819736627,273.2805716475599
3820.3215,0.6656757556811504,478.1998700614996
3821.2024,0.6647114576874635,376.712787368398
3822.0815,0.6644874079676213,451.9351294604692
3822.963,0.6645613485335642,442.7753415615643
3823.8423,0.6645161133281285,378.94673749608097
3824.722,0.6642550791612536,420.89617523431093
3825.604,0.6640930560804447,357.98453482977123
3826.4841,0.6645703776339603,546.5458671579236
3827.3665,0.666038345530884,523.7510765986653
3828.2468,0.6682396136721197,415.83039867909423
3829.1296,0.670273862406752,371.4635910520611
3830.0105,0.6709998001809734,320.32891317681856
3830.8916,0.6697463620422425,418.9448429671084
3831.7751,0.6667034007245508,466.1378995663065
3832.6565,0.6628398331838911,340.3754495088248
3833.5403,0.6593100222354882,368.90039293150835
3834.4224,0.656986528419267,486.4316157405529
3835.3064,0.6561814726462147,461.26797203335866
3836.1887,0.6567848203103345,481.0760905154986
3837.0713,0.6584412554227896,372.38996336071847
3837.956,0.6606388807537152,377.36167420202537
3838.839,0.6626607991011512,541.9065140631005
3839.7244,0.6637195416170651,390.34306407822083
3840.6077,0.6632515254524719,363.08301738152744
3841.4932,0.661231033405402,344.3720513561208
3842.377,0.6581477703525511,508.9170050654644
3843.261,0.6546603384110853,425.68516023014286
3844.1472,0.6513288792925737,519.0097617225241
3845.0315,0.6486065085425375,474.3919963805115
3845.9182,0.6468462452037214,393.5062660193818
3846.803,0.6463020043517809,420.88401041738655
3847.69,0.6469941494457333,490.0961843273431
3848.5752,0.6487391683111884,532.5598218639636
3849.4604,0.6512863591054384,500.37338125756173
3850.3481,0.6544143300389058,407.35661279448937
3851.234,0.6578861346337679,581.7970298487583
3852.122,0.6614936471311017,417.115218438293
3853.0083,0.6650285576273784,434.30327092112606
3853.8967,0.6683499136209565,400.23008376695896
3854.7832,0.6712357107855818,446.17731479161796
3855.6702,0.6733970021433727,338.81580912711763
3856.559,0.6745554081000253,363.71279522121307
3857.4463,0.6746205591703425,445.71070880131344
3858.336,0.6737635365233634,331.7821323800755
3859.2234,0.6723610084899928,434.3326613515305
3860.1135,0.6708842290168022,432.34600726217707
3861.0015,0.6697474373502552,392.0197939559994
3861.8896,0.6690013033594214,457.1928314457244
3862.7803,0.6682005252661348,353.6708961841238
3863.6687,0.6666568008662889,414.0854271574998
3864.5598,0.6639122053141457,388.9642875263571
3865.4487,0.6600545605419169,394.8117302853644
3866.34,0.655518432763377,452.96649301682163
3867.2297,0.6508552515187246,425.3390136018065
3868.1213,0.6465103109091213,417.78335284722914
3869.0112,0.6429372539355643,302.6861463005142
3869.9014,0.6405452222875238,513.5409182180254
3870.7937,0.6395385221697968,398.16790992793614
3871.684,0.6396096689833751,472.65991299950383
3872.577,0.6398966399037354,402.9544772638074
3873.4678,0.6394753373266265,476.27485924124227
3874.361,0.6380730190394747,587.7932260190134
3875.2524,0.6363730136907685,517.9826655791073
3876.1438,0.6355129925358165,630.0050501069493
3877.0376,0.6361956044918241,379.0686736545988
3877.9297,0.6380716160215525,450.1133980360214
3878.8237,0.6398941637541488,381.90630082126694
3879.716,0.6402614033967754,433.2446936170617
3880.6108,0.6384666437221617,397.5529367012997
3881.5037,0.6348699042360608,395.51815785069584
3882.3965,0.6305856027186281,459.92712062182443
3883.2917,0.6267911128970773,504.3745376857112
3884.185,0.6241726590591488,386.91050212649037
3885.0808,0.6227254751327089,536.4260363996253
3885.9746,0.6220900901387562,460.72374618899283
3886.8706,0.6219062696801358,482.3042580386097
3887.765,0.6220240966963668,493.42656821858316
3888.6592,0.6224501833755124,498.99085478312315
3889.556,0.6232029052547867,484.057561277689
3890.4507,0.6242048480226815,515.3850117651189
3891.348,0.6253078928824728,399.5382596100752
3892.243,0.6263609185082262,418.36166163098346
3893.1406,0.6273270061749213,428.4961417720024
3894.0361,0.6283095877801357,411.1264112108409
3894.932,0.629504080751626,540.1613401531516
3895.83,0.6309744401786446,508.06863432758416
3896.7263,0.6324156395851811,491.00247860206565
3897.625,0.6332342282044684,550.5269070152759
3898.5215,0.6329596617104001,427.2027393195922
3899.4207,0.6317160542677936,575.4416503087054
3900.3176,0.6302375649471954,455.6631489927811
3901.2148,0.6293579448659751,524.9948049751729
3902.1145,0.6294891632070173,501.77432262473485
3903.0122,0.6304748026551441,482.1048139973752
3903.912,0.6318428998189388,486.46260478289105
3904.8103,0.6331316118088902,406.6643870635549
3905.7107,0.6341415914045964,440.66611745291
3906.6094,0.6350090640033397,417.65951456732313
3907.508,0.6361375046830756,522.9125289568578
3908.409,0.6379250126262731,475.347586687533
3909.308,0.6404577008708972,502.56391654575896
3910.2097,0.6434724793143531,588.2911860413324
3911.1091,0.6465115945371687,418.0996072151133
3912.011,0.649215172279967,553.979621247369
3912.9111,0.651309300847966,401.0811820589922
3913.8113,0.6525642504562631,378.5714185362084
3914.7136,0.6527690382238804,439.98700578393976
3915.6143,0.6518963326750863,532.7529052210468
3916.517,0.6502746198945245,383.40858249733026
3917.4182,0.6485928333169745,407.5962320981861
3918.3215,0.6476276674783294,473.62451906126057
3919.223,0.6478969615374618,660.43627430464
3920.1245,0.6493868311195914,515.8753581728334
3921.0286,0.6515721107125929,512.8443965910564
3921.9307,0.6536216296790806,389.1451848391568
3922.835,0.6547817376193613,426.6752054726613
3923.7373,0.6546636214757793,463.6170318518931
3924.642,0.6533964798619704,431.1189835462527
3925.5452,0.6515156699901269,428.38260598074174
3926.448,0.6496682967825969,478.44185641498154
3927.3535,0.6483284491663582,473.2996118783925
3928.257,0.647643123838014,491.66908945396057
3929.1628,0.6474257962598701,526.1039225137189
3930.0667,0.6473750259936075,398.3616020161709
3930.9731,0.6473519576461858,397.11482123059477
3931.8774,0.6475326758156,435.27761117511426
3932.782,0.6482480619766898,485.0100177599419
3933.6887,0.649606716569684,522.0993563055648
