wavl,flux,ivar
3566.9744,0.8025297537680788,708.6559330576591
3567.795,0.8026747849489818,529.4928163496342
3568.6177,0.8009280065285224,495.4526042964125
3569.4385,0.7985690587421174,624.1794809656342
3570.2617,0.7966124156895767,1080.0422850202217
3571.083,0.7951499297522601,835.2622156796934
3571.9065,0.7935796911814509,1356.7604772627415
3572.7283,0.7914055883506308,815.1403308685785
3573.55,0.7886265576211982,888.3205328173809
3574.374,0.7855512330484692,810.9769624712128
3575.1963,0.7824829693839673,1155.2188874753165
3576.0208,0.7796270071327406,718.4560345605439
3576.8435,0.7773523911604717,868.4528132611066
3577.6682,0.7762032270337779,641.4478717575499
3578.4915,0.7766201452007203,682.6607648799574
3579.3145,0.7784308933898189,944.2884640795498
3580.14,0.780713568252179,665.2192472080192
3580.9636,0.78224438436582,866.1704055677089
3581.7893,0.7823759723170941,711.7896963230047
3582.6133,0.7814990268554013,938.1724728426931
3583.4395,0.7806913037602999,1121.4922405230252
3584.264,0.7808063197947568,1195.8429533936019
3585.0884,0.7817826599400072,664.6281394228122
3585.915,0.7827896725279454,1444.0039282057803
3586.74,0.7829675825791181,719.6487362527397
3587.5671,0.7820942631123756,976.772998796289
3588.3923,0.7806141708425384,857.4114786917621
3589.22,0.7791744096475866,620.5459874768762
3590.0457,0.7782260436057014,1228.931166797523
3590.8716,0.7778317810715489,619.5761838641307
3591.6995,0.7776190612689017,609.7959986562117
3592.526,0.7767687412153707,746.170716794511
3593.3542,0.7743087504465924,544.1440180307321
3594.181,0.7698245195272257,613.6097358035103
3595.0098,0.7639952640785005,690.062719776171
3595.8367,0.7585344006869233,935.450861303099
3596.6638,0.755206817234682,1086.4058782607328
3597.4934,0.754935643089437,767.3689398140906
3598.3208,0.7574676569287707,954.5938972229659
3599.1506,0.7618012832112616,646.4593219023565
3599.9788,0.7667559198828025,576.5856719707434
3600.8088,0.7713277038820237,1402.1785323909835
3601.6372,0.7746209698001082,729.0118487041048
3602.4678,0.776083155527752,378.28504579958496
3603.2964,0.7758518584932675,2570.81814608703
3604.1252,0.7749034273339991,983.1549882967144
3604.9565,0.7744435116220746,729.9145969473794
3605.786,0.7750172353525981,624.2416691605102
3606.6172,0.7761156268086915,1094.7410570246227
3607.447,0.7766006905816761,784.9662242694548
3608.2788,0.7755332386540749,374.59447890499285
3609.109,0.7727683405732032,736.971328835195
3609.9392,0.7689482283566635,961.2168084704954
3610.7717,0.7650123975615758,665.5230340516283
3611.6023,0.7617724237824399,678.5671402239163
3612.435,0.7598239530509104,574.8694905410665
3613.266,0.7597953101137874,725.7319096917887
3614.0994,0.762148827354883,862.4185622905354
3614.9307,0.7665918450327358,863.2681273168029
3615.7625,0.7717513983998847,925.858510770816
3616.5962,0.7755838638677366,1004.6872747294145
3617.4282,0.7763930898027385,753.9345767546848
3618.2625,0.7737863607775456,860.8485697750137
3619.0947,0.7688676243543378,706.3778724141285
3619.9292,0.7636328814152807,716.8317458774904
3620.762,0.7600903089548062,908.0748187824233
3621.595,0.7593316667856763,591.951660216257
3622.4302,0.7612407408795064,963.8078339820756
3623.2634,0.7646917633348446,512.4331874238561
3624.0989,0.7681971017091306,1112.5491408709945
3624.9326,0.770488390736661,880.0909224407435
3625.7686,0.7709324397875131,1451.2919672565884
3626.6028,0.7694208693582782,669.5461242543207
3627.437,0.7659682664353785,586.3529623666778
3628.2734,0.7603638622920277,684.5122329031344
3629.1082,0.7524753575133197,659.1556071130499
3629.945,0.7428178983095672,1112.1575646657084
3630.78,0.7330176946996084,739.1938506207488
3631.6174,0.7250354523802864,680.3282387377067
3632.453,0.7202466028067364,595.6625858407257
3633.2883,0.7186775856608925,839.609296297338
3634.1262,0.7194105337041462,1055.4841082484754
3634.9622,0.7213024096997771,1426.1278603454027
3635.8005,0.7235261481131213,756.7503336580622
3636.637,0.7256153441304438,787.9557030611643
3637.4756,0.7273671127132395,872.690890265264
3638.3123,0.7287188263628255,958.0558031434895
3639.1492,0.7297702301292147,1170.3865705949174
3639.9885,0.7306847285976191,893.5067004767117
3640.826,0.7314952989918775,1013.6735463834185
3641.6653,0.7319910526412761,714.3000284847373
3642.5032,0.7317819193420556,594.2589565958749
3643.343,0.730523882936434,971.5271489219069
3644.1812,0.7281441121340856,739.7973610421677
3645.0195,0.7249680156297933,1018.7382626785959
3645.86,0.7217154932286578,900.6037178208273
3646.699,0.7192855385763571,691.1302342882176
3647.5398,0.718295171675826,642.1739974582262
3648.379,0.7188143847285611,1184.0109469323943
3649.2202,0.7203513664832503,853.0540729859583
3650.0596,0.7220752843110803,822.2942176812708
3650.8994,0.7231190557338327,1295.540543829361
3651.7412,0.7228114069939027,629.5117024110506
3652.5813,0.7208806431899297,1415.7099800520575
3653.4236,0.7174990636355517,973.3759898031198
3654.2642,0.7132102163259434,784.3754170306378
3655.1067,0.7086971793262384,847.0257157821636
3655.9475,0.7047396259737393,991.9187830976484
3656.7886,0.7020917014346988,1371.9657435783552
3657.6318,0.7013698743153993,714.8978822641288
3658.4734,0.7027312892223804,1363.3354238446439
3659.317,0.7056272649535126,810.8815397994463
3660.1587,0.7089226203648532,1291.5813652889988
3661.003,0.7114222966273549,768.6045636836623
3661.845,0.7122880561421548,1024.374479046067
3662.6875,0.7112797223152966,875.5297515908305
3663.532,0.7086873410733687,876.9517269682808
3664.3748,0.7052535028372827,1482.98463207457
3665.2197,0.7019411367538618,1328.5645077019794
3666.063,0.6996852963941287,864.684666266198
3666.9084,0.6989681026762806,1379.8088025746288
3667.752,0.6995897742249577,1064.3577760784885
3668.5977,0.7007475005005729,823.2155820040117
3669.4417,0.7015467408458849,524.0596600048189
3670.286,0.7016338955289622,988.2468396044803
3671.132,0.7014051746467295,870.4508624172878
3671.9768,0.7016263552928267,816.3904477599538
3672.8235,0.7027402404507711,1009.6782644231041
3673.6685,0.7044276750031379,798.2633196515051
3674.5156,0.7057915407969838,758.6900785210353
3675.3608,0.7059509829490864,881.2368214455898
3676.2063,0.7046700461337447,968.3221950543274
3677.0542,0.7025226331205184,715.3333074140063
3677.9,0.7005582053912222,1324.9727587562043
3678.748,0.6995350012838097,1372.7177832260859
3679.5945,0.6993705734819563,803.4788003228048
3680.4429,0.6992165623772508,1050.4414953110822
3681.2896,0.6983122309225939,1181.0040248789242
3682.1365,0.6969007841119169,955.0289399194407
3682.9856,0.6963291558943001,949.9087340364247
3683.8328,0.698066870164742,1661.913977067076
3684.6824,0.7024077355298428,1306.636681183351
3685.53,0.7079712184508831,783.296989387497
3686.38,0.7126001798266935,678.9212189993262
3687.2278,0.7146780478105961,1403.8864518228308
3688.0762,0.7140847239684104,634.2872182503734
3688.9265,0.711958493232485,696.654989629441
3689.7751,0.709797592281896,1372.8737364162885
3690.626,0.7084148828809553,993.4855637624253
3691.475,0.7075215863038056,1797.9882410108958
3692.3264,0.7061312245757391,1097.8021861292705
3693.1758,0.7036161636978893,647.7124598679828
3694.0254,0.7004544819950759,940.5153146785138
3694.8772,0.6980397138347187,980.0733679335251
3695.7273,0.6977069995865471,851.5847764791897
3696.5793,0.6997730984067277,961.8925217509532
3697.43,0.7033552771092454,1047.0667279254635
3698.2825,0.70693292840983,826.1220630040519
3699.1333,0.7090573315280138,1001.1261104550184
3699.9841,0.708893948284123,834.1921267759815
3700.8374,0.7062987174523407,799.7111106414852
3701.6887,0.7017709364372136,1126.6037000235826
3702.5425,0.6962307736746677,1080.854181209423
3703.3943,0.6908558864770958,1178.4813338853025
3704.2483,0.6866730323546011,1259.8878333038938
3705.1003,0.6843735108588145,1309.214680038329
3705.9526,0.68408738620255,1095.808870404964
3706.8074,0.6854841794414972,890.6818107025766
3707.66,0.6879704295734831,800.910351905656
3708.515,0.6909969606208326,1530.6647283913896
3709.3682,0.6941512748914042,851.5643569542979
3710.2234,0.6971617409512707,908.3134259132609
3711.0771,0.6997271974651423,907.7605456516168
3711.9307,0.7015290785103105,1073.0927862620479
3712.7866,0.7023293319746727,1225.5684635376424
3713.6409,0.7021427415713067,888.6630914113895
3714.4973,0.7013082260459441,1323.2571800083856
3715.3518,0.7003460553176993,958.9936653177274
3716.2085,0.6996852973946686,899.9741591977842
3717.0635,0.6994761046051281,902.8426130874427
3717.9185,0.6995950148057936,851.1296483629467
3718.776,0.6999101701673777,836.7041536065469
3719.6313,0.7005417276036174,714.636060728635
3720.489,0.7017742285280845,1335.2108738163251
3721.345,0.703513520332244,1236.363265192015
3722.2031,0.7048346479887444,957.9702073903809
3723.0593,0.7041661019683246,843.3740027894763
3723.9158,0.7002476518013229,684.1157526473338
3724.7747,0.693096102081361,713.1454048756112
3725.6316,0.6844110360631616,1130.7152871376425
3726.4905,0.6767734871502291,605.45535311733
3727.348,0.6724566339012498,5973.065910841901
3728.2073,0.6721969054835698,953.913241987127
3729.065,0.6751176157788488,1274.0836617719194
3729.9229,0.6795768589257893,1028.0391841480518
3730.783,0.6841826037805917,847.7165772937294
3731.6414,0.6880945761046166,805.9673368082206
3732.5017,0.69090451060047,858.0227441487618
3733.3604,0.6924701682088447,933.5463333461291
3734.2214,0.6931315573589392,1252.6546506167815
3735.0803,0.6936819895625358,1060.3968353789226
3735.9417,0.6949189859235071,944.4619812305731
3736.8013,0.6970323833320675,818.1579429319668
3737.661,0.6994944883005598,1062.971150655305
3738.5227,0.701474576219436,912.8554645527473
3739.3828,0.7023417563897388,1101.0680336288221
3740.245,0.7019427084786227,1030.0726969070558
3741.1055,0.7005504728107507,921.9553697724259
3741.9683,0.6986395711317824,886.9779716446942
3742.829,0.6966345582634623,910.7693469882437
3743.69,0.6947782156025875,739.7614903601487
3744.5532,0.6933316988535189,764.346275470158
3745.4148,0.6927650794846014,853.367599116609
3746.2786,0.6935083897155273,915.9582295365431
3747.1404,0.6954328673710091,1062.3984266311677
3748.0044,0.697662931139876,949.9970071876768
3748.8667,0.6990484262931265,705.482518938848
3749.729,0.6990454437698895,981.5029016251809
3750.5938,0.6981347729590278,1131.0344477638782
3751.4565,0.6974594082981241,813.4496334960676
3752.3215,0.6979147639105897,1388.8277951928444
3753.1848,0.6995369635187025,1006.5680857615419
3754.0503,0.7017191334234237,874.1695087715424
3754.9138,0.7039087606637449,789.6295154655361
3755.7776,0.7060152889959496,1241.7943624161264
3756.6438,0.7080407286598692,813.2285201002724
3757.508,0.7095806060386225,986.1068261981061
3758.3745,0.7100208595302133,899.1572162687258
3759.239,0.7092257173424639,871.2425754869605
3760.106,0.7079432068371067,860.1244094207684
3760.971,0.7073908377695077,1202.2203093697708
3761.8362,0.7083747657438353,959.1137373622748
3762.7036,0.7107026525659623,917.5462148807183
3763.5693,0.7131319198129603,920.767255564698
3764.437,0.7139300947803979,920.6281366486867
3765.3032,0.7117300510677805,1034.722333262969
3766.1714,0.7063483919641567,837.8321998525544
3767.0378,0.6989864053493872,763.6940846961029
3767.9043,0.6914370346730354,926.5625071912938
3768.7732,0.6850451883088432,916.2875175199492
3769.6401,0.6802666760106036,787.3584291788757
3770.5095,0.6769229402238383,1228.1386474945075
3771.377,0.6749702729969597,1008.6300454929877
3772.2466,0.6746920219898486,1337.0237746277267
3773.1145,0.6764266887094106,907.1522612482228
3773.9824,0.6800563701320231,729.7750670260048
3774.8528,0.6848029419327054,768.1793211629456
3775.721,0.689432469515396,764.8372043253373
3776.5918,0.6929828594889978,793.3392163548652
3777.4604,0.695252646437949,1073.110385698689
3778.3315,0.6969079897193493,890.9919551906307
3779.201,0.6988226568682759,1464.0011030144663
3780.0703,0.7013716425283991,851.3912972639447
3780.942,0.7041697560430918,957.2810230738838
3781.8118,0.70640835367842,693.2030718108601
3782.6838,0.7074542711090375,808.7958393357607
3783.554,0.7071074309725667,769.5144253228799
3784.4265,0.7055577013436931,983.6067781813573
3785.297,0.7032016372073229,944.689835078479
3786.168,0.700460911278715,754.8245749195472
3787.041,0.6976300384478774,1007.0747673109995
3787.912,0.6947391340863072,808.1684774689388
3788.7856,0.6915015870161125,904.6143141761504
3789.6572,0.687669724330298,1424.4099754646354
3790.531,0.683410383888308,850.6834478464591
3791.403,0.6795540450564334,1001.2249392977016
3792.2754,0.6771727980942597,1120.9296130862251
3793.15,0.6769267600060875,1041.425765416786
3794.0225,0.6785123523359732,859.7547108523319
3794.8972,0.680648712106523,995.1393291956558
3795.7703,0.6815876187395841,908.5991193430302
3796.6455,0.6799872848999713,946.8818927152097
3797.519,0.6756778391642109,955.0829794055545
3798.3926,0.6698119502238111,752.496465554779
3799.2686,0.6642187466070473,900.696317283972
3800.1426,0.660493220114749,847.5798920345138
3801.0188,0.6593336444459617,913.6036198952623
3801.8933,0.660693151225723,1203.9773572148238
3802.77,0.6641681273496817,1080.125177033311
3803.6448,0.6692607005827236,1001.4839852433403
3804.522,0.6754427532066458,1160.6795234518834
3805.3972,0.6819525206725608,804.0051074912316
3806.2727,0.6879562347584259,740.4816650570367
3807.1504,0.6927785536077994,1175.64175481969
3808.0261,0.6961373124499861,614.8751614660839
3808.9043,0.6982236670886527,1064.0608535240876
3809.7805,0.6994616263936676,806.7681285886301
3810.659,0.7004450073187625,892.9878179665894
3811.5356,0.7019295416725975,868.8985848665353
3812.4126,0.7047595291089725,1307.7311893308688
3813.2917,0.7094191587079932,1012.7672515112865
3814.169,0.7153896108287802,809.3316421850925
3815.0483,0.7211323615181948,837.6394910696462
3815.926,0.724733236046277,1127.9519526455892
3816.806,0.7250574709315752,864.4954572239186
3817.684,0.7222283024164288,763.2702783787457
3818.5623,0.7173106507813407,881.2747165955138
3819.4429,0.7115371631100771,718.9279679735569
3820.3215,0.7058722500859465,896.8971481158597
3821.2024,0.7008280905154928,812.9029026677872
3822.0815,0.6966107879250079,867.5382229412913
3822.963,0.6929777023997985,1155.547092954415
3823.8423,0.6893456692317367,777.1037545355767
3824.722,0.6850663753528154,990.9479573131828
3825.604,0.679878451944673,1020.5389157887814
3826.4841,0.6740333328476524,976.241836271772
3827.3665,0.6678626449361881,979.8368397696781
3828.2468,0.6615299753237582,1047.325937814977
3829.1296,0.6548926068368328,1805.3158518091639
3830.0105,0.6478465651537293,911.0421842829824
3830.8916,0.6403655965675781,876.3801849672409
3831.7751,0.6325120841351987,883.4129651224176
3832.6565,0.624413560973812,841.4010868363617
3833.5403,0.6161683002246628,1144.5185328841626
3834.4224,0.6082637355588966,1217.157183540181
3835.3064,0.6017028103431084,1227.0849871555856
3836.1887,0.5980470288087794,1358.401027358279
3837.0713,0.5986571358148535,1985.494449338385
3837.956,0.6039116089487353,1208.8265691804963
3838.839,0.6128478451992624,1241.3511089471835
3839.7244,0.6239240454645704,1192.9846395362547
3840.6077,0.6358782426174326,1127.6057555038406
3841.4932,0.6483044412438103,968.2135818011589
3842.377,0.6609821401670066,1124.3619726460952
3843.261,0.6734688008405901,953.9828716766299
3844.1472,0.6849781085112128,920.5809416350364
3845.0315,0.6948215127693161,866.5457699106423
3845.9182,0.7030804220692274,959.6971563208751
3846.803,0.710365219853713,1019.5842143002614
3847.69,0.7174032249696785,1349.0459502094427
3848.5752,0.7242982745256921,900.6666609259868
3849.4604,0.7305759057831295,696.3045061133416
3850.3481,0.7356498018588273,953.7957679874843
3851.234,0.7393999151874939,842.4464745319409
3852.122,0.7424328434644396,787.6626969681336
3853.0083,0.7455788807906731,722.3824651186843
3853.8967,0.7492587529901299,701.711076178965
3854.7832,0.7529900978241142,690.6238356050249
3855.6702,0.7556808116843056,729.9920159328851
3856.559,0.7563735227476063,737.732164955674
3857.4463,0.7549770242820416,845.5773808505143
3858.336,0.7523002963134557,775.8006445436527
3859.2234,0.7494435621957029,759.9873690688931
3860.1135,0.747086187887582,859.9831741104375
3861.0015,0.7453445237487664,830.5949891919934
3861.8896,0.7439220973278027,808.2941336744028
3862.7803,0.7423953274783013,973.411866874814
3863.6687,0.7404374516385654,798.9895239747399
3864.5598,0.7379740228365749,797.8369532536758
3865.4487,0.7352557594449879,687.4667272148811
3866.34,0.7325418873510231,827.8683538170087
3867.2297,0.7298058145913344,809.9212029749185
3868.1213,0.7267076384746501,818.5590465409765
3869.0112,0.7230961829132639,728.698178461483
3869.9014,0.719281833945782,873.0773598191236
3870.7937,0.7157624665124185,878.8231189700606
3871.684,0.7126846992952626,864.8886966332948
3872.577,0.7096946089579513,957.5541027903123
3873.4678,0.7064720374414772,1060.5216414226088
3874.361,0.7030132593710683,1084.359445169538
3875.2524,0.6994394001556582,1113.5320947373718
3876.1438,0.6954484162146003,705.177001916117
3877.0376,0.6902198860846334,1173.9290996258806
3877.9297,0.6828559746916031,894.9699323500862
3878.8237,0.6728676966392994,900.6337195820017
3879.716,0.6606563419672451,926.5762327662931
3880.6108,0.6472028426394716,1369.7476106536024
3881.5037,0.6336993519190205,980.5448250599143
3882.3965,0.6207371377572711,1131.4048794564537
3883.2917,0.6082453813013322,1100.6444480117511
3884.185,0.5958937272414563,1064.650270853206
3885.0808,0.5832801006074071,1295.927287620636
3885.9746,0.5703948083350895,1363.1651437002984
3886.8706,0.5574034890665206,1361.6998549268396
3887.765,0.5448799355305932,1975.879885204763
3888.6592,0.5336616719000615,1296.1707524078079
3889.556,0.5249812860140484,1775.160799750845
3890.4507,0.5204028334912868,2194.674626716274
3891.348,0.5212954465395702,2057.0744912923387
3892.243,0.5282909382540952,1834.0761396391954
3893.1406,0.5407690047074382,2231.2175357002952
3894.0361,0.5566510060575444,1417.5174954473625
3894.932,0.5732799653644236,1352.267288868738
3895.83,0.588494131939016,916.5307031164829
3896.7263,0.601437550682966,1362.9447553748437
3897.625,0.6128378094559515,1148.4006392364925
3898.5215,0.6238786927512486,1686.106402661267
3899.4207,0.6354187273948555,725.5523365314618
3900.3176,0.6473206229507874,1036.0126925771565
3901.2148,0.6590063230998668,832.3787617905772
3902.1145,0.6700103891232456,652.3081959165828
3903.0122,0.6803321442624207,1055.6895175109798
3903.912,0.6905782389037378,1047.0889151043825
3904.8103,0.7013805030840133,1651.1501504049793
3905.7107,0.713187050155031,1422.954520881071
3906.6094,0.7259044048515186,957.0448371746836
3907.508,0.739099462657656,947.321189361411
3908.409,0.7520137872483015,765.41937673976
3909.308,0.7636181220581081,819.8098418374074
3910.2097,0.7731712012646955,554.7653417857038
3911.1091,0.780462915684172,1310.6892192292494
3912.011,0.7861084140610491,630.2769381364187
3912.9111,0.7909467993440756,772.6399355728879
3913.8113,0.7955226123916878,647.0217904909878
3914.7136,0.7998200623115103,750.8447927349628
3915.6143,0.8035213092707527,637.8773306488558
3916.517,0.8064681798902045,615.4733411439333
3917.4182,0.8087602979771615,645.7240435061227
3918.3215,0.8107585023506229,837.052062573155
3919.223,0.8129287002132857,710.0582045113324
3920.1245,0.8156831092173873,710.8775380652999
3921.0286,0.819096705561834,787.2032084757551
3921.9307,0.8227373216636064,666.4684775285313
3922.835,0.8259341432356189,578.0963271974593
3923.7373,0.828137187647277,677.2521905419512
3924.642,0.8292054758453192,745.9329615120432
3925.5452,0.8292594726941156,693.1014721127093
3926.448,0.8285133136937314,714.0533335797339
3927.3535,0.8272713137286906,578.31855348418
3928.257,0.8260788792004842,739.0294362369121
3929.1628,0.8256182866254488,795.6801552784112
3930.0667,0.8263256872621558,728.6772788795937
3930.9731,0.8280023356382189,666.1024659276621
3931.8774,0.8298302102308757,636.0757963449443
3932.782,0.8308755369608734,669.6531033683234
3933.6887,0.8306213113345977,522.1406730062319
3934.5938,0.8291693137242636,545.5589580586
