wavl,flux,ivar
3566.9744,0.20434200811635475,640.5851156482588
3567.795,0.19913804355058526,1159.1176241442513
3568.6177,0.19517632404573643,24370.512621697388
3569.4385,0.19411325043188532,2400.1006447184473
3570.2617,0.1958293259036652,925.913337608528
3571.083,0.19838088412078142,1866.990897236099
3571.9065,0.1992942458647699,443.10321248796765
3572.7283,0.19720907809867141,827.1568907439516
3573.55,0.19273252859272266,1086.4442252419885
3574.374,0.18791394974812234,830.0945951582866
3575.1963,0.1849586558108491,1329.37037505023
3576.0208,0.18491341273234582,2363.130531575528
3576.8435,0.18726577395068444,1546.2620609374935
3577.6682,0.1903980026664824,6866.260372538619
3578.4915,0.1925815391877802,520.7017471971114
3579.3145,0.19296835275805832,1806.3704664538577
3580.14,0.19181286825061694,506.04985544127663
3580.9636,0.18989998492648438,562.1441225374516
3581.7893,0.18770744787511168,2000.6832702604802
3582.6133,0.18522144028672916,497.2158338893506
3583.4395,0.18240574363568615,1235.9417148284767
3584.264,0.17975315321817265,4096.551794514342
3585.0884,0.17810108605745945,532.5579223186453
3585.915,0.17812388357153178,858.3058689721485
3586.74,0.18009837754983707,692.58362596434
3587.5671,0.18410388332381272,1401.5836410324848
3588.3923,0.19000500224324832,2385.945355711018
3589.22,0.19714223038438664,1420.2015273262557
3590.0457,0.20403515538715958,1461.7307252930154
3590.8716,0.20913579032698384,755.6075133128359
3591.6995,0.21177924421730626,9444.538952162198
3592.526,0.21258166762775954,1007.3343377597462
3593.3542,0.21276759096185324,29487797.86789614
3594.181,0.21298374395107836,1141.8593600774611
3595.0098,0.21280797171025642,626.6523660197483
3595.8367,0.21137931826589593,245.0356924322145
3596.6638,0.20845218262356488,17922.37309782175
3597.4934,0.20474000933982303,960.3626191796629
3598.3208,0.20132132978188155,1264.1191118456181
3599.1506,0.19873720037806084,3600.9370180877295
3599.9788,0.19687067036145356,1525.2789874163495
3600.8088,0.1953002557417599,1766.7233634352547
3601.6372,0.1937527190523234,23111.832580376344
3602.4678,0.1921916880953989,903.9306709836626
3603.2964,0.1908019970394196,597.5196634116221
3604.1252,0.1899077373335108,1840.2730118777463
3604.9565,0.18993343745620392,1039.2669627381695
3605.786,0.19131786697899464,560.6252714441544
3606.6172,0.19440647790578697,1541.1754534610657
3607.447,0.19922934935740405,342.4151709085236
3608.2788,0.20529407807847927,859498.2648775673
3609.109,0.21139416432385497,1248.5917841995927
3609.9392,0.21596528635196582,664.6383092895171
3610.7717,0.21764928532844258,615.8879435239547
3611.6023,0.2159307381227534,508.64610461282166
3612.435,0.21141691049761907,6657.552766645026
3613.266,0.20561613577924648,675.9619832445317
3614.0994,0.20022323231694597,1203.285473370102
3614.9307,0.19645034580819878,696.1515618343561
3615.7625,0.1944566863438117,2058.179402432851
3616.5962,0.19353268962805517,4444.12186500085
3617.4282,0.1927649596003693,607.6240010447001
3618.2625,0.19175815780499256,932.2386784089456
3619.0947,0.19085304606292022,5742.140392061076
3619.9292,0.19066235941010384,1059.9392831725158
3620.762,0.1914545617142336,920.1666437898801
3621.595,0.1929176253175536,3586.6445288450986
3622.4302,0.19449156289804148,563.1418230299298
3623.2634,0.1958738474973013,741.0192421859377
3624.0989,0.19725214324396015,951.3143577106384
3624.9326,0.198980271914448,674.3422198777357
3625.7686,0.2011697504434761,1740061.2356335802
3626.6028,0.20364037405710922,1504.1158667524862
3627.437,0.20643070384741116,951.9067506896852
3628.2734,0.21006067088540648,895.7207931463611
3629.1082,0.21487861515933648,1657.6435434707817
3629.945,0.22006424670030847,930.6254557217305
3630.78,0.22340420658158452,524.7322877325138
3631.6174,0.2226846641382679,1404.99442198714
3632.453,0.21723268862335254,929.7473968883862
3633.2883,0.2082441138207163,2009.7043406982043
3634.1262,0.19779736240885573,890.28228861178
3634.9622,0.18805629350769004,367.26057718961994
3635.8005,0.1809333560708709,4041.7346224284684
3636.637,0.1783254117488671,1413.3385677352871
3637.4756,0.18145483637550358,77272216.62301913
3638.3123,0.19004839210590213,18356.333051640617
3639.1492,0.20212436959187194,859.2397791257425
3639.9885,0.21480981551613246,528.5419625268618
3640.826,0.22546142435439157,861.6813888532813
3641.6653,0.23268376829415027,1704.6676214436523
3642.5032,0.236151894682469,324.1714250068951
3643.343,0.2362526770608692,904.9358159085023
3644.1812,0.2335022152089987,550.3105960168311
3645.0195,0.22831830915605522,5118.429326460973
3645.86,0.22118136010448614,397.49585037749523
3646.699,0.21312620144010958,1352.2659186451058
3647.5398,0.20570968864972305,4007.4440104089726
3648.379,0.20053905969660327,1613.4877968476458
3649.2202,0.19829808109709574,1212.9801168211557
3650.0596,0.19850448251084982,15260.514614693857
3650.8994,0.19992825675248072,1267.9802945596255
3651.7412,0.20139928839304716,766.3412244403434
3652.5813,0.20231533576098565,506.81047983346383
3653.4236,0.2027676770742572,4866.266540552173
3654.2642,0.20331301519710554,1695.102387727677
3655.1067,0.20461654917068609,497.5068298479291
3655.9475,0.20705209965830323,14450.441405758664
3656.7886,0.21048126779798762,745.125038777031
3657.6318,0.21430062894649768,5161.4523945414
3658.4734,0.21774453318405937,340.690149951161
3659.317,0.22033467586533206,564.7287382796133
3660.1587,0.22196356311257534,903.9567882816682
3661.003,0.2227691355746651,1870.040831064707
3661.845,0.22285043059304097,933.9260730496795
3662.6875,0.22217822955763444,1813.654299005396
3663.532,0.2206524273946899,1241.9005736856514
3664.3748,0.21825547925960598,614.7248285323992
3665.2197,0.21510777093947803,10174.425491333817
3666.063,0.2115359690306874,415.99596993278936
3666.9084,0.20800575588129708,950.3839961823596
3667.752,0.20504415102604368,261.6592612775491
3668.5977,0.20287116587673856,5527.205504227571
3669.4417,0.20125310091931378,813.0265064151334
3670.286,0.19969844964813918,385.83513354346604
3671.132,0.19801464155197268,1339.4946198416656
3671.9768,0.1966064456148267,2272.2480515876705
3672.8235,0.19619403885229939,2812.371446365246
3673.6685,0.19729368749369475,327.667645422011
3674.5156,0.19986414346397183,352.46709789206926
3675.3608,0.20329297562981524,14710.510555158804
3676.2063,0.20673598256934594,2520.101992869918
3677.0542,0.20954380779262566,301.751374955236
3677.9,0.21157414350898063,333.47197270913153
3678.748,0.21316568802116936,410.44083845875406
3679.5945,0.21462625511581052,634.0044166998392
3680.4429,0.21587215888593564,515.5550619997463
3681.2896,0.21647551458186,801.1337694846019
3682.1365,0.2160873148792799,58672.63344792764
3682.9856,0.2146883558909009,296.6998810760965
3683.8328,0.21252909367097905,1547.1000395086148
3684.6824,0.20991044187353622,119084.05779194226
3685.53,0.20724801344828717,956.9723104767945
3686.38,0.20524417123541563,1662.2664693549332
3687.2278,0.20499762971377897,1373.478527787158
3688.0762,0.20759253286202178,1351.9948139268613
3688.9265,0.21344375347520958,2909947.843697156
3689.7751,0.22165170736770845,706.4830660042019
3690.626,0.23005527147251292,531.0706956110563
3691.475,0.23577192343800343,225171.3949623848
3692.3264,0.23656154164312665,1381.7996181498054
3693.1758,0.23204430224603134,620.0625959699847
3694.0254,0.22424744732614305,6587.879826925959
3694.8772,0.21670305315838645,4223.902864159858
3695.7273,0.21261124679071,97911.56987927014
3696.5793,0.21307792413626336,1856.3504457644565
3697.43,0.21699898479092558,845.5781655745081
3698.2825,0.22230367010128674,1128.358572398567
3699.1333,0.22737740271932644,295.9748065517546
3699.9841,0.2316575789158582,5955.724256824888
3700.8374,0.2350806748176052,7282.44825720197
3701.6887,0.23729558844822649,1346.6666306075817
3702.5425,0.2375188838099043,1801.4934012467802
3703.3943,0.23500715921895746,2845.9079226705758
3704.2483,0.22976765298028398,2405.6065693253477
3705.1003,0.22289223731752675,4389.19882294286
3705.9526,0.21611729900177581,714.4203243579067
3706.8074,0.21114926743155035,1903.4527113369475
3707.66,0.20909260176841343,505.14571315973666
3708.515,0.21004196400742906,414.36332843180116
3709.3682,0.21299439323926594,1235.193728593632
3710.2234,0.21600531445848756,1025.2354508868361
3711.0771,0.21696051254397644,8626.097899682174
3711.9307,0.21497358197478905,240.90956230415313
3712.7866,0.2112318104733475,1474.096802274854
3713.6409,0.208391236236077,5190.563312788374
3714.4973,0.20858279228089868,956.9707734968486
3715.3518,0.21187300343385237,229.72765952636377
3716.2085,0.2164453180042991,564.6517768857086
3717.0635,0.22013889004761936,377.40901583067074
3717.9185,0.2219303236260471,909.8695785519203
3718.776,0.2220513042970539,3068.85028553015
3719.6313,0.22118073674417824,384.60252409653526
3720.489,0.21965214709965863,1885.9075238212656
3721.345,0.21734614990361598,973.1737551860573
3722.2031,0.21411581502996413,1273.8161620092624
3723.0593,0.21034532246539267,2685.2024064748357
3723.9158,0.20700062611405026,9189.481530854158
3724.7747,0.20523720801512593,926.5723311228664
3725.6316,0.20577601359251024,579.1669676793457
3726.4905,0.2085019920616534,576.3656986069541
3727.348,0.21256535690210818,463.8077891311925
3728.2073,0.21685827191563745,6117.402447592602
3729.065,0.22041671460546178,2288.418057156242
3729.9229,0.22270331307256103,5540.739543267944
3730.783,0.2235264842315411,383.69014939274894
3731.6414,0.22292070932168143,1334.0880973804797
3732.5017,0.221133252123491,371.5267364989384
3733.3604,0.2187194256544391,775.6995173079297
3734.2214,0.2165150673213096,922.0220359047698
3735.0803,0.21542909962606893,624.165191295725
3735.9417,0.21601385815507454,1871.2390028434206
3736.8013,0.2181953038391154,2478.308286872749
3737.661,0.22126365535006137,800.1436066084202
3738.5227,0.22414642164045054,2144.1697205601185
3739.3828,0.22579890921927862,452.5315626713702
3740.245,0.22563758983767335,3536.6145859861927
3741.1055,0.22370292300778738,4941.0803261331075
3741.9683,0.22057794483062113,268787.7797976363
3742.829,0.2171781610788302,2183.2861285920876
3743.69,0.21440682444643483,1334.1159147477138
3744.5532,0.21289164396236177,6044.370229494736
3745.4148,0.21281156074602706,1105.7638211137698
3746.2786,0.2139136375762379,412.30024279695505
3747.1404,0.21572046181807447,913.3010887602511
3748.0044,0.21773315275439628,1136.992732905369
3748.8667,0.2194998892778126,1423.597586005566
3749.729,0.22072215040547996,668.2766361482961
3750.5938,0.22132590016379014,1586.402349782667
3751.4565,0.22154706294046597,1187.5181444507718
3752.3215,0.221988739274593,1100.7330740956068
3753.1848,0.22346818112604802,280.9958584412636
3754.0503,0.22658238210506332,471.6928162185608
3754.9138,0.2311567990798109,1254.1767856255117
3755.7776,0.2362029868786291,1715.7461903678302
3756.6438,0.24036672429715147,633.1742788858937
3757.508,0.24250208753593028,582.8685767049285
3758.3745,0.24206837963586153,477.21824091856786
3759.239,0.23916784274046432,703.7140731315063
3760.106,0.23450782568463732,1720.4487590487433
3760.971,0.2292359356916778,10303.267807549502
3761.8362,0.22442511112505412,7111.868003451499
3762.7036,0.22078462944739177,586.3615182187607
3763.5693,0.21875241002473939,783.8044692532766
3764.437,0.21859894448466793,8147.144810041635
3765.3032,0.22023102585596266,741.305276059713
3766.1714,0.22280807421790536,1208.8738384764642
3767.0378,0.22486612276795676,2428.711347775337
3767.9043,0.22511880019310085,460.76107016334277
3768.7732,0.22315824637348283,4360.817037681298
3769.6401,0.21958927516190715,976.2517403914702
3770.5095,0.21551927635208568,771.8529157565431
3771.377,0.21203867320817874,2033.3461985541576
3772.2466,0.20983336743124628,1007.187620261092
3773.1145,0.20924435081355136,853.349587371479
3773.9824,0.21036648702519287,5862.903095008551
3774.8528,0.2131201526962522,1269.9737048814804
3775.721,0.21707050807129533,970.2867321648437
3776.5918,0.22140000469298235,432.02000558583467
3777.4604,0.2250993259548187,993.2868958070094
3778.3315,0.22759232940707746,1367.46498319592
3779.201,0.2289609628341935,443.0139426711024
3780.0703,0.22969258978344984,61226.74474671371
3780.942,0.2300255562899451,1977.0400853724175
3781.8118,0.22963195844447237,918.3582444702452
3782.6838,0.2279279737512308,1340.2557081243601
3783.554,0.22473223866845007,435.21004919247116
3784.4265,0.22062193491419457,424.7872746540897
3785.297,0.2168123321005393,1055.619830867727
3786.168,0.21450336642070672,496.7247772918784
3787.041,0.21434867507286195,760.3176414283199
3787.912,0.21619595043634354,559.4039513413652
3788.7856,0.21926045351855591,354.1937381516302
3789.6572,0.2225468348197787,832.6476906259769
3790.531,0.22537198870464875,786.8858551186958
3791.403,0.22751888109962637,492.4687409429865
3792.2754,0.2291113700259981,904.90312186932
3793.15,0.23023567496309488,405.17736777810217
3794.0225,0.2307723236855109,915.0779619660079
3794.8972,0.23060463182824242,588.8465171051281
3795.7703,0.22993380852957246,839.3956458510664
3796.6455,0.2293449027370498,2109.5740856945513
3797.519,0.22948284682423659,452.0862359420506
3798.3926,0.23055289379167837,959.7656695564153
3799.2686,0.2320650950396239,689.8025740655994
3800.1426,0.2330036568126651,463.06867232766865
3801.0188,0.23241953210750507,561.3920528741634
3801.8933,0.23004671515369715,1752.3592648244685
3802.77,0.22656938079982294,804.4043014416767
3803.6448,0.22333979216685482,371.3688355702108
3804.522,0.2214952148408391,5171.8740995954095
3805.3972,0.2211856420498693,38080.98347272371
3806.2727,0.22140299076796416,3183.2853086004625
3807.1504,0.22080444241152905,3338.1516108634346
3808.0261,0.21888623317919037,1968.0707223023019
3808.9043,0.21650248833549005,651.9636128652501
3809.7805,0.21527642167409386,24333.854838210333
3810.659,0.21633509677756427,2970.9868456021754
3811.5356,0.21956818804470257,1489.0737312556817
3812.4126,0.22392748348478844,1656.9277202618662
3813.2917,0.2283449935805374,533.4492066626365
3814.169,0.23235043893826632,535.8481425878078
3815.0483,0.23607949967428388,305.0419956104716
3815.926,0.2396477136817526,525.82890233929
3816.806,0.24277650710447318,489.76636673733793
3817.684,0.2447883755301581,1321.0057191934961
3818.5623,0.24510057693285345,350.79737563946406
3819.4429,0.2435991880763903,439.57764194592255
3820.3215,0.2407542514837624,534.4840591810606
3821.2024,0.23737090251652454,915.8562700775732
3822.0815,0.23429613265358604,3063.031000800599
3822.963,0.23209357727343646,1529.8783034183525
3823.8423,0.23098338505122099,642.9979413461125
3824.722,0.2308221775461811,497.2613359743078
3825.604,0.23115677940166393,1766.1670995269517
3826.4841,0.2312359233357119,861.3303418270107
3827.3665,0.23016130021728834,653.5754179254135
3828.2468,0.22724733161172953,597.1592269470102
3829.1296,0.2223917610744294,478.6495748148909
3830.0105,0.21629321454521233,603.2491090820482
3830.8916,0.21011933722759416,1158.824147062247
3831.7751,0.204959931931967,721.495051697187
3832.6565,0.20129788148397548,1127.1227714124398
3833.5403,0.19878764571949903,1064.8070790746867
3834.4224,0.19683841016158643,706.2972101167633
3835.3064,0.19536685998192221,1644.3467878122437
3836.1887,0.1951822294240408,1660.1937355791806
3837.0713,0.197351533147838,3234.561236643057
3837.956,0.20209240631090686,569.4552415197738
3838.839,0.20815891459367938,511.74463768194914
3839.7244,0.2135802340758855,629.952099841571
3840.6077,0.21688661424012884,6319.137911071362
3841.4932,0.21798760876274176,613.0214240533418
3842.377,0.21782294842707578,712.8668604757421
3843.261,0.21749288854960758,1278.5378434499346
3844.1472,0.21756176040131703,338.077085127132
3845.0315,0.21800554195285238,1149.8159270411354
3845.9182,0.2186309663434213,629.3977964182407
3846.803,0.21949439533635812,842.5612532094788
3847.69,0.2209620809786583,2525.516937708058
3848.5752,0.22334785671442506,932.179626216543
3849.4604,0.22659887674269272,1018.2933034477772
3850.3481,0.23038906302968762,699.9341761206072
3851.234,0.23450243162741188,511.05076545478306
3852.122,0.23909730113666364,1249.535318868111
3853.0083,0.24426454692640703,1084.6325816406325
3853.8967,0.24958615493516226,708.1771365182808
3854.7832,0.253995087609563,460.32207835890165
3855.6702,0.25644560441507763,1074.302787980417
3856.559,0.2565557820497626,299.6492423362288
3857.4463,0.2548473384013439,509.72177094762003
3858.336,0.2523222626197736,1171.179011738531
3859.2234,0.24984968728684367,487.4182839162843
3860.1135,0.24781560345122458,418.77576191059546
3861.0015,0.24638305698030535,2611.476623434993
3861.8896,0.24582031639517568,4771.829360315205
3862.7803,0.24654964418571051,333.073990468593
3863.6687,0.248722762095932,891.5380897557429
3864.5598,0.2518377919605522,775.9508741731546
3865.4487,0.25476137112850644,1103.549452451675
3866.34,0.25634435916387815,1284.1502477820638
3867.2297,0.2560173147944041,1178.8133815711535
3868.1213,0.25407864628857735,775.978593139782
3869.0112,0.2514166896679359,637.2039371880912
3869.9014,0.24894923128055108,564.6282959592439
3870.7937,0.24726290925203112,937.0578810985592
3871.684,0.24657446279800216,989.1995288656238
3872.577,0.24678855824513904,841.0911147545454
3873.4678,0.24749807495948176,1312.0762135520408
3874.361,0.24794951874599735,6207.305405291617
3875.2524,0.24724063199878749,691.2704672498481
3876.1438,0.2448217686853961,694.2093008470615
3877.0376,0.24091186620057237,714.2952510768874
3877.9297,0.23649729320588733,418.34577600583555
3878.8237,0.2327120684915136,1516.3230699946498
3879.716,0.23028261620015367,909.1075228321963
3880.6108,0.22924985427157235,1171.8975877636162
3881.5037,0.22915809196998996,268.72432762050374
3882.3965,0.2292024019434412,2612.8234356731737
3883.2917,0.22830000890180888,1046.9416231051075
3884.185,0.22527480494845836,794.5229757908232
3885.0808,0.21926877581699628,1296.8216621511253
3885.9746,0.21030294929641646,6200.20710016427
3886.8706,0.19938647435514192,561.345451227593
3887.765,0.18847384107721968,852.9977540648126
3888.6592,0.17973439936739052,4871.961465279564
3889.556,0.174866518074829,5113.11546547928
3890.4507,0.17451951157892379,850.2784013906746
3891.348,0.17813121742554006,869.6097521776445
3892.243,0.18438001295031142,1016.0265417587217
3893.1406,0.19192281529215258,967.2889367415669
3894.0361,0.19974132933804079,1574.9560504793471
3894.932,0.2072804684222812,1055.938223050931
3895.83,0.21407590011681232,828.803974843652
3896.7263,0.21955265302583032,342.90688367552394
3897.625,0.22340328742300442,447.17727689557773
3898.5215,0.22587348407516497,508.6841222448065
3899.4207,0.22780975622134747,2138.6446561819835
3900.3176,0.23007498931858095,4512.2613795280295
3901.2148,0.23310489741063575,614.3909989769692
3902.1145,0.2368995017660481,842.9953953764826
3903.0122,0.24128951431172116,9877.616950977856
3903.912,0.24611860876660055,1004.4273317172126
3904.8103,0.2510270301725498,608.8512869930834
3905.7107,0.2555231263071975,907.8164853009231
3906.6094,0.2591781253177724,1074.7197674882725
3907.508,0.26192904905978837,1683.0785995865588
3908.409,0.26395107265736273,636.7942803121969
3909.308,0.265331281645983,495.4035520497416
3910.2097,0.2657206872201617,757.8194003741174
3911.1091,0.2638856902733106,564.8665547556909
3912.011,0.2574301540743498,343.38019784015734
3912.9111,0.24348732328238828,539.940786303784
3913.8113,0.2208431938040445,495.98354624837646
3914.7136,0.19275644692366592,257.007339167534
3915.6143,0.16794973762525828,1245.7532329103944
3916.517,0.15646611089946982,3.8127640884471536
3917.4182,0.1635620181603087,1665.093397923204
3918.3215,0.18590489323073697,600.9250283662564
3919.223,0.21406684590998606,1477.3963980984395
3920.1245,0.23907028707116584,1151.1586760608861
3921.0286,0.2565918643624874,548.7566075388247
3921.9307,0.26690543039344156,597.1284757268459
3922.835,0.27264159726284587,500.7385681945962
3923.7373,0.2762962998895282,1303.1397569098133
3924.642,0.27941871508562244,4269.411961812558
3925.5452,0.28247602330893196,354.0865206559836
3926.448,0.2851815635232875,894.1726231490128
3927.3535,0.286903982715914,380.4228893268397
