wavl,flux,ivar
3566.9744,0.7424133290794943,883.6801734675247
3567.795,0.7410664000448771,900.979097038305
3568.6177,0.7391541681342422,569.9272447350075
3569.4385,0.7364376932484792,732.9182598010781
3570.2617,0.7330782587089791,668.2474623294446
3571.083,0.7296507077684152,843.4274736485294
3571.9065,0.7266848189817184,1044.1864902505833
3572.7283,0.7243461428105533,1133.209484664296
3573.55,0.7223745297395012,713.075983607565
3574.374,0.7205187469948126,714.706950095053
3575.1963,0.7189916348161353,1008.5153576327054
3576.0208,0.7184279534976803,689.5083817463799
3576.8435,0.7194302645862435,780.2394631528796
3577.6682,0.7221176647723564,1031.8380925879214
3578.4915,0.7260338039466461,588.826895932547
3579.3145,0.7303338354859845,847.1019048416258
3580.14,0.733976146448675,775.2463818592282
3580.9636,0.7359606766325288,677.462725670368
3581.7893,0.7357658129979815,575.8266285846806
3582.6133,0.7335286303550468,1195.9410622308303
3583.4395,0.7298697126965378,718.7652140194045
3584.264,0.7255649421616046,607.942341323083
3585.0884,0.72132077092563,730.0578690222194
3585.915,0.7178986957057032,921.3070754207085
3586.74,0.7161883630626085,1020.239305549794
3587.5671,0.716838487283794,969.3636726240833
3588.3923,0.7197692452015432,868.0321845622551
3589.22,0.7240084150942235,1257.196991472514
3590.0457,0.728046653485334,1196.0720795362747
3590.8716,0.7305761399275358,666.1645347567586
3591.6995,0.7308821294490336,825.5744359565712
3592.526,0.7289422173084826,685.0969274730061
3593.3542,0.7253723451677843,801.8344150218086
3594.181,0.7214003801186424,789.878906927554
3595.0098,0.7185684921926303,1250.4746329607672
3595.8367,0.7181632443952762,1088.4392091365871
3596.6638,0.7204141045759133,828.7127165219333
3597.4934,0.7243058505201286,648.2746155065762
3598.3208,0.7281172942835341,672.3371048252445
3599.1506,0.7304456671005821,1017.5771973639696
3599.9788,0.7306531576915885,1195.2780720397097
3600.8088,0.7288145214945669,1066.5761872393964
3601.6372,0.725500052940586,675.2791953237287
3602.4678,0.7216949251608153,692.0540133948348
3603.2964,0.7186057366505395,1051.8502992436415
3604.1252,0.7169459342300724,1071.0729369780615
3604.9565,0.7164523380303631,654.9795912447628
3605.786,0.7161228816162869,741.8708919404992
3606.6172,0.7150596461248734,566.3952225565014
3607.447,0.7131117446125809,823.6200858471411
3608.2788,0.7107300422280917,843.2881991195654
3609.109,0.708402487521137,761.1452375742354
3609.9392,0.7062562987518272,1028.100224888605
3610.7717,0.7043004640819626,815.6378154575624
3611.6023,0.7029106232842122,1171.1154601951257
3612.435,0.7028422932631779,738.2731906545424
3613.266,0.7046258415442113,940.5659281000914
3614.0994,0.7078406584396096,736.2672524297495
3614.9307,0.7110706193071523,901.521105435261
3615.7625,0.712826736373641,809.1684503393147
3616.5962,0.7125711154278518,1215.935831985073
3617.4282,0.7110960042758601,1053.2883704235528
3618.2625,0.7098991879092207,945.1896000054808
3619.0947,0.7101627754078328,750.6837302909017
3619.9292,0.7121007875280486,1034.8955194154944
3620.762,0.7150721342287469,836.6705380951837
3621.595,0.7182298909372045,947.0209439212205
3622.4302,0.7211124751354546,748.00003956101
3623.2634,0.7237617142194476,962.9133872316424
3624.0989,0.7263715682639644,803.8368879649671
3624.9326,0.7286883134243735,723.6497864211117
3625.7686,0.7299965329087277,954.2832388127746
3626.6028,0.7297199913019154,699.2624574386351
3627.437,0.7282047128443253,603.7864015629916
3628.2734,0.7267281692776305,724.9247346142633
3629.1082,0.726640644691655,1290.448799558054
3629.945,0.7282766752006868,825.2733036482445
3630.78,0.7306197351869642,758.4942809980015
3631.6174,0.7319958246291565,587.6725021772623
3632.453,0.7311700718156207,869.3083795067598
3633.2883,0.7281677567939013,650.2853966656527
3634.1262,0.7242664712969925,838.4270906634949
3634.9622,0.7213761576468146,810.6242522385456
3635.8005,0.7210044042828461,818.5705051172417
3636.637,0.7235612790198047,696.54940733747
3637.4756,0.728229821870283,645.9489227955465
3638.3123,0.7333990682842035,554.5505954285338
3639.1492,0.7374554714552212,709.3447713750162
3639.9885,0.7393556396093224,795.1859866047827
3640.826,0.7389261891276646,950.115274598915
3641.6653,0.7367899029844563,731.8591739753424
3642.5032,0.7339466042679177,801.9131564635319
3643.343,0.7312896084033758,836.19563775031
3644.1812,0.729408469096749,810.4984718333897
3645.0195,0.7286033253080204,980.6355911031627
3645.86,0.7291133767450168,780.7711204855538
3646.699,0.7312030527195676,1004.333335595086
3647.5398,0.7350159171590147,676.5967030656614
3648.379,0.740212441171136,846.4241141813261
3649.2202,0.7458669691899316,754.5101562295335
3650.0596,0.7505998562768023,785.0697789146626
3650.8994,0.7531700963100061,852.8969617780353
3651.7412,0.7528627605958814,768.3604901744336
3652.5813,0.749711501453056,878.7740167454308
3653.4236,0.7443975038869975,938.8830828705261
3654.2642,0.7380428001183632,782.8354231453957
3655.1067,0.7317632125355688,882.610627191269
3655.9475,0.7264327060271875,844.1931983226225
3656.7886,0.7224561813098682,752.086250575839
3657.6318,0.7199054689640493,1064.4395988526614
3658.4734,0.7185980306483609,1168.7824135730796
3659.317,0.7180033484401904,1024.2157190363184
3660.1587,0.717317963950522,775.58889291864
3661.003,0.7158351316649018,599.2414337330815
3661.845,0.713478728425108,1207.4199521339465
3662.6875,0.7109399163763048,726.9297959372208
3663.532,0.7093544059924004,818.7643491195361
3664.3748,0.7097241061308472,737.6167603158058
3665.2197,0.7123927241403697,978.5135038514668
3666.063,0.7168050817191869,845.0265526288656
3666.9084,0.7217180016897529,789.8226893951497
3667.752,0.7256614595227444,1276.9971941986691
3668.5977,0.7276484602790775,811.5375550236765
3669.4417,0.7274664731125019,667.823477456954
3670.286,0.7256082764647662,846.0566199406821
3671.132,0.722796686400705,917.088864895237
3671.9768,0.7196255575084309,721.567010328267
3672.8235,0.7164591309606925,775.1399996452707
3673.6685,0.7136371126436795,855.1824885647773
3674.5156,0.7114460177291485,1044.9928842456243
3675.3608,0.7099666519148844,782.9899015151414
3676.2063,0.7089209565983188,742.9371932857538
3677.0542,0.707910053517613,658.6851379074466
3677.9,0.706771695627615,1007.3156583111365
3678.748,0.7056941932398975,896.1835345834234
3679.5945,0.70509098418855,668.3601051809
3680.4429,0.7053309571949133,698.0021780890814
3681.2896,0.7064672174495349,725.1401060061875
3682.1365,0.7079750150843441,771.7892677914036
3682.9856,0.708787084754513,1000.4863527961646
3683.8328,0.7078904161582621,636.5510884631265
3684.6824,0.7051796655771831,617.4018113597947
3685.53,0.7017725161971278,869.101672224318
3686.38,0.6993243754140804,858.3030028555131
3687.2278,0.6990499702729771,1014.2195446572802
3688.0762,0.7011393405651551,879.6672045058673
3688.9265,0.7050053763038121,1193.763118193355
3689.7751,0.7097202453100161,675.0750676799397
3690.626,0.714337871886629,940.362222552761
3691.475,0.7179057279427927,829.6144227485788
3692.3264,0.7197631572232698,651.6217361768348
3693.1758,0.7197757747641575,729.4344831597465
3694.0254,0.7183628230144787,652.0397934115935
3694.8772,0.7161309559215289,727.2739129040409
3695.7273,0.713651054052814,738.4769488828238
3696.5793,0.7114705912644927,726.5091038645835
3697.43,0.7102124302744914,871.958834943644
3698.2825,0.7103317726412106,899.1488768620987
3699.1333,0.7118486436349531,712.9574827055593
3699.9841,0.7143705513327636,974.3507350787235
3700.8374,0.7174137992675774,992.8649966600497
3701.6887,0.7205709186800731,907.39082960312
3702.5425,0.7234611699310539,883.7999565241839
3703.3943,0.7255085430485179,786.8658071518462
3704.2483,0.72611795834844,817.9101466152089
3705.1003,0.7250051701289808,630.7809947023584
3705.9526,0.7224408153969774,925.6794017491666
3706.8074,0.7191072428138539,918.811874700653
3707.66,0.7158449051426131,961.118729538635
3708.515,0.7133371734059752,850.0396171829293
3709.3682,0.7119415395508983,1206.2673994577228
3710.2234,0.7114609953119883,586.9593848354845
3711.0771,0.7113169967072382,1170.8239855826587
3711.9307,0.7110745113886908,1095.7347481522602
3712.7866,0.7108722293985904,1131.1729246888324
3713.6409,0.7112356243230492,1718.6241912202868
3714.4973,0.7124810195783546,1112.2267597810974
3715.3518,0.7143827359305651,1082.4426545336053
3716.2085,0.7164181552758272,992.4716755152882
3717.0635,0.7181086756903913,823.1191478993325
3717.9185,0.7191488576054035,605.6177484285598
3718.776,0.719300463068114,1024.8789319725765
3719.6313,0.7184503487830003,883.1182606534494
3720.489,0.7168220682494562,899.7498922010121
3721.345,0.7150522963756952,628.9406764752699
3722.2031,0.7138917870605413,831.5822319266263
3723.0593,0.7137940916077834,856.3048734192295
3723.9158,0.714645795318455,705.0135765579037
3724.7747,0.7159174270646811,514.7592973973528
3725.6316,0.7170564743398797,795.0107573706333
3726.4905,0.7178724315830294,718.4936742779339
3727.348,0.7185232506484415,832.2364061180449
3728.2073,0.719201039530188,841.321327875005
3729.065,0.719827970156946,633.7979004762803
3729.9229,0.720120728043183,945.3784473840794
3730.783,0.7198489314453117,912.9445739089244
3731.6414,0.7189600449919947,936.2600885479568
3732.5017,0.7174841616214077,878.6922250937221
3733.3604,0.715540366699874,1010.7803580166443
3734.2214,0.713522295319356,842.8776712540614
3735.0803,0.7122721777121153,897.6502234426484
3735.9417,0.7127683584708893,1073.3752010653207
3736.8013,0.7155191470507994,816.6855321438327
3737.661,0.7200731214671868,859.1969543758338
3738.5227,0.7250916526575485,862.0953424319803
3739.3828,0.7288761457471015,754.219691132433
3740.245,0.7301962647446332,773.4275230102154
3741.1055,0.7287687747501259,629.8815953309552
3741.9683,0.7253221206739378,691.9889830564157
3742.829,0.7211233812258143,824.2532669316502
3743.69,0.7171848957984959,1007.1841105285322
3744.5532,0.7138274212924585,698.1114783315185
3745.4148,0.710862428619952,717.6742095041159
3746.2786,0.7080587057752475,743.3400423027103
3747.1404,0.7055396060323449,799.6593262089201
3748.0044,0.703640575306041,676.8904551817742
3748.8667,0.702670588522029,809.2460746523633
3749.729,0.7027179860489402,773.5527503618492
3750.5938,0.7036877928679932,895.740899243573
3751.4565,0.7053445676033022,896.0414687539318
3752.3215,0.707362259548629,879.7004064497559
3753.1848,0.7093392660470923,718.3254756704993
3754.0503,0.7109444079342688,1111.404825184956
3754.9138,0.7120154505507283,706.8968234808149
3755.7776,0.7125829646279002,874.1492594163323
3756.6438,0.7126944469836045,880.0669280081516
3757.508,0.7123465376413133,826.5950373254784
3758.3745,0.7116963849339135,713.7485919218068
3759.239,0.711335193800527,940.3970099933675
3760.106,0.7121516824220957,795.4560481341048
3760.971,0.7147353473203103,771.6314267177113
3761.8362,0.7188328351661494,801.6483605081402
3762.7036,0.723371920772053,717.2285058150289
3763.5693,0.7270117339982008,989.0342361880898
3764.437,0.7288907729278201,847.5070215252081
3765.3032,0.7288506874699348,688.3473728819646
3766.1714,0.7272520105285728,804.888632917308
3767.0378,0.7245766267449004,918.7668753162299
3767.9043,0.7211842404060049,624.7356699344195
3768.7732,0.7173508831940473,777.4456907413456
3769.6401,0.7134758932252142,713.9597050734717
3770.5095,0.7101009856483638,930.9787487250387
3771.377,0.7078510680561981,973.3005371724059
3772.2466,0.7070518010846536,904.4598097831945
3773.1145,0.7074941513369641,1378.0447045482479
3773.9824,0.708469267689206,927.7760284374266
3774.8528,0.7092016241196533,860.857142319332
3775.721,0.7093013809634146,682.5736331429426
3776.5918,0.7088934363267227,931.8871345931855
3777.4604,0.7083449450052561,969.4346470375165
3778.3315,0.7079288357308837,991.2571690458399
3779.201,0.7077277757324131,1072.7434781904064
3780.0703,0.7077142956997226,961.7939177175765
3780.942,0.7078331983767951,682.9037100596323
3781.8118,0.7080027408183696,990.1118895737367
3782.6838,0.7081511588814292,779.8147591800179
3783.554,0.7083353528370527,1111.115096337921
3784.4265,0.7088184478000131,1230.1991379998956
3785.297,0.709918581157585,917.7950934405374
3786.168,0.7117116874715171,696.5738310631519
3787.041,0.7138583483573436,1029.2741238444596
3787.912,0.7157172914662225,797.8010654508437
3788.7856,0.7166675471664563,878.7715067081291
3789.6572,0.7162689540283709,910.4185784731167
3790.531,0.7143615242162256,749.2310537017776
3791.403,0.7111743537519087,734.8546138892414
3792.2754,0.7073204614560941,1009.4611083829814
3793.15,0.7035331596028505,789.5235800961769
3794.0225,0.7002855128938238,955.9997410946114
3794.8972,0.6976208189506888,997.233658090251
3795.7703,0.6955442386854142,886.6745704459257
3796.6455,0.6943095239912481,959.9186966965848
3797.519,0.6943452236414993,896.5236963424495
3798.3926,0.6958329912734997,811.3247765392315
3799.2686,0.6985570839643322,751.5462164749596
3800.1426,0.7020545077948233,1054.6358577146916
3801.0188,0.7058505064456775,754.0534773609984
3801.8933,0.709345612030816,1169.5549312823587
3802.77,0.7118124017105337,695.5255885957448
3803.6448,0.7125630730438185,782.7593346339467
3804.522,0.7114255845436585,717.0474375452326
3805.3972,0.7089952304170569,750.8908349579989
3806.2727,0.7064157602491984,1248.7083330034995
3807.1504,0.7048128804795487,828.6720879580118
3808.0261,0.7047951535721351,723.933461479839
3808.9043,0.7063182463835663,1025.6496851540758
3809.7805,0.7088987924876841,1107.5211648104575
3810.659,0.7119182324798139,691.012014815926
3811.5356,0.7147703407987405,695.4711516913286
3812.4126,0.7170005791754466,801.5906715753725
3813.2917,0.7183123766227837,803.1073553720853
3814.169,0.7185753601593433,680.0398454365511
3815.0483,0.7178777478085006,739.013899414274
3815.926,0.7165503705417885,862.1300004614325
3816.806,0.7150868399204912,835.9525723068313
3817.684,0.7139795696400445,1023.2188675143316
3818.5623,0.71354017143693,875.1298331735877
3819.4429,0.7138890681262352,854.0126400893557
3820.3215,0.7149648766576038,866.361366534601
3821.2024,0.7164520689011085,1078.1502414281806
3822.0815,0.7176662461354627,872.2486171783262
3822.963,0.7177158480212025,900.6944798674731
3823.8423,0.7159243966888044,661.9750971534322
3824.722,0.7122256426835052,1101.3180246005595
3825.604,0.7071255223896947,782.2657495623853
3826.4841,0.7013722366329195,824.0769799589287
3827.3665,0.6955056141387557,837.0809318713226
3828.2468,0.6898837166623152,853.4649403122881
3829.1296,0.6846417671147925,860.617606164662
3830.0105,0.6797950603191599,1276.996320539873
3830.8916,0.6751296444871399,702.4617823282499
3831.7751,0.6704026901425104,866.8642888181569
3832.6565,0.6656569879374827,872.9772148661049
3833.5403,0.6612693527098622,1037.5555226520032
3834.4224,0.6578953739948297,1200.8403144303504
3835.3064,0.6560849525318411,833.2762954845075
3836.1887,0.6560667969202846,1298.9458617670643
3837.0713,0.6576157464247315,728.2296412097719
3837.956,0.6602296104783129,808.3596845862414
3838.839,0.6634653851083437,1233.2696341128103
3839.7244,0.6673066780162917,1175.6546288792176
3840.6077,0.6720594824624626,1087.9753955467531
3841.4932,0.6780174921474239,1196.3522162013817
3842.377,0.684992806536758,1026.0917399616337
3843.261,0.6924143908222243,693.7701411082247
3844.1472,0.6996462103569869,904.6607294246375
3845.0315,0.7062718750101022,742.4289010922058
3845.9182,0.7122566616024139,1106.235728398858
3846.803,0.7176169934428647,661.6243889441921
3847.69,0.7223441954695411,629.6556871720458
3848.5752,0.7263124799233497,752.6256969299214
3849.4604,0.7295422665007352,688.8456946552402
3850.3481,0.7323291193436462,841.6205105643472
3851.234,0.735175640128045,858.9311308155449
3852.122,0.738562319823262,837.6505954425583
3853.0083,0.7425564447480832,849.5949071276616
3853.8967,0.7467560884292981,737.19661977609
3854.7832,0.7504431618526562,729.4545434094026
3855.6702,0.7530797499354968,834.499051188762
3856.559,0.7545363714125034,744.0569266666947
3857.4463,0.7550078019323695,781.7552134769231
3858.336,0.7547805250047047,816.5148684318258
3859.2234,0.7541544360892353,766.2467282032012
3860.1135,0.7535346524081781,693.8366912298859
3861.0015,0.7533611260958117,651.8220243685297
3861.8896,0.7537370146479375,740.7100871784568
3862.7803,0.7541802756083689,756.9788292998421
3863.6687,0.7538883277413334,715.4633420844303
3864.5598,0.7524066649639024,718.4823370980376
3865.4487,0.7500559491608767,776.4044944221488
3866.34,0.7476255560476718,673.1080586468272
3867.2297,0.7457133520411727,904.721006973632
3868.1213,0.7442318351428456,795.0619060770383
3869.0112,0.7425744621034819,748.7508573251567
3869.9014,0.7400568241787328,694.6747587982437
3870.7937,0.7362512199564737,626.4950488842144
3871.684,0.7310546192915104,982.7759908688911
3872.577,0.7245421649206932,885.1801259065194
3873.4678,0.717092713436866,788.4887887059136
3874.361,0.7093196950724533,743.6780320718841
3875.2524,0.7020641498361567,727.0278142156703
3876.1438,0.6958663500982315,1213.2033918151815
3877.0376,0.6906375982321354,802.1898141167106
3877.9297,0.6856671080044012,838.9337046619789
3878.8237,0.6799775022780087,684.3869536949315
3879.716,0.673033222465108,910.2235256545905
3880.6108,0.6649238427413282,766.4993652544061
3881.5037,0.6562127174804879,1123.6019757043384
3882.3965,0.6472683658318201,1243.3885470845105
3883.2917,0.6380806703527052,866.233224037697
3884.185,0.628602424083261,886.8257098144392
3885.0808,0.6189501375410792,1041.850392167572
3885.9746,0.6096067742397393,1279.258929197376
3886.8706,0.6009800744800126,996.3971053113153
3887.765,0.5934419687967588,1226.324726919302
3888.6592,0.5873513866017016,1391.221482607567
3889.556,0.58331558029748,1619.5651384013483
3890.4507,0.5821507326595745,1416.8449782152186
3891.348,0.5845010732273255,945.1490881781776
3892.243,0.5904934190060426,1357.3445958986476
3893.1406,0.5996668590092737,1469.7058368907287
3894.0361,0.6110543393928322,1314.8860252084642
3894.932,0.6236911811082255,1124.3609927878392
3895.83,0.6367314142822147,1284.1850744718572
3896.7263,0.6492386394045688,807.7255213493382
3897.625,0.6603057429717,1160.9189542743186
3898.5215,0.6690389038267446,807.9116992942351
3899.4207,0.6752133218073515,884.197528971223
3900.3176,0.6793329320197768,978.2923620708867
3901.2148,0.682578009627075,824.9635720894025
3902.1145,0.6862808847592037,1086.655676390691
3903.0122,0.6914533583741869,956.4200833612831
3903.912,0.6985859996898066,1010.6835944416931
3904.8103,0.7075311363593421,827.2008668886226
3905.7107,0.7177919961476321,781.5147888914644
3906.6094,0.7285667676171086,774.7885726497458
3907.508,0.7390415609071026,836.7003292101128
3908.409,0.7485108656592386,743.631707451504
3909.308,0.7565620836309312,683.2630105732862
3910.2097,0.7633509671780827,632.3629852415513
3911.1091,0.7692679521818734,959.3388863862725
3912.011,0.7747099423857887,700.955483263117
3912.9111,0.7797818947721875,739.8360097594323
3913.8113,0.7845495495035277,652.8826034491542
3914.7136,0.7892299882509989,727.098937062493
3915.6143,0.7941491033376037,769.9017857501201
3916.517,0.7995989904550854,621.6639974315058
3917.4182,0.8055637941264477,670.3725857535301
3918.3215,0.811771060550758,652.2059506957861
3919.223,0.8176536762828478,665.3673971442454
3920.1245,0.8226085134346153,616.0432475777652
3921.0286,0.8261891540586482,700.8877448037726
3921.9307,0.8282743014317011,594.7065637624247
3922.835,0.8290550668225302,804.8256595147993
3923.7373,0.8287236629725669,829.3045243078044
3924.642,0.8273270108653349,577.5078320652743
3925.5452,0.8249170356966365,672.372629743611
3926.448,0.8217908183336885,641.894377759034
3927.3535,0.818483088414982,596.5124438874188
3928.257,0.8154638115976452,781.1209090443181
3929.1628,0.8127192438805265,748.8558284915068
3930.0667,0.8098178870423843,615.7144103570513
3930.9731,0.80628511098269,636.1135538835679
3931.8774,0.8021548512192407,718.9298767188752
3932.782,0.7979977013600191,817.221255034125
3933.6887,0.7945556980929407,747.0257769085853
3934.5938,0.792243259740721,647.4607540497311
3935.501,0.7909054466119294,655.3129824134049
3936.4062,0.7900828449305242,683.2196958162845
