wavl,flux,ivar
3566.9744,0.3415931226305956,1901.2327165944619
3567.795,0.3410802851930946,1603.6311313217243
3568.6177,0.3404282602747289,1612.0776634717888
3569.4385,0.3398257591734355,2260.886166417477
3570.2617,0.339294801964179,1416.2713992146587
3571.083,0.3387070804583374,1578.859768213956
3571.9065,0.3380842670586622,2547.9052416809313
3572.7283,0.33780500468888963,1977.539088634549
3573.55,0.3383581963948923,3105.9885963215793
3574.374,0.33990266146989545,1260.4124692239939
3575.1963,0.34206628129051164,3675.5341098053823
3576.0208,0.344263677931326,1736.3073310146424
3576.8435,0.34613514942346835,2308.095930534784
3577.6682,0.34777135009162985,1963.0521321115903
3578.4915,0.34939390148824423,1767.4182922320397
3579.3145,0.35091184368154443,1563.5607237105016
3580.14,0.35175798634765437,1746.473248210774
3580.9636,0.3512453213979208,883.8825472248312
3581.7893,0.3491387566681852,1578.146870242353
3582.6133,0.34589279772446846,2738.5751442284773
3583.4395,0.3423295795312655,1888.351029058559
3584.264,0.3392161054240053,1615.6290056929395
3585.0884,0.33696559045133256,1803.4276493499217
3585.915,0.33572862896232825,2427.712954171668
3586.74,0.3355303289871209,3246.4659011853823
3587.5671,0.3362775565660286,2849.232242303135
3588.3923,0.3377055444533745,1799.2742468258784
3589.22,0.3393692344735952,1725.7586412544151
3590.0457,0.34068971349435667,1493.574499273102
3590.8716,0.3411514559777108,2638.416835270314
3591.6995,0.34051358388176617,2207.4873982144563
3592.526,0.3390038916773785,2132.1879683013067
3593.3542,0.3372572256178169,2075.6799447685994
3594.181,0.33600916006879417,1755.4951577190766
3595.0098,0.33568938256888586,2274.2934947013564
3595.8367,0.33628198434215456,2035.2015142407706
3596.6638,0.3374479978883675,2048.6965617735013
3597.4934,0.3387844917416339,1603.4727047419137
3598.3208,0.33998381987413284,1535.076166526258
3599.1506,0.3408783207219806,1028.567757990834
3599.9788,0.341326587862672,1787.9561548584888
3600.8088,0.3411789098584965,1396.4730155170805
3601.6372,0.34035949875797655,1046.2712087212121
3602.4678,0.3390112534125941,1562.0381185263975
3603.2964,0.33751931013008846,1783.8757950506563
3604.1252,0.33628493395960596,3112.7262310059396
3604.9565,0.335468453126193,1468.9198562455256
3605.786,0.33488569108476657,2651.8311684388846
3606.6172,0.3341498406954924,3148.413870024694
3607.447,0.3329854520172531,1575.2932637435688
3608.2788,0.33140553553859947,1573.7548307272714
3609.109,0.3296764766410475,2291.2827218963585
3609.9392,0.32810884074002017,2564.371626525911
3610.7717,0.3269555216411656,4060.291227837046
3611.6023,0.32640787755309125,2830.8995009733644
3612.435,0.3265485312930082,1762.858680943531
3613.266,0.32727327527912364,2344.3748280230475
3614.0994,0.32826407072915037,1619.624300544566
3614.9307,0.3290937845608991,1984.1886119867781
3615.7625,0.3294264460530587,1499.6622776030897
3616.5962,0.329135971827402,1558.1107602672546
3617.4282,0.32835986712366394,2742.1244225997057
3618.2625,0.3274726841076342,2682.715906780939
3619.0947,0.3269821521921834,2088.2957082505136
3619.9292,0.3272755637202286,2004.7645439663593
3620.762,0.3283607853807336,2024.1737720906253
3621.595,0.3298041415397829,1929.6516747192284
3622.4302,0.3309718888295082,1519.7365046645384
3623.2634,0.33137250028570125,2950.0773103841784
3624.0989,0.33083834948415475,1510.4994682859924
3624.9326,0.3294480396937756,2381.7177396820107
3625.7686,0.32742919630932665,2646.6061664809786
3626.6028,0.3251978149319553,1485.8297125852673
3627.437,0.3233064774541048,2347.9664600136607
3628.2734,0.3222607306763431,1557.5849555806274
3629.1082,0.32227344223784965,2690.912305866536
3629.945,0.3231813850444001,1805.6460780923085
3630.78,0.32460689838819945,1720.0248559471586
3631.6174,0.32618792568988936,2796.4498484377905
3632.453,0.32762410700835204,1665.7160021378506
3633.2883,0.32863113325135435,2319.6195876377037
3634.1262,0.32890688201858886,1706.9980368147155
3634.9622,0.3283272051130186,2036.3561457044775
3635.8005,0.32718666250345324,1625.0922895228878
3636.637,0.3261235213398095,1273.739760442881
3637.4756,0.3256392531148643,1425.057055572531
3638.3123,0.32570938907174385,1845.2052570200642
3639.1492,0.32586433713948276,1757.6170846351606
3639.9885,0.3256733440453988,2117.8015288585334
3640.826,0.325114923474369,2081.403434668445
3641.6653,0.3245173581851914,2385.9287059555204
3642.5032,0.3242375897401751,1409.0502412754468
3643.343,0.324417694503613,1312.6038734152169
3644.1812,0.3249986985064279,1635.328010541395
3645.0195,0.3258312121388049,2376.119152714359
3645.86,0.3266982862358321,1663.939697799021
3646.699,0.3272752314679613,2440.034066397706
3647.5398,0.3272260849811362,2154.8347858414595
3648.379,0.32641592414676196,1799.6187247178627
3649.2202,0.3250508950342694,2210.1432729323833
3650.0596,0.32357898147779024,1581.9712811909503
3650.8994,0.32238369464689953,2058.846967028712
3651.7412,0.32158803659272417,2119.0318856845665
3652.5813,0.32107760984093286,1900.3466034696871
3653.4236,0.3207010702029965,1715.2942436712708
3654.2642,0.32048593091040783,2583.8828097833825
3655.1067,0.3206275507617935,1605.3207648502853
3655.9475,0.32125633233891354,2214.42391788618
3656.7886,0.32220131870200147,1614.8052597821281
3657.6318,0.3230138435295448,1927.3560967109293
3658.4734,0.3232610735668524,2661.7984939969915
3659.317,0.322877379344561,2100.6637896182942
3660.1587,0.32227604873012905,2152.5339886774336
3661.003,0.32215854638949015,1647.4812048843414
3661.845,0.32314335906832076,1945.4730962259844
3662.6875,0.32539850559034705,2463.2447903351554
3663.532,0.32846921926113964,5365.033762394467
3664.3748,0.331385789190716,1941.0804784390634
3665.2197,0.3331898108059595,1953.2132193356074
3666.063,0.3334832885401095,2106.2263573819782
3666.9084,0.3327081411730094,1683.3306043258208
3667.752,0.33179643913421025,2761.6461284139677
3668.5977,0.33150859611433003,1804.836667461423
3669.4417,0.33201083307436385,2605.2500824831127
3670.286,0.33291991261242077,1309.3224667799773
3671.132,0.33367713395826937,1153.399794561642
3671.9768,0.33391584984723166,1647.997459584935
3672.8235,0.3336500966319756,2405.2304521749024
3673.6685,0.33320134241607874,2822.7449638996545
3674.5156,0.3329423313634141,2278.776273112418
3675.3608,0.33302879782276223,1721.8916298845675
3676.2063,0.33328361410548085,1493.899534179598
3677.0542,0.3333159890743533,2064.7389694503954
3677.9,0.33276438348323045,2007.9441388156397
3678.748,0.33149538120049366,2326.0458420971654
3679.5945,0.3296748656352862,1653.9716466616896
3680.4429,0.32766504764694504,2638.415740664598
3681.2896,0.32586968981514286,2245.567097229672
3682.1365,0.32449530452788256,2266.4032440949168
3682.9856,0.3234747145124732,2968.154715050439
3683.8328,0.3225953005440339,1672.5445814523912
3684.6824,0.3217175100678549,2109.761788462228
3685.53,0.3208999760888989,2322.577677722502
3686.38,0.320283012498814,1576.0589635901702
3687.2278,0.31997186434999064,2800.048289842744
3688.0762,0.3200114701775207,3967.233456717096
3688.9265,0.32042573761891335,2983.5381493455525
3689.7751,0.321167908974664,1815.0538852513237
3690.626,0.3220779050884286,3280.6869806216446
3691.475,0.3229594302044858,4204.929993780369
3692.3264,0.3237716990879042,1842.4810204865598
3693.1758,0.32463121382641297,4471.053870961646
3694.0254,0.3255931394428225,1616.248213044678
3694.8772,0.32643041123509603,2992.09902865826
3695.7273,0.3267545087908716,1937.124778286636
3696.5793,0.3264160567442057,1632.2029362649432
3697.43,0.3257138665531887,1887.3946903994688
3698.2825,0.3251742185279213,2230.595216709544
3699.1333,0.3251461013031448,2637.191998626996
3699.9841,0.3256145616831477,2102.570607382644
3700.8374,0.3263875600859356,3593.874244618116
3701.6887,0.32736360952655724,2502.635478369968
3702.5425,0.3286110091904496,2016.1030205481097
3703.3943,0.3301354981529581,1649.6890223896846
3704.2483,0.3316509446742624,2037.2392346631416
3705.1003,0.3325493859545787,2672.401432517203
3705.9526,0.33223629898103163,1694.0974283427945
3706.8074,0.33048194549082954,3151.878582694967
3707.66,0.3275669112500249,2014.170690660319
3708.515,0.3240369515119515,2137.819197945154
3709.3682,0.32046969197473324,2285.706931123293
3710.2234,0.31729784424427704,2164.677044857836
3711.0771,0.31491654184825224,2487.558632411115
3711.9307,0.31364007332732236,1782.371031531314
3712.7866,0.3135622552804207,2678.5495546764882
3713.6409,0.31435559258912205,3142.387110306071
3714.4973,0.31532598587641913,1918.6729664367901
3715.3518,0.3158169969259986,1798.3567892650399
3716.2085,0.3157003707627247,2734.2563818307954
3717.0635,0.31545901489081185,2035.1382355768078
3717.9185,0.31576269657144757,3090.8887537946152
3718.776,0.31689943969264184,3171.254435545632
3719.6313,0.31852054148860637,2694.7936768506356
3720.489,0.31990291394562065,3266.0727175479446
3721.345,0.3204089776739582,2373.3246356950563
3722.2031,0.31987400127916155,1391.4883602633602
3723.0593,0.31863754287573626,3671.634918255928
3723.9158,0.31727028471355356,1850.42935036922
3724.7747,0.3162199752791989,2715.2477362320033
3725.6316,0.31563189817835147,2010.4147893780091
3726.4905,0.31539432161304753,1854.904224977825
3727.348,0.3153178450432574,1959.9168715506075
3728.2073,0.3152144610964414,3114.2264137087413
3729.065,0.3148900283556481,3057.7251197355567
3729.9229,0.3141626740168607,2034.531708165266
3730.783,0.31298551677839065,3314.3458095603196
3731.6414,0.3116021492657093,1671.2731830438008
3732.5017,0.31050965148576676,1845.605567303419
3733.3604,0.3102132057473939,2877.3196571670296
3734.2214,0.3108591425038609,2090.718026012892
3735.0803,0.3120912203599162,2223.8838825542703
3735.9417,0.3132686775507647,1737.1251796788551
3736.8013,0.3138252250675873,2128.2804828198477
3737.661,0.313523818117784,2083.134195541939
3738.5227,0.3124083440198167,2482.725099925507
3739.3828,0.3106540500814758,3194.625831901861
3740.245,0.30845286837084684,2274.2451593390965
3741.1055,0.30609494124304876,2163.5956035142804
3741.9683,0.3040053740494858,2864.7471615339728
3742.829,0.30268075382085186,3375.132668350273
3743.69,0.30233716935401594,1961.2206089305496
3744.5532,0.30270314703717965,1939.3356350104136
3745.4148,0.303167992235924,3296.5124953884874
3746.2786,0.3032582765407735,1733.2703301241436
3747.1404,0.30297171283127067,2224.863951487707
3748.0044,0.30267663531247807,3316.7696028779524
3748.8667,0.302744858499195,2574.4924820918054
3749.729,0.30330208066579195,2650.819420304634
3750.5938,0.30425523602071897,2476.438566118726
3751.4565,0.3054086742713395,3249.23973982333
3752.3215,0.30656908928081683,2026.010502827945
3753.1848,0.3075847905281639,2475.121937853804
3754.0503,0.30842900923585437,2170.4991581654203
3754.9138,0.3092010430614335,2407.397071935295
3755.7776,0.3100721521234766,2019.6122842226603
3756.6438,0.3111596828452825,2890.398144263351
3757.508,0.31241988926362557,1797.249240447944
3758.3745,0.3136468422595527,1834.0463635522012
3759.239,0.31452798615439603,2225.8780321764534
3760.106,0.31481246049805744,2360.532516796617
3760.971,0.314429219389583,1988.2837394434662
3761.8362,0.313511663184516,2673.9456529663325
3762.7036,0.3122711090220306,2373.791229489528
3763.5693,0.31085984004102085,1944.4068153657904
3764.437,0.30930220880207493,3233.2812055427494
3765.3032,0.3075967770718921,2821.1363982025027
3766.1714,0.3057940809342226,2087.84912606564
3767.0378,0.3040502484196788,2977.4825612593195
3767.9043,0.30256025254501223,2182.0117442757282
3768.7732,0.3015150117525433,3053.101545630251
3769.6401,0.30103752455652366,2182.237298667352
3770.5095,0.3010684655051067,3091.401005291257
3771.377,0.30132694925475095,2493.447407273545
3772.2466,0.30142336524559077,1977.6467408645692
3773.1145,0.3011228618979649,3113.44063670947
3773.9824,0.3005609413078235,2644.174899989311
3774.8528,0.3001908962718881,1832.0126454269528
3775.721,0.30047616558966933,3826.763844796437
3776.5918,0.30156056229976086,3076.6214190391906
3777.4604,0.3031868388373196,2684.781552063386
3778.3315,0.3049307170353071,1990.0811021626225
3779.201,0.30646368476353136,4474.460725339513
3780.0703,0.3077247775084649,2761.156789104036
3780.942,0.3088192786732213,2298.580267162548
3781.8118,0.30976983030117883,2630.960689408289
3782.6838,0.3103479919911978,2459.6949314374706
3783.554,0.3101591250527399,2488.184556671218
3784.4265,0.3090128036703385,2168.205493954015
3785.297,0.30721214707611194,2444.2461946702006
3786.168,0.3054132176206741,2538.229347363372
3787.041,0.30418766229877264,2071.752499337919
3787.912,0.30368295330459893,2305.506570042011
3788.7856,0.3036465986772252,2493.5391774810805
3789.6572,0.3037503866186124,2453.024804179242
3790.531,0.30383531784411155,2800.1057644373022
3791.403,0.3039177435689556,1857.477401906689
3792.2754,0.30404577215727097,2268.934245923764
3793.15,0.3041828260618736,1882.7749878683674
3794.0225,0.304197984407229,2545.1592853235993
3794.8972,0.3039379189360861,2209.617941750176
3795.7703,0.3033220962392483,2054.8920191013826
3796.6455,0.3024022039035468,1668.0259674599192
3797.519,0.3013568187778426,2535.2804527946855
3798.3926,0.3003789951590891,2162.9569812153554
3799.2686,0.2995911720033405,2354.93501701531
3800.1426,0.29907818755624327,3003.417115599312
3801.0188,0.2989824514233753,2773.5562239001465
3801.8933,0.2995192484699666,3016.346397607953
3802.77,0.3007835612163004,2573.5303326928433
3803.6448,0.3025152703651703,3452.977505595668
3804.522,0.3041545740168536,2076.995455023968
3805.3972,0.30516101654693006,2491.253015692391
3806.2727,0.30541812354248066,1668.7435110040744
3807.1504,0.3052874079138076,2413.7081256278225
3808.0261,0.3053524169513428,2158.332239663518
3808.9043,0.3060589888779096,1384.611644642841
3809.7805,0.3074931552437447,2567.1988701642017
3810.659,0.3093936629781284,1432.4454291057527
3811.5356,0.3112824179070985,2466.5380802524796
3812.4126,0.3126925994729773,2459.1365452586465
3813.2917,0.3133021375936587,2246.0579053291676
3814.169,0.3130008045628084,2066.099656094496
3815.0483,0.31189381034552405,2648.355374686822
3815.926,0.31025909457511963,1856.9095559219936
3816.806,0.30846079708358093,1992.8856181463161
3817.684,0.3068986783853249,2504.2568838691027
3818.5623,0.30588544222529956,1667.705973208254
3819.4429,0.30553022341674696,2507.4265714723365
3820.3215,0.30563132532269166,1928.7167194129952
3821.2024,0.30571770967519396,1714.684122229686
3822.0815,0.30530587677817095,1735.7558036552416
3822.963,0.3042080156499935,2448.071897317228
3823.8423,0.30264668172404835,1870.8780578206017
3824.722,0.3010286787942217,2633.544407459484
3825.604,0.29961044106182183,2570.0474541518947
3826.4841,0.298319221472929,2829.9367710201345
3827.3665,0.2967969125641282,2076.716211415387
3828.2468,0.294661715699329,2145.6187028129293
3829.1296,0.29172083490288747,2372.071461093316
3830.0105,0.28815627960592266,2933.752391968634
3830.8916,0.28444437633063097,3215.2212300631027
3831.7751,0.2811790464806495,2187.884982638948
3832.6565,0.2788218953210528,2522.9828195107125
3833.5403,0.2774098649655584,2842.515769031953
3834.4224,0.276528028023207,3347.2285084901237
3835.3064,0.27547568111814386,2248.090385193535
3836.1887,0.2737474096801366,3971.291561441998
3837.0713,0.27147621783633924,2986.9602631722983
3837.956,0.2695194881197714,5107.430745456044
3838.839,0.269014545581422,2946.056096922884
3839.7244,0.2706383237132026,3801.009642036466
3840.6077,0.274201949939577,3309.3720973534982
3841.4932,0.2789268520121814,2543.9570743664335
3842.377,0.28401720210069076,3279.8182769436426
3843.261,0.2891195781035193,2394.199644804695
3844.1472,0.2941410245498019,2451.9160893352623
3845.0315,0.29883470328406575,1768.9626951428015
3845.9182,0.30280540487124585,2061.835602769019
3846.803,0.3057598970369399,1944.2374751793413
3847.69,0.3079226212069249,2537.507489973205
3848.5752,0.3099036199119769,1879.6178019693962
3849.4604,0.31229583626519386,2043.9424298732158
3850.3481,0.31527236763893735,2208.7096661675837
3851.234,0.3185314737148742,2241.946488441886
3852.122,0.3216318770288323,1820.8870283337685
3853.0083,0.32422622153359104,2108.709877359068
3853.8967,0.3262176947829335,3263.576698643209
3854.7832,0.32765372210031396,1706.2101663029382
3855.6702,0.3286670836224178,2170.2041023735646
3856.559,0.3293609597794015,2298.1108366725807
3857.4463,0.32972937201614094,2081.325379348365
3858.336,0.32966961267871453,1873.65630928036
3859.2234,0.3290957962215789,1611.930981315868
3860.1135,0.32805634130715866,1379.9360739245133
3861.0015,0.32674775245628973,1793.2259752497996
3861.8896,0.3253978137914658,1494.174829586065
3862.7803,0.3241729152270576,2484.836033439763
3863.6687,0.3231330443333551,1989.1817933215832
3864.5598,0.3221868087027515,2443.7342426879673
3865.4487,0.321132612244865,1796.6511782772768
3866.34,0.3197364101837713,2346.916828403797
3867.2297,0.3179193515431081,1979.6329935171764
3868.1213,0.3158283769519922,3043.3921984008
3869.0112,0.3137750036029971,1791.197826389703
3869.9014,0.3119929091929754,1758.6130191740883
3870.7937,0.31052613248451433,2402.4756968086554
3871.684,0.3093053789924431,2854.3707721307323
3872.577,0.30826158190429115,3253.3089640881453
3873.4678,0.3073569592080813,2063.2508077403277
3874.361,0.3064409362121787,2308.4277133161927
3875.2524,0.30522089320377715,1969.011897888887
3876.1438,0.3033955131790012,2232.342074807343
3877.0376,0.3008517111853425,2784.2486212329777
3877.9297,0.29770438902521573,2053.5332237112066
3878.8237,0.2940841528267864,2222.781652887032
3879.716,0.29006388267203875,2868.336082689486
3880.6108,0.28566286863442175,3312.8780177154995
3881.5037,0.28105273444849665,2083.6662916482483
3882.3965,0.27647839074671027,2437.18963674801
3883.2917,0.27212445902888704,2871.345071021405
3884.185,0.2680181750479829,2088.5953774600175
3885.0808,0.2639926271523223,5017.855151121086
3885.9746,0.2599171108519106,2971.18484245858
3886.8706,0.25572144098734245,3510.142182803701
3887.765,0.2514906157113402,3929.9273358361875
3888.6592,0.2474127425299508,4023.612257359878
3889.556,0.24384185464995686,4028.344685214505
3890.4507,0.2413179963881499,2235.4709818767706
3891.348,0.24039248782113426,4880.782201822848
3892.243,0.24147518537090892,3651.5668365419883
3893.1406,0.24463452841336053,4099.693749942139
3894.0361,0.24947389326950922,3623.5966337691616
3894.932,0.25525738227832595,2967.4787506777407
3895.83,0.26117879529296417,4091.1898654075635
3896.7263,0.26666275172836035,4420.138785146764
3897.625,0.2716180761464267,3565.766441724032
3898.5215,0.2761664820846706,2229.1343826105062
3899.4207,0.28047505652216487,2998.983498004313
3900.3176,0.2845821360782245,2185.4610129780617
3901.2148,0.2886343390640038,2812.705819514935
3902.1145,0.29298206773320223,3069.471185312569
3903.0122,0.298034453593094,1828.3130632071452
3903.912,0.3040017039526723,1994.7572475409463
3904.8103,0.31050307923171716,2232.0527403590604
3905.7107,0.31671499840512074,2543.3441935992155
3906.6094,0.32174182089099423,1249.5653011155587
3907.508,0.3252999739290311,1889.2431565383713
3908.409,0.3278696598473242,2051.763646340908
3909.308,0.3303158074310824,2312.2923063272856
3910.2097,0.3333139949650627,1624.049132785496
3911.1091,0.33692893455159206,1498.129345361378
3912.011,0.340768857711518,1548.3545533725328
3912.9111,0.3443090684820057,1449.765414473205
3913.8113,0.34731437542379,1790.09179629995
3914.7136,0.3499030201811942,1585.1797660179566
3915.6143,0.35234454845881225,2086.448348671613
3916.517,0.3548133778105791,1329.6068299025108
3917.4182,0.35716803435099354,1777.3240544370178
3918.3215,0.3590353220590035,1835.877706623742
3919.223,0.36000021292261636,1610.1043373302973
3920.1245,0.35988947325366427,2224.5953286335516
3921.0286,0.35886370590275624,1420.5977370366265
3921.9307,0.3573772366875724,1695.642001553406
3922.835,0.3559974104974729,1901.3253678434196
3923.7373,0.35521874609941034,1568.6995950600785
3924.642,0.35524802832575064,1819.447794491587
3925.5452,0.3559508095792412,1792.838196828013
3926.448,0.3569886862958327,1250.1406517827133
3927.3535,0.3580689258295974,2004.1632019286099
