wavl,flux,ivar
3566.9744,0.4948306174791442,530.2894340955797
3567.795,0.49170620461061276,236.50156310987217
3568.6177,0.4882557246036331,219.79841269444864
3569.4385,0.4842568206559702,213.42392850777293
3570.2617,0.47992167131512276,370.90548495684
3571.083,0.47635355424300385,200.2436479481508
3571.9065,0.47511142484171,312.82674319226714
3572.7283,0.47736558906253396,335.308773588204
3573.55,0.4830207636956938,279.5164138087144
3574.374,0.4905676448456056,97.90937374453291
3575.1963,0.4976637742979869,362.5392346211084
3576.0208,0.502440922781795,248.69746915430702
3576.8435,0.504331130252671,266.37777089106595
3577.6682,0.5041753581719566,251.23709414746645
3578.4915,0.5033136259654468,166.33753844467626
3579.3145,0.5025978407222238,184.3739322594202
3580.14,0.5020237709233936,219.87503417924268
3580.9636,0.5011257311956495,321.39327747081325
3581.7893,0.49962246803508814,161.80206911689388
3582.6133,0.4977720151913825,305.9914447556097
3583.4395,0.49611274480396284,367.8460271362545
3584.264,0.4949853580188385,164.82191615846145
3585.0884,0.4942901202794298,203.87309445677622
3585.915,0.4937895494243039,267.39266038417895
3586.74,0.4934866898772931,178.46475303923648
3587.5671,0.4935727848062206,156.68391356926247
3588.3923,0.49402096895853664,252.81715255482752
3589.22,0.49439310005712606,347.32170853485786
3590.0457,0.4942001586947317,170.2360344123067
3590.8716,0.4934269109952893,183.79573296497432
3591.6995,0.4924944674987973,230.78361430192152
3592.526,0.49163467307204545,146.41129391095268
3593.3542,0.4903979323833483,304.3014941643674
3594.181,0.48801527776588,296.7767279600666
3595.0098,0.48423448338807573,308.0911817152475
3595.8367,0.4798451872952102,157.8161350636335
3596.6638,0.4762438552341065,159.64849291614541
3597.4934,0.4746466224539052,221.6990720950407
3598.3208,0.47549219945899357,397.1436765589292
3599.1506,0.4783285678233171,174.30579774043036
3599.9788,0.4820772370052756,229.78624657548585
3600.8088,0.4855262070255105,252.7069349376586
3601.6372,0.4877505025915422,322.47576229580375
3602.4678,0.4884296287202482,246.97484836687678
3603.2964,0.48766115219379613,465.5818829800758
3604.1252,0.48554708766316584,475.1031434060161
3604.9565,0.4819397594250633,192.19304537180486
3605.786,0.4768152842086531,186.42689191609077
3606.6172,0.47085193954843196,264.95642469439423
3607.447,0.4657508127954907,216.00158744288237
3608.2788,0.4634722395272467,420.50753801988924
3609.109,0.4650554434895481,270.08954248699246
3609.9392,0.46975909637502283,328.8663552789765
3610.7717,0.4754571742881913,196.09897270873833
3611.6023,0.4798781377427789,195.36581353352875
3612.435,0.4819919002510467,234.69006219851371
3613.266,0.48231574158083657,515.760232182683
3614.0994,0.4823321626003914,268.63936713598224
3614.9307,0.4834485266860612,253.4314474605156
3615.7625,0.48628509624456984,247.47969070729596
3616.5962,0.49052281374069323,362.70096600837803
3617.4282,0.49516532182984196,255.12728667767047
3618.2625,0.4991853222449724,166.32715147020323
3619.0947,0.5019748051001258,201.94840207109448
3619.9292,0.5034810466868305,184.2277937438192
3620.762,0.5037035662731081,308.92222267216295
3621.595,0.502290507537613,297.8408838944485
3622.4302,0.49864034761920983,384.68438425901667
3623.2634,0.49256756394509577,382.7321833178703
3624.0989,0.48468446228840234,203.69081067049788
3624.9326,0.4762903584643083,236.4332337547962
3625.7686,0.46852022439086133,303.7742736329821
3626.6028,0.4619815505191623,236.60378097435205
3627.437,0.45677086486995067,337.1184173489486
3628.2734,0.45302715411380823,125.56758485431466
3629.1082,0.4511286862156431,199.13541740746868
3629.945,0.45131393551286164,749.2866893999536
3630.78,0.45331839742407143,302.8146088231005
3631.6174,0.45637460877230873,298.3566318848674
3632.453,0.4595487353923113,269.41244741800193
3633.2883,0.4621915718761503,250.578856775738
3634.1262,0.4641219444367207,305.83600744846115
3634.9622,0.4656346813999361,257.8011120512052
3635.8005,0.46737407076169213,110.47560993404485
3636.637,0.46986646900078954,381.75650821208967
3637.4756,0.47300786404135803,152.60200988350317
3638.3123,0.47587817495709567,319.7598113411194
3639.1492,0.4774424385864385,186.8416484789741
3639.9885,0.47746957473729074,177.09062242253006
3640.826,0.4768092389779028,305.4277273173741
3641.6653,0.47659284995165335,239.6251556697766
3642.5032,0.4771198482821423,250.27824271684617
3643.343,0.47752496903313857,147.43809712834727
3644.1812,0.47655704036120744,273.5379341090519
3645.0195,0.47375421708276083,219.01009710027583
3645.86,0.46994456587083294,251.24736381031926
3646.699,0.46675640586004896,371.0400363290852
3647.5398,0.46548207664959923,457.11511972329106
3648.379,0.46635757476181167,344.586294210345
3649.2202,0.4685751027897718,158.896863289314
3650.0596,0.47092911338916016,162.00617466211992
3650.8994,0.472567446511552,294.08519227135776
3651.7412,0.4732580233296008,208.82246090946407
3652.5813,0.47315502406593646,175.24570617142297
3653.4236,0.4723277551873034,315.75225189300045
3654.2642,0.47052494392953403,173.86930997910417
3655.1067,0.4674758100343481,276.44698748739324
3655.9475,0.46356895483275884,268.6864548153836
3656.7886,0.4600201272448259,318.4274456857319
3657.6318,0.45815116880374235,394.16978755196243
3658.4734,0.4582489635992503,213.37416830631088
3659.317,0.45921895907440397,164.59600051278153
3660.1587,0.4595861963101701,190.75713600499583
3661.003,0.4588433885430462,134.6435805744611
3661.845,0.45777231290215276,736.7076326042117
3662.6875,0.45746924094346825,216.41513579649947
3663.532,0.4582032046714602,163.9409356626726
3664.3748,0.459228458080231,154.4330524915199
3665.2197,0.45960664328804185,275.0329310911259
3666.063,0.4590045310440104,188.69174072442533
3666.9084,0.45771268462868325,225.71889001852426
3667.752,0.45604456536152665,446.81525888688236
3668.5977,0.4538278589162172,164.4125636873234
3669.4417,0.450581765736751,294.0133642454211
3670.286,0.4460961546836235,182.6229821713713
3671.132,0.4409059233541257,295.04227164653395
3671.9768,0.43616121086672827,339.0506898895135
3672.8235,0.43281761822672854,207.9506956343704
3673.6685,0.4309909041766219,214.08989262151923
3674.5156,0.42983547900217683,228.74450618571956
3675.3608,0.4282930395145553,453.0255360737416
3676.2063,0.4260304450285339,318.76249216935963
3677.0542,0.4238500258882351,283.3081800657403
3677.9,0.42314430366072986,270.1812860859512
3678.748,0.42474561870110417,265.1335748494217
3679.5945,0.42820081846464364,351.38981150213175
3680.4429,0.43203564170763814,234.79276861605194
3681.2896,0.4346845572413435,194.63435280019812
3682.1365,0.4354874277042746,397.4281698282111
3682.9856,0.43497002612195007,294.32179172376965
3683.8328,0.43442558525899366,192.35365275748316
3684.6824,0.43497663854455637,428.6517986149796
3685.53,0.4367351813653433,479.66358091776146
3686.38,0.4387317318095095,276.18739809153584
3687.2278,0.4396774405840834,355.11738964120696
3688.0762,0.4389517406610416,392.7873479377975
3688.9265,0.43690370160273745,359.2431742632483
3689.7751,0.43449627495231635,528.1420589745843
3690.626,0.43265900227681947,995.2246650038566
3691.475,0.4319149639926719,369.4518251301756
3692.3264,0.43230528566340315,198.34232835248585
3693.1758,0.4336587164175894,357.13170869975534
3694.0254,0.43592628623346474,413.4727233232453
3694.8772,0.4392911218386666,279.53514821148866
3695.7273,0.4438745683379853,402.53988664095704
3696.5793,0.4493600116372671,362.81289080076726
3697.43,0.4546965297336178,260.189452632388
3698.2825,0.4584542736665939,312.37301243367847
3699.1333,0.45945747590324537,379.72353445191544
3699.9841,0.45753611099341057,283.7605424812175
3700.8374,0.4536036502786958,552.7220026766281
3701.6887,0.4490726731853124,351.5239646927394
3702.5425,0.44481265038648893,344.92916236908076
3703.3943,0.44079555627154265,221.70676410207898
3704.2483,0.4365385044211803,255.58949396837647
3705.1003,0.43209231896429473,245.9597004384297
3705.9526,0.42822490658613444,196.83426767722767
3706.8074,0.4258311602662086,228.80499620704498
3707.66,0.425221164992158,229.78829237901877
3708.515,0.4260530502660564,226.42509644358643
3709.3682,0.4278897388073577,238.98162634610344
3710.2234,0.43059009360007666,442.2530713255949
3711.0771,0.4341130709983879,238.41327055221393
3711.9307,0.43814978908285707,201.62098305755714
3712.7866,0.44205986797394425,324.0592678079251
3713.6409,0.44523603723573657,442.67592326630745
3714.4973,0.4475897942229433,535.6568567767391
3715.3518,0.44946844229221666,207.1027973593599
3716.2085,0.45131769022764023,240.85840736962632
3717.0635,0.4533087680775505,200.45488077421288
3717.9185,0.4552491287609303,283.7869751427737
3718.776,0.45654345349363684,723.2862417478198
3719.6313,0.45630238105174475,268.3440359372665
3720.489,0.4538371316124669,231.25508649552475
3721.345,0.4493505033577944,272.6290144370219
3722.2031,0.44413240170834445,211.23655641152757
3723.0593,0.4400097222483485,332.7428923657003
3723.9158,0.4381886739016805,427.8657360993417
3724.7747,0.43867132334304254,326.07677330716734
3725.6316,0.440502445932217,270.622559246768
3726.4905,0.44262515412762987,266.89273486347105
3727.348,0.44449268844316087,223.34615931152948
3728.2073,0.4461003073426514,372.87872344507474
3729.065,0.4475802463253018,441.1955888301584
3729.9229,0.4489314200349248,212.28662747959987
3730.783,0.44995956689519984,427.37594840630896
3731.6414,0.4503873954871368,215.4357363187837
3732.5017,0.4500580283412955,256.4535195568487
3733.3604,0.4490934111181275,374.99775085080887
3734.2214,0.447862336366015,295.26342579431383
3735.0803,0.4467256541138633,305.06069536515133
3735.9417,0.44569879471956114,566.3518882022756
3736.8013,0.44439975590651204,233.93437698402906
3737.661,0.4422930267391122,326.0509827066303
3738.5227,0.4391066587190889,293.52370609214927
3739.3828,0.4351378263900266,337.4826019711021
3740.245,0.4311636177541634,323.7377376782142
3741.1055,0.42822841106637244,533.6561897584088
3741.9683,0.427190912475819,317.833800776852
3742.829,0.4283411866691372,580.6672176778753
3743.69,0.4310725933475406,327.705863940094
3744.5532,0.4340900911597863,228.15338086642492
3745.4148,0.43611489155786487,319.7157388518933
3746.2786,0.43668140942729206,318.5267114058765
3747.1404,0.436179807536063,415.9917565530168
3748.0044,0.4353037680686588,284.9412041496646
3748.8667,0.4345494016056144,260.6715188444345
3749.729,0.43418169151197766,419.38390434789613
3750.5938,0.43439434739137694,294.38480708405905
3751.4565,0.4352025508983942,319.5425492404077
3752.3215,0.43620326751787947,249.65446527220948
3753.1848,0.4366200866839983,312.5587639650327
3754.0503,0.4357791367784534,400.33151358878496
3754.9138,0.43360046583575146,210.201359037787
3755.7776,0.4306941158765422,210.0167508876297
3756.6438,0.4280480269803677,428.805063458916
3757.508,0.426568972507615,265.2020543698282
3758.3745,0.4266566874122969,233.21402494992103
3759.239,0.42813702636372625,254.9518780029593
3760.106,0.4304745514858233,410.56680919748516
3760.971,0.4330574180210816,297.4156255684647
3761.8362,0.4354090303433624,251.35699772322837
3762.7036,0.43716907983585385,210.9589307174888
3763.5693,0.4380107944692332,379.0639433121497
3764.437,0.43762892462867103,262.1348021193501
3765.3032,0.4358271341854864,252.7314645061882
3766.1714,0.43273885491337727,444.24200313961654
3767.0378,0.42900228948612,248.4477103850886
3767.9043,0.42552552688586937,273.3468181739164
3768.7732,0.42297887251251226,429.7343929968213
3769.6401,0.4213275280322753,335.932242065185
3770.5095,0.4197669916516416,322.6520997151185
3771.377,0.4173102462893048,312.06609620319824
3772.2466,0.41348861663924424,390.4065518733786
3773.1145,0.4088038612787639,402.2816303418171
3773.9824,0.404466606399212,445.8697612530231
3774.8528,0.40178405122197486,690.3768891926535
3775.721,0.40154500973555207,464.84964962315007
3776.5918,0.40371762653487486,350.40171339870216
3777.4604,0.4076431080151296,433.5634844638815
3778.3315,0.41252892104769406,605.8097227692277
3779.201,0.4177711574634754,272.3059263817731
3780.0703,0.4230931325502157,592.4566872207109
3780.942,0.42825453109614087,744.7383981211672
3781.8118,0.4327453914123519,232.7568287236913
3782.6838,0.4359484274887963,196.71234642811416
3783.554,0.43746198285339055,230.56564609782512
3784.4265,0.43745837197224585,1147.2836000411708
3785.297,0.43657571679161367,203.5947623026116
3786.168,0.43557846565642916,354.14114075701957
3787.041,0.43501386218000704,416.3134435984671
3787.912,0.43503788957065215,259.8191815394634
3788.7856,0.4354043170751292,351.7021213392738
3789.6572,0.4356146081869977,250.22139299744265
3790.531,0.4351699821394211,355.2243823842611
3791.403,0.43382151379858025,326.2450026961788
3792.2754,0.43170004158737296,447.804811139521
3793.15,0.42927856077961163,204.0893513607011
3794.0225,0.42719524361210554,693.1590637961789
3794.8972,0.42588826610477576,485.76290894580535
3795.7703,0.4253400015719043,282.97456730271637
3796.6455,0.42506850728721424,280.09420469779565
3797.519,0.4245424165842156,235.23103480158954
3798.3926,0.4236014180613234,421.1582068138862
3799.2686,0.4224372523134937,524.6401919091483
3800.1426,0.42116962370947425,343.788495045283
3801.0188,0.41954612602217495,152.3489827380134
3801.8933,0.4172887877607401,203.65555036803164
3802.77,0.41465541727342753,565.9804601403846
3803.6448,0.41257031332414684,318.9481781162658
3804.522,0.41192185977003243,398.2893826629491
3805.3972,0.4128057488905357,209.2827167886612
3806.2727,0.41437960867767704,246.99794080359231
3807.1504,0.41548991266884633,258.7970420080117
3808.0261,0.4154317735709658,473.4905515098608
3808.9043,0.4143155380571505,438.9376845713137
3809.7805,0.41290042285964984,322.3836382366109
3810.659,0.41214174290945144,340.6590312797304
3811.5356,0.41275060681706993,286.0866733230326
3812.4126,0.41483045970119226,247.39480917183636
3813.2917,0.41777861837485053,276.7046815519632
3814.169,0.420500506216525,328.3958116137833
3815.0483,0.4219771580894388,383.4031858239826
3815.926,0.42168056806684484,341.77737621701334
3816.806,0.419744105989843,262.9290174400225
3817.684,0.4168718071110946,354.2711474240032
3818.5623,0.41408813581371595,396.86549716674097
3819.4429,0.4123488090555883,315.3827398009656
3820.3215,0.412056626302709,568.5281853598768
3821.2024,0.41281108330968874,370.87043995539716
3822.0815,0.41376132126950566,229.57919677812913
3822.963,0.41425896359863673,237.42750245068925
3823.8423,0.4142066902690049,424.16646750097556
3824.722,0.4138886416098398,514.9697641648295
3825.604,0.4135881218495127,376.1772186540726
3826.4841,0.4134470515668563,260.2011003722871
3827.3665,0.41356629399205125,280.6476211202573
3828.2468,0.4140846441064761,586.4656471450418
3829.1296,0.41509364450728736,327.35273307342635
3830.0105,0.4164995413418401,349.9044355461516
3830.8916,0.41802956862638513,300.3122325546454
3831.7751,0.4193280237404065,331.2148389632463
3832.6565,0.4200537917465931,362.6509624599335
3833.5403,0.4199514168149136,352.2688885017371
3834.4224,0.41885734508888917,199.93143606280466
3835.3064,0.41674990589946076,401.8455036296842
3836.1887,0.41386695699350573,290.01352875057216
3837.0713,0.41075250651328155,207.24065699933524
3837.956,0.4081938045774481,399.3452549338015
3838.839,0.4069534407747137,506.0040421311079
3839.7244,0.4073452870630301,538.5964759177042
3840.6077,0.4090422461090615,248.06806073503054
3841.4932,0.41130862610426694,226.2811403067088
3842.377,0.4135667189920934,195.93389922622083
3843.261,0.41591660766905286,336.52972994521116
3844.1472,0.4190395257327803,429.77800702487554
3845.0315,0.42351512138018366,338.2546876513398
3845.9182,0.429189578165805,264.55353221886065
3846.803,0.4349647431169015,198.55376042931104
3847.69,0.43944977354981657,262.8796267710515
3848.5752,0.44165490549963904,243.92645584754004
3849.4604,0.44155857803796056,134.63748065995324
3850.3481,0.44002201076980946,231.65200033131197
3851.234,0.4383361277638526,324.84530444019055
3852.122,0.43750048898750094,310.6825620921225
3853.0083,0.43768087419076146,511.1027437038273
3853.8967,0.4381254319143626,287.86086084342685
3854.7832,0.43772282248988387,384.7736781239372
3855.6702,0.4358546331685974,260.65748790454893
3856.559,0.43289137844150305,405.62526035746185
3857.4463,0.4299657513877713,350.852743865286
3858.336,0.4281262018583386,273.71607408323024
3859.2234,0.4277153438610286,333.8500498867028
3860.1135,0.4282924251437402,318.578307123021
3861.0015,0.4290872804061687,297.95585591313403
3861.8896,0.4294846938975669,342.3800086598832
3862.7803,0.42925556496429773,295.2019025813193
3863.6687,0.4285363691936576,318.67844024117693
3864.5598,0.42760930002093295,263.2184023156059
3865.4487,0.4266631509178136,657.6486676972957
3866.34,0.42568993449720577,329.0538890235435
3867.2297,0.42465554322845667,289.0613315848242
3868.1213,0.4236760451485415,525.5215113795482
3869.0112,0.4230337434474502,327.3731442811508
3869.9014,0.4229800299281899,481.8181000727324
3870.7937,0.4235730482593196,221.14009683469217
3871.684,0.424608840390085,359.3575247088085
3872.577,0.42567176726664946,243.81957551577557
3873.4678,0.4262344162810361,241.97104807935156
3874.361,0.42583230839091435,317.4647213767675
3875.2524,0.42417187067617096,477.25476263917886
3876.1438,0.42114690569709423,561.5107216299349
3877.0376,0.41679554017069187,248.56800326248225
3877.9297,0.41132790153848986,301.5871892781228
3878.8237,0.4050375549793824,473.96861159768326
3879.716,0.3983614378127654,271.9247483211184
3880.6108,0.3917409988872428,354.0559139373926
3881.5037,0.385657218768903,478.81232853830215
3882.3965,0.38036572274169433,451.5141200032319
3883.2917,0.37585921697205515,418.6734782077376
3884.185,0.3720303092602263,292.38953790909426
3885.0808,0.36882843304613133,927.9607410676728
3885.9746,0.3663586644260024,789.8163015731316
3886.8706,0.3645982649670429,467.2662170936708
3887.765,0.36329710870346676,571.1117655869465
3888.6592,0.3620973063830672,487.3864002284482
3889.556,0.3608329065033893,600.9408352748869
3890.4507,0.3596747005702146,458.6116302580635
3891.348,0.35901826626822564,566.3394418202022
3892.243,0.3593269366863326,311.88450050223173
3893.1406,0.3610015741403608,351.01928045345636
3894.0361,0.364291817331905,297.53929268034165
3894.932,0.3692055173754222,478.9423108599741
3895.83,0.3753457004184106,431.4277166459443
3896.7263,0.38176855180206115,415.86427178839426
3897.625,0.38730447556216113,508.20232568063903
3898.5215,0.3910050830789128,497.0218497700486
3899.4207,0.3928130142834504,269.95846400594337
3900.3176,0.39353548091281504,711.9508157321609
3901.2148,0.39427789123524065,509.22080500532684
3902.1145,0.3956753130060095,313.0139982685728
3903.0122,0.39769552580596096,280.957563535517
3903.912,0.40014031390382954,440.2035277265934
3904.8103,0.40314565346460524,698.8084225268271
3905.7107,0.40722026846200343,412.7903432785684
3906.6094,0.4126797801627741,405.5399524625988
3907.508,0.41922224030449273,245.12519494843718
3908.409,0.4259095954862977,318.4935073016288
3909.308,0.43157367627574345,199.01038459119158
3910.2097,0.43545114392271583,391.6617345129611
3911.1091,0.4373011938244248,262.6313071105888
3912.011,0.43735358729604645,237.62167233217218
3912.9111,0.43611182143662003,238.53711344851112
3913.8113,0.43433804766427964,515.5302560169208
3914.7136,0.4329500667687388,319.7821581234664
3915.6143,0.43271496708162177,266.52700073107553
3916.517,0.43386614660299333,233.47506181024974
3917.4182,0.4360125664756201,329.7302312379522
3918.3215,0.43844525243235666,299.02623555633573
3919.223,0.44058547653365854,348.794631562958
3920.1245,0.44233842890969727,249.1050266350161
3921.0286,0.4439699929999488,305.9864664275979
3921.9307,0.44568506437787375,309.6375557853902
3922.835,0.44737775473557784,271.0266328635789
3923.7373,0.4487526162107428,338.1483244377811
3924.642,0.449684936048131,297.06230731998284
3925.5452,0.4502375365871757,259.0892797978168
3926.448,0.45038067563088835,358.1281067279292
3927.3535,0.44978145892731636,424.7044980969282
3928.257,0.44804746785515454,266.03210994033367
