wavl,flux,ivar
3566.9744,0.7090446468021052,1104.295192760592
3567.795,0.708909897133928,1060.090895189431
3568.6177,0.7093622972688045,1063.4862289507353
3569.4385,0.7101543637591574,1279.2600309641305
3570.2617,0.7103422471859887,1118.9184087651117
3571.083,0.7091295792212295,1159.9091705106816
3571.9065,0.7066877174184587,1047.720061512337
3572.7283,0.7042308478570318,1243.8926628255977
3573.55,0.7032042321209385,1585.966293000564
3574.374,0.7043501234153502,1290.5610124821965
3575.1963,0.7072843810010706,1674.7321738308317
3576.0208,0.7109343205677353,658.0864929951148
3576.8435,0.7143426897421291,1584.7350809540567
3577.6682,0.7172902476076578,1594.7824509979184
3578.4915,0.720083290117951,1283.0775614218592
3579.3145,0.72297493576885,1242.8419870863995
3580.14,0.7257204741617733,1418.4503417592125
3580.9636,0.7277099279804923,1102.933367540591
3581.7893,0.7285559739505078,1303.595819581082
3582.6133,0.7283976218047473,774.2548748799035
3583.4395,0.7277073574587086,1264.1198129946938
3584.264,0.7268601553178837,1504.0389254844918
3585.0884,0.7260518390193649,1044.2926436320465
3585.915,0.7255548574748695,1713.529058018988
3586.74,0.7256731626557814,1274.38099647848
3587.5671,0.7262229095149471,1053.0711317764735
3588.3923,0.7263089963669223,961.5519830049291
3589.22,0.7250002560514359,908.1081764161332
3590.0457,0.7223280891765008,1396.948268741808
3590.8716,0.7194478917510383,1097.248992667918
3591.6995,0.7177603300095778,1068.4504533323864
3592.526,0.7178279730977879,1220.425305607355
3593.3542,0.7189769377390879,1171.4857615779329
3594.181,0.7197729769174459,1014.4321186668303
3595.0098,0.7188617069142205,1202.1569810223957
3595.8367,0.7156691142762996,1456.151157283301
3596.6638,0.7106689624483001,1435.6721621803504
3597.4934,0.7051016094622515,1817.6758522332586
3598.3208,0.7003459099366196,1277.3092838328046
3599.1506,0.6971718114797335,970.9966522005066
3599.9788,0.695705455718839,1368.1609172237272
3600.8088,0.6957242881879828,920.2150114496891
3601.6372,0.6970813101302563,843.6833444151486
3602.4678,0.6997243263782115,1210.2525974245711
3603.2964,0.703355445776709,1199.4027016560067
3604.1252,0.7072203045751908,1002.5386713300456
3604.9565,0.7102255868069941,1391.1788258205745
3605.786,0.711396901164081,1146.16633698968
3606.6172,0.7104502877404971,649.0314226537322
3607.447,0.7080364730285927,1712.5556517321074
3608.2788,0.7055385833501983,2370.526705414375
3609.109,0.7044048596858888,1471.4105733136448
3609.9392,0.7052923801762679,1356.1970011498718
3610.7717,0.7077826723571823,1060.5027544264462
3611.6023,0.7107497140646487,1372.6241766005512
3612.435,0.7130306777638388,1048.486227997844
3613.266,0.7136910326956517,1104.3059004502109
3614.0994,0.7121617929504971,1027.5622497394802
3614.9307,0.708490761784416,1259.6541368913527
3615.7625,0.703565558481826,1315.2832917490282
3616.5962,0.6988409501171815,1288.4344244996635
3617.4282,0.6955633309653066,1262.6548445911787
3618.2625,0.6940104913111219,932.9119270171543
3619.0947,0.6935769178080334,1368.795111299252
3619.9292,0.6934365020891848,1189.6004888237283
3620.762,0.6933278668016581,1284.022402359656
3621.595,0.6937845319059711,986.232581458898
3622.4302,0.6956772572341033,1521.8138128179746
3623.2634,0.6993675441283245,1510.7090706074823
3624.0989,0.7042121155906657,1240.5063481034329
3624.9326,0.7087330445561103,1196.9842160018939
3625.7686,0.711571599214745,1049.8214236171864
3626.6028,0.7122209112672166,1201.70602802395
3627.437,0.7111372012569774,1221.9977320106464
3628.2734,0.7090496996196429,1262.8034622751375
3629.1082,0.7063466219615723,1317.8176901257443
3629.945,0.7030710219275035,948.4447072325388
3630.78,0.6995596641170109,970.5585455253928
3631.6174,0.6967146661348304,1743.249765324222
3632.453,0.6956367456367232,873.1763545769641
3633.2883,0.6968114661346698,899.9329488581006
3634.1262,0.699865248988309,1103.6709115906344
3634.9622,0.7038793104446434,1158.6107998449027
3635.8005,0.7079779920096437,1104.7187353428235
3636.637,0.7114954455945799,1320.8487086892017
3637.4756,0.7140335616426929,977.7142858516
3638.3123,0.7154266522337086,1014.8200172804885
3639.1492,0.7159401755058771,1231.7213466162564
3639.9885,0.7161736203623484,2636.506054386459
3640.826,0.7165294010289193,1040.7520155671464
3641.6653,0.7166156601323685,1288.2526583949723
3642.5032,0.7153278447488833,1713.3131814897638
3643.343,0.7117334254513831,1378.6628139374411
3644.1812,0.7060195230476081,1261.1990596760952
3645.0195,0.6995244645212321,1387.0063087291016
3645.86,0.6939693015359492,1325.3693363498658
3646.699,0.6905932422223156,1005.4313143740989
3647.5398,0.6897254394547766,1511.0639754343092
3648.379,0.6910541789059165,949.5301039060329
3649.2202,0.6939191232784835,1249.0079176480751
3650.0596,0.6974171837799787,1113.9522461289034
3650.8994,0.7005572312129157,1499.1574161702874
3651.7412,0.7025616287657278,1478.07461132096
3652.5813,0.7032638042508563,1191.4082102669051
3653.4236,0.7031853530708253,1323.8227063923355
3654.2642,0.7030577659972995,1487.2543815708045
3655.1067,0.7032195439367315,1300.6608133299087
3655.9475,0.7034146423922907,1041.7715474511317
3656.7886,0.7031680872307077,1081.6721146317698
3657.6318,0.7023114549785674,902.5522120814816
3658.4734,0.7011311321291559,2048.362727299017
3659.317,0.7000214476241549,777.9222122750489
3660.1587,0.6991197278227183,1604.9090294610646
3661.003,0.6982190208955851,1040.1228840163628
3661.845,0.6970038276494793,950.3856996673277
3662.6875,0.6953271028986076,1542.0334489326679
3663.532,0.6934066278522448,1153.6751366504293
3664.3748,0.691708378441947,1899.2916493818998
3665.2197,0.6903499909365896,1219.4673568388807
3666.063,0.6883605849973204,930.8977071559736
3666.9084,0.6830306934491716,1172.3945706658283
3667.752,0.6696003162089142,1457.1485754084429
3668.5977,0.6413212804123453,990.5862242064579
3669.4417,0.5922288122948218,899.987885802622
3670.286,0.5228136481000385,1472.1573366645114
3671.132,0.44665956105932597,860.4275901728533
3671.9768,0.3900033835459014,1317.3441233816868
3672.8235,0.37754853637485103,120320.7347096547
3673.6685,0.4159803311470393,1066.5568092026003
3674.5156,0.48856673432613823,1249.3897009999757
3675.3608,0.5665253965191722,1036.7382892018331
3676.2063,0.6278110533359708,1559.6096173678382
3677.0542,0.6652083315589838,1423.14814644911
3677.9,0.6829647185905773,1320.2809566600456
3678.748,0.6894720589511475,1193.911427029565
3679.5945,0.6912618613590094,1055.1382254825235
3680.4429,0.6917737723722235,996.2253343247985
3681.2896,0.6921173868040583,1377.4038238463645
3682.1365,0.6923536043584899,1425.9466202128028
3682.9856,0.6922750472212245,1628.2170299901238
3683.8328,0.6916771019786682,1058.7906422991741
3684.6824,0.6904786342697823,1400.6155546565192
3685.53,0.6889389876784019,1044.1033251130868
3686.38,0.6876723017054865,1924.2398473076173
3687.2278,0.6872537919810182,1224.2676289708218
3688.0762,0.6876521519023682,1078.468953372836
3688.9265,0.6882666405793598,972.4553100346141
3689.7751,0.6886073227227025,919.6787976881358
3690.626,0.6888940066495434,1067.6070474739288
3691.475,0.6898497376451269,1645.4943734809783
3692.3264,0.6919662012659183,1348.7866535887058
3693.1758,0.6949655111391106,1042.4871833133257
3694.0254,0.6979647974663241,1279.1171019571052
3694.8772,0.7000163833432466,1228.5177868867088
3695.7273,0.7005832305961166,1086.718061344309
3696.5793,0.69968742308541,1450.3699574266075
3697.43,0.6977455985219788,1508.9180553151775
3698.2825,0.6953908582520566,1270.2250586825999
3699.1333,0.693363535307403,1034.1409229057367
3699.9841,0.6922570668219239,1777.1462191902617
3700.8374,0.6922766270146183,1233.8445440391547
3701.6887,0.6931289375977279,1635.1218782758888
3702.5425,0.6941705015911408,1094.851798408907
3703.3943,0.6946938004552958,1059.2637780830935
3704.2483,0.6942493729786012,1163.3023857349604
3705.1003,0.6928048268574512,1277.9400048120108
3705.9526,0.6906211234437887,1413.7807177930483
3706.8074,0.6879293437086849,1172.7948965537646
3707.66,0.684800095190048,1428.7696820006593
3708.515,0.6813168876840497,1249.9633501371975
3709.3682,0.6779905659836416,1460.0605766047488
3710.2234,0.6756654302631409,1317.9684727462588
3711.0771,0.6750322528817759,1235.4387195449215
3711.9307,0.6759877970321759,1278.02228061213
3712.7866,0.6775552374620871,1090.2901948374326
3713.6409,0.6783876487374605,1321.0207237807008
3714.4973,0.6775906988597258,1073.5923530182897
3715.3518,0.6752485740551247,986.7423189252448
3716.2085,0.6723482604172297,1437.1502846238727
3717.0635,0.67023650605535,1781.1031042642037
3717.9185,0.6698486670013474,1914.2502482231387
3718.776,0.6713055389306444,1359.8049268701084
3719.6313,0.6739689702943582,980.0384026241452
3720.489,0.6769006969308986,1795.4999995610806
3721.345,0.6792065237803776,1148.1904593920033
3722.2031,0.6802657313822591,1262.6948322031826
3723.0593,0.679837937020602,1405.458704798084
3723.9158,0.6782172171549478,1399.6877266963256
3724.7747,0.6760859057375308,1559.8612547986322
3725.6316,0.6740866000249482,1448.5463175011175
3726.4905,0.6724216699441128,1566.697462248216
3727.348,0.6710597981921704,1833.3244591665036
3728.2073,0.670225795599965,1199.9284669535482
3729.065,0.6705936247797503,1695.8727746291393
3729.9229,0.672744587161805,1323.066644517681
3730.783,0.6764359166257524,1379.147793354966
3731.6414,0.6804026228042976,1082.0600011140011
3732.5017,0.683092907117469,1208.9528572211423
3733.3604,0.6835402199425173,1116.6958597624343
3734.2214,0.6818157876374779,1077.8724717228845
3735.0803,0.6787439970769141,1894.4362298394726
3735.9417,0.6752711063073389,1160.5749284816352
3736.8013,0.6720927877467544,1286.7481820688045
3737.661,0.6695547877759991,867.1107362962573
3738.5227,0.6678507399629537,1392.1900358493065
3739.3828,0.6671227524805708,1349.3976226708753
3740.245,0.6673753461207336,1970.6862853185598
3741.1055,0.6684289044093005,1509.1352631644368
3741.9683,0.6699451418496062,1075.9825078165597
3742.829,0.6714136785055126,1433.0952862185707
3743.69,0.6722065027462667,1177.6479837284999
3744.5532,0.6718601871694252,2579.9678087438238
3745.4148,0.6706141498017546,1307.4678530331466
3746.2786,0.6695961960339155,1314.1623664972155
3747.1404,0.6702112248392568,1390.3292275899676
3748.0044,0.6730647658123251,1338.4866506801768
3748.8667,0.67737297232202,1105.4801296178875
3749.729,0.6814576435876977,1246.2832079407444
3750.5938,0.6838368712578463,1279.3610685491121
3751.4565,0.6840857932042553,1489.386591431997
3752.3215,0.6829305652103899,969.1117468145969
3753.1848,0.681566866515831,2219.060512317092
3754.0503,0.6808793398428891,1132.000165928558
3754.9138,0.681149949886476,1249.6476309814077
3755.7776,0.6822517672779754,1478.0715481667203
3756.6438,0.6839927324523286,1263.6732058762245
3757.508,0.6861863582250955,1479.042485202052
3758.3745,0.6885374982691996,1630.1411145998657
3759.239,0.6905118465311966,1427.1384633472967
3760.106,0.6915674082783357,1165.4169100946995
3760.971,0.6914516198000694,1161.4000871170213
3761.8362,0.6903351257045345,1348.053292640207
3762.7036,0.6885859031228798,1458.254209030753
3763.5693,0.6865231905405914,1270.6788213347716
3764.437,0.6842572206090206,1383.389587181405
3765.3032,0.6816715691434944,1090.4468387381576
3766.1714,0.6784030329400277,1197.946792394053
3767.0378,0.6741352443177954,1195.1814899900814
3767.9043,0.6690074413941149,1274.6046602023275
3768.7732,0.6638814631904799,1529.4782106172615
3769.6401,0.6600958030779949,970.6035163070003
3770.5095,0.6586632223137012,1225.5792588436937
3771.377,0.659700042888545,2345.892861148731
3772.2466,0.6622764438589686,1146.0539185681014
3773.1145,0.664881762083949,1016.1696837630934
3773.9824,0.6662412303968853,1336.5598445875503
3774.8528,0.6659200021333557,1463.1067772942647
3775.721,0.6644415798711436,1832.7471280162556
3776.5918,0.6628842673836547,1071.6213930469364
3777.4604,0.662332404151484,1421.4562125572643
3778.3315,0.6633957273514861,1447.368952507615
3779.201,0.6659893976950588,1678.8634793524986
3780.0703,0.669427389880621,1834.7167405789414
3780.942,0.6728441080682181,1051.1629202966928
3781.8118,0.6756920654865507,1577.6350304835041
3782.6838,0.6780695272381653,1116.80800171524
3783.554,0.6804598871143707,1268.2017834979142
3784.4265,0.6832287388428671,1225.271683899167
3785.297,0.6861261795315318,1775.4023906240134
3786.168,0.6884062818247692,1213.7419942342547
3787.041,0.6893190152171245,1196.884904962752
3787.912,0.6885636232953897,1420.0020862925328
3788.7856,0.6863059512121356,1385.6527739712249
3789.6572,0.6829306061528918,1250.6778652058858
3790.531,0.6788238262811915,1368.4019828904616
3791.403,0.6744136817298472,1323.040387834629
3792.2754,0.6700883622132325,1210.5323625640804
3793.15,0.6661243823266682,1755.9517191404493
3794.0225,0.6626165198687163,1569.0856941650004
3794.8972,0.6593977560251656,1459.032714588017
3795.7703,0.6561750783437367,1290.1533482974537
3796.6455,0.6526148912437167,1161.8157492451658
3797.519,0.6486214381978198,2046.7682196672793
3798.3926,0.6444744160847465,1066.6436778354255
3799.2686,0.6408377673767554,1332.311733635525
3800.1426,0.6385279119095233,1568.6000935187571
3801.0188,0.6381162396233145,1332.1937237594334
3801.8933,0.6397657322316741,1316.904286535874
3802.77,0.6431816841848043,2047.6242757837013
3803.6448,0.6476467460917116,1618.692327140126
3804.522,0.6522960046376389,1837.175836356392
3805.3972,0.6564105462292037,1349.7902791333304
3806.2727,0.6597784401231289,1369.5190510824118
3807.1504,0.6625559860425831,1704.456545474345
3808.0261,0.6648951821046808,1368.2513336533298
3808.9043,0.6667976054895138,1192.8998680465945
3809.7805,0.6682366140982957,1280.0435228098722
3810.659,0.6694248353721965,1417.6293032615415
3811.5356,0.6707482926439924,1450.0135644079774
3812.4126,0.6725298771463213,1547.4900475290365
3813.2917,0.6747899148342633,1493.4680457282866
3814.169,0.6771556201680312,1109.6457695014315
3815.0483,0.6790293697249621,1054.1222194319312
3815.926,0.6798694527558574,1655.6504059487306
3816.806,0.6795804376943351,1418.6147362499182
3817.684,0.678638799820617,1144.9163083988722
3818.5623,0.6778565966610796,1135.9540784847925
3819.4429,0.6779020844855836,1587.8084813343692
3820.3215,0.6789054909185003,1354.1181798076448
3821.2024,0.6804022920259181,1231.2908870186307
3822.0815,0.681569283864542,1433.6065534953807
3822.963,0.681598697313871,1057.6619239175882
3823.8423,0.6799683746757146,1754.32292711433
3824.722,0.676576190374531,1303.1484349144853
3825.604,0.6716783805241452,1378.7008857784756
3826.4841,0.6657548620199719,1776.2537038956152
3827.3665,0.6591748822619534,1204.4334417034647
3828.2468,0.6521489167219573,1072.362407751262
3829.1296,0.6446414678343625,1712.4364314095358
3830.0105,0.636708148804487,1419.7163140534053
3830.8916,0.6285715868304628,1773.1879434205314
3831.7751,0.6207109797949397,1413.1877916329504
3832.6565,0.6137289001787922,1455.1416674699763
3833.5403,0.607925248019451,2524.215576769886
3834.4224,0.603302407708002,1889.2194846331568
3835.3064,0.5995880399551428,1803.1786647146691
3836.1887,0.5966060608223684,1524.9593505958285
3837.0713,0.5944615371799835,1579.3572083888807
3837.956,0.5936744322774997,1667.2376575358853
3838.839,0.5950629842773326,1971.0118613652355
3839.7244,0.5993408814936773,2104.085128514548
3840.6077,0.6065211235810334,1486.3376407038822
3841.4932,0.6157176593588397,1710.0989910549988
3842.377,0.6253635236132468,1685.6583470556056
3843.261,0.6341033243998345,1414.9421327883074
3844.1472,0.6413398194691943,1190.748102523874
3845.0315,0.6473002435044429,1306.9407970866837
3845.9182,0.6528325930985517,1220.1625913793239
3846.803,0.6588079580532034,1499.4011023456137
3847.69,0.66584056136322,1919.8176356861281
3848.5752,0.673983402592323,1228.583452665267
3849.4604,0.6828728325071324,1350.8551995224807
3850.3481,0.6918551612327941,1066.9541587743772
3851.234,0.7000808778682118,1193.0158070799823
3852.122,0.706893831455624,996.4014907791166
3853.0083,0.7119877902750475,934.2676720479999
3853.8967,0.7157006931964467,1170.4966410550946
3854.7832,0.7186534750191096,1326.1614106782222
3855.6702,0.7212811785857617,1393.8079474293797
3856.559,0.7234912051308872,939.1986585464429
3857.4463,0.7248495248737152,1034.3494540500933
3858.336,0.7250182702670219,1081.1437264938827
3859.2234,0.7239822311351503,1267.1501218218505
3860.1135,0.7220658478904634,994.5561754286858
3861.0015,0.7198697610007814,1108.9304501258748
3861.8896,0.718083241514226,1058.3955898421345
3862.7803,0.7172474319140246,1281.175765590123
3863.6687,0.7174981980843748,1290.112606311241
3864.5598,0.7184669111297098,1119.7864510398624
3865.4487,0.7194339147367005,1077.6542180843353
3866.34,0.7196773547830089,1497.0745374050016
3867.2297,0.7188229766475117,1690.9202330901594
3868.1213,0.7170081467022071,1070.1720974266036
3869.0112,0.714667324837842,1104.6516749714172
3869.9014,0.712009669987724,1106.2605531114743
3870.7937,0.7087269393308184,1042.6476266340237
3871.684,0.7043034213410745,1149.0287043997287
3872.577,0.6985606525164733,1308.9011086028675
3873.4678,0.6919746843060381,1029.2981134570118
3874.361,0.6851219394830015,1193.828252096738
3875.2524,0.678173788277575,1268.5068001819143
3876.1438,0.6706732879029513,1462.3451335975217
3877.0376,0.662109830378046,2159.0852162751385
3877.9297,0.6526307587532041,1453.707861841603
3878.8237,0.6429894483130529,1513.8657409668203
3879.716,0.6341104326586101,1405.1134426456256
3880.6108,0.6262185730744427,1539.774553972925
3881.5037,0.618822706329237,1476.4283775526055
3882.3965,0.6110546131609041,1224.9797696882824
3883.2917,0.6023239860919196,1564.5912046170906
3884.185,0.5925887698386544,1513.6593841887084
3885.0808,0.5819477510510234,1998.7258009556795
3885.9746,0.5705287251471615,1624.8338384038916
3886.8706,0.5583024120432435,2039.2975994633455
3887.765,0.5456319333594601,1845.048984035232
3888.6592,0.5334110696695519,2359.948497298626
3889.556,0.5231045742539575,2337.471177452508
3890.4507,0.516418117484478,2845.4540488470325
3891.348,0.5146076045060213,1845.3139612382745
3892.243,0.5182151700967609,1749.5460282026793
3893.1406,0.5268919900741097,2351.257235372674
3894.0361,0.5393618619412407,2256.697429994291
3894.932,0.5538196748819344,1822.7183781290548
3895.83,0.5683779753359652,1826.4158358868517
3896.7263,0.5815182842373097,1470.5830862955697
3897.625,0.5927341988275736,2094.5143888443326
3898.5215,0.6023297393201603,1440.3273128877893
3899.4207,0.6113455520997858,1934.3137347515726
3900.3176,0.6207845143453355,2024.5493367108031
3901.2148,0.6312268535052264,1408.4228984369179
3902.1145,0.642515415233393,1164.0436611156097
3903.0122,0.6538921733897891,1846.1035455175033
3903.912,0.6646882985939753,1166.8543165607693
3904.8103,0.6744880907833117,1174.3408379775744
3905.7107,0.6833090429594231,1291.3590739546019
3906.6094,0.6912045417235813,1068.0222547739234
3907.508,0.6983041483101198,951.3877014457659
3908.409,0.7049169575354052,781.8401031476513
3909.308,0.7116411626273794,921.5172646730151
3910.2097,0.7192385081245234,1266.4297619873148
3911.1091,0.7278997065193162,1003.9784253006728
3912.011,0.7369638727846959,979.0333503927152
3912.9111,0.7450412390096202,976.6618831443627
3913.8113,0.751111949310276,1219.987106200173
3914.7136,0.7553059772449856,1019.8491482680284
3915.6143,0.7588453530410909,1057.332512878427
3916.517,0.7631445932547126,1686.6631748528707
3917.4182,0.7686765961565469,1009.7088205428769
3918.3215,0.7748028198617806,927.9365146665474
3919.223,0.7803456289319329,1055.33913004287
3920.1245,0.7845259515520012,985.4512854011876
3921.0286,0.7872112109814272,960.7346358657095
3921.9307,0.7886536522130273,1121.1956015490805
3922.835,0.7891996060523,1044.3411749282561
3923.7373,0.7891600325716035,899.5482568874688
3924.642,0.78882521004786,762.5840473845074
3925.5452,0.7883719068321223,940.558264377375
3926.448,0.7877832420024742,978.0320296150334
3927.3535,0.786990989191951,769.0221505447109
3928.257,0.7861566144991753,953.236279065909
3929.1628,0.7857117457493304,949.7271583337374
3930.0667,0.7860563215000642,952.0411990051864
3930.9731,0.7871567917452333,817.1197151235344
