wavl,flux,ivar
3566.9744,0.6557163347144479,597.1814815052468
3567.795,0.6543484549323366,729.7892743456624
3568.6177,0.6526547178122668,609.1908127598278
3569.4385,0.650594970636476,496.91585087230175
3570.2617,0.6484019309566025,491.92419828179123
3571.083,0.6465871301041284,741.1508233798859
3571.9065,0.6456485115587984,1295.7305557654915
3572.7283,0.6458652522964241,772.406145565983
3573.55,0.6472426238227634,842.8168553703687
3574.374,0.6496182142997645,627.4429285907665
3575.1963,0.6526552392759597,902.4812173752865
3576.0208,0.6558660057358695,416.26811822320735
3576.8435,0.6586595540259447,771.1058649838096
3577.6682,0.6606117385139365,728.57006350601
3578.4915,0.66158759294182,880.7689269439771
3579.3145,0.6617993406269397,614.5964795621628
3580.14,0.6617080993441077,549.5911962284623
3580.9636,0.6618786599390147,603.5998073260097
3581.7893,0.6627208671917812,825.7143996733508
3582.6133,0.6641649442662165,500.8361691758213
3583.4395,0.6655629708513654,588.2948369949892
3584.264,0.6660200695234262,632.8202884067159
3585.0884,0.6650456896564014,540.3672897924993
3585.915,0.6628149782997843,855.2182478043626
3586.74,0.6597896445857934,734.2410478841957
3587.5671,0.6560598949872857,454.59149743399723
3588.3923,0.651377456369262,320.3630842125607
3589.22,0.6457241818072691,832.2218868831312
3590.0457,0.6399397338998045,598.5284770889133
3590.8716,0.6353814736504523,497.5662943968759
3591.6995,0.6331978300839683,934.1009664469123
3592.526,0.6336761828806812,664.6580386766341
3593.3542,0.6361189189113227,940.1150480129077
3594.181,0.6392854263150172,773.5424942166592
3595.0098,0.6421764661891302,694.4305742172762
3595.8367,0.6445771683865262,581.4688385436943
3596.6638,0.6470313107387469,705.5370915370979
3597.4934,0.6500457552846427,652.7739874383977
3598.3208,0.6532732824017987,577.5436386860913
3599.1506,0.6555033182261789,464.51254776679616
3599.9788,0.6552857174476204,1102.6307999216262
3600.8088,0.6518055099204285,527.1373552558507
3601.6372,0.6454061389256787,522.7708478817611
3602.4678,0.6375786126315703,1130.8024912901826
3603.2964,0.6306088593319906,1022.55109417552
3604.1252,0.626542173606155,724.0332782603532
3604.9565,0.6263340692486359,696.3130678544343
3605.786,0.6294020449824523,799.8268599210762
3606.6172,0.6339834079199284,879.2631385816151
3607.447,0.6379770771903305,915.2053867826648
3608.2788,0.6399156827332092,611.3548751988386
3609.109,0.6394392405395645,514.7940984161629
3609.9392,0.6372659523087915,464.3329171929744
3610.7717,0.6346297191125155,745.0436583977564
3611.6023,0.63265939807878,787.6608525080235
3612.435,0.6319248163081738,733.2157149521579
3613.266,0.6324536059088638,507.93191164067434
3614.0994,0.6339381232090275,546.7166584575014
3614.9307,0.6359098544923336,891.9046908887633
3615.7625,0.6378342170315031,638.6619525019032
3616.5962,0.6392239899521783,691.0430118822281
3617.4282,0.6398835354630729,700.1461548281479
3618.2625,0.6400794974303096,703.9329530159761
3619.0947,0.6403452729638459,733.3104269457729
3619.9292,0.641045120835215,649.4290035957592
3620.762,0.6419883762756191,871.4985807588985
3621.595,0.6424663250393214,619.9126141799433
3622.4302,0.64172613724098,617.8305299803812
3623.2634,0.6395807703006509,744.6804227497339
3624.0989,0.6365599926718783,670.1294541575924
3624.9326,0.6335067938666469,847.995787207466
3625.7686,0.6309047871892942,619.2581174704497
3626.6028,0.6286747003454407,1223.485043789154
3627.437,0.6263524960612958,862.213009601139
3628.2734,0.6235192406585742,605.6713944027359
3629.1082,0.620165064677672,713.5890778303719
3629.945,0.6167868239961579,953.8741318201094
3630.78,0.6143217984481187,742.2369679239055
3631.6174,0.6136847564199871,647.8094060386292
3632.453,0.6152956418667025,748.9090869872806
3633.2883,0.6187951995842544,672.7763649400489
3634.1262,0.6233144587257217,503.0131204528457
3634.9622,0.6279706951756641,702.6932859010521
3635.8005,0.632288454132089,667.1131007422116
3636.637,0.6359672406632325,699.918749695645
3637.4756,0.638657029570927,705.2291428471111
3638.3123,0.6398440852445891,952.4158751935502
3639.1492,0.6391678654314968,599.6148938812828
3639.9885,0.6366443165429451,805.3369680898105
3640.826,0.6326935841818638,804.7331822445824
3641.6653,0.627801553465369,762.2692657132882
3642.5032,0.6223102470213662,665.2589160661432
3643.343,0.616358700148242,670.191176235511
3644.1812,0.6102332711750139,726.3766888619139
3645.0195,0.6044599374312547,623.6610456363898
3645.86,0.5997173166403665,612.9748083263016
3646.699,0.5965261370209636,850.9710424587544
3647.5398,0.5949313310330361,715.6369110181042
3648.379,0.5946264886445534,863.8614708387
3649.2202,0.5952498005463083,590.3587514822466
3650.0596,0.5966659879407663,762.6044332692545
3650.8994,0.5988891209846977,949.4031592602935
3651.7412,0.6016984349085002,605.6550893003107
3652.5813,0.6043525496651878,592.3697047654267
3653.4236,0.6058711216457449,823.281987275365
3654.2642,0.6056178651025766,762.1318542615735
3655.1067,0.6037606482625377,769.1590325769993
3655.9475,0.6011257729298114,822.3769288702699
3656.7886,0.5986035076888343,586.8098045730951
3657.6318,0.5966892920598005,621.4618391725329
3658.4734,0.5954568708397978,728.122850183598
3659.317,0.5948018852829158,402.55206463335105
3660.1587,0.5946568304192409,1269.8794448231097
3661.003,0.5949043178505344,924.7297031863254
3661.845,0.595278429906896,770.1405505520203
3662.6875,0.5955644286770817,1381.8323998208568
3663.532,0.5959924691101612,657.1960334412433
3664.3748,0.5973329306266334,830.6189001229484
3665.2197,0.6003992566997218,970.2738854099679
3666.063,0.6052132642496088,575.1761724223618
3666.9084,0.6106807437804457,680.3058576679522
3667.752,0.6149969815498036,431.2110973312114
3668.5977,0.6167909860216285,700.5555872576232
3669.4417,0.6158713249307097,912.1795132253284
3670.286,0.6132375976786125,788.1428104429265
3671.132,0.6103140611079555,640.9844149543528
3671.9768,0.6081774119694717,723.3396687762469
3672.8235,0.6071180369021217,1075.827015809375
3673.6685,0.6067052546782075,1544.8072537036912
3674.5156,0.6061036444277594,923.3843406260212
3675.3608,0.6046550775576325,586.1387850249569
3676.2063,0.6024417383954791,939.5163357168822
3677.0542,0.6004390085287248,928.1518304750191
3677.9,0.5999784517259296,916.0719953138862
3678.748,0.6017471137342089,645.6315244069265
3679.5945,0.6051677714763819,559.5799284477929
3680.4429,0.6086831024811294,1103.094096072687
3681.2896,0.6106354830825576,940.7194727098374
3682.1365,0.6101422652324652,703.9966978218981
3682.9856,0.6072211089889992,684.1708595049276
3683.8328,0.6024736234047888,591.5245195094067
3684.6824,0.596660229400731,594.199671879603
3685.53,0.5906975735490994,583.2278567383024
3686.38,0.5855250598324527,775.059272527014
3687.2278,0.5819906819954558,943.863329654921
3688.0762,0.580464545855631,717.6719194021604
3688.9265,0.5808070129584532,738.8410840792928
3689.7751,0.5824916206663961,984.3246568338503
3690.626,0.584852403093225,964.5271367726061
3691.475,0.5873321109573777,813.5356232428421
3692.3264,0.5898053032568265,690.5228192327968
3693.1758,0.5925896389138646,800.9199307583235
3694.0254,0.5961060319898157,787.093061821902
3694.8772,0.6003094272904694,675.3732347455995
3695.7273,0.6044516658576227,636.6601247875
3696.5793,0.6075149348015747,741.3308326354309
3697.43,0.6087999137162332,530.5599705373573
3698.2825,0.6084223049844164,691.7082713148313
3699.1333,0.6072130937176402,766.4836442245553
3699.9841,0.6061313274722837,921.1411658988173
3700.8374,0.605592250837282,756.5044276921858
3701.6887,0.6052659524758117,709.3630613022552
3702.5425,0.6044720490907485,713.6814112227692
3703.3943,0.6028057339735383,950.7512924662861
3704.2483,0.6003958003273246,686.3590477223141
3705.1003,0.5977351682932864,854.3633034460097
3705.9526,0.5952464695493636,1038.6824705627491
3706.8074,0.5930485047371129,733.4652434974188
3707.66,0.5910135691942088,799.635900201746
3708.515,0.5889852114785488,981.1801172556761
3709.3682,0.5870756544952245,832.7063771033315
3710.2234,0.5856137853775,984.545524666753
3711.0771,0.5848753367063988,646.064253090495
3711.9307,0.5847771960559112,607.3651052068998
3712.7866,0.5849443636344908,713.8407435632804
3713.6409,0.5850274468277369,624.549043688805
3714.4973,0.5849515104442641,679.3756625546641
3715.3518,0.5848729966564129,751.0018611679196
3716.2085,0.5849743457063579,687.3891349657257
3717.0635,0.5853188119503786,731.7782772188959
3717.9185,0.5858501265245394,988.7742826581174
3718.776,0.5864879814869088,816.7032721441775
3719.6313,0.5872447786031322,667.5531152691939
3720.489,0.5883018831318645,1181.9497379000618
3721.345,0.5898715069915553,561.0801188577155
3722.2031,0.5919434815439293,679.9339170929308
3723.0593,0.5941084966678831,896.1253848607682
3723.9158,0.5957955985661109,730.592043240499
3724.7747,0.5966221998343121,697.5357411272159
3725.6316,0.5965461351865154,835.4772810205993
3726.4905,0.5957434172482852,632.7287062283963
3727.348,0.5944623682863631,933.3341167119156
3728.2073,0.5930016105736273,784.5802843316467
3729.065,0.5916918263280918,765.8872743261622
3729.9229,0.5907066854333655,827.847065032878
3730.783,0.5899404185599161,718.5593355481358
3731.6414,0.5890937868519507,582.4217033976265
3732.5017,0.587880952034321,697.0104903206447
3733.3604,0.5861901437477913,951.4121127270801
3734.2214,0.5840719363875326,841.8955994296128
3735.0803,0.5817755482195972,629.2735214121469
3735.9417,0.5797440646852048,570.7602383099397
3736.8013,0.5785962723712265,1499.1098561574236
3737.661,0.5788574401950267,851.4288477519935
3738.5227,0.5807323695443265,979.8543768795016
3739.3828,0.5839769509810027,726.0125798963517
3740.245,0.5879838558475509,689.6392188193593
3741.1055,0.5918623545788421,720.1647545169247
3741.9683,0.5947430394599007,627.9444617340446
3742.829,0.5960396344869604,661.8730259546162
3743.69,0.5957592972240293,852.1749930881992
3744.5532,0.5944531794010777,1012.3522546477918
3745.4148,0.592977450099803,672.7132823682527
3746.2786,0.5921019555643342,1107.5238154570607
3747.1404,0.5922077311648962,783.5066172513219
3748.0044,0.5931932029252681,825.769542559404
3748.8667,0.5947767869611372,731.6379812465409
3749.729,0.5969703213914306,938.9006685462455
3750.5938,0.600121948465233,1001.533092980997
3751.4565,0.6042793058743874,883.1867859673666
3752.3215,0.608615480117186,902.0638679696065
3753.1848,0.6115215989181689,574.620547718468
3754.0503,0.6116563199041916,639.2691914758587
3754.9138,0.6088746517476952,670.2858266393923
3755.7776,0.6043412643374697,764.920667504764
3756.6438,0.5997100134398902,1002.0565703865724
3757.508,0.5961539451725799,842.5815852423331
3758.3745,0.5938081503816681,1148.3527819536093
3759.239,0.5921147036384569,757.1783885374665
3760.106,0.5904269680871169,688.3065751804447
3760.971,0.5885253985439743,837.0281652823035
3761.8362,0.5866369007512706,1046.3945146770384
3762.7036,0.5852267562348807,642.561222082752
3763.5693,0.5847644470368298,662.4638437671317
3764.437,0.5855187183205647,999.3434901188323
3765.3032,0.5873946796969925,893.3143745828305
3766.1714,0.5898470717770916,679.2721148334282
3767.0378,0.5919475198721706,835.8330978861633
3767.9043,0.5927262689609841,583.3346693620388
3768.7732,0.5915311106652429,823.9339550551134
3769.6401,0.5883517151586347,661.3545070174866
3770.5095,0.5838626550394732,849.4779402989108
3771.377,0.5792428911210278,865.6998565812413
3772.2466,0.5756384545822822,842.9400660208926
3773.1145,0.5738226587650236,750.7429953430919
3773.9824,0.5739669410256384,837.16955369541
3774.8528,0.5757396117656544,1038.4007712652506
3775.721,0.578448569402678,830.670141080659
3776.5918,0.5813563680045551,730.6455056058095
3777.4604,0.5839495563208862,702.1709785938995
3778.3315,0.5861249563762869,959.4548364733364
3779.201,0.5879365252966918,675.9020477932128
3780.0703,0.5893562672712815,762.9667750086852
3780.942,0.5902162829194444,1015.2350293549339
3781.8118,0.5903715024991385,739.5591958593817
3782.6838,0.5898406228335971,715.5506448788637
3783.554,0.5888432060421027,687.3896680669926
3784.4265,0.5878280479288605,607.105762969964
3785.297,0.5874286510994111,1022.3516827468638
3786.168,0.5881473330438638,781.1634019308505
3787.041,0.5900056286097864,718.4002337924609
3787.912,0.5924685781972691,763.3313304635253
3788.7856,0.5948137157723112,628.7159389363154
3789.6572,0.5964331630703622,731.0783410842765
3790.531,0.5969182912750485,647.0484972753578
3791.403,0.5959339301756421,555.8880067514548
3792.2754,0.5933396190591561,829.513623400301
3793.15,0.5894858644681783,653.0259154453742
3794.0225,0.5853798812931872,1006.803394688941
3794.8972,0.5822595273503212,742.5179090178631
3795.7703,0.5810036666935853,865.1586766342989
3796.6455,0.5816512756967465,716.915717292845
3797.519,0.5835168132226686,554.672816355312
3798.3926,0.585655943520428,798.5842573293006
3799.2686,0.587307742577498,657.1729727014632
3800.1426,0.5880591855335606,774.0426942449276
3801.0188,0.5878503134981382,840.5724981537015
3801.8933,0.5868700673308352,745.6608123347484
3802.77,0.58542369241311,667.785399940052
3803.6448,0.5837752641274567,707.9677760890045
3804.522,0.5820147677326817,946.4675840213033
3805.3972,0.5801767946803517,671.4183532835956
3806.2727,0.578463700531528,668.0566914424005
3807.1504,0.5774485418905876,665.9482874177105
3808.0261,0.5779447537452782,918.5908388491296
3808.9043,0.5805050590687856,884.3686992312598
3809.7805,0.5848731650760399,923.7124356897218
3810.659,0.589940332661651,653.142465545349
3811.5356,0.5942278822895596,710.6951194569705
3812.4126,0.5968085975016673,520.0769064884009
3813.2917,0.5977400790391794,637.6824907792617
3814.169,0.5978021646494789,517.008314422811
3815.0483,0.5977704894648644,864.8480522716541
3815.926,0.5978727456859704,571.4861960146667
3816.806,0.5978219579828777,709.3269825612745
3817.684,0.5971955264188155,856.2891045942692
3818.5623,0.5957535448092628,991.8747980543882
3819.4429,0.593527544004764,940.7549043244089
3820.3215,0.5908031675968232,957.6110232242114
3821.2024,0.5879988019827261,1075.7133279789002
3822.0815,0.5856216539606696,897.7059662947205
3822.963,0.5841070261197031,1025.0986812272486
3823.8423,0.5836541081564649,1021.971955078784
3824.722,0.5839852614750188,856.4255816160194
3825.604,0.5843434788317503,820.2842872103021
3826.4841,0.5838241072591864,792.9691261735207
3827.3665,0.5819071439130368,939.7466870471895
3828.2468,0.57879378824846,861.6971265784612
3829.1296,0.5752058196291904,799.6905977677015
3830.0105,0.5719121380195348,1167.7971682176114
3830.8916,0.5692137826925082,813.9191897855023
3831.7751,0.5669383861531094,711.2585793812855
3832.6565,0.5647686040008779,1074.4951554895447
3833.5403,0.5625303184916383,853.4472920811686
3834.4224,0.5603488085716751,749.2900236792849
3835.3064,0.5585082584177767,846.5663087035341
3836.1887,0.5572957464460758,901.2947185597443
3837.0713,0.5568243406536105,818.7119016649802
3837.956,0.5570471045105853,929.1050287878129
3838.839,0.5578826336380662,595.9278905223538
3839.7244,0.559373636733713,882.094766427683
3840.6077,0.5616702191403758,686.7422755291888
3841.4932,0.5648352128992642,860.9541903248411
3842.377,0.568496256750654,959.5128571095032
3843.261,0.5718388637923932,588.3721445501525
3844.1472,0.5739813050009862,674.3853791941142
3845.0315,0.5745519525650855,702.6758589259662
3845.9182,0.573982206484776,784.025907268664
3846.803,0.5732243496198073,910.4534476023381
3847.69,0.5732506738945039,579.1772614752983
3848.5752,0.5747395497130158,958.7242974090088
3849.4604,0.578002565451861,722.4029919829107
3850.3481,0.5829659230214841,904.6387660467539
3851.234,0.589023850185252,608.9474715688834
3852.122,0.5951746282318633,695.4049302174153
3853.0083,0.6002439162583644,686.9880373286935
3853.8967,0.603436845894772,735.3394519516999
3854.7832,0.6044670762415716,794.6659671547997
3855.6702,0.6035056531686664,597.9367879355983
3856.559,0.6009254459459559,641.3985161219422
3857.4463,0.5972652546307601,751.2147511987229
3858.336,0.5932472607717921,847.9965594854311
3859.2234,0.5898315754188299,822.7003761940456
3860.1135,0.587929081237579,671.7773923957009
3861.0015,0.5881076721284765,689.4684382794243
3861.8896,0.5902368131398854,835.5724964948221
3862.7803,0.5934872308234059,803.1121486135875
3863.6687,0.5966331385684471,734.7711876593432
3864.5598,0.59868960089648,674.9315089502725
3865.4487,0.5992846186783222,945.4322079105413
3866.34,0.5986782909357845,880.9910825560564
3867.2297,0.5973379562508002,923.0820637198153
3868.1213,0.5954932185978391,639.9525608494429
3869.0112,0.593029517381359,879.5173327788247
3869.9014,0.5897300482088329,695.3580529344327
3870.7937,0.5856960350997718,728.5222755012608
3871.684,0.5815619636962033,859.8805767995215
3872.577,0.5781523925867282,1207.1698899629173
3873.4678,0.5759938085154808,673.3426072260366
3874.361,0.5748601642224523,669.2189729657873
3875.2524,0.5739141495710375,626.4176270445282
3876.1438,0.5721720191612923,821.543842140251
3877.0376,0.5690066062446903,890.3965032281301
3877.9297,0.5644303758422796,667.2187973885653
3878.8237,0.5590227513333282,883.180287969692
3879.716,0.5537660579451223,974.0535729711902
3880.6108,0.5495466643910345,809.1521906030285
3881.5037,0.5467824188614608,896.4761649055908
3882.3965,0.5451469213429666,975.7690581788488
3883.2917,0.5438392480554464,1014.285421924619
3884.185,0.5420586344920411,830.1846276378438
3885.0808,0.5393239391655926,1003.1500818244986
3885.9746,0.5355505315143958,1102.1615063748009
3886.8706,0.5308656922391302,1046.5919332764358
3887.765,0.5256098342668392,1055.036894973281
3888.6592,0.5203043952737135,1054.5381091719814
3889.556,0.5156468113630084,1057.96510430109
3890.4507,0.5123561235094128,1110.7859076564919
3891.348,0.5108380845630852,1012.100397767831
3892.243,0.5110994019210812,970.7212432307732
3893.1406,0.512765131285082,964.6328994156283
3894.0361,0.5152683414922739,966.5904100886705
3894.932,0.5181066240906348,904.584116115039
3895.83,0.5210173309092081,688.7254851103306
3896.7263,0.5240283125365877,692.3688762462472
3897.625,0.5274751416827563,817.6159009566945
3898.5215,0.5318108354890949,1027.5988402194444
3899.4207,0.5374886158758482,1325.872869271271
3900.3176,0.5446353469425926,1140.5609277965684
3901.2148,0.5530071391750312,709.6280862439577
3902.1145,0.561987547588563,955.151721507514
3903.0122,0.5707338898321646,817.0294602542514
3903.912,0.5786116502909774,725.8070405273976
3904.8103,0.5852255548663569,959.7248388774427
3905.7107,0.5905718470299969,797.9777146166984
3906.6094,0.5948477857062787,624.1337754857295
3907.508,0.5984765046238356,876.5723934829231
3908.409,0.601986157456578,641.1373531153138
3909.308,0.6057920054333892,845.5423106762679
3910.2097,0.6099959683052103,784.2395602362109
3911.1091,0.614246227007704,734.3459478024248
3912.011,0.6180609130996637,754.0521487653106
3912.9111,0.6210891216697478,682.6972210664396
3913.8113,0.6233033371151976,528.7718570144267
3914.7136,0.6248636658286999,504.8877955621759
3915.6143,0.6260016556527003,704.7053638525273
3916.517,0.6269991716684554,748.1088983414894
3917.4182,0.6280436815292408,709.2347972085864
3918.3215,0.629064595464949,743.8658829170064
3919.223,0.6297394698008386,668.8177870638816
3920.1245,0.6298318394501194,666.3442870049896
3921.0286,0.6294787736270063,718.1239540505271
3921.9307,0.6291427966568737,682.7790983465859
3922.835,0.6292685648764119,719.2080293652399
3923.7373,0.6300241294328448,730.6514077667392
3924.642,0.6313122832199894,640.6229587984179
3925.5452,0.6329082208023141,716.9603311288608
3926.448,0.634565310657772,654.7150073202215
3927.3535,0.6359998323397266,758.2142938455532
3928.257,0.6368824989708938,548.7040811717743
3929.1628,0.6369874913067856,602.7558463326394
3930.0667,0.6363499173006836,621.0713758791385
3930.9731,0.6352699972299192,698.2436673066334
3931.8774,0.6340617770783188,800.2629398001511
3932.782,0.6327425364355229,719.9397200456359
3933.6887,0.6310848456152344,672.9411950436316
3934.5938,0.6290057903071493,738.4554915143217
3935.501,0.6268276448599357,696.7439049099472
3936.4062,0.6251810477979565,787.0025212743064
