wavl,flux,ivar
3566.9744,0.8106203547740006,920.8658207164405
3567.795,0.8095847656074822,939.4958352727417
3568.6177,0.8096649309483617,947.5745706843522
3569.4385,0.8108487690427121,1148.205334736127
3570.2617,0.8127893147333967,723.631794110891
3571.083,0.815344866470188,804.2221103254652
3571.9065,0.8186978752888724,736.0240166805818
3572.7283,0.8227145397584714,682.2908343018878
3573.55,0.8264603953653599,546.3742720962946
3574.374,0.8285135281032346,707.7427661640501
3575.1963,0.8280687491117192,648.9688688457614
3576.0208,0.825813247194774,825.0352997763491
3576.8435,0.8235576250098139,741.4973053911884
3577.6682,0.8228313254830752,901.7086506941635
3578.4915,0.8237856966551158,625.1389025752213
3579.3145,0.8252873414052049,682.1906340849735
3580.14,0.8259602957331691,698.0455518972394
3580.9636,0.8250726864842025,371.54809719877693
3581.7893,0.8227335315186524,717.6199224734981
3582.6133,0.8195864633443917,795.5549344201828
3583.4395,0.8163542827236486,825.1908765390353
3584.264,0.8135739119745428,784.4178474717935
3585.0884,0.8113678160293751,760.0125762975831
3585.915,0.8094399865813423,872.6545819751852
3586.74,0.8072120376952948,900.1855163004049
3587.5671,0.8040679524019319,914.1989680356761
3588.3923,0.7997589108390093,730.834166835378
3589.22,0.7945624203898944,1109.9737594569888
3590.0457,0.7892963331805896,629.0823483751675
3590.8716,0.7849035084450935,833.6511259395502
3591.6995,0.7821542494363515,796.2228741944617
3592.526,0.781445171731905,1159.3548064755978
3593.3542,0.7827346618146598,861.2987002924881
3594.181,0.7856395800009478,815.543191666493
3595.0098,0.7895764278190913,681.4568261631053
3595.8367,0.7937894150844689,861.4105852689472
3596.6638,0.7974774656820547,755.5928476538577
3597.4934,0.7999191315148595,663.4728119073475
3598.3208,0.800675479491238,805.2560536689382
3599.1506,0.7996306689721357,782.5927603550384
3599.9788,0.7966504606358222,1041.1209183851274
3600.8088,0.7912961980927627,736.8158834220108
3601.6372,0.7832224239358535,670.2402628236454
3602.4678,0.7729814685732794,676.9484236074601
3603.2964,0.7627861592037437,881.8688715554036
3604.1252,0.7558006119020066,872.9616672912986
3604.9565,0.754672763729486,1072.8604022999382
3605.786,0.7600345052227843,684.171991421495
3606.6172,0.7702528704883206,708.3812466209395
3607.447,0.7823321133157002,1289.3347308060288
3608.2788,0.7933375898788327,1448.552460669388
3609.109,0.801068221338818,656.1071012958864
3609.9392,0.8045867437771983,911.2708761034177
3610.7717,0.8041936843747648,699.5202600759512
3611.6023,0.801270222577398,1008.8263764422629
3612.435,0.7976447131114763,1281.2596808790177
3613.266,0.7947711095537526,882.94998838231
3614.0994,0.7930655374439072,790.0315057614337
3614.9307,0.7920165332243061,942.9116211025113
3615.7625,0.7908362892068426,914.8825611446547
3616.5962,0.7892165993506213,703.6519319582759
3617.4282,0.7875177395704936,1123.587041140055
3618.2625,0.7862902955404093,890.0644336242278
3619.0947,0.7857594265357947,861.4323018840428
3619.9292,0.7856953878576866,941.4555822172014
3620.762,0.7856966994744111,1194.4889838255813
3621.595,0.785426126419854,881.0536819504765
3622.4302,0.7846271719797175,985.9500601136025
3623.2634,0.7830778677731529,885.4452285624224
3624.0989,0.780645536666367,800.1213719677676
3624.9326,0.7775301123763162,918.0505329295086
3625.7686,0.7743499639984929,1074.1929734486218
3626.6028,0.7719712771641278,1005.692357468458
3627.437,0.7709260801794847,980.8735447794083
3628.2734,0.7710737054316765,1062.565102012117
3629.1082,0.7717764566526865,936.2004061417638
3629.945,0.7724462880665106,946.201356168777
3630.78,0.7728647079719269,1085.8008897284533
3631.6174,0.7730880344762577,858.4222284415351
3632.453,0.7732357707146874,863.9100105898477
3633.2883,0.7734999808669624,673.5979956507009
3634.1262,0.7742051996630169,908.2508457040819
3634.9622,0.775623812212274,819.5288167440352
3635.8005,0.7776293884437493,784.3622518219257
3636.637,0.7794657506514315,921.4861173525102
3637.4756,0.7800097493614264,798.8166500982081
3638.3123,0.7783734589707717,746.6052612033952
3639.1492,0.7745420159127155,1176.7788862223315
3639.9885,0.7694141090462785,1049.952551549791
3640.826,0.7642264989917467,772.7816323484021
3641.6653,0.7597251301534885,1003.0950517517955
3642.5032,0.7561558682900928,888.2408236481317
3643.343,0.7536858422773792,905.8105667509501
3644.1812,0.7527776539441318,886.1711890250948
3645.0195,0.7537975781947126,940.1450660405699
3645.86,0.756434001745286,1311.8521681305403
3646.699,0.7595582658269686,788.2900053976384
3647.5398,0.7619098637402258,968.8553144894097
3648.379,0.7628717435887499,829.8406917258418
3649.2202,0.7627633899764157,1088.2403498170838
3650.0596,0.7623541499953582,964.7830969883122
3650.8994,0.7621246808097373,847.9121670075563
3651.7412,0.7618366269237518,859.5218277346677
3652.5813,0.7606868923423041,1218.681746246357
3653.4236,0.7578837328560326,872.4396410147384
3654.2642,0.7532722546153034,1197.1512569492963
3655.1067,0.7475020630586074,779.9945204929215
3655.9475,0.7418516690350255,735.7724218664748
3656.7886,0.7376169488536586,1055.2430808824895
3657.6318,0.7356231044930365,935.11148353829
3658.4734,0.7359438397799855,1048.9207798542902
3659.317,0.7380264090402818,618.9673912648409
3660.1587,0.7411112037262041,852.8255494439039
3661.003,0.7445270249363334,1368.0789523378921
3661.845,0.747584489507207,924.3764242965418
3662.6875,0.749619348367373,1261.9315952630786
3663.532,0.7502545544661559,1327.5981445951584
3664.3748,0.7497498912777666,1302.2643262258864
3665.2197,0.7488892356558852,987.7403153112648
3666.063,0.7484425195147599,992.6772961683985
3666.9084,0.7487187769441513,721.0795792688712
3667.752,0.7495687230828436,1094.1177146320667
3668.5977,0.7506487141783793,819.9418822201828
3669.4417,0.7516014367844372,817.8479975652679
3670.286,0.7521275758851297,731.0781347935105
3671.132,0.7520157696352147,904.1225724170629
3671.9768,0.7512303016433702,890.7320019122307
3672.8235,0.7499517168653785,766.0523161423146
3673.6685,0.7484901989157917,796.9186812664925
3674.5156,0.7470368165773276,781.5681083796192
3675.3608,0.7455230370713363,1073.8836827864945
3676.2063,0.7437175893745206,1190.4245311010054
3677.0542,0.7415703782078866,844.285897918793
3677.9,0.7393973856829252,968.5501147386949
3678.748,0.7376196269642289,930.3808909341253
3679.5945,0.7364932559481349,837.0732954497703
3680.4429,0.7360619369840823,1268.250418301162
3681.2896,0.7363796355703301,1064.3159958143253
3682.1365,0.7375303095198216,940.0427387673172
3682.9856,0.7393904104077912,1510.1886859665228
3683.8328,0.7413924735397064,1326.132047434287
3684.6824,0.7426901346009279,939.2159246440328
3685.53,0.7425831317641632,1282.5573797009272
3686.38,0.7409928812489384,817.2375719483047
3687.2278,0.7386000021899314,1159.3035941018477
3688.0762,0.7365485188402371,910.2140020043238
3688.9265,0.7358939806662306,1142.0112859213773
3689.7751,0.7369762469666142,1373.7070804915215
3690.626,0.7391037478204716,863.2092212678841
3691.475,0.740867823499755,923.0545062707544
3692.3264,0.7410306821018481,859.6456315605591
3693.1758,0.7392496844679717,955.3382298729778
3694.0254,0.7360938991996413,1325.0168488828115
3694.8772,0.7324398950597025,754.2895425802926
3695.7273,0.7290244513637169,805.8055191297841
3696.5793,0.7263898790401515,1072.7000425467734
3697.43,0.7250970566139336,986.5345785677566
3698.2825,0.7255303787915414,869.8525934467091
3699.1333,0.7275061677695411,831.6242626999838
3699.9841,0.7301072578323877,1036.0866011399773
3700.8374,0.7320574160102571,1012.3592458082528
3701.6887,0.7323526477757726,1023.1895222398406
3702.5425,0.7307176348789243,1212.793403281652
3703.3943,0.7275763699431699,956.9304720237024
3704.2483,0.7237175480019582,1219.9993515796302
3705.1003,0.7200214956212282,1096.3426924136554
3705.9526,0.7171407408508926,1054.1192749513446
3706.8074,0.7153631952752693,1197.5388451489964
3707.66,0.7146152425676511,1005.5302056451678
3708.515,0.7146412169841856,1017.5140474721943
3709.3682,0.7152904820782593,1009.3578510115665
3710.2234,0.7166170269473289,844.6148898850311
3711.0771,0.7187403680161392,1176.516225217639
3711.9307,0.7216355909684194,1224.824469832419
3712.7866,0.7249974479050111,801.5434757764372
3713.6409,0.7282208311869071,1001.7194579654762
3714.4973,0.7306227318240627,845.7729691813321
3715.3518,0.7316659417729926,858.0619241543659
3716.2085,0.7313107279259731,797.7635518158867
3717.0635,0.7301620617149657,1016.9536841139492
3717.9185,0.7292717172627903,1081.4838548213004
3718.776,0.729556831234264,802.6446963965566
3719.6313,0.7311837560904467,1017.7908012158011
3720.489,0.7334288978461116,858.4253513360802
3721.345,0.7351146410144289,1231.9793129277555
3722.2031,0.7353377048281577,791.6453341480612
3723.0593,0.7338784586649925,1059.823467412485
3723.9158,0.7311682408407288,1125.411721136317
3724.7747,0.7279210248987784,948.7553645835873
3725.6316,0.7247820902793564,1637.946328397863
3726.4905,0.7220474020708781,1152.1105637245362
3727.348,0.7197248306159691,1162.1585593002576
3728.2073,0.7176420624852586,932.8663478728789
3729.065,0.7156360735058133,1166.2451341241397
3729.9229,0.7136195268059562,952.1083945752267
3730.783,0.7116969352010883,1282.4808031009977
3731.6414,0.7102478855472969,1283.2740688046101
3732.5017,0.7097642217471384,866.5168253274322
3733.3604,0.710492719916135,1092.9792267032508
3734.2214,0.7121093670553613,985.5268984134882
3735.0803,0.7137976088131944,1029.2271100162968
3735.9417,0.7147430193810431,914.3605484988551
3736.8013,0.7145613809672577,1067.3938047574932
3737.661,0.713476983820842,896.913939311523
3738.5227,0.7121807733257014,1076.8981866023053
3739.3828,0.711516775201266,1349.8811386806044
3740.245,0.7119973977601278,1011.1719507810388
3741.1055,0.7134614553589393,994.7077516233495
3741.9683,0.7151758255304528,984.7648270725999
3742.829,0.7162948044191226,941.5382665968687
3743.69,0.7163127362035872,1063.379395761167
3744.5532,0.7151097477716849,897.4765999590538
3745.4148,0.7128503852548188,1141.4209676285805
3746.2786,0.7099486090970621,942.6720123048445
3747.1404,0.7071765987061116,1116.1937636433252
3748.0044,0.7054848520918731,1234.213368989854
3748.8667,0.7056244664667592,1047.1290306779952
3749.729,0.7077025001495495,1094.9738303036963
3750.5938,0.711152709502774,1134.3355455256035
3751.4565,0.714994412537852,976.634980786691
3752.3215,0.718301084385746,1204.235796702428
3753.1848,0.7203985761523379,1097.5023751147578
3754.0503,0.7209703714129313,1123.2177841528708
3754.9138,0.7199671540296452,856.7610528688776
3755.7776,0.71759786787719,1159.961908911446
3756.6438,0.7143536308654956,1011.4444307554933
3757.508,0.7110484735239131,927.3223778877383
3758.3745,0.7085876723010811,1049.8018286484546
3759.239,0.7076668833412688,1001.1311469656953
3760.106,0.7083823560710136,1356.9772187685971
3760.971,0.7101782265547714,1339.4372295813487
3761.8362,0.7121985138086249,840.2017232782686
3762.7036,0.7138477998535939,1133.5669712848835
3763.5693,0.7151109868656371,872.6913857379741
3764.437,0.7163728091865685,1171.3558040003325
3765.3032,0.7177990222236819,980.1578070402804
3766.1714,0.7189111352559585,1050.8216779794586
3767.0378,0.7187211897191542,919.3283890181972
3767.9043,0.7164355704965872,1105.4888074161615
3768.7732,0.7121098627611585,1141.5601130097289
3769.6401,0.7068523301541111,875.4631272615082
3770.5095,0.7022240552597048,910.8254527276001
3771.377,0.6994381508924298,1098.893666812463
3772.2466,0.6986035538873107,1206.4820961866062
3773.1145,0.6988248782461312,963.5352121316897
3773.9824,0.6989555384268346,1018.0292362520407
3774.8528,0.6985195556588094,940.5043371280082
3775.721,0.6980310458647726,1082.24086838186
3776.5918,0.6984556615342957,1045.4207323825785
3777.4604,0.7002887404609047,1155.203671885906
3778.3315,0.7030787181000033,1181.030927168178
3779.201,0.7057925028588563,1049.626719809274
3780.0703,0.707732605446057,1130.1182743364552
3780.942,0.7089541728058976,1393.5353034928607
3781.8118,0.7098419973403286,1467.4485374174096
3782.6838,0.7104159259486251,784.2842748364785
3783.554,0.7101589544644685,1469.2799577977594
3784.4265,0.7085675685459661,1047.2111185293672
3785.297,0.7057681788856864,1212.535247569218
3786.168,0.7025178619810585,937.0934351568011
3787.041,0.6996437395753045,1155.251301225674
3787.912,0.6974599918664838,827.8182380257364
3788.7856,0.6956131782630517,895.6866232588814
3789.6572,0.6935435049791924,925.1350374640971
3790.531,0.690935555324237,833.7048113540682
3791.403,0.6879153077120895,1531.5882345399912
3792.2754,0.6848274586873435,1063.3874223424505
3793.15,0.682014318862177,1029.3876000070802
3794.0225,0.6797210215239177,1355.3966389340158
3794.8972,0.6780272044858542,1140.7657195841366
3795.7703,0.6769134833949599,945.7873846865933
3796.6455,0.6763258315529365,1211.8500975155957
3797.519,0.6763027730735367,1399.356022101169
3798.3926,0.6769323496079248,905.8365508617535
3799.2686,0.6781916575694218,1160.1320599822566
3800.1426,0.679833138180307,976.9562632652393
3801.0188,0.6815460561257249,1049.4895015888367
3801.8933,0.68317862708348,1079.2066567502388
3802.77,0.6848771918998918,1195.0691828380657
3803.6448,0.6869435918953946,905.3315468815744
3804.522,0.6896484983906138,1130.5908815557782
3805.3972,0.6929934203336362,1304.9152826644306
3806.2727,0.6967022394549792,883.2475129869856
3807.1504,0.7003591651231418,1038.1743048641804
3808.0261,0.7036714941081716,1178.418379710414
3808.9043,0.7067301003723439,1093.027866590116
3809.7805,0.7098565574781547,1048.2080881193776
3810.659,0.7133098105569396,1047.4252707083335
3811.5356,0.7168815266174204,1339.8507839665224
3812.4126,0.7199766106695662,1073.1835724117525
3813.2917,0.7220207983418861,790.0127596494167
3814.169,0.7228843997903427,943.002876459445
3815.0483,0.7229350962237526,1248.4426909998128
3815.926,0.7227228856301209,766.8075476920762
3816.806,0.7227505909943663,1024.789102445748
3817.684,0.7234025116399232,1053.5121476818695
3818.5623,0.7248424800031303,1002.7340571266957
3819.4429,0.7268373552598283,905.6297073060932
3820.3215,0.7286965665486022,946.1701303733606
3821.2024,0.7295633293684303,1089.6922413994967
3822.0815,0.7287538756456655,901.9122165481175
3822.963,0.7259582691463549,922.9724689944
3823.8423,0.7212415019652241,960.117339787646
3824.722,0.7149431819794726,1335.8391609136133
3825.604,0.7076541461978963,920.1484513804537
3826.4841,0.7001877031807814,1500.3442784131284
3827.3665,0.6931874716519867,1069.6480137194742
3828.2468,0.6869441761658788,1262.2834869778912
3829.1296,0.6811408806068792,987.2538505777575
3830.0105,0.675169472859629,1159.9689128407929
3830.8916,0.6684058748868696,1114.8778337660392
3831.7751,0.6605887270384434,919.1587255172492
3832.6565,0.6520574682179426,1178.8667336227688
3833.5403,0.6435661222134761,1135.1186971643053
3834.4224,0.636199727312179,1723.0404078078054
3835.3064,0.6308414613239364,1206.1680490613132
3836.1887,0.627968409163835,1418.0306283010532
3837.0713,0.6275097421354339,1101.8518043915087
3837.956,0.6291290657336981,2035.4400015257854
3838.839,0.6324543532363724,1660.8100405831494
3839.7244,0.6371731767918838,1253.7835823442974
3840.6077,0.6428882534344856,1029.6465758217748
3841.4932,0.6492197449677825,1365.1888649241864
3842.377,0.6558830776696469,1216.3939021115284
3843.261,0.6628759077757894,935.6345181210054
3844.1472,0.6702566218458571,1242.3347479852027
3845.0315,0.6777952049322958,1065.5277989858623
3845.9182,0.6850264652611366,1093.4790172713547
3846.803,0.6913885787236367,1040.6239734933638
3847.69,0.6967674430912749,1073.543032997914
3848.5752,0.7015611074075018,1017.9330399337867
3849.4604,0.7065690595757061,1352.0790322869716
3850.3481,0.7125230177555792,889.6157639037283
3851.234,0.719631608639,1037.4522145941467
3852.122,0.727520740920019,1123.0085321518259
3853.0083,0.7352145103532597,906.2303766909056
3853.8967,0.741641072559948,649.3715883759728
3854.7832,0.7459950839445671,1036.4608772798158
3855.6702,0.7482960189939462,925.0762471900923
3856.559,0.749467910571683,921.1024352858751
3857.4463,0.7509867129098982,909.7284907939847
3858.336,0.7540645967126745,1009.6496358064932
3859.2234,0.7587970127632211,1069.7057553886698
3860.1135,0.7640742324696107,777.8848614897836
3861.0015,0.7681397782761266,766.5789510084151
3861.8896,0.7696278926640812,1017.509854449796
3862.7803,0.7680843333464283,1202.4086498058018
3863.6687,0.7640327946876408,824.7681264385074
3864.5598,0.7585566051643884,740.7749937324546
3865.4487,0.7528291125094503,886.9759910452227
3866.34,0.7474884159394057,1122.4013114476184
3867.2297,0.7425097958788287,1056.3924596793913
3868.1213,0.7373479775262819,1190.8063230275432
3869.0112,0.7316282538115146,977.3561162808738
3869.9014,0.7255688926906608,1066.861388606151
3870.7937,0.7199822020683283,1105.2633965809905
3871.684,0.715751741654906,1120.2580249062821
3872.577,0.713064352525028,822.4147032696237
3873.4678,0.7111647687881316,865.821046106331
3874.361,0.7085773941535097,1136.1806596832953
3875.2524,0.7039424206849466,1074.4196919089243
3876.1438,0.6968042308616668,1084.2605640899876
3877.0376,0.6879088820578871,855.6991934547823
3877.9297,0.6788086976160709,1184.3638088000398
3878.8237,0.6707396796940256,1577.87080385148
3879.716,0.6639535740755383,1434.9345752953172
3880.6108,0.6574900186966917,1029.7552943892094
3881.5037,0.6499532254959615,1351.5069715011891
3882.3965,0.6403136652881771,1109.1248124236333
3883.2917,0.6284795260612072,1004.4983453391203
3884.185,0.6152903229496834,1416.0455644040667
3885.0808,0.6017039322546079,1066.8338103561011
3885.9746,0.5884698408989856,2092.868619164531
3886.8706,0.5757539761198887,1371.2692272443828
3887.765,0.563750400214879,1719.8301898132813
3888.6592,0.5529768200653142,1498.517232894868
3889.556,0.544522360887713,1514.7171886789272
3890.4507,0.539766182278343,2114.405299846652
3891.348,0.5396553316975239,2156.8486875389367
3892.243,0.544362781998999,1893.638236154465
3893.1406,0.5532767942490464,1549.9664746548865
3894.0361,0.5651687966967537,2042.1802111246634
3894.932,0.5785923387917966,1888.2791268622832
3895.83,0.5919984297012181,1917.834020831354
3896.7263,0.6039023888401848,1663.179923374451
3897.625,0.613598986664354,1245.9203754634943
3898.5215,0.6213599175026375,1254.3062764132612
3899.4207,0.6285153612008855,1779.7216023955061
3900.3176,0.636512021107437,1781.807014326521
3901.2148,0.646159016869818,1149.5146387498153
3902.1145,0.6572440141455218,961.6118557988455
3903.0122,0.668867688646519,1295.1502773639866
3903.912,0.6803849801084435,793.6077714911906
3904.8103,0.691622798247054,1242.0707899961797
3905.7107,0.7029073220866915,1309.3024095133715
3906.6094,0.7143796772038934,1183.4253361619062
3907.508,0.7258791480057946,1082.4222508141731
3908.409,0.7370286595208081,887.2376367477516
3909.308,0.7475025294968002,712.2437030233817
3910.2097,0.7573464886388259,939.7139300774409
3911.1091,0.7666122413120575,673.6260876133272
3912.011,0.7753139748202309,815.0380407730315
3912.9111,0.783215802705992,827.7091565178649
3913.8113,0.7901703280006706,894.0113266195001
3914.7136,0.7962252075511992,864.3737751852772
3915.6143,0.8015409026876804,835.2709486835935
3916.517,0.8062966682751561,763.6029923443922
3917.4182,0.8104975077879906,750.1375403759099
3918.3215,0.814126012224153,852.1532701448397
3919.223,0.817174092247923,823.1586039397623
3920.1245,0.8197332258100661,769.3370531598869
3921.0286,0.8219753437361128,741.611561495384
3921.9307,0.8241851287816111,922.893906455034
3922.835,0.8267635941680328,795.7096436707102
3923.7373,0.8299667403588853,840.2001475178596
3924.642,0.8336796343570928,855.0887222574462
3925.5452,0.8372798565111665,688.702572066104
3926.448,0.839938049122068,608.3645333464505
3927.3535,0.8410098459696972,719.1642469124424
3928.257,0.8403535297415768,777.6340892019197
3929.1628,0.8383743794430072,761.8256821206714
3930.0667,0.835761607629932,707.4549351993292
3930.9731,0.833081244311437,792.3254003783846
3931.8774,0.8306004707867942,634.7046604743718
3932.782,0.8282968767934866,844.032744301318
3933.6887,0.8260992785149128,598.7632845317343
