wavl,flux,ivar
3566.9744,0.9951888214482573,1013.0601248068577
3567.795,0.9945561784280281,758.7304226907446
3568.6177,0.9946402791154825,950.0651187238207
3569.4385,0.9945169761002687,856.0224529237546
3570.2617,0.9934762934207877,895.6055659611392
3571.083,0.9913626282724709,752.2639642156375
3571.9065,0.9884199519067083,1036.502334149243
3572.7283,0.9850742099450155,925.3307460050036
3573.55,0.9817576809656008,1084.0744633669822
3574.374,0.9788200661001596,853.051453828836
3575.1963,0.976432181779708,760.0357764779886
3576.0208,0.9746085135229138,747.4585277559293
3576.8435,0.9734943947181675,773.702400365371
3577.6682,0.973347353531191,945.8540235839611
3578.4915,0.9741629255675696,1317.725801235694
3579.3145,0.9752960144971895,870.2114041271005
3580.14,0.9756364009296103,597.7274107595049
3580.9636,0.9742497858417666,723.6258138992639
3581.7893,0.9709489340948918,840.7361799927088
3582.6133,0.9663996741146751,958.0043895992495
3583.4395,0.9617136897224118,893.44893374578
3584.264,0.9580316954971979,745.4060497266172
3585.0884,0.9560428718489932,923.6451620904201
3585.915,0.9558545388883888,852.5991321347348
3586.74,0.9570874161898478,822.5637542483352
3587.5671,0.9591416698397724,817.0668199918962
3588.3923,0.9613832018340314,890.1415322094184
3589.22,0.9632807565578188,752.5354249961333
3590.0457,0.9644924498917099,874.550066504119
3590.8716,0.9650344496857578,729.2828582923026
3591.6995,0.9652061083195368,785.0539402772077
3592.526,0.965336663350711,899.252784472112
3593.3542,0.9655750240371701,794.0905631667058
3594.181,0.9658936625486199,756.7512442108377
3595.0098,0.9661727441922211,933.8790247204005
3595.8367,0.9661604090772395,963.5022649326452
3596.6638,0.9654316773616826,774.1871065516639
3597.4934,0.9635496905812364,871.8362689069692
3598.3208,0.9604356592621819,774.2999324757375
3599.1506,0.9565094173674964,1011.5745529269477
3599.9788,0.9525434367987025,887.7912582592174
3600.8088,0.9491523616576267,1366.0552474837439
3601.6372,0.9465700424274129,740.5851308868797
3602.4678,0.9446705552531961,816.7489367753908
3603.2964,0.9433329345065271,863.436897672641
3604.1252,0.9426449684266727,895.2757467130879
3604.9565,0.9428944122363396,990.9227163284474
3605.786,0.9443206527283001,755.9049445092423
3606.6172,0.9469032126114423,1347.9797289127414
3607.447,0.950293079220119,846.7602828883054
3608.2788,0.9539556468397948,962.0066247504774
3609.109,0.9572295104247206,676.9772758816579
3609.9392,0.9594331281638088,1106.5656705045358
3610.7717,0.9599235415180358,805.0183132372065
3611.6023,0.9583532329742878,771.0947246687962
3612.435,0.9549596623416943,800.9331758008184
3613.266,0.9506581079051304,794.8569105840294
3614.0994,0.9467054285513445,803.341409518013
3614.9307,0.9442579860009386,972.2404967514907
3615.7625,0.9437992489882153,820.8133588489077
3616.5962,0.9449480229654387,874.8114280313326
3617.4282,0.9466677110179953,892.2179337648062
3618.2625,0.9479409195496391,964.9614194470821
3619.0947,0.9483553010374252,925.0119070433027
3619.9292,0.9482270239646761,1002.8534664839383
3620.762,0.9481934490689033,735.9333957844906
3621.595,0.9487212770964669,938.8935663923969
3622.4302,0.9498454790356995,757.8866304289967
3623.2634,0.9511523506776055,740.150997735335
3624.0989,0.9519622552800612,732.6714078698762
3624.9326,0.9515729764829896,983.9335405806044
3625.7686,0.9495392814039775,739.6128443168348
3626.6028,0.9458283602702464,1099.076654493606
3627.437,0.9407442034683258,747.1927631723634
3628.2734,0.9347831842606175,1171.5315199036668
3629.1082,0.9286397881891316,666.5996152843322
3629.945,0.9231185990740819,1142.8758676634534
3630.78,0.9190691922073047,891.3693031577511
3631.6174,0.9168448444982018,1163.6133847471417
3632.453,0.9160355860559423,940.7762144162863
3633.2883,0.9156554553796344,824.5110399632999
3634.1262,0.9149366741909026,740.2554380214199
3634.9622,0.913964730755925,1016.3308602821849
3635.8005,0.9135372452626359,938.7767750816813
3636.637,0.9143874682740711,837.5831745906031
3637.4756,0.9164794157389674,1269.046238350071
3638.3123,0.9189583048534419,858.0242290787327
3639.1492,0.9206938170846883,1211.9780577614927
3639.9885,0.9208104533402652,1160.3344113884884
3640.826,0.9189854432730726,890.2543877790814
3641.6653,0.9154709646579194,1061.322995002752
3642.5032,0.9109741916397529,728.3075210775364
3643.343,0.9063593930631298,1074.1814061646144
3644.1812,0.9024416461656761,896.9640656869643
3645.0195,0.899681599305656,1179.1317912517388
3645.86,0.8980701622755242,710.5111634217112
3646.699,0.8971062377537932,1010.5468122615218
3647.5398,0.8959463339498462,971.5847354928803
3648.379,0.8938025753884778,754.7103857278897
3649.2202,0.8903392758091409,1077.7408863517667
3650.0596,0.8859620349746414,958.2402267652024
3650.8994,0.8816661137764146,974.3420122111658
3651.7412,0.8786446157287283,1206.3727467420902
3652.5813,0.8776835596342699,1207.6883199125832
3653.4236,0.8786365903288739,1254.2947363289375
3654.2642,0.8804772721995388,1140.8915795645726
3655.1067,0.8819432753834915,790.2153520152516
3655.9475,0.8822507738561502,1009.9381813656134
3656.7886,0.881333125427357,997.7909863606692
3657.6318,0.8795215213112919,917.6425234802368
3658.4734,0.8772894881200415,836.9794612031401
3659.317,0.8752519614942034,1215.4707227989047
3660.1587,0.8742051842029527,1095.2883215253528
3661.003,0.8747264330177109,946.1514796700874
3661.845,0.8767009227169072,881.0804703554114
3662.6875,0.8793448325839022,817.1029452039458
3663.532,0.8818410269999276,910.4398423913846
3664.3748,0.8839630564358163,970.7379107776976
3665.2197,0.8860970248964481,1355.8033030080496
3666.063,0.8885521516384953,1088.934974752617
3666.9084,0.8910311073270876,955.0231677542022
3667.752,0.8927121837344575,873.9157330885437
3668.5977,0.8929568315330405,1201.8833473015266
3669.4417,0.8917394583227366,899.3167158952776
3670.286,0.8894482299674371,1270.5479661871466
3671.132,0.88637544354243,870.2171938727859
3671.9768,0.8826651243158454,862.4234864107493
3672.8235,0.8786804543059563,965.9726240173288
3673.6685,0.8753083585273637,999.8991353293356
3674.5156,0.8734830275606975,1131.7310699921038
3675.3608,0.8735263928111371,1259.6171814759973
3676.2063,0.8748986116833491,894.0662564277727
3677.0542,0.8767286646496124,994.5951936050138
3677.9,0.8784216781417316,974.9121591480654
3678.748,0.879827548895455,871.4597029245668
3679.5945,0.8808586203213612,1247.8657867572033
3680.4429,0.8812016730245167,1373.3426581743415
3681.2896,0.8803669876910248,1014.5891093201583
3682.1365,0.8780429286213358,881.927093325185
3682.9856,0.8743950701462538,1458.8140325700358
3683.8328,0.8701263481919299,1051.3247752066359
3684.6824,0.8660590932179865,1083.3846979406262
3685.53,0.8627145618420495,1439.1086049258188
3686.38,0.8600501613524653,824.7401983784995
3687.2278,0.8578806661362938,1293.2029247873181
3688.0762,0.8563360499895573,1271.1978137104993
3688.9265,0.8559456522999127,1067.9190598945956
3689.7751,0.8571303783777233,1148.0508206545016
3690.626,0.8596751961788001,1303.8489938265657
3691.475,0.8627133780128685,1007.8629944488187
3692.3264,0.8653528801060568,1084.2142159406453
3693.1758,0.8672796830013596,1254.844658952871
3694.0254,0.8688869980341015,951.8666188510144
3694.8772,0.8706826113405755,955.5289838301068
3695.7273,0.8726396854293579,790.6770142085223
3696.5793,0.8741402659482479,942.1155751614543
3697.43,0.8744245051013716,780.6661586109403
3698.2825,0.8731222079446829,933.2877988163907
3699.1333,0.8703947091330572,1006.6854273284989
3699.9841,0.866767346538217,1185.8995629595474
3700.8374,0.8629736267728807,1090.9727972109513
3701.6887,0.8599298299476169,1138.1841444620927
3702.5425,0.8585077078759953,1046.0677929539443
3703.3943,0.8592120144276704,1042.6958297984727
3704.2483,0.8617737550219072,990.194743777517
3705.1003,0.8651017827210461,1210.4557678537149
3705.9526,0.8677486368586017,910.371813823465
3706.8074,0.868549226333811,1041.787954291976
3707.66,0.8671133351434389,1495.2777179165364
3708.515,0.8638849765868492,1014.7329848164269
3709.3682,0.8598400461700236,1051.9195485998596
3710.2234,0.855997878270178,1109.5364466535261
3711.0771,0.8531572822274257,1650.2008639378257
3711.9307,0.8517017821079044,1459.0436893099695
3712.7866,0.8516411980769764,1068.4633932797437
3713.6409,0.8527468852539297,986.8910945270451
3714.4973,0.8548663394011812,1093.2193246645616
3715.3518,0.858395089874983,1135.000428910809
3716.2085,0.8647184361541597,946.8233154320865
3717.0635,0.8757135497847207,1086.2634317423267
3717.9185,0.892076307585944,1099.2860473890332
3718.776,0.9111733508327198,1069.29673289167
3719.6313,0.926662329412482,1079.966485885845
3720.489,0.9320283090971351,825.6485373314983
3721.345,0.9248597607538517,1223.800585219166
3722.2031,0.9085859713896398,1176.7856672969317
3723.0593,0.8898362526865905,1058.8443122576375
3723.9158,0.8738914081758061,1079.659790240012
3724.7747,0.8626547872190415,889.7003577410962
3725.6316,0.855526818129859,957.9104709640447
3726.4905,0.8511665452850619,1126.5438853109204
3727.348,0.8488017295075181,1020.6278649102534
3728.2073,0.8480678950938261,1385.736368396304
3729.065,0.8484728614754374,1447.0972177445105
3729.9229,0.8491723792445394,1053.7424974676283
3730.783,0.8493309741183634,1329.6783833831337
3731.6414,0.8485362234405699,1338.410046858895
3732.5017,0.846815275381196,1011.9361384565274
3733.3604,0.8443885432360931,1022.8498697697468
3734.2214,0.8415103768046679,1099.4939926715372
3735.0803,0.83856099294995,1434.3272331356015
3735.9417,0.8359314600629155,1187.2168183728988
3736.8013,0.8338633131262256,1266.457977789083
3737.661,0.8323169306299776,1152.9790724974773
3738.5227,0.8311922277347079,1186.3561684600636
3739.3828,0.830542310270218,1269.6823841965356
3740.245,0.8304717034776609,1036.8161195340256
3741.1055,0.8308655473037867,1061.7612999128496
3741.9683,0.8312739076468991,1163.3139333296872
3742.829,0.83111590008823,1206.6213907705537
3743.69,0.8300253697973224,1036.6230962219643
3744.5532,0.828055104287223,1138.8073585495727
3745.4148,0.8257054256568022,1352.7225507718633
3746.2786,0.8237197515349141,1266.40722638682
3747.1404,0.8228323061610555,1037.8919436600888
3748.0044,0.8234230679484617,2076.905080957586
3748.8667,0.8253351987903799,1054.8457897574922
3749.729,0.8279366682003387,1120.2895405654072
3750.5938,0.8304499918907452,1668.8278621911575
3751.4565,0.8323331596583132,1180.9386572769863
3752.3215,0.8335662121648053,1376.899153773105
3753.1848,0.834547636462048,1254.7606819248876
3754.0503,0.8358025047841865,993.1221938783245
3754.9138,0.8376148439643504,1441.0451788674236
3755.7776,0.839922659789081,1212.5326021603412
3756.6438,0.8424715971340754,1143.6217118137004
3757.508,0.8450402914041872,879.659703959574
3758.3745,0.847557449517044,1144.390821417776
3759.239,0.8498972500873966,1210.543185995015
3760.106,0.8517753899017025,1176.587213571819
3760.971,0.8527880896716122,904.8131894485908
3761.8362,0.8527088310934663,1085.4709273970975
3762.7036,0.8516400032886178,1125.8857696757177
3763.5693,0.8499606290140385,1148.9127935564304
3764.437,0.8480706004560772,1389.9844722345426
3765.3032,0.8461912892275311,942.5328083284272
3766.1714,0.8442316800734947,1089.8648298710077
3767.0378,0.8418540438620872,1095.6562405831087
3767.9043,0.8386257645632715,947.1636750772298
3768.7732,0.8343129888625445,1140.527869703643
3769.6401,0.8292029798254105,1294.4027321498784
3770.5095,0.8240877576462065,998.4920797893553
3771.377,0.8200825924622746,1471.9579808814965
3772.2466,0.818020381632159,1370.1903657601736
3773.1145,0.818064391305008,1221.875671472721
3773.9824,0.8195895991327183,1174.9403747847268
3774.8528,0.8216437173388725,919.3039443194851
3775.721,0.82358395676388,1211.0057157548752
3776.5918,0.8254380212776727,1255.045181743073
3777.4604,0.8274887994396568,996.0766148430199
3778.3315,0.8296745961450698,1219.0044770674533
3779.201,0.8314363657253965,986.3051616008594
3780.0703,0.8323265484160567,988.1504779461533
3780.942,0.832504195721934,1190.3268677379083
3781.8118,0.8325662530013334,1424.4616546641685
3782.6838,0.8329633893819857,1212.3348329898927
3783.554,0.8336881710918822,906.0282352529905
3784.4265,0.8344501479177565,1654.8058554880604
3785.297,0.834945149870218,1650.520764870033
3786.168,0.8349911045109086,1142.3146797813288
3787.041,0.8345305612236721,1020.4795831846309
3787.912,0.8336059749756435,1177.7824249974146
3788.7856,0.8322410752226469,1027.5391723202065
3789.6572,0.8303558532873733,1224.6577072730136
3790.531,0.8278166546810333,1183.9520599256148
3791.403,0.8247041698593087,1155.5892609167988
3792.2754,0.8213879001107488,1213.947671132191
3793.15,0.8183584937990575,1170.5735457129902
3794.0225,0.8159110809345744,1307.2475678344715
3794.8972,0.8138828105898691,1259.139311089062
3795.7703,0.811782838652602,945.7521515195419
3796.6455,0.8090932509182237,1145.5521523100365
3797.519,0.8056938373117668,1166.2645116076574
3798.3926,0.8019782141512887,1130.6388768049785
3799.2686,0.7986971376481332,1349.3571966910677
3800.1426,0.7966373961497418,1395.0689037218272
3801.0188,0.7962661715087991,1368.9916421359835
3801.8933,0.7976289830112728,1309.3638644928365
3802.77,0.8003462675512436,1517.8090820660748
3803.6448,0.8037061319399919,1255.71919789179
3804.522,0.8069647958018448,1207.899524275302
3805.3972,0.8096509694983518,1444.9017856057435
3806.2727,0.8118928644177562,1179.9128859081634
3807.1504,0.8143455380651619,1471.2153576171613
3808.0261,0.8177949607362145,1280.8271387020325
3808.9043,0.8227110370828562,1464.8616098182306
3809.7805,0.8288682729867549,1132.9693413267569
3810.659,0.8354858800307616,893.0179833961737
3811.5356,0.8414595571413497,1147.4794619280137
3812.4126,0.8459052472097817,1154.6407494268597
3813.2917,0.8484594594201524,954.8280661035049
3814.169,0.8493859654156981,966.6949765477509
3815.0483,0.849368917664787,1237.255820472869
3815.926,0.849000759892076,1460.0892223495084
3816.806,0.8484130549937177,1177.987945240633
3817.684,0.8473252605904491,1094.8942213556468
3818.5623,0.8454120034969156,1161.113273981232
3819.4429,0.8426198318512417,1060.484985387069
3820.3215,0.8392189409062668,1207.7387596621068
3821.2024,0.8355420042093861,1033.108505077459
3822.0815,0.8318166450998469,1307.4162840360448
3822.963,0.8279976171139116,1151.5484357501723
3823.8423,0.8238809866801039,905.2077766147727
3824.722,0.8191968251528927,1039.147228800565
3825.604,0.8138006688679847,1280.4154983380215
3826.4841,0.8078077500799711,1244.906929601872
3827.3665,0.8014714628325906,1172.4611411179017
3828.2468,0.7951853518167912,1237.61651741958
3829.1296,0.7892037821633592,1202.3071349906522
3830.0105,0.7835859975417965,1320.076924636513
3830.8916,0.7780159179774523,1388.0982261293882
3831.7751,0.7720116109467993,1364.5054526153813
3832.6565,0.7653433737234213,1389.4999455786083
3833.5403,0.7582210977471414,1303.004357698422
3834.4224,0.7513702696829535,1576.1369020205666
3835.3064,0.7455420875041409,1561.191109630549
3836.1887,0.7413364961981211,1235.983431074828
3837.0713,0.7391419173662944,1555.2514786045297
3837.956,0.7393148576203185,1491.4710981381475
3838.839,0.7420514181975164,1732.2181891046648
3839.7244,0.7471711901724848,1322.6570276894267
3840.6077,0.75408917105429,1487.5892215142462
3841.4932,0.762234186846107,1495.7126146886096
3842.377,0.771225980658688,1123.3958329928068
3843.261,0.7810027725042956,1116.2814465468732
3844.1472,0.7915321945620233,1126.7181626948354
3845.0315,0.8023919287744319,1198.1503683781043
3845.9182,0.8127161667696968,1114.7065198067817
3846.803,0.8211901391726029,1002.7028334850839
3847.69,0.8269963308425123,1262.962777975182
3848.5752,0.8304911559063295,1087.2888054660345
3849.4604,0.833357849807456,1155.8515723744026
3850.3481,0.8375304757311441,1182.2680572415165
3851.234,0.8438158559132748,1035.2770036145519
3852.122,0.8514780933245648,1152.3984912618955
3853.0083,0.8588352791999668,1057.165967681771
3853.8967,0.8645534476550731,1287.765540993786
3854.7832,0.868169802150001,1268.5611315251779
3855.6702,0.870099224851753,1028.347407658212
3856.559,0.8711243931592835,1098.1135326099711
3857.4463,0.8719696328899248,926.9783126021892
3858.336,0.8730035748450629,989.2747944197314
3859.2234,0.874107832523212,1104.8377625060994
3860.1135,0.8748667885559398,886.7521909786974
3861.0015,0.8749444194449816,962.2098468205771
3861.8896,0.8744360303711396,1039.255148955228
3862.7803,0.8738121911401051,916.0052642508878
3863.6687,0.8735050914212179,966.2063859952159
3864.5598,0.8734956356001523,1055.4833884484437
3865.4487,0.8733187559246026,1031.2139970630717
3866.34,0.872387851871327,1158.3339328331958
3867.2297,0.8703063322358836,1072.8417575091057
3868.1213,0.866953876969156,1100.481685555204
3869.0112,0.8625053822211448,804.7979984096049
3869.9014,0.8572948304733145,1132.842866233937
3870.7937,0.8516551762507406,1276.9026657340353
3871.684,0.8458148616051403,910.9541968436254
3872.577,0.8398075405631694,1101.0679034514167
3873.4678,0.8336791146093948,1037.54594529402
3874.361,0.8273747289441006,1285.7092632532206
3875.2524,0.82075847841086,1137.7950434903223
3876.1438,0.813499197489621,1256.4107524082337
3877.0376,0.8053385009679989,1388.73568133636
3877.9297,0.7964680074894821,1023.9617847074973
3878.8237,0.7873999776638722,1117.9939953656915
3879.716,0.7786744274929229,1224.8465638534926
3880.6108,0.7701827766497099,1238.5548441346039
3881.5037,0.7612167683958021,1613.4878521534624
3882.3965,0.7507880263486854,1293.1338258914714
3883.2917,0.7383601073797718,1221.9618992902558
3884.185,0.724357196181162,2203.0198547354353
3885.0808,0.7097578564113626,1374.8825012862096
3885.9746,0.695779797152105,1977.4430487527475
3886.8706,0.6831029129705,1795.0821851493417
3887.765,0.6720260548765029,1860.2693400760456
3888.6592,0.6625593146166278,1751.983369131036
3889.556,0.6548861932665736,2170.4919396097857
3890.4507,0.6495292293658036,2053.5799293543246
3891.348,0.6469946519856103,1790.2932149503426
3892.243,0.6475271305003546,1949.6877603600583
3893.1406,0.6509600861998462,1598.4319631901003
3894.0361,0.6569406994423975,2323.428675602364
3894.932,0.6652998616151654,2137.937651063912
3895.83,0.6761282242383334,2977.457587711456
3896.7263,0.6893919665493203,1785.9706112497815
3897.625,0.7047182124213106,2166.8907770719497
3898.5215,0.7209865121677084,1575.0426018904725
3899.4207,0.7369697141144904,1632.8842774742939
3900.3176,0.7515965447198375,1548.1806331033306
3901.2148,0.7646494061628395,1582.181704368248
3902.1145,0.7765476886053418,1225.6724026730656
3903.0122,0.7879067928599597,1414.3037143153879
3903.912,0.7993571415078456,1144.2460908933242
3904.8103,0.8111057417664094,1527.929874326351
3905.7107,0.8230867897080049,1151.2170589448922
3906.6094,0.8348472811678471,1150.6650041700698
3907.508,0.8459137334368106,1416.9403557117498
3908.409,0.8559172102472353,1309.5267506296743
3909.308,0.86465281894871,1168.4322798381866
3910.2097,0.8722610806761731,1039.8166915487095
3911.1091,0.8790325854443332,1060.6043364952993
3912.011,0.8855009724712605,1108.7344896615402
3912.9111,0.8922038983104835,1188.2017746220015
3913.8113,0.8996312590940612,872.3615750167539
3914.7136,0.9079841785071434,926.2286399927366
3915.6143,0.9169502127962563,837.9438144103066
3916.517,0.9258661586011356,948.9989614608136
3917.4182,0.9338569413272312,896.4209298215027
3918.3215,0.9403938284182183,980.8906412834538
3919.223,0.9454320652780273,990.5644021656452
3920.1245,0.9494631395792701,848.1499754302836
3921.0286,0.9531166891437041,838.4747427470373
3921.9307,0.9567676212357579,881.2597133731873
3922.835,0.9604427004394442,885.2421786194498
3923.7373,0.9638900761408226,962.5874202474856
3924.642,0.9669050760984903,758.5136202660366
3925.5452,0.969407884671558,841.5767845560138
3926.448,0.9714213915289173,815.447819580775
3927.3535,0.9728900233946608,844.6375780758506
3928.257,0.9736310580996346,751.3149956119269
3929.1628,0.9735078315243157,851.4597589550132
3930.0667,0.9725879789253423,904.5224684741175
3930.9731,0.9711245508515022,816.1784828065521
3931.8774,0.9693687305640694,715.2324945892365
3932.782,0.967368446908942,977.2364842492324
