wavl,flux,ivar
3566.9744,1.2741709038101663,44.30463948208885
3567.795,1.273316958743179,34.483286316340795
3568.6177,1.2698095384039996,29.897400105548712
3569.4385,1.2644334077744204,39.898375976068245
3570.2617,1.2581328549058874,31.327384468114083
3571.083,1.2519521358802348,41.46017791259407
3571.9065,1.2468678319378173,34.61231345367436
3572.7283,1.2438073890948906,43.321516802683774
3573.55,1.243229962810062,38.216953143275084
3574.374,1.2448768728633213,36.31300747176459
3575.1963,1.24790882289815,33.46342520799836
3576.0208,1.2515212922086567,50.43117554770237
3576.8435,1.255264110245612,33.69676038431554
3577.6682,1.2589373389324325,43.878836801798585
3578.4915,1.2622322639640131,41.07145882031038
3579.3145,1.2648109767813307,41.034684774842766
3580.14,1.266510719475273,42.930434098621866
3580.9636,1.2674074221750204,55.21221007309564
3581.7893,1.267708269689867,40.00525455190863
3582.6133,1.267542387456058,33.417368229559635
3583.4395,1.2668390973442298,33.7543470312903
3584.264,1.265348768784633,29.126981133052787
3585.0884,1.2628551436629718,32.77863707704806
3585.915,1.259464262454308,52.00695222726259
3586.74,1.2557367540847222,35.2759404705164
3587.5671,1.2524154610246931,36.70407275795578
3588.3923,1.2501208280521938,41.23914058266694
3589.22,1.2490081636262136,44.64022702156855
3590.0457,1.248736010536381,30.818220630768845
3590.8716,1.2485741318149797,43.04582869735149
3591.6995,1.2477001398655694,34.34949154676424
3592.526,1.2455277498794333,40.36248746161811
3593.3542,1.241907584055621,45.68590831817419
3594.181,1.2371627749730927,38.446234117430116
3595.0098,1.231829608146334,41.04524801838927
3595.8367,1.2265238763464932,35.4563516196493
3596.6638,1.2217317771458664,41.79333043227416
3597.4934,1.2178073368337166,46.417767527372966
3598.3208,1.2149742161727264,46.44985367187681
3599.1506,1.2132845555902108,35.71849172464343
3599.9788,1.2127649016909245,42.47328367464877
3600.8088,1.213463451169449,39.05861992129916
3601.6372,1.2154742826680622,43.130024988504076
3602.4678,1.2188087652450204,38.002290026174094
3603.2964,1.2230814521425308,31.321602075388384
3604.1252,1.2274504476287391,33.63984831951487
3604.9565,1.2309374877137664,39.69130734108246
3605.786,1.233030261520718,44.99861314651245
3606.6172,1.2341033715023333,58.27854724149253
3607.447,1.2351375678819714,42.158361328744945
3608.2788,1.2370869472670607,45.20447016259658
3609.109,1.2401659621467862,45.188191384535514
3609.9392,1.2435581025085078,35.82971439976234
3610.7717,1.2457239151823971,37.97976851691048
3611.6023,1.2452751754927238,37.819010765254696
3612.435,1.2418675697810804,42.974017995593435
3613.266,1.2363782219407304,48.30606506285217
3614.0994,1.2302278303027134,44.34825646406468
3614.9307,1.2246718600592563,42.78018243160268
3615.7625,1.2203671954934985,35.43255176384948
3616.5962,1.217579744982341,38.11693287883393
3617.4282,1.2163036487851597,45.270319265272676
3618.2625,1.2160814484075002,39.905148949113624
3619.0947,1.2159862175119869,43.80924556359125
3619.9292,1.215073407354706,42.25884253800658
3620.762,1.2131113757097305,45.85978865241266
3621.595,1.2108207677283414,47.52640454559954
3622.4302,1.2093283763536686,39.86493970434044
3623.2634,1.2092626660068508,45.84911279666293
3624.0989,1.21020710892549,40.564749516365836
3624.9326,1.2109689456149222,41.108192995242185
3625.7686,1.2104282104400776,37.227352389972545
3626.6028,1.208352194377951,39.263115492021086
3627.437,1.2055712754846724,42.11108963456797
3628.2734,1.2033618641141535,47.21447472382047
3629.1082,1.20256285492378,43.01650994121516
3629.945,1.203074976419116,38.31611655533396
3630.78,1.2040942137415889,38.26334760468134
3631.6174,1.2046510608292265,40.08162881711443
3632.453,1.2040167971525395,37.86503458090657
3633.2883,1.2019128472196874,31.823449484954544
3634.1262,1.1985180135704383,44.70567622427228
3634.9622,1.1943466301601111,48.491279522209254
3635.8005,1.189836687457829,40.11332451762851
3636.637,1.1851127254260578,48.88123371172671
3637.4756,1.1798903842760247,50.07658185850281
3638.3123,1.1739731994822833,40.25213297729501
3639.1492,1.1676678371898426,41.850112949985785
3639.9885,1.1619182165882862,37.18025594121344
3640.826,1.1578203695684475,46.61204959826709
3641.6653,1.1557862900706224,41.016962020206265
3642.5032,1.1553604921626786,43.93528788800473
3643.343,1.1555692508091435,40.55044860722056
3644.1812,1.1555067442395917,48.67626518987394
3645.0195,1.1546533104178862,41.16872795474107
3645.86,1.152970174142813,44.02179748923348
3646.699,1.1509221592101089,46.6589712054108
3647.5398,1.1492336275549877,40.49276736226896
3648.379,1.1484487383799868,44.1844659133508
3649.2202,1.148533773248561,42.41202009640563
3650.0596,1.1489776903465259,43.12224203140851
3650.8994,1.1492508578368854,45.8947795215963
3651.7412,1.1491880778949424,48.74054961467545
3652.5813,1.1489382082023798,42.99800116721219
3653.4236,1.148525785095478,42.33008227798751
3654.2642,1.147484758564416,45.648112748242994
3655.1067,1.1450229303870234,38.86630024192071
3655.9475,1.1407644710249394,39.85717106914606
3656.7886,1.135327635877113,38.23310159963794
3657.6318,1.1301212479119742,44.61621561359235
3658.4734,1.1263811927599277,49.20172877544169
3659.317,1.124184246060375,44.94563649356152
3660.1587,1.12265694076855,35.60975593371913
3661.003,1.1210507028586503,41.92754009024195
3661.845,1.1197237212469031,49.731006154547934
3662.6875,1.1198419446021712,48.71495205615057
3663.532,1.1221896518748906,42.04675664909904
3664.3748,1.1262107972474436,40.77493250386081
3665.2197,1.1302537569095892,39.665425117872815
3666.063,1.1325174237598943,55.72082992393213
3666.9084,1.1320251879891439,51.674161449462375
3667.752,1.128932657585237,50.6455990907645
3668.5977,1.1243653797162665,47.71589203628579
3669.4417,1.1200091101130938,46.38328707070409
3670.286,1.1173522412887276,40.70618018305568
3671.132,1.1170002090798499,53.73799976069156
3671.9768,1.1183289638262108,47.42585833661446
3672.8235,1.1198601185041683,43.965621766936444
3673.6685,1.12013211273764,42.95464494452906
3674.5156,1.1185045683269323,56.61909801813863
3675.3608,1.1153886337483596,55.065204636997265
3676.2063,1.11183915872089,44.22800053840708
3677.0542,1.1088596293333892,39.715854204556386
3677.9,1.106854670831606,49.72833285529503
3678.748,1.1055182693916457,42.44681341719649
3679.5945,1.1044027497597528,43.993398424122
3680.4429,1.1035749143007088,62.1501390308
3681.2896,1.1039142597635831,47.68673915252914
3682.1365,1.1068557474646037,41.53443349788521
3682.9856,1.114159855959006,66.87675733474485
3683.8328,1.1279244529028385,57.37494429450409
3684.6824,1.1506112161526856,44.23415878089325
3685.53,1.18305129895589,49.69620734117937
3686.38,1.2216775502907766,45.2282099180936
3687.2278,1.2561371283092262,52.228041121749925
3688.0762,1.2734171242068593,66.85889970507971
3688.9265,1.2654997434086614,42.007385936192875
3689.7751,1.2357610741262055,55.28346998519928
3690.626,1.1966974976254559,45.81425548674083
3691.475,1.1619030526647913,41.26167746806687
3692.3264,1.1383161583146904,46.445423839956646
3693.1758,1.1259375889738048,44.66503362943496
3694.0254,1.121105047640095,45.28069572261479
3694.8772,1.1204207714998868,41.58098160694299
3695.7273,1.1219309042159336,45.92194400957479
3696.5793,1.1246057707220523,43.2602977902984
3697.43,1.127565850860671,48.72979351130372
3698.2825,1.1299134492083223,47.80323511132178
3699.1333,1.130967933331081,41.2442068557391
3699.9841,1.1306491175113431,41.86853001111438
3700.8374,1.1294977910394512,45.80082406860448
3701.6887,1.1282643494557887,42.948974316773004
3702.5425,1.1271936496052404,51.56464990790096
3703.3943,1.1257187196449698,49.62139771052036
3704.2483,1.1229022802300608,43.00084554731284
3705.1003,1.1183797054625388,39.66473308574871
3705.9526,1.1127751584785393,45.46429427593966
3706.8074,1.1072641440864235,47.6612170177332
3707.66,1.1026867154661388,53.97687580617638
3708.515,1.098883888583579,47.388184677573335
3709.3682,1.0951137101968498,47.685902611107714
3710.2234,1.090900943871942,43.69535455257525
3711.0771,1.0869523279491917,45.63861831037037
3711.9307,1.0853690625747483,55.69513504328671
3712.7866,1.0893172955590595,47.8238507660893
3713.6409,1.1018643868234297,46.1513933311549
3714.4973,1.1239857661282986,46.44565430174955
3715.3518,1.151882766575656,56.80316196684835
3716.2085,1.176938020236179,49.14430836737413
3717.0635,1.1890076098854727,23.53337586139392
3717.9185,1.1832021309666705,40.90360264792946
3718.776,1.163207113384842,43.74975800738059
3719.6313,1.1389058940531256,49.32699580477231
3720.489,1.1193716376785476,48.29641915065975
3721.345,1.1084790140930205,44.31788789262478
3722.2031,1.1047206513501209,40.65386928904319
3723.0593,1.1045763430052098,47.1787056668107
3723.9158,1.1051595024148702,51.06369370900488
3724.7747,1.1050616807363325,39.21391481535931
3725.6316,1.1038856206570995,55.42997359405855
3726.4905,1.1016445614637784,47.09485049200974
3727.348,1.0984904832194142,58.29899010549039
3728.2073,1.0946506260444184,53.60618131702388
3729.065,1.0906072871608299,42.09043588770329
3729.9229,1.087146615158812,55.96482847116218
3730.783,1.0851827782693835,59.4690338630824
3731.6414,1.0852555743309704,52.27041906368575
3732.5017,1.0871241858217808,49.473326674212245
3733.3604,1.089858191099069,51.84591289889826
3734.2214,1.0922834188027686,56.787618249831375
3735.0803,1.0933518156710782,45.54019036060521
3735.9417,1.092458115745884,36.81501838104592
3736.8013,1.0895913297244113,44.13822476000844
3737.661,1.0853304559302528,47.37187509965751
3738.5227,1.080559986510579,52.99868354762816
3739.3828,1.076084832285958,49.46156873206864
3740.245,1.0722573098613495,43.99451787200896
3741.1055,1.0690694221039598,53.601261304833066
3741.9683,1.0662904534753106,48.49721377986615
3742.829,1.0637280516228091,49.81164810431534
3743.69,1.0613138554456718,52.26418572502778
3744.5532,1.059241368197902,44.50795849660116
3745.4148,1.0579628873827942,75.71524499045435
3746.2786,1.0578740801193813,50.295225090810305
3747.1404,1.0589611510222727,49.14295967481042
3748.0044,1.0607163661865426,49.79238912195222
3748.8667,1.0624083640133315,57.68744093879133
3749.729,1.0634418691691991,49.29426308537556
3750.5938,1.063481497010099,74.10185373137637
3751.4565,1.0625130229205397,43.60873942265596
3752.3215,1.0609775944768542,59.08472604347878
3753.1848,1.0598527818478138,63.11074568367248
3754.0503,1.0602960697402952,51.20382332512059
3754.9138,1.0628868395201228,53.39389570226937
3755.7776,1.06702044443232,49.54467543941413
3756.6438,1.071206603340639,39.21726180438504
3757.508,1.074198498970352,58.00825975982203
3758.3745,1.0760747692380077,56.14668145647686
3759.239,1.0779485684758268,53.640919535558346
3760.106,1.08070816168095,56.10472815089662
3760.971,1.0839255605935953,43.95957729782134
3761.8362,1.0861632915883084,51.84469915708036
3762.7036,1.0861732872388647,49.85387030253658
3763.5693,1.0838722400378589,47.274864509004594
3764.437,1.0802169308689848,55.24936955801731
3765.3032,1.0763161659751839,44.43306407562333
3766.1714,1.072602325376743,59.26635698088217
3767.0378,1.0688558601926328,64.78233022993209
3767.9043,1.0646950716207133,52.736215196193484
3768.7732,1.0601125369356663,51.52700190026477
3769.6401,1.055653828523744,61.31355531668949
3770.5095,1.052164198046629,45.21591410733114
3771.377,1.0505647980451807,47.74432653750821
3772.2466,1.0514068669413765,83.32831024118698
3773.1145,1.0545520827646968,58.99902471940146
3773.9824,1.0591371749039367,44.21631848722784
3774.8528,1.0639525996963872,48.49423846806387
3775.721,1.0678239356212675,58.34813977827047
3776.5918,1.069874364729924,39.02215147768759
3777.4604,1.0695123088258804,53.46428120112269
3778.3315,1.066735168957091,50.12353078535937
3779.201,1.062477084128109,63.15254184243754
3780.0703,1.0584725400506514,57.04599537966506
3780.942,1.056479053945945,46.55710101887538
3781.8118,1.057306971487764,54.364207546181014
3782.6838,1.0604237055135426,49.958278050190145
3783.554,1.064471350194563,44.561986791335194
3784.4265,1.0681975017622491,65.35777005242213
3785.297,1.0708765932598818,56.01873796162892
3786.168,1.072300766764882,55.080203276809854
3787.041,1.0724725948165295,52.725806053066464
3787.912,1.0714383309768212,55.736569796395464
3788.7856,1.0691637429423453,47.999024514394385
3789.6572,1.0655071963632807,49.88959229770718
3790.531,1.0603571356794355,50.61660666089699
3791.403,1.054086460239646,52.046405211200224
3792.2754,1.0476607899070884,61.29770377175807
3793.15,1.042273984276471,56.084828970692946
3794.0225,1.0386133535741062,55.449202195337776
3794.8972,1.0363325442570979,55.18203253776198
3795.7703,1.034474146253926,54.017374808505956
3796.6455,1.0322882230450052,52.03238941485736
3797.519,1.0299000796797761,56.10996893727475
3798.3926,1.0281422566170964,49.02065617102769
3799.2686,1.0278498718115494,58.785692099374145
3800.1426,1.0292070049977358,51.55732704427104
3801.0188,1.0316957002268385,59.481439737220754
3801.8933,1.0345451864100415,63.438691270939884
3802.77,1.0372151930612004,50.37811572022451
3803.6448,1.039430137563565,50.61094056268414
3804.522,1.0411177428699303,58.36106075899222
3805.3972,1.042386035050468,47.405237118286756
3806.2727,1.0436524582163234,55.90670000335242
3807.1504,1.0455069044948955,62.33940541378399
3808.0261,1.0483299201827334,53.0922043034799
3808.9043,1.0520852328025794,54.828856113272245
3809.7805,1.0564303908484831,66.76246582250721
3810.659,1.0611602415726864,49.569259014354735
3811.5356,1.0662544296430227,46.870044014206115
3812.4126,1.0716729097868527,49.28803517908198
3813.2917,1.0769457005102063,46.35575384157736
3814.169,1.0810852312024748,54.036770446255545
3815.0483,1.0831049888608242,43.83932379683056
3815.926,1.0825818226104573,50.453386360454644
3816.806,1.079956827235079,60.8904808382683
3817.684,1.0761434485821215,48.52846432168171
3818.5623,1.0717725614477778,50.56409500580598
3819.4429,1.0668169343773295,47.52142826536278
3820.3215,1.0609385751495803,44.101752380769916
3821.2024,1.0540397472778436,55.74068596512153
3822.0815,1.0467223060469317,46.07890809187268
3822.963,1.0398968428672306,55.21762128746897
3823.8423,1.0342736771188052,54.05611082476418
3824.722,1.0298318992343676,58.98339734239891
3825.604,1.0260060494770578,51.4272299872028
3826.4841,1.0221790191331175,55.96678097663462
3827.3665,1.0179704977560753,52.22025639241398
3828.2468,1.0133002831548976,63.25313029457517
3829.1296,1.0081059990981607,49.50593176449066
3830.0105,1.0023547420162657,62.892089380501695
3830.8916,0.9960485897734563,62.31322364071238
3831.7751,0.9893735420647533,55.812154526487944
3832.6565,0.9827999021088415,62.915652231884586
3833.5403,0.9769285895231871,59.807735757558255
3834.4224,0.9724821610413381,68.36436878835305
3835.3064,0.9699640368651129,74.01695678568858
3836.1887,0.9695505975729982,70.36542506026913
3837.0713,0.9710595117563431,58.78150750859683
3837.956,0.9741314125240268,59.93121459370139
3838.839,0.9783410892014363,55.68911366059383
3839.7244,0.9833895245642228,50.41762575493432
3840.6077,0.9891786092734403,68.024031979125
3841.4932,0.9959356804098811,52.972838123741425
3842.377,1.0038945339007994,57.033650484918226
3843.261,1.0130821912875423,55.74042769356399
3844.1472,1.0231510264484411,58.825434773727295
3845.0315,1.0334029020850246,56.36856206246269
3845.9182,1.0431095439226192,48.04648889333399
3846.803,1.0514367550968418,59.132796631319415
3847.69,1.057859189016062,56.340028901786276
3848.5752,1.0624059804269164,51.89096284140954
3849.4604,1.06600538478109,54.17308481220264
3850.3481,1.0701309934776113,43.31924848915713
3851.234,1.0759948143306606,50.91431232886815
3852.122,1.083897225180763,51.38522857030042
3853.0083,1.0928905322144593,53.77842602987264
3853.8967,1.101283446649785,45.38944356695862
3854.7832,1.1072056989028782,51.0907330219723
3855.6702,1.1095246265683196,47.997645490137955
3856.559,1.1082610292159034,48.733006607716824
3857.4463,1.104559054022095,48.281327917407985
3858.336,1.099963571930198,52.27746187346334
3859.2234,1.095626766655399,56.5004364900563
3860.1135,1.0918388564318309,47.795538411289975
3861.0015,1.088428249912447,42.175904548881235
3861.8896,1.0852825696687942,46.852950879242464
3862.7803,1.0826211225313451,57.21419265954622
3863.6687,1.0806557215652963,54.11203462633028
3864.5598,1.0790295914776187,45.106714221691654
3865.4487,1.0768260282028006,45.510652161244764
3866.34,1.0731224791458447,49.80459563144653
3867.2297,1.0677881047859907,49.68094684335953
3868.1213,1.0616446280801537,48.372107668769125
3869.0112,1.0560105347185855,46.95032442376022
3869.9014,1.0516915308887713,56.29177749867699
3870.7937,1.0484438351451237,55.116668367457635
3871.684,1.0452035126058936,48.5766485427667
3872.577,1.0407925627539987,55.35249116305409
3873.4678,1.0346252829447324,51.40753998333539
3874.361,1.0267659349052316,60.768573060207366
3875.2524,1.0178867963165192,48.718009724176156
3876.1438,1.0088548502435843,59.153716106932514
3877.0376,1.0003389149746622,55.046788359828646
3877.9297,0.9924045615362921,52.76497949656271
3878.8237,0.9843060382856307,55.273026210333285
3879.716,0.9751926968120618,62.346948751435484
3880.6108,0.9646848228666274,61.613951782489
3881.5037,0.9531990250980822,74.32176257756272
3882.3965,0.9412780078265421,63.39768533838339
3883.2917,0.9291260883587248,59.38255739682554
3884.185,0.916699616097079,62.21539745162929
3885.0808,0.9038925918919742,72.57051797032163
3885.9746,0.8911499881574234,76.75133011257978
3886.8706,0.8792807369625889,72.01502672562337
3887.765,0.8694484751279971,83.30341530883669
3888.6592,0.8626172105973398,80.62359772435036
3889.556,0.8593486466070174,75.97918136047441
3890.4507,0.8597185975164066,82.3493059694644
3891.348,0.863430975523296,76.39329072230714
3892.243,0.8700981745791062,76.33324725659972
3893.1406,0.8795683431379886,77.78487399707343
3894.0361,0.8918308016362223,76.33585905104053
3894.932,0.9068999413898061,67.54553798566474
3895.83,0.9242248258132193,78.69520870971105
3896.7263,0.9421574521579398,61.871197386669
3897.625,0.9585927441737025,54.95889362647853
3898.5215,0.9717256942811017,60.262399366348944
3899.4207,0.9814312845303212,59.49923885666319
3900.3176,0.9891105678563873,60.91635368598563
3901.2148,0.9969422182016395,58.45856628164936
3902.1145,1.0065231724307397,65.20223744223767
3903.0122,1.0181165909985979,56.559107256592675
3903.912,1.0310427469414325,47.52710039839674
3904.8103,1.0441643231824975,50.592533866127944
3905.7107,1.0566103664820499,50.196926282050974
3906.6094,1.0676754459275908,55.61832751264015
3907.508,1.0770237599516062,46.23265180367662
3908.409,1.0847477440100106,47.011130453705945
3909.308,1.0914537793875514,43.338984604677556
3910.2097,1.098213729359885,61.67091943371977
3911.1091,1.1059311814707908,57.6432737730344
3912.011,1.1149214833826273,49.9048200071351
3912.9111,1.124488021102841,48.34728994596611
3913.8113,1.1333499572745767,39.26726474117134
3914.7136,1.1403397338001242,42.59353121992621
3915.6143,1.1450814864672982,42.65298121393587
3916.517,1.1482157476121881,42.46006709396518
3917.4182,1.1507347531953598,47.973318976229976
3918.3215,1.153274203053905,47.20316517496385
3919.223,1.155756040542691,35.29352802217673
3920.1245,1.1577903378213374,37.66847350399637
3921.0286,1.1592422871927226,43.75037145798516
3921.9307,1.1604244258988503,44.69909985427627
3922.835,1.161764860503346,41.770835261478666
3923.7373,1.1633015952459382,44.169641674910885
3924.642,1.1646294765163585,46.725175885831554
3925.5452,1.1652814273128012,45.662662141344725
3926.448,1.1652628512142769,39.21448687644005
3927.3535,1.1651800810292197,42.22906759286969
3928.257,1.1658516243551624,45.620029324240235
3929.1628,1.167688527465345,45.15843514822654
3930.0667,1.1703662231373528,39.36008333055234
3930.9731,1.173082282926685,43.80334946867919
3931.8774,1.1749633516844837,40.8563013583531
3932.782,1.1753792869973214,44.55613968144425
3933.6887,1.173955543223348,45.41737498367986
3934.5938,1.170690420880014,48.75716128241361
3935.501,1.166096330884843,48.128551084949464
