wavl,flux,ivar
3566.9744,1.1019927649814167,780.3096341257695
3567.795,1.0990986242626721,923.594824237789
3568.6177,1.0961455814797403,690.503812114535
3569.4385,1.0943399054931502,618.2407950715753
3570.2617,1.0937285721153838,1062.802803488271
3571.083,1.0934786036784145,616.5735885449008
3571.9065,1.0925295898493936,1013.4890731157778
3572.7283,1.0901907389803738,741.9054789123221
3573.55,1.0863197053563545,734.357951746027
3574.374,1.0811628609175905,895.2194768737738
3575.1963,1.0752597267321111,463.4903653136844
3576.0208,1.0694483550305875,971.2615737096905
3576.8435,1.0650767899551976,747.8628334929667
3577.6682,1.0635664253300685,973.2610202439533
3578.4915,1.065678144732232,1048.9589690219846
3579.3145,1.0708450735889863,726.7544592359362
3580.14,1.077363985129269,696.656789247057
3580.9636,1.0831761501022472,815.2626077222272
3581.7893,1.0869912187437776,569.3527559180394
3582.6133,1.0886819500842668,675.1838935434994
3583.4395,1.0889532424559587,796.7157067369493
3584.264,1.0883518136165533,855.5878071091234
3585.0884,1.0867260515375439,449.56993393473573
3585.915,1.0836780151634255,526.0910587882935
3586.74,1.0795144281010012,675.8008014022746
3587.5671,1.0754305330322518,727.9545172895685
3588.3923,1.0728615881980539,609.6398040389311
3589.22,1.0725388326739609,941.5622207462734
3590.0457,1.0742175836518761,702.147281914916
3590.8716,1.0768771147225293,594.3002694714254
3591.6995,1.0791332713092672,807.8530325863871
3592.526,1.0796368187759326,638.103494824304
3593.3542,1.077522828055716,826.3495389990223
3594.181,1.0727540036218501,690.8011697608563
3595.0098,1.066204738636096,954.676120124311
3595.8367,1.0595697297626638,618.1630215199131
3596.6638,1.054731650448311,800.6360663203482
3597.4934,1.0530076936757542,640.5608812968013
3598.3208,1.0543836858220126,674.4644913513889
3599.1506,1.0574170416738071,1037.0391687445244
3599.9788,1.060080158383229,665.3502648650309
3600.8088,1.0610682291220495,676.848469867986
3601.6372,1.0605518989961964,943.1008823239483
3602.4678,1.0599693069806753,823.0516263465715
3603.2964,1.0609142330500174,808.2470018837682
3604.1252,1.0638300535244967,691.0513186639774
3604.9565,1.0674899021867197,624.2874660834784
3605.786,1.0696868926782461,741.4711666819105
3606.6172,1.0687850047386147,975.559372590771
3607.447,1.064721486937259,899.7946395067067
3608.2788,1.05885551888217,760.8869635570167
3609.109,1.053103411248165,899.376984404938
3609.9392,1.0490259296498536,614.8372118320873
3610.7717,1.0475146641169806,800.2948310806768
3611.6023,1.0486279546502522,896.3962657026755
3612.435,1.0514448357172441,662.3125419145881
3613.266,1.0542613491686688,739.4217394631455
3614.0994,1.05551694791005,946.442693762104
3614.9307,1.0549513400898198,722.0236047199191
3615.7625,1.0541149063021429,739.1889110043754
3616.5962,1.055487565357048,672.8754945876356
3617.4282,1.060672825336148,1090.9518330390972
3618.2625,1.068962603688949,1011.9292859337103
3619.0947,1.0772329054998313,729.7568116160126
3619.9292,1.0817418573887974,812.2588861295156
3620.762,1.0803172957311757,907.709145666597
3621.595,1.0737219898174122,715.7719461546264
3622.4302,1.0648897033407845,872.6094070040886
3623.2634,1.057113357001005,767.0314466689294
3624.0989,1.0522990892600195,891.6782689209346
3624.9326,1.0507262062634513,871.2253007179877
3625.7686,1.051505598585653,818.6270536428209
3626.6028,1.0532942783880048,859.3268589616564
3627.437,1.0546549591983805,904.1250359855525
3628.2734,1.0542714506818471,747.0244828741579
3629.1082,1.0514174032338475,885.5201472994002
3629.945,1.0465546969789734,745.7742953305333
3630.78,1.0415078204612473,727.3053942395429
3631.6174,1.038560510284761,632.0653239179072
3632.453,1.039147503030749,864.8665345011237
3633.2883,1.0428008478805173,799.1844915294779
3634.1262,1.0473544567038282,769.8237430337381
3634.9622,1.0501552018536882,565.6861160769062
3635.8005,1.0497597888651113,720.3371683789318
3636.637,1.046722832134642,755.311651712896
3637.4756,1.0429925841573207,760.291352859954
3638.3123,1.0404540610215134,988.629151143559
3639.1492,1.039783611170898,773.2752781391621
3639.9885,1.040592905572982,735.8984167401748
3640.826,1.0422352825767789,737.1928492539872
3641.6653,1.0443753962306568,835.0069996102757
3642.5032,1.0468232093618708,1037.2940336318657
3643.343,1.0492221025273574,725.830108801602
3644.1812,1.0510449852349808,706.9818469629367
3645.0195,1.0519513952981614,817.3323539664796
3645.86,1.0518584376280071,928.464970330666
3646.699,1.0507024747762084,683.4935648090584
3647.5398,1.048309882451277,796.0961375340455
3648.379,1.0447404257751964,773.6636297716032
3649.2202,1.0406053797663473,815.5936325269213
3650.0596,1.0369243778937869,725.534933631519
3650.8994,1.034389238780377,812.4897142544235
3651.7412,1.032987848056214,790.4086599329574
3652.5813,1.0322136507659232,906.3908037648172
3653.4236,1.0315621718020236,858.8242872222087
3654.2642,1.0308417531498288,710.8496413593277
3655.1067,1.0300884884727701,1075.3593104078368
3655.9475,1.0293421648641161,751.9023274652262
3656.7886,1.02846701102604,608.5513366353076
3657.6318,1.0271592232306601,750.5622060537419
3658.4734,1.0250798421452216,749.5427446545172
3659.317,1.0219538165691107,959.4620422940101
3660.1587,1.017749688399112,856.4055882513023
3661.003,1.0128974250122245,895.260273961492
3661.845,1.008635493645478,1360.583459937257
3662.6875,1.0067011417605483,1284.9896973473228
3663.532,1.0084886773570263,950.0203481928031
3664.3748,1.0139910959953713,588.1638421786331
3665.2197,1.02160821856558,616.4110960742245
3666.063,1.0288232998807456,701.4289897154113
3666.9084,1.033513281222729,974.1516930946286
3667.752,1.0347484366932487,662.4134442504441
3668.5977,1.0331214453314557,963.3186060357503
3669.4417,1.0302445209065667,990.9230723387143
3670.286,1.02781172825409,701.8258504914572
3671.132,1.026779676297568,749.6246539519381
3671.9768,1.0270994928103836,801.9135475510903
3672.8235,1.0280186892434853,826.8937465479711
3673.6685,1.0286801683402078,735.8590100310947
3674.5156,1.0287027119462868,677.1348982089448
3675.3608,1.02843999808783,870.503126943384
3676.2063,1.0287111846308354,883.4510797326593
3677.0542,1.0300787177839723,979.253267871293
3677.9,1.0321894181197815,905.9197893900919
3678.748,1.0338371894588245,735.1447032684533
3679.5945,1.033688755187173,1213.1295614741284
3680.4429,1.031206023698284,933.9805615346929
3681.2896,1.0270180268503568,891.649882857269
3682.1365,1.0224944195056505,937.0047971366799
3682.9856,1.018943488849242,909.5986738577889
3683.8328,1.0170024070929695,675.4262230109266
3684.6824,1.0164894294954652,937.354909294091
3685.53,1.0167749802318384,648.0927939701274
3686.38,1.0171530154067918,800.8902233458887
3687.2278,1.0171120455684342,982.3410374636228
3688.0762,1.0165463240445411,796.4001253411857
3688.9265,1.015869797068734,787.0615272492064
3689.7751,1.0158185453527457,1263.0211095238553
3690.626,1.0168516846105644,878.2425554839041
3691.475,1.0186312830180588,854.5271908050743
3692.3264,1.0202128633586711,853.015247624717
3693.1758,1.0208398674354582,706.2730656341887
3694.0254,1.020605663872205,681.8447099275453
3694.8772,1.0202135730352837,840.3291248770842
3695.7273,1.020181487686199,792.2437629178737
3696.5793,1.0203152002404188,1038.134022648287
3697.43,1.0199361217939984,833.1385393066655
3698.2825,1.0185058579509239,981.2371687559693
3699.1333,1.0160798850186346,800.4821435085454
3699.9841,1.0133241398207813,642.8691097039565
3700.8374,1.0112483736223519,970.103358365335
3701.6887,1.010763851859289,949.3921541018508
3702.5425,1.0121475014288988,866.899089760055
3703.3943,1.0148204953101232,822.1861308622746
3704.2483,1.017649567717708,988.2164589879698
3705.1003,1.0194915250984173,851.8764012528052
3705.9526,1.0196476001674304,1001.0614654463393
3706.8074,1.0178485019393932,941.3879842615153
3707.66,1.014157872491555,935.4718453748619
3708.515,1.0089134362442536,765.4194577477945
3709.3682,1.002837531643949,898.1229769940279
3710.2234,0.9968040072622429,927.5207062684515
3711.0771,0.9916270766909281,1004.0141252441236
3711.9307,0.9877650699856405,882.5494317117365
3712.7866,0.985373638132436,1100.3503071260484
3713.6409,0.9844318012454879,767.3573817949554
3714.4973,0.9847427549372026,898.6204882967716
3715.3518,0.9859623881491046,949.8043820439858
3716.2085,0.9877490957112819,989.2138594004509
3717.0635,0.9900240827842528,994.1267440870918
3717.9185,0.9931136770106388,1130.7717837076477
3718.776,0.9974260743457524,918.5172883094418
3719.6313,1.002775799749424,829.3173882678143
3720.489,1.0080843186566324,856.5210314532278
3721.345,1.011661660893291,895.4220036341242
3722.2031,1.0122855896358205,674.2963442018589
3723.0593,1.0099726300777536,937.0968312760642
3723.9158,1.0058961663751114,1155.674005850277
3724.7747,1.001468906575591,868.9861984092487
3725.6316,0.9975606073466111,1053.4627382897063
3726.4905,0.9942786744751608,885.6437411626266
3727.348,0.9914623647650634,877.8373869103405
3728.2073,0.9890906213158025,743.1585114575727
3729.065,0.987475738314801,927.0222321132537
3729.9229,0.9870333886577369,869.4474374889086
3730.783,0.9879627054437561,884.6403795405839
3731.6414,0.989988365094594,957.5761687436802
3732.5017,0.9924308772044123,740.7275826845912
3733.3604,0.9944972341858638,933.7915427808938
3734.2214,0.9956653918352022,873.4828732118742
3735.0803,0.9958101035938379,923.6404154827856
3735.9417,0.9951861657323544,884.4310194425962
3736.8013,0.994320150486059,861.0064136369607
3737.661,0.993861295056639,862.1523165651977
3738.5227,0.9942968446894664,796.7488360484433
3739.3828,0.9956031319281448,876.0548518028199
3740.245,0.9972239899764931,792.564334561598
3741.1055,0.9984839136634918,817.5864334529834
3741.9683,0.9990837623858619,786.2195247175218
3742.829,0.9990632957313155,979.4174179502883
3743.69,0.9984108758294635,956.2024378158816
3744.5532,0.996882790453887,792.8698363847495
3745.4148,0.9944055998442137,958.8406044831981
3746.2786,0.99152374414756,1128.031771179224
3747.1404,0.9893116907622319,852.343251019929
3748.0044,0.9885392524926546,969.2865294765065
3748.8667,0.9889697601999031,830.4174779636418
3749.729,0.9894284329391163,602.8510113260708
3750.5938,0.988766002148177,757.582330493169
3751.4565,0.9869256717588772,700.3726601690536
3752.3215,0.98514906514203,766.2776734039315
3753.1848,0.9851235972350805,1480.4464122407542
3754.0503,0.9877280275256693,957.9598658139947
3754.9138,0.992440382324847,822.3425060058904
3755.7776,0.9977979604307358,996.7575767960532
3756.6438,1.0023194506836248,726.6756620773924
3757.508,1.0051516114505117,889.826137875217
3758.3745,1.0062048680083429,838.83348764137
3759.239,1.0057382908319512,760.7420420147694
3760.106,1.0040752309616177,807.6698018398024
3760.971,1.0015999170573882,1148.6181932213651
3761.8362,0.9988239852595546,855.0986436773851
3762.7036,0.9962905265458082,780.6868212244798
3763.5693,0.9943138064609501,828.3765719315281
3764.437,0.9927695411368889,794.6625002695421
3765.3032,0.9912593594943033,805.6369179273054
3766.1714,0.9894270286813107,1085.7349257817812
3767.0378,0.9872866470593202,844.3408070254014
3767.9043,0.9852096774908581,897.5249351758861
3768.7732,0.9836162913806601,1082.7956730658912
3769.6401,0.982594011793713,952.5523876235092
3770.5095,0.9818043912481861,1037.3795093808026
3771.377,0.9808945250262938,935.4778817843257
3772.2466,0.9799290686342826,741.524075506891
3773.1145,0.9793938164719543,894.0938267781625
3773.9824,0.979692012394961,1102.2853261590267
3774.8528,0.9807687809696934,889.9194792448076
3775.721,0.9822635992398943,1193.1479757882123
3776.5918,0.9840085308430601,815.4234470919782
3777.4604,0.9861468960827378,705.0653897281218
3778.3315,0.9888121617211055,901.189534602755
3779.201,0.9917023597117031,933.3587176207778
3780.0703,0.9942426574969957,844.9571178194952
3780.942,0.9960864002957831,682.5194886747136
3781.8118,0.997427462312071,1133.8518106388162
3782.6838,0.9987643010781895,729.1580755109258
3783.554,1.0002771031034206,1020.5303225571361
3784.4265,1.001568063220314,888.1791922812498
3785.297,1.0019495596204082,885.3719540234753
3786.168,1.0010145785496547,776.9683305643388
3787.041,0.9988198408451421,919.5619575468463
3787.912,0.9956575285512372,823.1062138781042
3788.7856,0.9916834073512213,859.8206011622285
3789.6572,0.9869477264844331,825.7715739067811
3790.531,0.9815250160595356,892.5091458979192
3791.403,0.9757393663863855,1038.9090491226457
3792.2754,0.9700065419297853,926.2259116624178
3793.15,0.9647009465743991,918.7455903528413
3794.0225,0.9600937332041221,854.97676740368
3794.8972,0.9562785642736293,980.2707530512583
3795.7703,0.9533082445609499,1060.2720144138962
3796.6455,0.9511751384973535,1113.2323009769814
3797.519,0.9499258992611653,1004.5314997382612
3798.3926,0.9496822142402568,995.7964591244324
3799.2686,0.95065171348029,964.8786848174842
3800.1426,0.9530126884608148,1002.9376024438699
3801.0188,0.9568408632111024,1013.6169962115316
3801.8933,0.9619979888793188,1098.6738159988179
3802.77,0.9680927428632083,1190.0428216271202
3803.6448,0.9743115944103842,944.0674026853653
3804.522,0.9797193568400331,1179.656057742561
3805.3972,0.9836800343099937,736.6775904694305
3806.2727,0.986444942074332,993.4535798256654
3807.1504,0.9890228288059619,1306.2367647705514
3808.0261,0.9924782273270616,790.3299734630567
3808.9043,0.9972058246162581,1026.585534707735
3809.7805,1.0026067591697065,833.168565508542
3810.659,1.0075630609532003,905.082011812628
3811.5356,1.0110023946678006,958.9926821120745
3812.4126,1.0124208618509924,683.0721127496299
3813.2917,1.0118430431394525,809.7892998667977
3814.169,1.0095918841980738,1031.9024151615195
3815.0483,1.0061163254238283,932.9123130085059
3815.926,1.002134190185913,1032.5315547352266
3816.806,0.99866484219038,745.3053523168251
3817.684,0.9967732427420789,921.2351747530083
3818.5623,0.9968683559081464,787.8910556561082
3819.4429,0.9983246738535912,1026.9483517105607
3820.3215,0.9997143892893685,806.1619066843048
3821.2024,0.9996021339192459,775.8991884073592
3822.0815,0.9972253870118977,714.6236122409108
3822.963,0.9926374995049259,800.1051469275611
3823.8423,0.9864025570863668,910.2544777646931
3824.722,0.9790682772306016,899.1969045494654
3825.604,0.9709478143007121,778.0420580533461
3826.4841,0.9622328098828684,1029.3002222500443
3827.3665,0.9530218761927424,898.9455990867135
3828.2468,0.9435994736029776,888.5683705831924
3829.1296,0.9341680676626084,966.5104682903511
3830.0105,0.9247648758243907,926.2264048457711
3830.8916,0.9149994951459193,1112.2058411692465
3831.7751,0.9045194622646368,939.5432836353541
3832.6565,0.893798640072383,1091.4295190871308
3833.5403,0.8842714509089552,1134.8444033569053
3834.4224,0.8780206412581787,1222.3070583383412
3835.3064,0.8765508418059069,1153.1571321435013
3836.1887,0.880083088688293,1031.2751774951012
3837.0713,0.8875494071541421,1195.902039341868
3837.956,0.8973968620179742,1086.8713162599963
3838.839,0.9083072206844374,1299.774995109414
3839.7244,0.9196063074746731,990.3526446588894
3840.6077,0.9307698408089323,1036.0876654251108
3841.4932,0.9413457811818909,873.2185405846116
3842.377,0.9508873332868958,934.5717182881789
3843.261,0.9593955924628048,832.4529970677283
3844.1472,0.9671711590655724,1190.0962716956626
3845.0315,0.9744062370682313,1018.7414505470529
3845.9182,0.9811458060357998,806.979857633676
3846.803,0.9873840188980748,900.5956252329958
3847.69,0.9934573488707438,1087.2988150758633
3848.5752,0.999812527432473,801.787433350519
3849.4604,1.0067440869266246,797.4255532287511
3850.3481,1.0141723916486367,857.3871515539507
3851.234,1.021679039322578,869.7953016794976
3852.122,1.0288119132718594,858.7049644048177
3853.0083,1.0349965028374524,823.6138244212912
3853.8967,1.039715635412626,848.7578000799058
3854.7832,1.0426380987844566,726.8196242388375
3855.6702,1.044059045986193,733.1118838051403
3856.559,1.0449442790633365,799.7793460143288
3857.4463,1.0465035659180948,809.9050610558782
3858.336,1.0494617481794577,760.8972235409952
3859.2234,1.053547155172794,914.8229154575474
3860.1135,1.0577669334122932,784.9454909955724
3861.0015,1.0610410293869206,757.7281000377618
3861.8896,1.0628569529237095,771.8777669232111
3862.7803,1.0632045077258758,884.3526700976323
3863.6687,1.0621532582089575,810.8426252911271
3864.5598,1.0595496969937814,683.3689010885225
3865.4487,1.0551916305363545,743.7336515111621
3866.34,1.049127094249414,791.0532413765137
3867.2297,1.041866562257443,790.4929727531494
3868.1213,1.034041894031509,787.0019215762654
3869.0112,1.0261396111332586,949.66904614589
3869.9014,1.0181368924438168,843.3140492283405
3870.7937,1.0096011989560225,813.0516732991581
3871.684,1.0001625131651986,823.643580009425
3872.577,0.9899177214853078,774.3157378515759
3873.4678,0.9798160425740602,1161.6826699963126
3874.361,0.9710373358750519,977.3777243395566
3875.2524,0.9644170069725383,880.278783425174
3876.1438,0.959793167139764,744.9612322651232
3877.0376,0.9561207534087185,1034.635944239496
3877.9297,0.9518815930846397,1094.500461185003
3878.8237,0.9455327450174137,910.1264428557729
3879.716,0.9360619051198052,1116.2765978012928
3880.6108,0.9231657656806793,1038.425621158453
3881.5037,0.9074485354923287,1019.7546885927061
3882.3965,0.8899480560729051,1066.9037768057622
3883.2917,0.8717494989661975,1109.011208200591
3884.185,0.8537559744006761,1172.7985413318554
3885.0808,0.8362740595319547,1150.883211375617
3885.9746,0.81965598654627,1488.6453959954667
3886.8706,0.8044380249595967,1416.0484050079276
3887.765,0.7918838634814647,1394.2714070770187
3888.6592,0.7834644236513167,1342.6104876392055
3889.556,0.7803072986577542,1889.6590443968316
3890.4507,0.7825444549019229,1538.7733801051581
3891.348,0.7891309836255864,1260.2998357500685
3892.243,0.7983091794282421,1191.933924270981
3893.1406,0.8085790185158616,1125.6129357290554
3894.0361,0.8191661151486385,1281.2817988374368
3894.932,0.8302634841601974,1133.1645357792252
3895.83,0.8424926287035297,1343.3804820767918
3896.7263,0.8562719246672662,1472.2800499972536
3897.625,0.8718033386789923,984.6994587103233
3898.5215,0.8888810590899597,1033.1715367422255
3899.4207,0.9073395278035444,1163.5523471535314
3900.3176,0.9266401848956193,1037.4683839522859
3901.2148,0.9460673798349717,920.7532099360496
3902.1145,0.9646034167342927,1008.1167852319569
3903.0122,0.9811612159956994,937.1997988430675
3903.912,0.9954041224717245,976.1108693761417
3904.8103,1.007706805900223,939.2370376452615
3905.7107,1.0191635287910124,726.7114668035492
3906.6094,1.0307596103887364,822.815715037281
3907.508,1.0430087397399017,716.8932569776974
3908.409,1.0557117936349545,776.1517673701329
3909.308,1.068024241936682,877.0199517393041
3910.2097,1.079013248807516,709.5047830393627
3911.1091,1.0878900790349417,953.1559604148708
3912.011,1.0946210296289054,660.6848901571303
3912.9111,1.0998853818043537,773.522195613219
3913.8113,1.1049373869782804,767.8065847352931
3914.7136,1.111006005544021,813.466794957711
3915.6143,1.1187047679957072,759.4479411263833
3916.517,1.1278857751958582,593.5166194178784
3917.4182,1.1376574467018936,750.5386992468574
3918.3215,1.1469244833328645,609.195502346143
3919.223,1.1546210025614847,643.4388822538187
3920.1245,1.1601382559114783,603.7806469300169
3921.0286,1.16340475405242,558.2822823175828
3921.9307,1.1649141973855608,715.7832825600382
3922.835,1.1656033106804626,553.5084365092604
3923.7373,1.1664533381725548,698.0404571633271
3924.642,1.1680982658387304,605.0304132183112
3925.5452,1.1705301715432244,668.9197858094686
3926.448,1.1731669852913063,599.3150483630887
3927.3535,1.1752546349841968,648.5418083307561
3928.257,1.1763763165394554,622.9380791077223
3929.1628,1.1767244356769433,630.7351665472078
3930.0667,1.176783786670307,526.3064045309056
3930.9731,1.1767906532832029,711.5890204440257
3931.8774,1.1764617788958596,675.5284837640108
3932.782,1.175256253976676,642.0117967610465
3933.6887,1.1728464077159844,725.8488549817857
3934.5938,1.1693575513562249,704.3599519240674
3935.501,1.1651510071060367,780.907902405109
3936.4062,1.1605816338626451,682.2202151028602
