wavl,flux,ivar
3566.9744,2.6244635864300583,126.02724280164063
3567.795,2.6202481335083987,137.6624586391011
3568.6177,2.616814797537487,124.7159626736172
3569.4385,2.6131875874745534,144.15214596684447
3570.2617,2.6094820303568538,134.35420109258334
3571.083,2.606661324200671,136.2991982059251
3571.9065,2.6055354078491053,154.14090809968286
3572.7283,2.6061871219382735,125.3490047106884
3573.55,2.6080412463640106,146.5900616576489
3574.374,2.6103868042247234,137.26270221662753
3575.1963,2.612742589447546,140.81501344042584
3576.0208,2.6149893425584745,94.82211434896838
3576.8435,2.6172042035008407,138.45171294235163
3577.6682,2.6195030106865183,141.00513421608235
3578.4915,2.6218396305190077,147.03392720528973
3579.3145,2.624048170053143,154.97677470886717
3580.14,2.6259624097357976,149.98252862406622
3580.9636,2.62741653487934,127.96494797219329
3581.7893,2.6280984304846484,117.80912768848951
3582.6133,2.6273793433449963,167.47718212330437
3583.4395,2.624527342093796,143.7909214966094
3584.264,2.619294174860344,118.33431273044432
3585.0884,2.6123757407140324,151.81641275840613
3585.915,2.6052792679929997,135.65861414732657
3586.74,2.5995045886057992,122.97688950655746
3587.5671,2.5954329203321285,157.57867504806694
3588.3923,2.5922079704813923,133.53928991936826
3589.22,2.588413589411531,136.08060323736262
3590.0457,2.5832542494029376,181.35955013675502
3590.8716,2.5771118013877143,123.76927297148488
3591.6995,2.5713826940287703,146.75735749798193
3592.526,2.567616977020683,151.0100920200328
3593.3542,2.5663266921428574,129.5509558930181
3594.181,2.5665167762531773,153.525553194241
3595.0098,2.5663559570604546,126.43800150277633
3595.8367,2.564715494885089,122.07177988576066
3596.6638,2.562177864212612,138.9506366661107
3597.4934,2.560527078349199,159.86363872262777
3598.3208,2.5611742899271244,157.77379588876204
3599.1506,2.5639553169791753,138.22596936022612
3599.9788,2.567377246665984,132.08515481142058
3600.8088,2.569903607495534,119.18616864387555
3601.6372,2.5708925085467302,135.3817627674297
3602.4678,2.5706600109491147,146.75862909046546
3603.2964,2.5698617043924603,145.2447792003554
3604.1252,2.5690022348331114,126.3725087603907
3604.9565,2.568338063918125,127.60872114843488
3605.786,2.5679559991291385,141.90369317203888
3606.6172,2.5676754863745854,158.09376197024616
3607.447,2.566863979217931,186.2831070119213
3608.2788,2.5645362644131726,156.82018662880648
3609.109,2.5600185459478944,112.87309575682053
3609.9392,2.5536380574256707,146.54544930248562
3610.7717,2.546718386399072,142.4606712100796
3611.6023,2.5407262715814087,140.49161892798048
3612.435,2.536161509608519,136.5691095539072
3613.266,2.5326016706014207,138.94225571529242
3614.0994,2.5294119396286447,170.27059079430194
3614.9307,2.5264892402093957,149.12701174214072
3615.7625,2.5240238191672244,143.99743943348358
3616.5962,2.5218401672840556,140.50961313231636
3617.4282,2.519118545510562,143.08852462488056
3618.2625,2.514929943390904,141.40193752229314
3619.0947,2.50922304772458,145.7949874589903
3619.9292,2.50304133832409,162.47040771369547
3620.762,2.4978926096167484,138.84755472876395
3621.595,2.494516041704684,161.17069711797816
3622.4302,2.4924246147277063,157.01256221706748
3623.2634,2.490463894318667,152.74431904926467
3624.0989,2.487825961810544,141.46583240970057
3624.9326,2.4845818868996252,134.7871434872519
3625.7686,2.4811228755064114,146.46187508187438
3626.6028,2.477389203285547,163.18628621403525
3627.437,2.4726958059884105,138.8095300567001
3628.2734,2.4665248337256758,170.31916872309213
3629.1082,2.459397518542151,146.94225851075217
3629.945,2.4527176691173476,159.86781534203112
3630.78,2.4479638584012293,184.6744837137896
3631.6174,2.4456429656012766,157.83758388151628
3632.453,2.4452339357996307,133.4774176205695
3633.2883,2.445766814008843,157.12640586393837
3634.1262,2.446554883241641,189.77000647102946
3634.9622,2.447305808725218,174.32122536702587
3635.8005,2.4477757810373713,166.5156165677703
3636.637,2.4475031081924477,179.77111782210085
3637.4756,2.445996118249321,144.0350516208416
3638.3123,2.443100468834,176.4577036077752
3639.1492,2.439135829378893,188.72778461749485
3639.9885,2.43474956524893,150.82569396081033
3640.826,2.4306221265817323,157.950079733625
3641.6653,2.427002186358916,162.69755025697177
3642.5032,2.4235640263813356,153.46785756926266
3643.343,2.4194614927783675,159.67562649447703
3644.1812,2.413841855889511,158.78214228413992
3645.0195,2.406375819701533,177.3148856949352
3645.86,2.39763925789207,155.39453593242337
3646.699,2.389013247640853,165.32579729377693
3647.5398,2.3818059281712363,145.37762097824077
3648.379,2.376634035829933,177.2989254806781
3649.2202,2.373159802688754,161.8958411614062
3650.0596,2.3707537620256685,165.16101786491646
3650.8994,2.3691321771744964,154.65291929742986
3651.7412,2.368573101615985,158.09529779794897
3652.5813,2.369412217716611,154.6550999038162
3653.4236,2.3713587274776566,167.1503064667353
3654.2642,2.373262169022086,179.19601774527652
3655.1067,2.3736403068008824,160.34914285057212
3655.9475,2.3715402604638003,164.58762884099562
3656.7886,2.3671888488136608,140.56160178729704
3657.6318,2.36199016079697,178.8739243938549
3658.4734,2.3579137671363166,188.02821792254267
3659.317,2.3563492024577366,195.84345606840435
3660.1587,2.357310159161246,163.63310148347196
3661.003,2.3594500420007107,167.91691660528326
3661.845,2.361128735718743,162.96955375770744
3662.6875,2.361846018047497,162.94395894608658
3663.532,2.362832808335768,182.0482811612459
3664.3748,2.366293175345159,148.53170492152518
3665.2197,2.373717455204645,175.69964604853277
3666.063,2.384322036203145,165.72451913750285
3666.9084,2.3950431774969676,157.68502443386544
3667.752,2.4018185922619204,162.6686423082859
3668.5977,2.4018564892506205,156.5948859404613
3669.4417,2.394899236380163,167.70208392449464
3670.286,2.3830855548813608,186.8214665421204
3671.132,2.3695643098266173,146.24076338269998
3671.9768,2.357129429406446,172.63038752529022
3672.8235,2.3471496527430897,194.9489455969252
3673.6685,2.3395847271559242,155.97466329386504
3674.5156,2.333323105461911,166.861161982052
3675.3608,2.327315578617441,173.59007338694298
3676.2063,2.321434062863195,165.98874975638876
3677.0542,2.316694247559858,180.5305940957573
3677.9,2.3144797448318033,212.31519800826493
3678.748,2.31541597179136,163.04378353262402
3679.5945,2.3189930201666336,176.2523533447427
3680.4429,2.3238786003277347,172.1677652052778
3681.2896,2.3284485708382836,191.8143158895723
3682.1365,2.3313919940570806,195.0497556432811
3682.9856,2.332110233926585,168.8594023211471
3683.8328,2.3308816086742183,176.5371025571673
3684.6824,2.3285263254495634,200.7420864136436
3685.53,2.325831440659536,226.86318855508273
3686.38,2.3232623626769917,187.9932994122456
3687.2278,2.321275929948545,170.21187994772154
3688.0762,2.3205603714621548,190.6624651696851
3688.9265,2.3218268288210027,160.231726007301
3689.7751,2.325171639280595,187.89340750607
3690.626,2.329828787942899,172.26707958182226
3691.475,2.3344863228741883,170.0431021421089
3692.3264,2.337935063937365,185.96004433865068
3693.1758,2.339252903544482,162.00067543062386
3694.0254,2.337886279082585,172.25198421657396
3694.8772,2.333760748139946,163.79942870157788
3695.7273,2.3276574507197476,182.72387081661614
3696.5793,2.321178700654131,156.95687797576966
3697.43,2.316245944319563,176.15151007771013
3698.2825,2.3139868247792084,160.18680562505313
3699.1333,2.314048703312339,175.25612764819195
3699.9841,2.314765642675313,152.35923541020202
3700.8374,2.3142963429875074,173.00929296856634
3701.6887,2.31176186637186,183.04813114594637
3702.5425,2.3074868957746575,175.64077116633095
3703.3943,2.3024151943933457,176.16378974255346
3704.2483,2.2972787381693722,178.9639389902363
3705.1003,2.2924391362603536,178.5167927283746
3705.9526,2.287957504810621,190.28975415193884
3706.8074,2.283740526318963,185.54679935766126
3707.66,2.2795275943005673,197.24836085470722
3708.515,2.2749038628865965,197.65698371093646
3709.3682,2.2697306742181484,189.97013862085254
3710.2234,2.264324732799789,197.64720962673655
3711.0771,2.2594228702384407,209.33409376379166
3711.9307,2.255675960051024,199.25450722699836
3712.7866,2.2532913405519475,213.02805522662578
3713.6409,2.2519916817354853,211.88626489347433
3714.4973,2.2512705897816767,163.72227129265826
3715.3518,2.250883873677832,182.59634534987168
3716.2085,2.251091413809875,224.52838322693498
3717.0635,2.2524153666395836,196.06437953143654
3717.9185,2.2550089076888717,192.96717598235142
3718.776,2.258241976309977,172.51789472972317
3719.6313,2.2609592331130313,199.21867070646732
3720.489,2.2623615128991337,170.98203525361114
3721.345,2.2625214359002315,190.94555024449292
3722.2031,2.262164716381401,193.630005742636
3723.0593,2.2619075965701767,188.5273138332605
3723.9158,2.2617246103695927,170.68499171784686
3724.7747,2.261005652563237,241.92490583943237
3725.6316,2.259018036445819,199.80940633854877
3726.4905,2.255403799168528,189.92683690350842
3727.348,2.250548117948026,176.24711974164552
3728.2073,2.2454372182772793,167.82291970368553
3729.065,2.241119520847971,179.17845921495882
3729.9229,2.2378850539205923,186.92742354078626
3730.783,2.23508486923753,211.11099509486965
3731.6414,2.2317203284346485,184.73925832887275
3732.5017,2.2272523263212274,167.708716006906
3733.3604,2.2220149698374168,206.65823493461266
3734.2214,2.2167745707540893,180.4360501917039
3735.0803,2.212270765752011,197.41066757560458
3735.9417,2.208932204533109,206.24509469053464
3736.8013,2.2071013284638714,193.028960648299
3737.661,2.206973807151966,194.71480701619717
3738.5227,2.208392240317637,201.3591803490468
3739.3828,2.2106566508053396,208.49432505757727
3740.245,2.2127623617306083,202.12417653289506
3741.1055,2.213821213013324,175.3830283485065
3741.9683,2.2134256453279315,177.46531007549171
3742.829,2.211691207722185,187.29921184526086
3743.69,2.209149977301666,183.21224585654133
3744.5532,2.2066193428071057,163.92351902555623
3745.4148,2.205024171411376,199.06183018585168
3746.2786,2.204979333870022,193.10869885726942
3747.1404,2.206452066492825,194.4460023399041
3748.0044,2.208771325394674,201.35435299716778
3748.8667,2.2110808715674923,183.14280751954038
3749.729,2.2129022311243114,191.45677337502337
3750.5938,2.214234990040711,223.75395929507562
3751.4565,2.2151810893081407,211.4889061126953
3752.3215,2.21560444287067,210.5611309346134
3753.1848,2.2152412187184307,181.46731725375125
3754.0503,2.214208200367288,224.3513723864746
3754.9138,2.2132271950611293,178.14033196742133
3755.7776,2.2131662667770415,193.2192757521198
3756.6438,2.214344009353939,170.13879834465104
3757.508,2.2162087815865146,178.03410318464643
3758.3745,2.217666959480226,189.1311811963907
3759.239,2.2176487291606057,171.176114909077
3760.106,2.2156353525538055,197.31619800353897
3760.971,2.2118904759988482,194.3788867737996
3761.8362,2.20724152611387,214.98387680065682
3762.7036,2.2025727273385107,188.5118800701728
3763.5693,2.198416444608602,205.35655501294363
3764.437,2.194858331220333,178.77353079360321
3765.3032,2.1918847949103593,214.62273866996566
3766.1714,2.1894884387530227,190.1076957607571
3767.0378,2.1875581575913503,241.8030431226527
3767.9043,2.1856598772508775,213.21442075694077
3768.7732,2.183246400680044,199.0789049279039
3769.6401,2.1802072495793343,188.4777141616384
3770.5095,2.1771594825088734,190.31879482396948
3771.377,2.1751942749616586,217.33316081343446
3772.2466,2.1750185490089677,185.20236377460134
3773.1145,2.1763208579769246,214.73449332943994
3773.9824,2.1778249957257954,234.5454470987218
3774.8528,2.178147343125446,200.41872778360235
3775.721,2.1768170525859474,193.43080364738648
3776.5918,2.1746208764295,198.99404239468566
3777.4604,2.1729564603884683,207.29385888264738
3778.3315,2.1727142438660274,182.00681318790575
3779.201,2.1737711549156957,184.48531559450802
3780.0703,2.1753210808027843,201.36575564328422
3780.942,2.1765507041725867,230.8771662227637
3781.8118,2.176965000378685,227.22409144665872
3782.6838,2.176416286735926,214.93404652910883
3783.554,2.1751327357050885,220.52357875091892
3784.4265,2.1737553885765326,209.38409765991997
3785.297,2.17309847774282,187.40432778794514
3786.168,2.1735787740652976,188.4315040881839
3787.041,2.174899559490401,173.59848774213842
3787.912,2.1762091743555767,182.09302634043888
3788.7856,2.176561209608704,227.26821981195621
3789.6572,2.1752459919921288,182.13322170583768
3790.531,2.1720234646301293,207.8029803265211
3791.403,2.1673625409121686,195.64811815936773
3792.2754,2.1624271488943463,217.0865764463034
3793.15,2.158668643111795,201.5130844477534
3794.0225,2.157061227904115,201.99919577651582
3794.8972,2.157400624144721,195.97895379746737
3795.7703,2.1583386329801355,217.36463721990293
3796.6455,2.15814263494083,185.44865707588448
3797.519,2.1557722604915197,184.99051237562094
3798.3926,2.1515011781380444,217.8837769694426
3799.2686,2.1466052299768164,212.9907589144871
3800.1426,2.142465926991319,225.67891898848808
3801.0188,2.1396089476055744,246.06429718036918
3801.8933,2.1375920802855775,193.14198740523727
3802.77,2.135568001267908,201.77228300354363
3803.6448,2.13328640871643,216.26226990521707
3804.522,2.131549690160745,232.64883783977584
3805.3972,2.131821897340213,198.72291194630222
3806.2727,2.135171382890922,235.2792130767792
3807.1504,2.1415424654973574,198.4114074031477
3808.0261,2.1496652877981988,221.459355166347
3808.9043,2.157776067973908,210.72197310471105
3809.7805,2.1642443164886145,189.97123281399038
3810.659,2.1682635354875517,201.8334935697003
3811.5356,2.169809269437742,179.29957929438686
3812.4126,2.169311217298429,216.58452872057651
3813.2917,2.1671075909269226,184.40451239915538
3814.169,2.163396110966657,219.54132568947904
3815.0483,2.158549683274688,194.91502901858354
3815.926,2.15344102033769,210.49351350744075
3816.806,2.149049884462071,190.67312029074418
3817.684,2.1459198610063956,202.00644561172072
3818.5623,2.1438306765627955,219.252901852527
3819.4429,2.1421543239213934,209.11043096888378
3820.3215,2.1403607267981593,225.33614898249598
3821.2024,2.138214180199477,212.86933093859884
3822.0815,2.1357786123899842,190.64103664451656
3822.963,2.133260138621992,218.79852394659548
3823.8423,2.1308584211008705,230.68802484348006
3824.722,2.1285166694496658,197.17995591063365
3825.604,2.1258998020831053,207.9903590416163
3826.4841,2.122632658469321,220.9751465864049
3827.3665,2.1184781565019835,177.31806600879472
3828.2468,2.1134210960006348,235.6298698249469
3829.1296,2.1075371706009314,202.10507598399965
3830.0105,2.1011208241479995,222.38582924957024
3830.8916,2.094542924908813,238.95681885201824
3831.7751,2.088069743622329,189.97656527321593
3832.6565,2.0817912352696384,200.516777116067
3833.5403,2.0757528055695484,236.4280140928026
3834.4224,2.07042330404455,234.0699080636982
3835.3064,2.06653657209228,277.2932225160996
3836.1887,2.064749157332841,247.26009243186354
3837.0713,2.065213361689206,206.95207924336512
3837.956,2.0675643692077674,216.03683865915607
3838.839,2.070994879730535,202.32608861678713
3839.7244,2.0744937651913387,194.80110623887043
3840.6077,2.0772241617543066,226.48910387535136
3841.4932,2.079180692985851,208.94572807140568
3842.377,2.0814145318050263,205.9288763365657
3843.261,2.0855518341902655,226.74119542547268
3844.1472,2.0926676529989776,196.73883331142102
3845.0315,2.1022732157307384,197.73606892419917
3845.9182,2.1124114199279846,183.42060791494558
3846.803,2.1204778384617566,188.40763672982942
3847.69,2.124734540198836,240.03774892098392
3848.5752,2.124973005672539,191.00007168735755
3849.4604,2.1224085215924786,193.86618761260627
3850.3481,2.1187906538046053,213.130391365209
3851.234,2.1156826385451306,188.8294821914875
3852.122,2.1140393411930316,217.62156457943973
3853.0083,2.114192134598229,218.43327272057593
3853.8967,2.115819049102066,224.38953061835554
3854.7832,2.118027826191443,223.11315893706802
3855.6702,2.1196664967534713,211.9678965635827
3856.559,2.1197841564080244,204.52315198035834
3857.4463,2.118069367045974,198.35266419925128
3858.336,2.1149508261400665,193.81589160547273
3859.2234,2.111336871980654,202.79160946183532
3860.1135,2.108058511700102,216.64399368826832
3861.0015,2.105567282225196,212.11434863182265
3861.8896,2.1038170591917487,190.4642601934591
3862.7803,2.1024465386596893,212.44695809735612
3863.6687,2.1009195420895903,202.94150732943123
3864.5598,2.098657447427065,191.87298448648693
3865.4487,2.095419942355982,208.00711297413864
3866.34,2.0916034613056507,204.2510979989293
3867.2297,2.0882172123684075,226.74461070179075
3868.1213,2.0861597361590216,199.99790297801138
3869.0112,2.0855327464109075,192.50558124425245
3869.9014,2.0854398876850277,201.2218580963684
3870.7937,2.0845199463603583,189.40276548845267
3871.684,2.081760018937329,223.66099506023323
3872.577,2.077123974552937,227.25037248947675
3873.4678,2.071777121773627,216.28409886324027
3874.361,2.0674893746667617,200.56681488631176
3875.2524,2.0656594900504195,248.39540444113274
3876.1438,2.0662818388854793,232.27680799026842
3877.0376,2.067823968793673,200.7155774120366
3877.9297,2.0678663426502215,238.8923772961289
3878.8237,2.064155440838706,230.901743447282
3879.716,2.055544147872492,214.6174255941452
3880.6108,2.0424415993423715,219.95604315909551
3881.5037,2.026865578592394,243.1260482445414
3882.3965,2.0114526285776475,228.0096377809656
3883.2917,1.9983909614823914,253.16807259545345
3884.185,1.988628488398996,236.90036991597262
3885.0808,1.9814720582874112,250.5131219138435
3885.9746,1.9754332261034857,240.8243914447224
3886.8706,1.969198767518968,222.7042628849654
3887.765,1.962667877583077,224.0498182021826
3888.6592,1.956981201810696,228.79047441441884
3889.556,1.9538662091700059,260.6455588616761
3890.4507,1.9546106309169993,263.38951698611754
3891.348,1.959247563862086,244.49712830345945
3892.243,1.9664689958659491,233.52037384386523
3893.1406,1.9743699280547424,257.82949529488116
3894.0361,1.9812405890890816,218.39479201691296
3894.932,1.9863165134492853,252.25196443307217
3895.83,1.9897385305043847,233.13553485146156
3896.7263,1.9922652920477577,260.357281710616
3897.625,1.9950090181150644,213.8256552143118
3898.5215,1.9990638243587402,195.1182906607703
3899.4207,2.0052438408638,257.4530906426832
3900.3176,2.0136973214557354,228.99180330112148
3901.2148,2.0239021352263937,211.2137739282035
3902.1145,2.034711455675228,257.51064814882074
3903.0122,2.0444944491070856,239.9636610489685
3903.912,2.0517049167417767,220.23565442766252
3904.8103,2.055311843298789,219.82719888133968
3905.7107,2.05558418086725,213.2673834143127
3906.6094,2.0543022425313273,214.2834848172604
3907.508,2.054174139912469,227.58468538675768
3908.409,2.057452501521727,266.36620028818425
3909.308,2.0646309371773,198.74146524768935
3910.2097,2.0743240857748146,210.42004606063867
3911.1091,2.084149056891476,197.40364214385627
3912.011,2.0922347869152103,184.645105363892
3912.9111,2.097742430985493,212.46312119035412
3913.8113,2.1008202253634716,223.155967308926
3914.7136,2.101989064363705,204.71170639899543
3915.6143,2.101871265087124,223.19745395660098
3916.517,2.10121853940673,234.5632651377045
3917.4182,2.1008361988388975,236.06265862761637
3918.3215,2.101278314936584,218.38486576270088
3919.223,2.102644826413973,207.92785652621225
3920.1245,2.1046971295655523,217.66684193882963
3921.0286,2.1071128719255325,202.44720929601618
3921.9307,2.109600452257879,202.0405530323005
3922.835,2.111943767748707,205.9386196798558
3923.7373,2.113926520254311,208.25570409211173
3924.642,2.1153272324389496,188.1155241374401
3925.5452,2.115844382735616,212.16101981304794
3926.448,2.1152013889299957,208.1023069955364
3927.3535,2.113330354725425,242.5260579970199
3928.257,2.1105097588490063,205.53272714746117
3929.1628,2.1071515368483715,219.0225696899077
3930.0667,2.1035502473755834,236.09020908162927
3930.9731,2.0997770382349783,202.574709963672
3931.8774,2.095994262787782,198.24840032175513
3932.782,2.0925218939494576,235.15503998717395
3933.6887,2.089633325772767,220.7263236745306
