wavl,flux,ivar
3566.9744,0.9123225549015427,563.4336214689932
3567.795,0.9170869007270314,396.2150419260192
3568.6177,0.9198118092745079,311.2811565782805
3569.4385,0.9199096321070928,247.89536044333624
3570.2617,0.9171963451025235,486.4443488989335
3571.083,0.9120659346371822,470.10104090634155
3571.9065,0.90541899886037,324.94487207176195
3572.7283,0.8984824477225029,410.0819858924821
3573.55,0.8922563955870044,425.2064916559247
3574.374,0.8871484883498258,477.6810363181167
3575.1963,0.8829600430089599,434.5475404524255
3576.0208,0.8792553890969722,525.762403177375
3576.8435,0.8760774066631625,433.5691084243936
3577.6682,0.8740569727590245,597.4433662756404
3578.4915,0.8738954576975175,399.2888001540568
3579.3145,0.8754809595318191,441.6951950457431
3580.14,0.87763978370627,387.59261586790984
3580.9636,0.8787440070277076,520.8504919683522
3581.7893,0.8777679741577492,531.4625264050043
3582.6133,0.8748234123880306,359.81838793934617
3583.4395,0.8709063966140258,397.3134635445593
3584.264,0.8673287700164404,437.8110269945687
3585.0884,0.8651638167148302,435.33515404700813
3585.915,0.8650359890246686,519.4062790594174
3586.74,0.8670009822202469,637.1235328992162
3587.5671,0.8705299512153819,453.667495099595
3588.3923,0.8746123549310587,382.8411105766263
3589.22,0.8781641673152544,465.5077009541997
3590.0457,0.8804133771719614,401.33122875117766
3590.8716,0.8812763978611298,346.50708215791445
3591.6995,0.8812025622088527,396.52283501889576
3592.526,0.8806637794296168,431.27660306939106
3593.3542,0.8796336494406095,425.6138325171529
3594.181,0.8776089300351009,375.0133968678532
3595.0098,0.8742090904517662,457.0391640049016
3595.8367,0.8699220734799497,409.04769037887064
3596.6638,0.8661255417284872,434.34375641997224
3597.4934,0.8643570257375592,508.2242678966694
3598.3208,0.8652315960729731,637.2391684371341
3599.1506,0.8678629290310242,410.09159569416965
3599.9788,0.870306022880379,344.9090875536932
3600.8088,0.870730975421447,502.5200989890543
3601.6372,0.8684261181320013,667.3041935983056
3602.4678,0.8640977331922644,347.5079770766645
3603.2964,0.8594311591785923,457.5577886423124
3604.1252,0.8561040480738693,566.9264352797367
3604.9565,0.8549551811191469,492.34190237922877
3605.786,0.8556103413075429,419.60791063887615
3606.6172,0.8568063067214663,409.9375660562357
3607.447,0.8571589129587662,371.79518946210305
3608.2788,0.8558191486178904,489.72898135510707
3609.109,0.8527050206934693,550.2740377460117
3609.9392,0.848374330362213,286.37703213482735
3610.7717,0.8437709283237018,561.8623675282222
3611.6023,0.8399482563368995,556.2741359116114
3612.435,0.8376523305700374,558.2390229067013
3613.266,0.8371797373043329,548.4644543683023
3614.0994,0.83836763149206,433.1401030729894
3614.9307,0.8407626668150221,463.4538464441219
3615.7625,0.8437627998872507,468.2433728727449
3616.5962,0.8467541600669743,513.2803338162881
3617.4282,0.849330532659663,515.3457190133593
3618.2625,0.8514799679385344,404.0736601444401
3619.0947,0.8533028138564769,549.0758152938672
3619.9292,0.8545991682010526,435.02542319180066
3620.762,0.8547183361053258,489.0698068625542
3621.595,0.8530872226701934,488.4295629904026
3622.4302,0.8498931732184258,398.33384230027445
3623.2634,0.8463212270206982,477.4303391533779
3624.0989,0.8438854467740323,329.29235635905343
3624.9326,0.8434812259585113,488.09470194433425
3625.7686,0.8447393014305823,528.8646901487767
3626.6028,0.8463083485928743,367.2507042637403
3627.437,0.846760438316749,381.46599476643314
3628.2734,0.845311753451709,835.1335661676692
3629.1082,0.8419228161998092,490.8199879629716
3629.945,0.8370117684352698,419.97504920045344
3630.78,0.8315540781992068,311.8851646570524
3631.6174,0.8272219175250765,345.0190211093737
3632.453,0.8260802974722307,38724.0448675546
3633.2883,0.8293025126068263,472.26695846805626
3634.1262,0.8363412045879993,404.32402165714257
3634.9622,0.8452426927031246,286.12144711245344
3635.8005,0.854119980674265,456.406056094427
3636.637,0.8619379915526518,501.7521359790941
3637.4756,0.8685489260173103,458.0677905524411
3638.3123,0.8737768641302945,598.8655406587769
3639.1492,0.8770756494235308,424.8776601395986
3639.9885,0.8777458779574135,451.804730050683
3640.826,0.8756530450961164,443.3394122811317
3641.6653,0.8716108944203305,399.71157294351315
3642.5032,0.8671137523706757,419.09819504925906
3643.343,0.8635775913296949,484.2213041666409
3644.1812,0.8617664078342718,453.5168591084145
3645.0195,0.8615251247540816,556.5284526658047
3645.86,0.8620971556279371,409.37457803082475
3646.699,0.8626583992488009,443.95156191030867
3647.5398,0.8627781402403131,453.917922156353
3648.379,0.8625552697339802,367.37410699784135
3649.2202,0.8624938635649503,498.9536308631507
3650.0596,0.8631772026965835,385.3396155263588
3650.8994,0.8648052335542383,452.6498276260797
3651.7412,0.8668509765272598,468.247980874537
3652.5813,0.8681500618474609,348.0203925267775
3653.4236,0.8675259013207105,483.4139334126553
3654.2642,0.8644917437051505,423.554732988565
3655.1067,0.8596248590114188,374.26317948640843
3655.9475,0.8544608118497278,391.81687166542633
3656.7886,0.8507631912841153,446.7906598706779
3657.6318,0.8497109601308931,449.0720339804546
3658.4734,0.851383002739065,586.3148052538278
3659.317,0.8549483693277438,539.6822583539285
3660.1587,0.8592907604689867,305.8521345753003
3661.003,0.8635368591036514,475.4892595115237
3661.845,0.8669975097358863,504.803011682533
3662.6875,0.8690683242168089,550.1034994815765
3663.532,0.8691867286466192,418.5010882147482
3664.3748,0.8671234324665102,377.8392569100103
3665.2197,0.8632522012597804,403.36719351141363
3666.063,0.858583966943601,425.452399376611
3666.9084,0.8543128534864477,571.3251196180639
3667.752,0.851285081893995,405.5253861055318
3668.5977,0.8495076734736792,650.3629681314576
3669.4417,0.8483250930988121,386.9541786264997
3670.286,0.8469838909881738,632.4631858825027
3671.132,0.8452889351315682,468.6327978951571
3671.9768,0.8438594847282205,500.26329272853764
3672.8235,0.8438170210369125,378.9638820374462
3673.6685,0.8461164411637341,1520.7398008129248
3674.5156,0.8508695458424071,465.1983364810969
3675.3608,0.8570987847134951,341.7325538851236
3676.2063,0.863278863189603,372.7679405336075
3677.0542,0.8680349438418234,521.7373374755056
3677.9,0.8705292697831241,477.48827378686104
3678.748,0.8705563420792664,404.7997756877771
3679.5945,0.8684103183431121,442.5431411445957
3680.4429,0.8648421887118796,442.07222912083085
3681.2896,0.8608976858168444,502.95348346529636
3682.1365,0.8575260558365632,393.84566956959014
3682.9856,0.8553566932310792,421.9132361080548
3683.8328,0.8546881414421122,320.44098360866343
3684.6824,0.8555141960923821,581.9086463607171
3685.53,0.8574962132118357,598.316346873851
3686.38,0.8599446854988201,328.5713310783069
3687.2278,0.8619838598914115,420.3686234644038
3688.0762,0.8629545981966322,455.762210999248
3688.9265,0.8625740941736396,497.11395737496065
3689.7751,0.8606833499053019,455.19044384101227
3690.626,0.8564430257932386,314.36257795259996
3691.475,0.847063270135507,699.7788033759175
3692.3264,0.8260284700538626,487.47275934780083
3693.1758,0.7826762380747205,412.13136914473995
3694.0254,0.705324151706124,402.89559787927465
3694.8772,0.5910121078036582,497.0768150503305
3695.7273,0.4586949724609911,546.1408444807284
3696.5793,0.34894833716189927,447.7567926207483
3697.43,0.30694566366150366,1.3172525594180626
3698.2825,0.35155794569451715,555.2582296472349
3699.1333,0.4615410164252326,581.3965105730396
3699.9841,0.5910939043521581,507.91424503259327
3700.8374,0.6998601408899727,486.8123475696717
3701.6887,0.7703110596849839,423.1768480956832
3702.5425,0.807153578407399,548.808809266029
3703.3943,0.8227984037978419,451.4250378273308
3704.2483,0.8281659420476386,487.9719342460445
3705.1003,0.8293495994659537,471.84883449374485
3705.9526,0.829094761100746,520.7852355664953
3706.8074,0.8286188692570015,437.15835556290006
3707.66,0.8286787162631903,399.39644582744086
3708.515,0.8298117830250534,413.3306677609627
3709.3682,0.8321813366427884,490.4398226923763
3710.2234,0.8354373925651292,440.58750203753016
3711.0771,0.8387651658406449,422.40722719208355
3711.9307,0.8412503123911924,392.1467722678231
3712.7866,0.8422115260029567,410.5027003780951
3713.6409,0.8413604689274097,565.2920408977382
3714.4973,0.8387495917650806,521.1424594828759
3715.3518,0.834654346281539,562.6647297313216
3716.2085,0.8295289893488902,530.1519495162438
3717.0635,0.8241829418904121,507.47279430870657
3717.9185,0.8195841237614523,704.7067173696089
3718.776,0.8163914100244789,457.35485474626046
3719.6313,0.8144704188705522,604.4478732323465
3720.489,0.8129123824656503,498.6929009848603
3721.345,0.8108148294179902,438.3071764901731
3722.2031,0.808029796861308,446.60910125733085
3723.0593,0.8053367464937583,423.1342581614785
3723.9158,0.8037560101417152,545.6730198184092
3724.7747,0.8037405906534361,454.07140913713215
3725.6316,0.8048404125835112,493.61247951984114
3726.4905,0.8060956161891377,520.1095348796485
3727.348,0.8066982640556329,485.450935663596
3728.2073,0.806399342626466,415.69595379328024
3729.065,0.805453532350275,512.5586040722758
3729.9229,0.8043292010976097,568.0213511202184
3730.783,0.8034095914481247,407.55626065374616
3731.6414,0.8028050486136594,541.0750581179501
3732.5017,0.8023327997737505,437.88000834233657
3733.3604,0.8017473225655489,543.9501483474351
3734.2214,0.8010022395334306,523.0256192554974
3735.0803,0.8003100908442395,644.7457172222399
3735.9417,0.7999133421579802,576.4650809731899
3736.8013,0.7999045000417655,498.4715039477977
3737.661,0.8002821467733144,475.9287621398105
3738.5227,0.8011490221444374,792.4431017652394
3739.3828,0.8027047817338823,397.12945920691266
3740.245,0.8050009593653548,684.8467092506615
3741.1055,0.8076815359433372,487.75973423274235
3741.9683,0.8101697156485935,439.61864436305876
3742.829,0.8120648630366347,465.31124746872604
3743.69,0.813443181126793,593.8523719351899
3744.5532,0.8145829639218702,470.62929386528504
3745.4148,0.8154783263121346,411.1258260504104
3746.2786,0.8156772198273343,506.0770824507751
3747.1404,0.8145420178488757,608.6769531343042
3748.0044,0.8116501791469236,571.1985489533477
3748.8667,0.8070592073909344,467.8618597996587
3749.729,0.8013704073801808,462.7777071487153
3750.5938,0.7957594823230696,475.95455959941717
3751.4565,0.7917874130159024,648.0989147308031
3752.3215,0.7906068760518089,608.6592064312177
3753.1848,0.7922310804181075,437.3579612314882
3754.0503,0.7953566557033951,581.0772016475883
3754.9138,0.7981147205738598,532.6783208803076
3755.7776,0.7991923859386227,451.90051728972
3756.6438,0.7983134782365824,465.1814286836172
3757.508,0.7959744414858525,388.4249254242578
3758.3745,0.7928425840851205,520.8062024355247
3759.239,0.7895078842815558,605.2203657171743
3760.106,0.7864804064833703,562.6053670725007
3760.971,0.7842666871906097,559.9644607872797
3761.8362,0.7831142397266344,526.99745328515
3762.7036,0.7828780305173512,588.2741011617891
3763.5693,0.783156402197789,577.8519113888635
3764.437,0.7836471914265776,508.9202227869438
3765.3032,0.7843404042079009,529.4719523049455
3766.1714,0.785352456349718,495.222271928344
3767.0378,0.7865929402182682,519.4353256160275
3767.9043,0.7877129832375355,568.0557423491645
3768.7732,0.7883934189565782,557.7759239390955
3769.6401,0.7886531230052194,591.5902829345805
3770.5095,0.7888238046968494,492.9448087425172
3771.377,0.7892168649653769,660.0922238168104
3772.2466,0.7898828775156297,476.3417403237838
3773.1145,0.7906234775692159,467.372984530247
3773.9824,0.7911537422053264,468.8313238308252
3774.8528,0.7912089522605916,477.36085740791543
3775.721,0.7906094229914691,581.8191039624239
3776.5918,0.7893261103353092,456.2885332911871
3777.4604,0.7875376474817476,490.2084054955804
3778.3315,0.7855516828580537,520.0354956475594
3779.201,0.7837108107123375,461.99715976339047
3780.0703,0.7822605797675948,517.5109174711027
3780.942,0.7813629683800795,517.378924486976
3781.8118,0.781153032080406,633.2876803846665
3782.6838,0.7817125705477247,517.55860557001
3783.554,0.7829348555938658,674.7768440976905
3784.4265,0.7844180836871649,561.1232831169884
3785.297,0.7855532143577532,466.3940055936978
3786.168,0.7858286441904369,604.3684329736792
3787.041,0.7849785198024098,611.6895623874725
3787.912,0.7829613423654461,453.85753298622575
3788.7856,0.7799280597727583,438.79595135360563
3789.6572,0.7763931161061244,692.1456547674085
3790.531,0.7731727662660866,522.0388998837585
3791.403,0.7710424767244419,581.4478230482969
3792.2754,0.7701618186343886,577.3322927915964
3793.15,0.7700059629103473,515.9356096374471
3794.0225,0.7698257172057803,449.9012949029058
3794.8972,0.7692383794031078,538.9843105517132
3795.7703,0.7684417988590935,536.6653918040439
3796.6455,0.7679620027395304,577.1129224423106
3797.519,0.7682610250722406,680.3168153799311
3798.3926,0.7694201490002419,530.5197550794136
3799.2686,0.7710492041278881,576.6926902639367
3800.1426,0.772460004428263,588.855903607435
3801.0188,0.7731513530125452,496.6364162530996
3801.8933,0.7731579322120621,663.3600492642016
3802.77,0.772958044500821,579.2053046227279
3803.6448,0.7729778132422432,482.32393460932735
3804.522,0.7732168473685602,512.9419831362144
3805.3972,0.7732939276676639,502.8639826555999
3806.2727,0.7727657251820423,703.9116062243836
3807.1504,0.771415691125617,431.27704451595497
3808.0261,0.7693808705248912,528.9290966167614
3808.9043,0.7669944160437768,708.3198328129499
3809.7805,0.7645427299710899,597.404220243771
3810.659,0.7620830881349767,492.38340936590805
3811.5356,0.7596946031259463,543.8622987266393
3812.4126,0.7577618727863321,531.6575153197743
3813.2917,0.7569441488119367,597.9826262018399
3814.169,0.757612262657322,845.9882801314991
3815.0483,0.7593268200365378,474.92068382875516
3815.926,0.7610479856219357,564.935614092177
3816.806,0.7620170665714844,483.47679399897675
3817.684,0.7623549367380744,504.8788338407166
3818.5623,0.76281392961307,544.2955776567089
3819.4429,0.7639562966544087,625.3056705792172
3820.3215,0.7656175496952331,546.3172289614361
3821.2024,0.7670723386792393,638.8515470429758
3822.0815,0.7674965252902457,510.8538283169575
3822.963,0.7663274618497068,692.6323483422184
3823.8423,0.7633793049052823,500.6324037003314
3824.722,0.758917427471802,572.6252162564688
3825.604,0.7537122661619222,637.7332489205239
3826.4841,0.7488761755139767,572.2191311724987
3827.3665,0.7452230793015514,662.9746261840851
3828.2468,0.7428624430275365,608.8476679322328
3829.1296,0.7411666301706024,562.5622723985771
3830.0105,0.7393650240753558,583.3681238023056
3830.8916,0.7370765851956074,600.72667950787
3831.7751,0.7344713178557489,700.8641747692616
3832.6565,0.7320223040640956,565.7588011854444
3833.5403,0.7301021017584289,547.8224344489075
3834.4224,0.7289117974225113,692.984916349712
3835.3064,0.7285811924710883,474.1210339823794
3836.1887,0.7293156640243477,669.2479521478466
3837.0713,0.731303168506335,674.8252037641005
3837.956,0.7345333007261196,520.6829601407287
3838.839,0.7386932408763646,605.9262361979431
3839.7244,0.7433178943824467,690.13290024072
3840.6077,0.7478500830284459,592.1821913550567
3841.4932,0.7518076399071558,773.9286993786814
3842.377,0.7547652265823324,479.11951909861943
3843.261,0.7564530748385743,591.098460175436
3844.1472,0.7567322614041595,619.7920197746823
3845.0315,0.7556850904529894,589.846588529105
3845.9182,0.753770267948432,539.1770782392675
3846.803,0.7518768470522438,601.8196494065227
3847.69,0.75102219170933,838.6019155413611
3848.5752,0.7519184549171745,521.097790433532
3849.4604,0.7546723222666551,614.3492989326448
3850.3481,0.7588876058338688,580.8840939589195
3851.234,0.7638990652335201,667.1398850773252
3852.122,0.7691049234993572,576.9160244360501
3853.0083,0.7739926364539553,577.0861401398924
3853.8967,0.778224089716856,502.7916694763808
3854.7832,0.7814557050985323,559.4939701383706
3855.6702,0.7833446185869676,497.8253700529831
3856.559,0.7835821442247292,541.5566536694082
3857.4463,0.7821406883894301,488.0868022267637
3858.336,0.7794643580631658,600.0883683793642
3859.2234,0.7764146298277228,627.2193307906258
3860.1135,0.7738285045486532,501.79918749313106
3861.0015,0.7721495991543581,424.8270850819357
3861.8896,0.7712526973579853,530.1739638772025
3862.7803,0.7706760335658903,600.0278391532984
3863.6687,0.7698791865565837,518.0597031088676
3864.5598,0.7683701905150383,508.1865589157371
3865.4487,0.76584999649311,493.9843475690511
3866.34,0.7623983292852131,541.7218041655553
3867.2297,0.7586651099380346,673.9523336726176
3868.1213,0.7555809877553562,713.9270959278062
3869.0112,0.753859305335521,508.26011152555196
3869.9014,0.7535208525351436,535.4612120593806
3870.7937,0.7539503116560615,495.3737488358583
3871.684,0.7542527175902396,561.7622105557048
3872.577,0.7536628590110138,586.6466087788779
3873.4678,0.7518009417244165,694.2217352354678
3874.361,0.7487066542544958,635.6845910349781
3875.2524,0.7447092630861424,660.9609696778923
3876.1438,0.7401041484853089,643.318952320767
3877.0376,0.7349957084723022,677.7341368252606
3877.9297,0.7293773629156736,696.7401174189077
3878.8237,0.7231506399616442,799.7030741570464
3879.716,0.7162835816663298,609.4285327986474
3880.6108,0.708782943116101,623.2109478140588
3881.5037,0.7009420861824137,629.612386044324
3882.3965,0.6932494889684035,590.3297699935088
3883.2917,0.6862805856259069,764.659685045307
3884.185,0.6805035977204219,688.9312461496144
3885.0808,0.6759982669260146,747.7801221969895
3885.9746,0.6725782678722366,768.6470705803988
3886.8706,0.6698805065029871,774.1655667991226
3887.765,0.6676965119480205,566.2832984089155
3888.6592,0.6661162709877463,662.6780639250446
3889.556,0.6655026679142203,960.8620713536886
3890.4507,0.6661917808749175,750.8892190696332
3891.348,0.6681860535563979,751.2865543583343
3892.243,0.67115451400749,945.6884897694163
3893.1406,0.6748191097606966,544.7548729569968
3894.0361,0.6791943181653634,759.5044232587052
3894.932,0.6845423326740113,829.0561289936409
3895.83,0.6909226483949621,584.0765554107899
3896.7263,0.6978393858814385,700.401011988241
3897.625,0.7045092459944153,597.3308972334813
3898.5215,0.7102188427590495,648.4913852883803
3899.4207,0.7148778633715245,620.6011159218008
3900.3176,0.7189553813002791,631.4588423011477
3901.2148,0.7232323087507776,585.5425378765012
3902.1145,0.7282563153612892,479.69536887264013
3903.0122,0.7339896012140569,702.8551139281735
3903.912,0.7399689313868971,681.8965365376949
3904.8103,0.7455200613695209,606.1893615602687
3905.7107,0.7501259328682085,512.1710155674571
3906.6094,0.753472785787564,529.4957116324115
3907.508,0.7556162070350443,680.3163373480558
3908.409,0.7569686736267404,513.9473697192371
3909.308,0.7581466984776126,588.9872915620422
3910.2097,0.7597211458228622,477.0476971527192
3911.1091,0.7620197667572344,530.8361032811652
3912.011,0.7651699358784396,541.1951502790931
3912.9111,0.769079343340851,523.2265178378685
3913.8113,0.7734365167742366,441.7220478084938
3914.7136,0.7777118860853401,531.276057547816
3915.6143,0.7813240841803424,500.5882297259378
3916.517,0.7839589235854485,591.1699735577879
3917.4182,0.7855661788336846,516.1757102543899
3918.3215,0.7862368573638802,525.9790449488838
3919.223,0.7860424061438133,459.2093178858499
3920.1245,0.785136368680016,472.7823297373778
3921.0286,0.7838886276387197,594.2023410360126
3921.9307,0.7828303453127963,577.1389531561255
3922.835,0.7823628948681545,516.7574630257548
3923.7373,0.7826099538814416,569.7949900779441
3924.642,0.7835366550342681,593.1271268585018
3925.5452,0.7851460143256487,620.275748307563
3926.448,0.7874347687071492,520.8668064676529
3927.3535,0.7901258944267965,538.5615815660422
3928.257,0.7925505673397811,520.5352045337166
3929.1628,0.7940269102627454,453.23263819856896
3930.0667,0.7942626264001156,479.19579282497483
3930.9731,0.7934456241047658,457.36567099524643
3931.8774,0.7919219914009507,496.5747289810985
3932.782,0.7899243801668135,477.9159002094743
3933.6887,0.787637592995777,469.8395952136066
3934.5938,0.7853929820834754,516.2604498004574
3935.501,0.7836003568617882,562.25850418212
