wavl,flux,ivar
3566.9744,0.9917486439348571,762.3970760988345
3567.795,0.9962846501518581,453.924714961754
3568.6177,0.9993018456003321,329.58112706656726
3569.4385,0.9987213947184377,437.0634826332685
3570.2617,0.9937983727927246,443.1340003898836
3571.083,0.9854287393614912,563.7553163442288
3571.9065,0.9756625487828123,475.9083636917394
3572.7283,0.9670608168499896,776.4804675397572
3573.55,0.9615767359028162,387.9372569665231
3574.374,0.9597879673905214,479.6779963264826
3575.1963,0.9606350961959613,580.6242597920284
3576.0208,0.9621064692502932,456.2486264013055
3576.8435,0.9625814983322574,370.58082691003216
3577.6682,0.961832371299859,496.22071595818323
3578.4915,0.9609062330668391,399.862144754694
3579.3145,0.9611479856343251,450.155603049376
3580.14,0.9633446682357872,474.3404275726939
3580.9636,0.9675370391603306,388.4824130111694
3581.7893,0.9733138767897915,507.03057322838333
3582.6133,0.9798028270961953,468.3576809629225
3583.4395,0.985654499948462,445.286198836722
3584.264,0.9892511459407995,518.0837766100053
3585.0884,0.9897225625938625,364.6307621670183
3585.915,0.9876120792368644,479.75339594182435
3586.74,0.9845543896845699,494.7701334813781
3587.5671,0.9819710717155549,576.8414059433717
3588.3923,0.9801694071772368,362.16753802950507
3589.22,0.978520089923003,442.57906524297294
3590.0457,0.9764066737345344,494.1239563877075
3590.8716,0.9737228169561758,522.9184461348826
3591.6995,0.9707058332063717,582.1108002670863
3592.526,0.9675970504861409,532.963767959802
3593.3542,0.9645507686121325,423.3038059577898
3594.181,0.9618962456917151,598.9093477249514
3595.0098,0.960190673192617,527.5120259308092
3595.8367,0.9600427431589352,568.6654137002554
3596.6638,0.9616679812324004,433.3921794637608
3597.4934,0.9646494947999195,403.51863903604624
3598.3208,0.9679941776831665,578.5031273045026
3599.1506,0.9706016453037035,323.0836232034062
3599.9788,0.9716613851708724,426.96437977692966
3600.8088,0.9709956775269069,482.72368288025945
3601.6372,0.969091500494383,458.38570436352336
3602.4678,0.9668602946747153,543.4226198534398
3603.2964,0.9651462566837519,534.7066001787992
3604.1252,0.9640883218103992,524.2155339284282
3604.9565,0.9629176966989195,420.80931461710344
3605.786,0.9604722506727562,624.1685602715448
3606.6172,0.9561669264747148,1037.3263677944149
3607.447,0.9507122699262367,390.4331082866895
3608.2788,0.9457332335851619,398.7437576389156
3609.109,0.9427101988072164,493.40190498987783
3609.9392,0.941901299258139,454.37342901575585
3610.7717,0.9423993891012006,627.1939008527908
3611.6023,0.9430386226224221,490.3607648837818
3612.435,0.9432737996734524,392.88784007956303
3613.266,0.9432039278515628,441.78573819883866
3614.0994,0.9430344443098337,548.9705776505466
3614.9307,0.9427704912348495,397.91574526020963
3615.7625,0.9424291284169819,356.2924998371906
3616.5962,0.9423191029143153,449.77028538385485
3617.4282,0.9429062818330619,471.18223116173453
3618.2625,0.944386349358196,388.00746863176335
3619.0947,0.9464482184323819,335.5176917050516
3619.9292,0.9485010236718011,566.1032510834042
3620.762,0.9500040784310868,575.2630864447826
3621.595,0.9507549177066112,547.0982319065422
3622.4302,0.9509729066336456,396.72930555139646
3623.2634,0.9511794102399075,524.3302869004638
3624.0989,0.9517425007949033,463.85985088675704
3624.9326,0.9524001607561179,539.726069768613
3625.7686,0.952397098520124,520.9902222695753
3626.6028,0.9512482518347002,464.45669180956594
3627.437,0.9493931536464905,521.9492762754381
3628.2734,0.9480456201364307,703.8499805659068
3629.1082,0.9483623758136772,457.5087594520758
3629.945,0.9504877275142071,724.6230819238205
3630.78,0.9531230058499885,543.7528832575003
3631.6174,0.9540270956639939,487.940307861486
3632.453,0.9512215115907363,482.1017578909818
3633.2883,0.9442726129119555,385.3479673462195
3634.1262,0.9346749847002682,404.7923276711481
3634.9622,0.92535454576432,482.1827779763365
3635.8005,0.9191870737072534,644.0699794775002
3636.637,0.9177672510824865,695.3186524514912
3637.4756,0.9206049179373637,504.71549577592
3638.3123,0.9257538795931172,324.2722052342655
3639.1492,0.9312848926322036,438.0755404513999
3639.9885,0.9362185052748052,409.57911304471185
3640.826,0.9401510221960718,423.75386276432954
3641.6653,0.9424753693801974,467.51050016618416
3642.5032,0.9421733081481324,487.46301519110676
3643.343,0.9386306018095762,640.6223790467625
3644.1812,0.9324105419045293,432.0049367362138
3645.0195,0.925140548931465,630.3285356578602
3645.86,0.9187572864190054,757.7388710382692
3646.699,0.9147477381788202,497.37409299086016
3647.5398,0.913634985504224,577.1874549675821
3648.379,0.915024411416847,553.7797235410536
3649.2202,0.9178444624159149,466.806329853211
3650.0596,0.9208059819238336,700.6283190682235
3650.8994,0.9229918445812325,638.3336264171976
3651.7412,0.9241461943477862,789.6013794312739
3652.5813,0.9245375140839289,470.28268213278756
3653.4236,0.9245000531767867,471.08481028250264
3654.2642,0.9240346601319529,609.8997298703414
3655.1067,0.9228325494220968,607.5333939336898
3655.9475,0.9206867301409193,616.3613279837526
3656.7886,0.9178655863766776,589.2004245879458
3657.6318,0.9150865014398993,551.776849431099
3658.4734,0.9131060285454271,650.7220587099442
3659.317,0.9123105095997207,537.8997316521878
3660.1587,0.9127891797815403,639.2467544650445
3661.003,0.9145176818115673,483.18623640010816
3661.845,0.9172869361532173,523.1650365139787
3662.6875,0.9205700273892325,781.8123231539782
3663.532,0.9236952126304281,588.2515938715346
3664.3748,0.9262744655611396,588.5735443003808
3665.2197,0.9283650579526285,469.73794648708315
3666.063,0.9300302509822704,612.4042046023312
3666.9084,0.9310019052801283,594.1320425038964
3667.752,0.9307606469489214,826.477980423105
3668.5977,0.9289971605283713,467.1463143299622
3669.4417,0.9259664626279996,481.83338751585444
3670.286,0.9224306182379609,573.8879201553401
3671.132,0.9192305265246414,529.7718145390246
3671.9768,0.9167627843260524,464.9499743634482
3672.8235,0.9147759511143376,661.0296110189697
3673.6685,0.9128481535262458,573.519142539137
3674.5156,0.9109598862277036,510.25516061162153
3675.3608,0.9096681105050513,657.9612132521278
3676.2063,0.9095881790503433,635.0995255606929
3677.0542,0.9108042820232456,411.5796228513047
3677.9,0.912714585854789,489.6805175616995
3678.748,0.9145590054096315,441.2964750431845
3679.5945,0.9161262133333558,470.65973409920605
3680.4429,0.9182895611406687,515.5981005419533
3681.2896,0.9231618589527245,437.34256787113407
3682.1365,0.9341459306476161,487.85791650339155
3682.9856,0.9554043320014286,387.2737427446583
3683.8328,0.9893438268678444,713.5650142705615
3684.6824,1.0331056277030186,477.93206906881363
3685.53,1.0754564072765236,650.5866651294641
3686.38,1.101032883703919,687.7734664191369
3687.2278,1.098870374715301,547.847799038433
3688.0762,1.070610637409632,587.4856335212298
3688.9265,1.0290372768551532,491.70429696285316
3689.7751,0.9895862124032407,516.893254692786
3690.626,0.9609809038472981,635.018482978025
3691.475,0.943655798742022,447.69451444729583
3692.3264,0.9329460415212237,556.0451074122567
3693.1758,0.924483246422917,475.525300168397
3694.0254,0.9167742242361524,517.9218017788503
3694.8772,0.9112494509453317,606.5419391095743
3695.7273,0.910901702245777,590.9777507284751
3696.5793,0.9194215352571039,493.27273511835415
3697.43,0.9412156752222853,440.7693989695815
3698.2825,0.9804042715320374,762.8349555622756
3699.1333,1.0360250541952494,732.89114640117
3699.9841,1.097222762583021,553.6485117978852
3700.8374,1.1435229224037375,519.716215052777
3701.6887,1.1545466823313997,449.5329525487041
3702.5425,1.12434029137791,474.662720607281
3703.3943,1.065995168245853,561.4873220452082
3704.2483,1.0021940968476106,447.62935668847325
3705.1003,0.9517746329332585,627.7132944769642
3705.9526,0.9209992401070275,516.9789570716927
3706.8074,0.9063356496183596,538.9220117205163
3707.66,0.9009319552332932,513.4588194124691
3708.515,0.8992477627960688,604.9940607147573
3709.3682,0.8984749068151039,796.243921832141
3710.2234,0.8975871934134965,548.2458599994792
3711.0771,0.8963320230659599,544.3426423998089
3711.9307,0.8947722627073676,514.8672103252956
3712.7866,0.8931213152669667,473.092892205146
3713.6409,0.8915237702217234,566.2354741042197
3714.4973,0.889905343122567,569.8128728347705
3715.3518,0.8883006566946288,477.5544345620313
3716.2085,0.8872645684766366,682.8595113511467
3717.0635,0.8878010971075889,585.5202519519695
3717.9185,0.8905613539453132,524.3087672709893
3718.776,0.8951905626595894,419.3777787979209
3719.6313,0.9005135603723753,574.5881096509561
3720.489,0.9055945056056703,463.5042233292179
3721.345,0.9102990080449,544.4119144736981
3722.2031,0.915050271113621,432.5574018929079
3723.0593,0.91983245230672,617.7269048118462
3723.9158,0.9237547585249758,469.06486751704404
3724.7747,0.9253894154068583,448.0612757712212
3725.6316,0.9237515591436571,573.0871242692764
3726.4905,0.9190908356522944,388.6309332285632
3727.348,0.9128468781045521,1027.6419275511814
3728.2073,0.9067455734267451,773.3189703108657
3729.065,0.9019686392279511,674.4142900541003
3729.9229,0.8987504638657828,683.5613735459043
3730.783,0.8967336768059566,606.7692888095557
3731.6414,0.8954133156907202,666.0160133378847
3732.5017,0.8943576726398964,495.6656515238929
3733.3604,0.8933176468901287,483.28268284454543
3734.2214,0.8922021414496353,585.5155665150353
3735.0803,0.8909866142031633,461.3174216743961
3735.9417,0.8895384919111251,495.0355127895514
3736.8013,0.8876648139994231,484.86623670777715
3737.661,0.8853243277146111,592.4900150690663
3738.5227,0.8828276613573627,591.117984741456
3739.3828,0.8807677253661896,707.8901387810988
3740.245,0.8796553636094306,686.0875718982409
3741.1055,0.8796636798298049,552.5617613184303
3741.9683,0.8805678916778591,519.5964358726919
3742.829,0.8819101329094367,732.0378872498202
3743.69,0.8832063587089048,564.8481692453531
3744.5532,0.8841003101838305,571.8594666708285
3745.4148,0.8845176077397752,525.5401018827985
3746.2786,0.8847719900459672,587.5397243622452
3747.1404,0.8854028067637026,485.1275310012861
3748.0044,0.8868341001565079,713.8268387138744
3748.8667,0.8891051708084212,633.053083238382
3749.729,0.8919112051106557,584.4980865149357
3750.5938,0.894771859780497,490.3565779683832
3751.4565,0.8971371843593703,374.5762063430104
3752.3215,0.8985266960819163,694.829900443089
3753.1848,0.8986242598016452,525.4962021304952
3754.0503,0.8974724758253295,520.0042083370389
3754.9138,0.895514339460653,707.7729202197901
3755.7776,0.893360665541573,583.1779401070778
3756.6438,0.8914415115316904,498.15341299354554
3757.508,0.8898505684947976,576.0425525815642
3758.3745,0.8884563046319363,481.768059935878
3759.239,0.8871679460947403,519.9029591511807
3760.106,0.8859345327435787,615.3084303328252
3760.971,0.8846029418717583,439.49532694065005
3761.8362,0.8828099790992557,533.8562539657546
3762.7036,0.8801627061544941,560.1664014723835
3763.5693,0.8765654368670619,480.8383352278039
3764.437,0.8723299083860323,604.5370763268272
3765.3032,0.8681197948736468,666.3353659406289
3766.1714,0.8646320223859695,579.9087094426538
3767.0378,0.8624042513309029,651.8632100236963
3767.9043,0.861557405614712,590.0868041331178
3768.7732,0.8617266296682311,478.70546744690023
3769.6401,0.8621921877890064,567.4370537672726
3770.5095,0.8623109643947614,584.2226558950485
3771.377,0.861969496831981,578.9851781642212
3772.2466,0.8616899959055113,778.050153109931
3773.1145,0.8622901509207346,578.075427684697
3773.9824,0.8644025471962066,622.4995372419219
3774.8528,0.8682446399062506,768.2552856826622
3775.721,0.8735703127965694,564.2696801776146
3776.5918,0.8797547814449117,524.468156977198
3777.4604,0.8856280015520206,554.1786786141932
3778.3315,0.8897510128522719,411.36297253788007
3779.201,0.8908933914827815,502.8592161527325
3780.0703,0.8888864637016065,519.9919286606464
3780.942,0.8848929366987265,634.2016224194958
3781.8118,0.8809459749773518,598.900574663649
3782.6838,0.8787985146144351,514.5353045459884
3783.554,0.879074409726308,903.3316509478836
3784.4265,0.8811003421230827,555.6657880026348
3785.297,0.8834692916062398,492.34423401720625
3786.168,0.8848321539088603,450.81825680299215
3787.041,0.884397255895041,548.1250329453937
3787.912,0.8820482942549646,565.9243267185516
3788.7856,0.8780425694625205,610.1194873024867
3789.6572,0.8724706446928299,533.7582714091392
3790.531,0.8641600302245978,594.3026703573582
3791.403,0.8490763295947565,577.603029141947
3792.2754,0.8184680437615056,679.6758751931243
3793.15,0.7598388315280836,687.4689048351454
3794.0225,0.6650797368496315,520.6558673742851
3794.8972,0.5420679841818028,760.4295122441912
3795.7703,0.4236270218048924,520.1332979433611
3796.6455,0.35462324236263454,650.2405003372696
3797.519,0.36626595646073157,588.2165288692071
3798.3926,0.45288869968043954,627.8379705447298
3799.2686,0.5774221021133099,738.3591116435075
3800.1426,0.6955752518817658,516.0397566854159
3801.0188,0.7816814203113113,445.03290003337827
3801.8933,0.831831418014269,544.376383743017
3802.77,0.855936435523104,537.611698109182
3803.6448,0.8656142807454482,795.4918493690305
3804.522,0.8691466150941636,718.8788398079317
3805.3972,0.8706410539562613,564.8401791256456
3806.2727,0.8716165394625681,564.8966045461765
3807.1504,0.8725288710833591,583.8719831142536
3808.0261,0.8736819966994315,881.9945591802029
3808.9043,0.8753738935443863,470.2350113404018
3809.7805,0.8775712072655016,512.5067629304425
3810.659,0.8797609933650421,568.1914355356778
3811.5356,0.8811132169333221,657.6812617212897
3812.4126,0.8809384639855523,465.92668736287436
3813.2917,0.8790572277638624,498.00978289296296
3814.169,0.8760531762909475,518.3355405069675
3815.0483,0.8731480733146284,600.3024392566384
3815.926,0.8717288357258658,744.724347634572
3816.806,0.8725605093100653,684.7558478556782
3817.684,0.8753538058405684,578.6250886332089
3818.5623,0.8789859033389069,604.4260325585625
3819.4429,0.8821766439707138,535.1757635163996
3820.3215,0.8839914566675476,452.8500507014828
3821.2024,0.8839857432375084,693.4781332592145
3822.0815,0.8820309299885416,576.6938699905332
3822.963,0.8782419906140487,647.6383697670157
3823.8423,0.8730007179955969,544.8998727377891
3824.722,0.8667695417587915,643.8579026531095
3825.604,0.8598917328521255,605.0059586813485
3826.4841,0.8525738271557456,565.2151454415814
3827.3665,0.8448662257247788,758.6590747262819
3828.2468,0.836907587228621,600.7081119965811
3829.1296,0.828783144249607,760.6971345813917
3830.0105,0.8206782507578584,654.36833127558
3830.8916,0.8128110471435503,755.0524197865548
3831.7751,0.8055534076277471,673.5260804547917
3832.6565,0.7993865740725445,572.9662593870409
3833.5403,0.794546614044748,744.7001626584114
3834.4224,0.7909891171504637,775.7978431245901
3835.3064,0.7883944960718672,710.5463209337729
3836.1887,0.7865593717473525,724.7808304018848
3837.0713,0.7856397095834502,733.0302912239337
3837.956,0.7861673481678804,715.7596884676394
3838.839,0.7886964252429242,714.7437409106375
3839.7244,0.7934131662594116,867.730096356313
3840.6077,0.8000252295462132,715.7406084326744
3841.4932,0.8082682598411246,636.3627173546289
3842.377,0.818215341879394,652.9466414274165
3843.261,0.830204862278715,785.242518023497
3844.1472,0.8440610319771147,565.3722449073493
3845.0315,0.8584643351394379,706.1972533221527
3845.9182,0.8715039160231525,613.0136927448964
3846.803,0.8813768969683091,427.34938520388846
3847.69,0.8874976473233045,566.305583651308
3848.5752,0.8905021464942506,600.479586805386
3849.4604,0.8918092143936125,574.8786337897908
3850.3481,0.8927442433405114,485.615385628833
3851.234,0.8940623271133306,556.9218082367846
3852.122,0.896041592056265,675.9885423877078
3853.0083,0.8987842430548103,735.6511083740513
3853.8967,0.9023904465192787,645.3891146226147
3854.7832,0.9067325568545967,517.5923865070812
3855.6702,0.9112818116581214,582.7397383489636
3856.559,0.9150636337982547,580.5443380103058
3857.4463,0.9169524104008792,605.9540126465337
3858.336,0.9163057328425432,559.8280695117635
3859.2234,0.9135211541118092,438.3923599519884
3860.1135,0.9100506049944915,443.67261406504923
3861.0015,0.9076562195182126,482.4129836348034
3861.8896,0.9072619638719404,511.4393398234098
3862.7803,0.9085138567966123,532.960498234013
3863.6687,0.9101697275436017,506.07248418959205
3864.5598,0.9109469882243098,545.3418105729813
3865.4487,0.910121571427273,443.75281440000725
3866.34,0.907746550161592,531.1059422268398
3867.2297,0.9044828367222727,549.6812445967497
3868.1213,0.9010410000566133,593.1401018619569
3869.0112,0.8976338924442329,517.8508118426407
3869.9014,0.893745902943527,502.91834860671224
3870.7937,0.8886108554688075,529.0692970818578
3871.684,0.8819897204067899,540.0719983534937
3872.577,0.8744184502201076,643.8041836193528
3873.4678,0.8669706786418608,650.773131035578
3874.361,0.8604046752661483,612.3554232080297
3875.2524,0.8548186670077241,613.4088826192992
3876.1438,0.8495422481081606,828.8419336824036
3877.0376,0.8435055119222611,770.8354558420097
3877.9297,0.8357051109910878,601.5316788459706
3878.8237,0.825561762087258,735.1839601429533
3879.716,0.8134177977648726,715.6172806156043
3880.6108,0.8002819624937525,675.4602676474681
3881.5037,0.7873825023008681,656.4962956381179
3882.3965,0.7752086199195586,860.5097694010564
3883.2917,0.7634663899080874,670.0777937628069
3884.185,0.7517195443792855,891.0603804958591
3885.0808,0.7397963618964173,1397.144353464252
3885.9746,0.7281679211787537,1149.5415648429564
3886.8706,0.717489116986717,788.9638284286971
3887.765,0.7085663630132728,839.7432809301828
3888.6592,0.7020700231645521,905.9136882365966
3889.556,0.6985455045448362,990.4417569630102
3890.4507,0.6983360416062523,1157.034975028171
3891.348,0.7014684307240885,889.3487558708335
3892.243,0.7076489641221394,930.9620563324332
3893.1406,0.7164123131802211,893.6767678688877
3894.0361,0.7271134057068728,877.224561462075
3894.932,0.739112254735611,787.2470464228435
3895.83,0.7516762697706388,764.5560154370827
3896.7263,0.763999094728303,718.9557425998883
3897.625,0.7757805310146677,844.096220302281
3898.5215,0.7871788613975642,719.8869967159357
3899.4207,0.7984693184405285,835.7948649364836
3900.3176,0.8083410965810672,556.6443192450104
3901.2148,0.8126509734194898,832.2058416028349
3902.1145,0.8044975990478466,624.7759420051186
3903.0122,0.7779784821584308,722.3137319048535
3903.912,0.7344351770702673,534.756531025721
3904.8103,0.6874299712482838,459.54332925379447
3905.7107,0.6582743462598144,522.7893654888552
3906.6094,0.6641226716680125,514.7809728087439
3907.508,0.7057489990322752,617.7326999359758
3908.409,0.7680099196240138,573.6641207848784
3909.308,0.8303709034157194,541.883989920607
3910.2097,0.8796468007815178,549.4395815873446
3911.1091,0.9125170906462255,547.1371533303546
3912.011,0.9326533808725215,574.2541302949744
3912.9111,0.9449755788820194,567.9067981190278
3913.8113,0.953472339312188,435.5567549043924
3914.7136,0.9606223123099582,477.48918895632977
3915.6143,0.9677186871966584,454.94589789873754
3916.517,0.9752447969651871,508.572525647954
3917.4182,0.9828784428069894,530.1870200657346
3918.3215,0.9898765743983,367.4707885846209
3919.223,0.9954902491014731,404.63948732164266
3920.1245,0.9996423550468642,454.2531086305497
3921.0286,1.0029634050628662,479.3882199123096
3921.9307,1.0062817839150693,518.893009268522
3922.835,1.0100345256860233,364.44944907621465
3923.7373,1.0139477537012975,382.4782238174415
3924.642,1.0173415842091456,452.8721051842597
3925.5452,1.0195084935806544,523.0218864737565
3926.448,1.0201348068388136,397.24525745168484
3927.3535,1.0193947806435837,407.22536098225726
3928.257,1.0178293101206246,364.83743829527214
3929.1628,1.0159913233297755,398.6491982890603
3930.0667,1.014104866567275,428.8700859710391
3930.9731,1.0118974150544908,389.7404841873396
3931.8774,1.0089119959474713,386.635035286677
3932.782,1.0050163360183286,406.21536818090965
3933.6887,1.0007521158328891,374.3599846844605
3934.5938,0.9970694684587549,522.9534955465853
3935.501,0.9945135808831742,403.0766093189254
