wavl,flux,ivar
3566.9744,0.6072305482328091,1897.816495479477
3567.795,0.6063719047722717,1636.37292095258
3568.6177,0.6073972569759318,1451.358912850908
3569.4385,0.6101037907427496,2091.506382121832
3570.2617,0.6134393418534327,1506.9560421552628
3571.083,0.6161313522861857,1084.8585139173565
3571.9065,0.6172766744675996,2085.2761527206167
3572.7283,0.616295482857174,1651.0014978393447
3573.55,0.6127906625636858,1275.8616903990358
3574.374,0.6067461687178439,1907.307199547507
3575.1963,0.5990841095894625,1853.7732837816745
3576.0208,0.5915566211013471,2810.189854960461
3576.8435,0.5861303502129684,1581.322060813334
3577.6682,0.5840260715881871,2482.7439058354903
3578.4915,0.5855544781298889,2195.374982308433
3579.3145,0.5902453847262155,1423.042450230221
3580.14,0.5969524779401205,4211.855274813494
3580.9636,0.6037412657411169,1530.1113584309132
3581.7893,0.6085151927174456,970.5820819923085
3582.6133,0.6100113230413554,1531.7256000253353
3583.4395,0.6085880481415206,1979.8212004608613
3584.264,0.605728181977739,2496.233655765154
3585.0884,0.6028333770651245,2399.892231793939
3585.915,0.6004553408673418,1017.4995552052318
3586.74,0.5984658740258151,2778.793837315692
3587.5671,0.5965850332271653,1452.0241610144383
3588.3923,0.5947800828063727,2804.3088996535716
3589.22,0.59326011522827,1969.5840722925225
3590.0457,0.5923821837545795,1478.0946702572894
3590.8716,0.5923956252795476,1666.393503426275
3591.6995,0.5932139224186507,1438.1247413701121
3592.526,0.5943456979256915,1308.2664234914082
3593.3542,0.5951557015723504,1355.623275177915
3594.181,0.5952115642987164,1614.846851231555
3595.0098,0.5945189939916823,1681.7795439850154
3595.8367,0.5935453908085165,1301.7491630792879
3596.6638,0.5929882414074225,2337.1310881019913
3597.4934,0.5932473536009901,1547.65856420742
3598.3208,0.5938664168872574,2109.860352206255
3599.1506,0.593676999343002,1614.4738126012835
3599.9788,0.591876001415249,1232.7802102903363
3600.8088,0.5891152401960934,2513.258451282773
3601.6372,0.5873642131609249,1912.1473536961398
3602.4678,0.5884013784491791,1253.3073114891065
3603.2964,0.5924318148427353,1061.2690510647442
3604.1252,0.5980979388040061,1412.0276059903615
3604.9565,0.6037281216129763,2103.9122091194613
3605.786,0.6084864995244585,1628.8193269559047
3606.6172,0.6126307263597589,1669.6048579305118
3607.447,0.61658683772511,1494.346147021761
3608.2788,0.6201240748840826,1644.3814981323735
3609.109,0.622221724159205,1901.9533673294115
3609.9392,0.6219666235882602,1977.2505265802283
3610.7717,0.6194585871372628,1660.4297236846414
3611.6023,0.6159844892447054,1898.6051950849533
3612.435,0.6130945239719244,2145.0062559846087
3613.266,0.6114824483388701,1185.2838128043795
3614.0994,0.6104719827161169,1657.4023877616066
3614.9307,0.608740447046078,1455.2043440232019
3615.7625,0.6056040018173843,3260.8566379968574
3616.5962,0.601812278768263,1970.3054028125255
3617.4282,0.5991152972576689,1766.1099155616478
3618.2625,0.5988555801020401,1528.8410330272814
3619.0947,0.6009092732230773,1425.2607658834781
3619.9292,0.6037236366500238,1632.0612677802576
3620.762,0.6053584345230671,1345.8764006622039
3621.595,0.6047336812457572,1520.5626418200693
3622.4302,0.6020786353854877,1185.094744731869
3623.2634,0.5985018457238571,2843.3212826668214
3624.0989,0.5950405304278094,1669.1050277194972
3624.9326,0.5921912387000109,1413.653434435169
3625.7686,0.5900023167390827,1496.951490898402
3626.6028,0.5885161010734842,1873.662666178754
3627.437,0.5878245918110393,1971.4491735896718
3628.2734,0.5879632498400329,1772.408612633042
3629.1082,0.5889343585007158,1770.4524917590718
3629.945,0.5908824618584819,2023.9242428557984
3630.78,0.5940038712044119,1678.8841505459263
3631.6174,0.5982343704472968,2091.8969960640716
3632.453,0.6029668722496027,1217.3123999827656
3633.2883,0.6073243377496095,1720.1910152341372
3634.1262,0.6105297358872722,2693.08167182896
3634.9622,0.6121155008637371,989.0268970246245
3635.8005,0.6119497223731849,1679.5480056384426
3636.637,0.6100987912493312,1657.6216032210027
3637.4756,0.6068087494656369,2900.528514008012
3638.3123,0.6025986418789688,1634.984217281731
3639.1492,0.5981973413480807,1531.075193705266
3639.9885,0.5943630187817432,2015.8736617824432
3640.826,0.5916057765598282,2217.8954731254817
3641.6653,0.5899317083056858,2858.7096958162374
3642.5032,0.588942576257316,1790.6804064040962
3643.343,0.5880128291516996,1757.5747230486486
3644.1812,0.5865779089328595,1706.1948424484158
3645.0195,0.5844153375111699,1120.1782431462968
3645.86,0.581904346941445,2896.6021619340713
3646.699,0.5800463324151695,1864.4594308709593
3647.5398,0.5799791003994228,10502.500348497564
3648.379,0.5822967595222848,2121.7379522762903
3649.2202,0.5866393083064743,1314.9742002993744
3650.0596,0.5918786222543984,1381.4272652274085
3650.8994,0.5968374667876387,1270.8753971613983
3651.7412,0.6007353347240575,1539.5004631922513
3652.5813,0.6031583750752992,1570.3390437037647
3653.4236,0.6038081200696175,1651.090068728603
3654.2642,0.6023731973503547,1654.1499969772426
3655.1067,0.5988584729103148,2077.100546417387
3655.9475,0.5939587897156763,1671.298597882004
3656.7886,0.5888844661554766,2020.4362999364268
3657.6318,0.5847910742079601,1388.471807082631
3658.4734,0.5823155588883593,1599.6004005113257
3659.317,0.5815215177249136,1282.5849443077818
3660.1587,0.5822386925357391,1102.2987846107283
3661.003,0.584220124748903,1718.6180942673275
3661.845,0.5870818459640322,2111.5877529788677
3662.6875,0.5902804044430539,1730.741580690857
3663.532,0.5931742793467994,3126.6670213742264
3664.3748,0.5951704521064706,2673.1388839871474
3665.2197,0.5959022066173268,1164.158872093777
3666.063,0.5952833346031375,2214.61178670996
3666.9084,0.5935865427373512,1813.1496062932847
3667.752,0.5914691490343338,1633.1479798312841
3668.5977,0.5897915592355104,2222.804788776008
3669.4417,0.5892825682052089,1795.6927558936936
3670.286,0.5901301262631269,1865.1424493202223
3671.132,0.5919231148476212,1571.1416549741334
3671.9768,0.5939415256822163,2926.0692819618876
3672.8235,0.5956365269018907,1371.033584488288
3673.6685,0.5968387557107971,2217.9770101448744
3674.5156,0.5976671925987129,1488.5029488352259
3675.3608,0.5982113583356784,2410.970676112108
3676.2063,0.5983789617398588,1734.8905994212785
3677.0542,0.597999821491585,1583.9984563222688
3677.9,0.597088446897946,1657.5509458262181
3678.748,0.5959292441143625,1981.9319666592057
3679.5945,0.5949247404050704,1584.5139611190991
3680.4429,0.5943513543391281,1224.8842895968467
3681.2896,0.594313995839631,2128.3828541671733
3682.1365,0.5948276552872609,2056.42802431348
3682.9856,0.5959272580299709,2125.4387234275728
3683.8328,0.5976789641250196,1915.3036333510436
3684.6824,0.6001318527785363,1793.1109600537138
3685.53,0.6031273318531436,2433.9621740252906
3686.38,0.6062196626406223,916.5534461757965
3687.2278,0.6087032405988316,1687.4502004213984
3688.0762,0.6100233444278745,1456.7134161999995
3688.9265,0.6101380385525605,1186.6259560325047
3689.7751,0.6095395038252794,2034.8381324941704
3690.626,0.6087483962803564,1689.793896602853
3691.475,0.6078097146901709,1292.493108356516
3692.3264,0.6063891204068534,2991.4596984557347
3693.1758,0.6044323900330233,1816.8964580382064
3694.0254,0.6025228718600263,1535.3785564067894
3694.8772,0.6015072928497033,2063.278380251458
3695.7273,0.6017352549882851,1451.0254856232414
3696.5793,0.6027130576676909,1534.4216378446054
3697.43,0.6035292437538529,1673.9287979551038
3698.2825,0.6035927884713129,956.679834464145
3699.1333,0.602979017307076,1820.4797002856133
3699.9841,0.6021962936650977,2040.7073563551176
3700.8374,0.6017401085778342,1842.5560222423262
3701.6887,0.6018882905659751,1394.7287189414744
3702.5425,0.6027234454075605,2056.23464504578
3703.3943,0.6041195617804731,1947.1527721803059
3704.2483,0.6056603993804225,2264.5849464053845
3705.1003,0.6066801682370149,1735.893368324444
3705.9526,0.6066211251368007,1476.0659399592864
3706.8074,0.6053443753974043,1654.024913262619
3707.66,0.6031676974298973,1631.5543493182365
3708.515,0.600584293217964,1698.1965513025787
3709.3682,0.5981052009425489,1536.1821424491498
3710.2234,0.5962152207627054,2235.8995048919646
3711.0771,0.5954076517740406,1646.4837254187976
3711.9307,0.5959417424599801,1889.9410391408476
3712.7866,0.5975648094999979,1455.0881724884334
3713.6409,0.5994376011576822,1497.4825471606102
3714.4973,0.60054319676801,1517.7951414366366
3715.3518,0.6002507424274096,1512.2215852285071
3716.2085,0.5986530167893694,1192.5056976436463
3717.0635,0.5964119008139696,2019.9908399565109
3717.9185,0.5943655346340001,2381.095469659719
3718.776,0.5933242906724593,1355.2058634533619
3719.6313,0.5940302200016501,1712.7606112910987
3720.489,0.5969877273730522,1959.9504280432368
3721.345,0.6021298321256131,1580.505628832198
3722.2031,0.6087191815605127,3197.4580513782485
3723.0593,0.6154948804177428,2810.6559027084077
3723.9158,0.6211954668103167,1583.9091391100615
3724.7747,0.6247922069900659,949.0529195169585
3725.6316,0.6256264782871503,2024.6888939651808
3726.4905,0.6236418109591378,1381.103234232241
3727.348,0.6195402619956222,1201.8597681417302
3728.2073,0.6146661992435258,1688.4211104037308
3729.065,0.610546400436396,2057.023288978408
3729.9229,0.608166130639307,1397.4919487477812
3730.783,0.6076991165460783,1427.0395647036526
3731.6414,0.6086647440046855,1194.9389719412013
3732.5017,0.6102909493025006,1679.1304402366238
3733.3604,0.6117689010413357,1493.4285195054488
3734.2214,0.6124497411149651,1467.2060943208262
3735.0803,0.6120132412929407,1713.232385467391
3735.9417,0.6105801929567548,1237.8574309331025
3736.8013,0.6085912672050542,1663.5464876169538
3737.661,0.6065011581583599,2010.6652635797166
3738.5227,0.6045563796001862,1916.049852607299
3739.3828,0.6027676188752669,1558.987322984488
3740.245,0.6009664835528093,1751.408537104174
3741.1055,0.5989607056097085,1696.2869575341067
3741.9683,0.5966201286377647,1712.0162544164218
3742.829,0.594051318800381,1763.244357419854
3743.69,0.5916315015451509,1808.6196958472797
3744.5532,0.5899088092019059,1423.0524527703983
3745.4148,0.5892986005420892,1413.9824737292765
3746.2786,0.5897851276157917,1397.0105368985921
3747.1404,0.5910171002742542,1862.5777081866006
3748.0044,0.5927664963910277,1489.9166740351393
3748.8667,0.5952992491715738,1299.9457066323373
3749.729,0.5992526488922839,1717.8869531424696
3750.5938,0.6049767631176302,1340.5439527934286
3751.4565,0.6118554930994455,1712.4318159068484
3752.3215,0.6184450977882996,1363.661977841319
3753.1848,0.6231269679807132,1812.5889915388216
3754.0503,0.6251525212100678,1210.7653634400158
3754.9138,0.6249353975984802,1760.4784541002577
3755.7776,0.6236402039193235,1794.345598528821
3756.6438,0.6223651872570863,1829.7442149735257
3757.508,0.6217159472780349,1391.2604871323226
3758.3745,0.6218235237150357,1751.7198113018244
3759.239,0.6225046417247938,1847.458175643222
3760.106,0.6232878501160563,1146.6156948834741
3760.971,0.6235063334526448,1430.7768820345846
3761.8362,0.622645420336108,1647.575137786542
3762.7036,0.6206417705621057,1583.7531047209034
3763.5693,0.617864150453807,1482.9974467727288
3764.437,0.61472457587381,1905.7894826998247
3765.3032,0.6114093034617559,1439.8138381446934
3766.1714,0.6077961926411494,1718.8344336702635
3767.0378,0.603689696194894,1360.825983421366
3767.9043,0.5990061725044185,2233.1738332985883
3768.7732,0.593993611855324,1362.5835394092153
3769.6401,0.5893862353173333,1645.5371610742236
3770.5095,0.5861962290031115,2217.5034518728794
3771.377,0.5853724594957173,3028.709531215546
3772.2466,0.5871987570966991,1995.2157697504215
3773.1145,0.5910343634702486,1713.3924603162511
3773.9824,0.5956339676632204,1334.376018116094
3774.8528,0.5999058167464674,2582.209439926134
3775.721,0.6034907842530578,2566.3262002385286
3776.5918,0.6067976395152723,2180.3326916363094
3777.4604,0.6102806643680551,1719.4626326927528
3778.3315,0.6139444738364029,1135.8054686893763
3779.201,0.6173077464491049,1230.1506316187288
3780.0703,0.6199610103338343,2266.6087183438735
3780.942,0.6218897883074992,1204.7527666390038
3781.8118,0.6233546764302639,1583.4336567762884
3782.6838,0.624606740442083,2104.015991945238
3783.554,0.6257202037068992,1608.2540161921893
3784.4265,0.6266703436969161,1739.4267564590873
3785.297,0.62735804951788,2228.963132622634
3786.168,0.6276564192704448,913.2376839452263
3787.041,0.6275222525993742,1485.0488937415641
3787.912,0.6271078030670464,1789.1065552190285
3788.7856,0.626606218492169,1371.7924701271836
3789.6572,0.6259064313677017,1355.0915688235402
3790.531,0.624419069794063,1477.184829103691
3791.403,0.6213789389919747,1876.0522171342327
3792.2754,0.6163622608510078,1106.6427973457464
3793.15,0.6096105349999249,1837.9202153190322
3794.0225,0.6019453263466652,1730.598320265301
3794.8972,0.5941964393019517,2418.3655315579435
3795.7703,0.5870536090996498,1964.059044485651
3796.6455,0.5810632766338425,1316.4073747965565
3797.519,0.5769930140265127,2488.0379935618457
3798.3926,0.5756412662699726,1626.5182441787608
3799.2686,0.5774739983599825,1515.0259090803384
3800.1426,0.5822349119585859,1392.6346448912905
3801.0188,0.5890294554262425,1884.6471578972923
3801.8933,0.5966197194944753,1752.5603135231945
3802.77,0.6039714359723214,1602.2759998364556
3803.6448,0.6103918846712157,1655.6848229523935
3804.522,0.6156671625525229,1508.5235638669956
3805.3972,0.619779672834519,1672.895171558164
3806.2727,0.6228670307208957,1360.8336522451527
3807.1504,0.6251618743707543,1700.0112832404386
3808.0261,0.627045489887693,1720.4127309953026
3808.9043,0.6290297754645096,1265.048744530546
3809.7805,0.631467456647976,1904.02642893935
3810.659,0.6343413811313884,1390.2364914552747
3811.5356,0.6372586110390409,1990.5433414265435
3812.4126,0.639833649778598,1198.556463041038
3813.2917,0.6419466735481288,1727.6683309680488
3814.169,0.6436685875144366,1090.5804715384124
3815.0483,0.6450463300153368,1393.9290464308078
3815.926,0.6459843267711723,1520.471199817364
3816.806,0.6464065522159145,2004.1977969192246
3817.684,0.6463689459425117,1129.533390637481
3818.5623,0.646011553034956,1259.6782297017999
3819.4429,0.6453802888567118,1628.871428543187
3820.3215,0.6443521114719566,1105.5382077952672
3821.2024,0.6427296919384597,1341.288579863261
3822.0815,0.6404457383402821,2251.6693260855764
3822.963,0.6375923580545685,1525.409637922534
3823.8423,0.6343540665365102,1501.9627574621156
3824.722,0.6308205762587279,1864.6690288990658
3825.604,0.626935564497559,1358.72319012348
3826.4841,0.6225442402278496,1510.5754874649624
3827.3665,0.617392189487526,1843.8363630154408
3828.2468,0.611304294713815,1467.8382175958864
3829.1296,0.6041629665400258,1287.6646466064576
3830.0105,0.5960672331372063,1920.8602133463146
3830.8916,0.587200531229936,1894.294134195934
3831.7751,0.5778142030957472,1852.7141046929983
3832.6565,0.568254746377953,1587.4256391746585
3833.5403,0.5588644418623547,2281.239910360089
3834.4224,0.5503998962098154,1692.407427544187
3835.3064,0.5440003745513434,2443.188030252986
3836.1887,0.5410426147258983,3216.7333891982717
3837.0713,0.5424183051805961,1808.7634790967165
3837.956,0.5482004231896577,1705.5125263381008
3838.839,0.5577018370063725,2038.863310435369
3839.7244,0.5699758843106221,4366.724734044552
3840.6077,0.5838319435662989,1608.495282982238
3841.4932,0.5980400453093525,1643.8722232699292
3842.377,0.6112392578644367,1766.2979096428166
3843.261,0.6225044020722914,1643.032720990305
3844.1472,0.6314464834518771,1883.229245559886
3845.0315,0.638064848213524,1533.9845771062242
3845.9182,0.6426589473580371,1947.4091995042616
3846.803,0.6456322629321077,1420.563534428206
3847.69,0.6476678475273921,1586.5927113185908
3848.5752,0.6496428043031566,1174.2115815882953
3849.4604,0.6524074930794292,1568.2207937968005
3850.3481,0.6564538224492332,1602.619984812487
3851.234,0.6617521411246327,1254.7328870608055
3852.122,0.6679309845312597,1333.2041613478443
3853.0083,0.674286510940695,1435.5478127547913
3853.8967,0.6799229344550342,1003.748045883448
3854.7832,0.6837903643066123,1255.2103491115784
3855.6702,0.6852185279423784,1143.8666312434832
3856.559,0.6843664032460378,1156.2930790947676
3857.4463,0.682381377709071,1397.308841249166
3858.336,0.6808513230018134,1193.6943339694851
3859.2234,0.680900692670902,1398.654890083064
3860.1135,0.6825325644117965,1120.7043491118125
3861.0015,0.6848043734111885,1358.8858241739536
3861.8896,0.6866704081707012,1527.1976660893008
3862.7803,0.687659990611087,1648.4186097876661
3863.6687,0.6878717438128175,1146.9948615220105
3864.5598,0.6874689771611662,1290.545659081324
3865.4487,0.6862786205095118,1356.0124820107342
3866.34,0.6838862521686788,1349.502718376455
3867.2297,0.6800820517213989,1205.9028562445947
3868.1213,0.6750970500089779,1333.2550054520257
3869.0112,0.6695193067484715,1242.6409393290687
3869.9014,0.6637844326950482,1185.6548706443402
3870.7937,0.6579128589346013,1910.2022218481443
3871.684,0.6517640876285055,1751.3835690550336
3872.577,0.6454764119906944,1193.8975754771654
3873.4678,0.6398365544041692,2185.1046255003507
3874.361,0.6357452033475044,1576.675973776154
3875.2524,0.633550592073585,1377.4873896925808
3876.1438,0.632553302738332,1849.8272822733459
3877.0376,0.6313186969579918,2040.3288326923694
3877.9297,0.6283582744558877,1123.975304557433
3878.8237,0.6226990587240027,1297.1137933000641
3879.716,0.6141910226803166,1755.61467876825
3880.6108,0.6033104792792319,1830.4525793658938
3881.5037,0.5909775593735748,1918.5031823356635
3882.3965,0.5779559403564781,2071.596371722452
3883.2917,0.5646103699912511,2022.4926278522885
3884.185,0.551031258236843,2235.4771106452804
3885.0808,0.5371034428668082,1381.6695784643084
3885.9746,0.5231760308583459,1988.8765575918158
3886.8706,0.5100470725382893,2241.3639265050315
3887.765,0.49915429009464574,2115.810962105914
3888.6592,0.49200851067707996,2518.295782426134
3889.556,0.4898030505366422,2858.4016667597634
3890.4507,0.4929640267422597,2785.9194717221762
3891.348,0.5009662266320164,4028.8619016557495
3892.243,0.5124679290230848,2394.4392409606903
3893.1406,0.5259698186251578,1928.6388542363586
3894.0361,0.5401388893759459,2156.6455777845904
3894.932,0.5543163892122683,1579.9182866198348
3895.83,0.5682538863154968,1651.189905951674
3896.7263,0.5816718013291945,1590.4502884333654
3897.625,0.5943268111429386,1546.905237088011
3898.5215,0.6058585854176838,1699.0264486205308
3899.4207,0.6162208425006269,1665.467704428812
3900.3176,0.6254566472567145,1268.4835279829454
3901.2148,0.6337815468305349,1393.9356776132204
3902.1145,0.6413799651972383,1198.4461169469114
3903.0122,0.6483763794454566,1629.782839315899
3903.912,0.6550444644367203,1285.9191140058913
3904.8103,0.661699716296985,1429.4060817376198
3905.7107,0.6687166350709127,1669.2754489640383
3906.6094,0.6762315134235728,1397.1217164752911
3907.508,0.6841283740773113,1113.0410963208358
3908.409,0.6920518767844182,946.4449270746657
3909.308,0.6995457958910306,1177.485729791215
3910.2097,0.7063716474494192,1187.8271226530906
3911.1091,0.712416830913418,1503.9758590447345
3912.011,0.7177413792962577,921.6004781493452
3912.9111,0.7223809906004365,1286.0470165182517
3913.8113,0.72645708659812,953.5170683399913
3914.7136,0.7301852828418939,1333.6570129974484
3915.6143,0.7338263511173795,1168.6470449572244
3916.517,0.7376038437265812,944.4599440688046
3917.4182,0.7414519277177795,1128.2483247013424
3918.3215,0.7450177196375459,1297.0755539487463
3919.223,0.7477947080589102,1098.8296492894658
3920.1245,0.7495392203036998,1281.0743658306283
3921.0286,0.7504517639646175,987.8848826738349
3921.9307,0.751051646787304,991.861744124265
3922.835,0.751831259753094,1160.48686887616
3923.7373,0.7529504536990373,1115.2104925139752
3924.642,0.7542257232415824,1246.697905340994
3925.5452,0.7552995716545882,994.2229962431522
3926.448,0.7558866489970745,1172.7326906964777
3927.3535,0.7558630774994007,1137.0386045430675
3928.257,0.7551993776113091,986.4305941483778
3929.1628,0.7538186293521486,1004.493076454313
3930.0667,0.7515764811401253,1079.743151432763
3930.9731,0.7483991846139634,1084.7645328418578
