wavl,flux,ivar
3566.9744,1.8614277083483695,184.38901471061715
3567.795,1.858500817382899,201.8856685242382
3568.6177,1.8505634660071137,198.80658020032217
3569.4385,1.8396443816998016,178.73949547114054
3570.2617,1.827752680271021,176.36609594027655
3571.083,1.817039260203616,186.551779483264
3571.9065,1.809466903470831,196.0521060367251
3572.7283,1.8063976616375026,203.19036926089737
3573.55,1.807647161824953,192.66601342395103
3574.374,1.8114409120274115,213.83003534299377
3575.1963,1.8152749528766101,179.82035621547948
3576.0208,1.8173063915448164,197.00458274386355
3576.8435,1.8169283768750668,212.17391161159065
3577.6682,1.814411729344275,195.73134391459584
3578.4915,1.810225156754786,194.03484883544579
3579.3145,1.8048030046642385,185.27704889586437
3580.14,1.798764968984176,172.12386622856428
3580.9636,1.7931078877905093,179.55762760899165
3581.7893,1.7888092228101142,210.4861908397915
3582.6133,1.7864475273293998,241.13374783256978
3583.4395,1.7859610783821551,194.4312057478134
3584.264,1.787016000291629,160.26490370002344
3585.0884,1.7894354766775709,191.81371630545686
3585.915,1.7932413722108589,164.2254546338055
3586.74,1.7981476808677854,203.82462509482474
3587.5671,1.8032025732057553,194.47221620775017
3588.3923,1.8068094466658624,146.01591147178667
3589.22,1.8074021291260027,185.62956607688807
3590.0457,1.8040581169682794,177.1072769054707
3590.8716,1.7969278480058486,214.38039149155745
3591.6995,1.787161555460157,199.01661747165537
3592.526,1.7764955360423174,186.17086395628112
3593.3542,1.7663301644976726,209.53462698269
3594.181,1.7573571816227471,199.00546481773108
3595.0098,1.7494933318544565,186.15879477175324
3595.8367,1.7426011835653659,233.82185202211147
3596.6638,1.7367453564146023,233.86156714066573
3597.4934,1.732197122210688,179.93362682283254
3598.3208,1.7291609811677147,222.3233402484319
3599.1506,1.7275240076166487,162.80286286999015
3599.9788,1.7269480826284462,266.4145121306758
3600.8088,1.726979355830036,240.48025950825718
3601.6372,1.727350089800489,223.83239850029216
3602.4678,1.7283233561136366,203.92579489419674
3603.2964,1.7307527125378512,210.3369652533172
3604.1252,1.7355717815160436,262.68001515782527
3604.9565,1.7429038711124425,189.15832337736117
3605.786,1.7514431625341753,208.6914452486229
3606.6172,1.7590502847810021,199.01781409309774
3607.447,1.7638063559415635,181.95739775379042
3608.2788,1.7650777785933156,241.51543050515488
3609.109,1.7634750182456675,184.46583510124555
3609.9392,1.7601940689588187,201.3724933788803
3610.7717,1.7562624139044827,222.00919306251774
3611.6023,1.7522824484059392,200.53972411437607
3612.435,1.74850382336194,197.639211309245
3613.266,1.7451666263062997,200.7559985286673
3614.0994,1.7424716071512412,214.74227430661713
3614.9307,1.7404490265378982,197.65756085244735
3615.7625,1.738818691793593,184.78445925491664
3616.5962,1.737196595251077,219.63195234852748
3617.4282,1.7353204273041694,203.60320461604726
3618.2625,1.733050826094158,185.58928620856554
3619.0947,1.7303171111111924,169.54733366483885
3619.9292,1.7270421000593124,208.86508241098505
3620.762,1.7232524606075634,211.67718584659494
3621.595,1.7191117374590117,233.97997514323268
3622.4302,1.7150249515961102,215.15806486133982
3623.2634,1.7116705677213317,217.84107297500793
3624.0989,1.7097215821080531,248.22587352808628
3624.9326,1.7095462212985606,221.6475040526831
3625.7686,1.7109736355460712,231.7315742315147
3626.6028,1.7134420627380145,188.86129884785697
3627.437,1.7162911822295344,217.3660528067319
3628.2734,1.7188442294894788,200.44662180808146
3629.1082,1.7202695530816965,210.0906001218085
3629.945,1.7195921744881564,196.24659329607863
3630.78,1.7159469035939534,239.57462757537408
3631.6174,1.70901753515442,205.17809260316136
3632.453,1.699496657196527,232.83712449027263
3633.2883,1.6889388855034584,234.08279595470597
3634.1262,1.6791750346821441,360.6021881953369
3634.9622,1.6715390830191872,212.02517891137805
3635.8005,1.666223010496006,213.32501592148856
3636.637,1.6626456847229087,219.53053815544624
3637.4756,1.6598766956160091,261.24631441654265
3638.3123,1.657136730157023,193.62710664642717
3639.1492,1.6539520377725512,309.2429434485283
3639.9885,1.650238796002006,226.37608708409238
3640.826,1.6462173471728512,242.00733844454882
3641.6653,1.6420690116768024,269.2722443643941
3642.5032,1.6378400039091787,239.79979680496018
3643.343,1.6335310052680316,237.70472667796759
3644.1812,1.629481188859829,238.21232779044882
3645.0195,1.6263411962164576,222.43076902737812
3645.86,1.624699662799393,288.36815269275496
3646.699,1.6245667117087046,224.20545848109813
3647.5398,1.6252368577089769,235.33052957200104
3648.379,1.625690112595903,208.98517014661778
3649.2202,1.6250834675692898,236.94637916829956
3650.0596,1.62290717122667,259.69450658464183
3650.8994,1.6188441560144657,237.2551841720356
3651.7412,1.6127702169490754,266.72613169956406
3652.5813,1.6051571933691804,242.04796904663175
3653.4236,1.5972613246604601,254.49165298757015
3654.2642,1.5909206535617364,259.5649990828358
3655.1067,1.5875607526742637,211.71881484356192
3655.9475,1.5876284761038373,273.47121946004864
3656.7886,1.5905751911591348,262.23515287605784
3657.6318,1.5953895444843433,272.11818340394706
3658.4734,1.6009512537605322,258.66192747858304
3659.317,1.6063942977121284,222.48541920564043
3660.1587,1.6112639023527688,238.9989883571625
3661.003,1.6156245381355723,271.03223071698073
3661.845,1.6196264647899183,214.13495437158446
3662.6875,1.6232865008254853,220.17999826127246
3663.532,1.6265477090907599,215.1996672789369
3664.3748,1.6294886229472623,252.2326319244051
3665.2197,1.6321851331213042,229.65641801956147
3666.063,1.6342431615150124,245.4447282413338
3666.9084,1.6348839611469779,231.83018959016817
3667.752,1.633528337143038,216.28242825028147
3668.5977,1.6302930460684952,260.8838527201053
3669.4417,1.6258437814035736,244.5689933810084
3670.286,1.6208655921915196,220.0037308648665
3671.132,1.6159261442805761,240.30812643884528
3671.9768,1.6117290991188395,245.30368788628343
3672.8235,1.609128787735183,227.50007826999814
3673.6685,1.6088249735710272,206.2820590282845
3674.5156,1.6108031334286577,227.36544383614503
3675.3608,1.6141680018398508,237.91317880006193
3676.2063,1.6175235465983266,233.93047162467687
3677.0542,1.6195588830459293,262.17118123323996
3677.9,1.6195040744742575,232.59961657708274
3678.748,1.617344546510858,254.47914760627913
3679.5945,1.6137478612327087,252.84363879622614
3680.4429,1.6097578737887666,188.4583865412663
3681.2896,1.6064488224040763,253.77979153451912
3682.1365,1.6044546788490681,251.5088511456611
3682.9856,1.6037037584072165,224.71697354396065
3683.8328,1.6034063481811083,248.5319965159455
3684.6824,1.6024681085412278,292.68316628236073
3685.53,1.600171573812291,264.50499256510477
3686.38,1.5965874190922562,238.9517662947041
3687.2278,1.5925258051040978,230.38675396582687
3688.0762,1.588972761687401,274.5695908809273
3688.9265,1.5865794859232694,260.71710388394
3689.7751,1.5854399887033805,249.80799790493435
3690.626,1.5853018878554774,240.46759536583264
3691.475,1.5860625295105737,237.71198536209818
3692.3264,1.5879769818385052,246.89412248183305
3693.1758,1.591316002813327,290.90838989287664
3694.0254,1.595852954103608,244.40295942626943
3694.8772,1.600707407603865,206.7946335885438
3695.7273,1.6047491175114235,224.6305812415844
3696.5793,1.6073017416169297,242.40543170182494
3697.43,1.608330089279344,222.92518310861882
3698.2825,1.6082221603445113,266.7902512614282
3699.1333,1.6073337127479588,232.5773138970729
3699.9841,1.6057542678248646,221.98660033776406
3700.8374,1.6033607567447001,233.37660745326198
3701.6887,1.6000701212800577,236.284802788751
3702.5425,1.5959534557029427,246.8523583526274
3703.3943,1.5912540802579414,227.21461449546288
3704.2483,1.586112779477712,262.09668035831845
3705.1003,1.5805516264231663,198.44506702480027
3705.9526,1.5744997923843562,271.9319690177058
3706.8074,1.5680438935355834,251.87201234547408
3707.66,1.561611227092019,227.5568460985459
3708.515,1.5557903187021507,286.99740043962424
3709.3682,1.5512519785778616,251.68971708744672
3710.2234,1.5484057068610397,283.9809699379642
3711.0771,1.547345759453708,268.3473200821201
3711.9307,1.5477786286164497,280.0656622135949
3712.7866,1.54906374637211,297.6895251324487
3713.6409,1.550255743559177,243.08074047928707
3714.4973,1.5503599661503489,256.96151143071853
3715.3518,1.548720928276228,234.42797953660806
3716.2085,1.5453541623629217,231.29071332739304
3717.0635,1.5410184447253987,248.15502252246063
3717.9185,1.5368533981296773,253.39155825671932
3718.776,1.5338369601629966,244.78290445046574
3719.6313,1.5322813068050363,284.81118842509045
3720.489,1.5316347819806069,250.75712157104985
3721.345,1.5309123753404021,266.71207762332597
3722.2031,1.5293278063789386,219.79443233857955
3723.0593,1.5267329400501484,248.84586122890119
3723.9158,1.5235439806875906,286.3588581981206
3724.7747,1.5204223025335035,320.16088143333195
3725.6316,1.5179896900637584,245.19919803354827
3726.4905,1.5165982268309084,288.73579734261637
3727.348,1.516314399166786,251.81190422081275
3728.2073,1.5169024173829917,268.95249173944126
3729.065,1.517870058164553,268.33365373045064
3729.9229,1.5185622280879751,236.8292223729459
3730.783,1.518338101568378,271.238085610906
3731.6414,1.5168382970213976,252.3686075910075
3732.5017,1.5141818210072568,292.2301872179905
3733.3604,1.5109689547109353,255.72351418092913
3734.2214,1.5079693212617975,313.61855214035455
3735.0803,1.5058292870055967,252.9275132448876
3735.9417,1.5047941011498829,308.6909690766979
3736.8013,1.5047212367167775,239.69175604561173
3737.661,1.5051540907018721,261.0136435109744
3738.5227,1.5054838311928773,262.0382030264792
3739.3828,1.5051141138023902,236.31963229866318
3740.245,1.5036827138457813,290.3578422654037
3741.1055,1.5013096916593078,276.91319597152454
3741.9683,1.49861888922299,297.3120878646825
3742.829,1.4964486743627154,296.46312924100386
3743.69,1.4952828117725785,350.10354663460674
3744.5532,1.4950675095301862,259.76579239772747
3745.4148,1.49551192130431,288.4000400323755
3746.2786,1.4965091870421847,272.76150821027113
3747.1404,1.4981577270483044,303.54431724994134
3748.0044,1.5004384810371385,299.2971736098472
3748.8667,1.5029490906020586,294.60885606619854
3749.729,1.5051135260694353,244.6798311529721
3750.5938,1.5065281149045326,334.70726313241164
3751.4565,1.5070490146726214,250.4199849600335
3752.3215,1.5065629538020961,251.91822664653094
3753.1848,1.5048086142101338,271.1966455448953
3754.0503,1.501641638737147,251.05722068835456
3754.9138,1.4975113876216621,263.9220034317957
3755.7776,1.493407638142014,297.12375501398026
3756.6438,1.490277434724586,261.49284284335357
3757.508,1.4883669306354645,290.7233187528252
3758.3745,1.4870405263946187,314.73402186204754
3759.239,1.4853791584437728,279.4279173677032
3760.106,1.482944728355472,291.1727061377298
3760.971,1.4802308012401986,289.3970807400864
3761.8362,1.478333078019372,272.68205649902654
3762.7036,1.4782455748712717,268.4537755656717
3763.5693,1.480226927627708,277.96853189221173
3764.437,1.4836154648141833,343.5513099039415
3765.3032,1.4870471012861775,269.4631633231423
3766.1714,1.4890583966917543,290.554066967103
3767.0378,1.4887527665153124,270.3399697473511
3767.9043,1.4862938349096875,273.251001599648
3768.7732,1.4827040987389077,272.7961440364696
3769.6401,1.4792074627312575,323.2246916365425
3770.5095,1.4764738822468664,270.8130183808166
3771.377,1.4744822881075637,296.23651005094143
3772.2466,1.4727758629760375,289.11775075390335
3773.1145,1.471027444840121,265.22235607711065
3773.9824,1.4694051963978287,256.0851923389858
3774.8528,1.4685822988110693,255.7037709768004
3775.721,1.4692421241506197,277.05994625645866
3776.5918,1.4713711528073061,264.465287206009
3777.4604,1.4739651513390506,308.98253325009654
3778.3315,1.475587243352566,321.7973613316418
3779.201,1.4752858166168883,288.60433429548266
3780.0703,1.4732221911331038,268.4045095317504
3780.942,1.4704399572736637,288.7364406140859
3781.8118,1.4681774655451787,299.05954135032147
3782.6838,1.4671636129718881,270.01246979766916
3783.554,1.46740609660089,309.84215776268337
3784.4265,1.4683382197139911,269.1735439655104
3785.297,1.4691900627845287,284.50424695596564
3786.168,1.4693647007593058,259.60584391835414
3787.041,1.4686094285733247,295.539998852188
3787.912,1.4669555646441164,281.9208399790744
3788.7856,1.4644961614866119,271.98720715355415
3789.6572,1.4613519930844947,290.4061573779636
3790.531,1.457788901863224,271.8707064592647
3791.403,1.4544149860555058,293.2238454641662
3792.2754,1.4519541101881372,261.50874944800665
3793.15,1.4508701039068803,307.7966523587007
3794.0225,1.4510992660961608,307.4726489857574
3794.8972,1.4521221175057217,265.27771339555767
3795.7703,1.4532192335682002,308.1953501543058
3796.6455,1.4536414695638231,278.90684563247135
3797.519,1.452665337132252,273.2942998393714
3798.3926,1.4497790921934604,289.8400970465722
3799.2686,1.4449959964175803,279.9730317081658
3800.1426,1.43918746117205,319.8486869051451
3801.0188,1.4338842102966343,285.32629235730326
3801.8933,1.43073096967944,345.48912044485223
3802.77,1.4305390779957359,312.98028935727245
3803.6448,1.4328567423017526,300.9164314364279
3804.522,1.4363112809026648,316.0970611007223
3805.3972,1.4394909194082983,284.499705888275
3806.2727,1.441735878714369,328.6348853152485
3807.1504,1.4431535306176124,308.81639139194823
3808.0261,1.4441302626514112,286.4846403640015
3808.9043,1.4448791612032497,322.00750699734834
3809.7805,1.4453452110251686,305.0833051707513
3810.659,1.4454885152405614,298.5100456749812
3811.5356,1.445510791957211,259.96145319827303
3812.4126,1.4457563063534256,256.6859785437736
3813.2917,1.4463587102346318,292.3331813509484
3814.169,1.4470105071355888,265.8671686609833
3815.0483,1.4471261718744437,289.04494751693846
3815.926,1.4462566399951726,332.52171196058345
3816.806,1.4445108635449697,250.48365908417452
3817.684,1.4428798064597603,277.02212322914863
3818.5623,1.4434640791816662,276.9435298298369
3819.4429,1.4495767824364258,309.67603811886
3820.3215,1.4648606222398066,319.78887091921746
3821.2024,1.4909644018209633,282.149706698482
3822.0815,1.5238507132515426,314.94105391061066
3822.963,1.5531429710504059,331.51984832412774
3823.8423,1.5660068653876054,243.3656522786617
3824.722,1.5556948061331446,309.2776797480768
3825.604,1.5260871622461067,318.7486065143348
3826.4841,1.4892095359765085,332.69977205925505
3827.3665,1.4567027699097141,343.6032279926298
3828.2468,1.4344524141635833,319.8498838993724
3829.1296,1.4217697920575358,297.6509176253596
3830.0105,1.4150860376093781,337.36529699213554
3830.8916,1.4107958740305955,314.8248684477618
3831.7751,1.40675262212931,277.9371030386066
3832.6565,1.4022882925441653,335.0846155243627
3833.5403,1.3975943106400384,344.8116863598529
3834.4224,1.3931561415127944,332.4146589410923
3835.3064,1.389193050150256,298.9276037176652
3836.1887,1.3856547808144133,320.97932397461517
3837.0713,1.3824499120627973,351.7404524432031
3837.956,1.3797827266512896,315.1530794228138
3838.839,1.3781710666339797,349.7383647070631
3839.7244,1.3781496081022007,326.12198120518605
3840.6077,1.3800375448660591,346.3666857704825
3841.4932,1.3838307992465069,399.4676071138012
3842.377,1.3891177271606923,347.4068712380348
3843.261,1.3951043409685,322.0976599693007
3844.1472,1.4007089972606546,315.07144835718304
3845.0315,1.4048204753938978,291.68869027858557
3845.9182,1.4067524793276998,255.51173410195452
3846.803,1.4064369587035133,295.16517492217423
3847.69,1.4045062578348624,306.54265944902687
3848.5752,1.402057327392709,303.805308459585
3849.4604,1.400184439875149,309.0634564708778
3850.3481,1.3995767497039777,310.5531225683347
3851.234,1.400384748670853,319.7564025862057
3852.122,1.4023706810247327,316.91108176075886
3853.0083,1.4051189172458383,290.07415774472855
3853.8967,1.4081924356160154,284.4549537554002
3854.7832,1.4111163965586746,283.6555309835115
3855.6702,1.4134475835719413,318.29653345460645
3856.559,1.4148140510482523,279.17505379851667
3857.4463,1.4150272595796065,306.449740954773
3858.336,1.4141388156979544,332.96979281507475
3859.2234,1.412321462585801,304.80298993901016
3860.1135,1.409672205321833,285.21006711394335
3861.0015,1.4062471408479784,331.219449470521
3861.8896,1.4022137394906877,313.81028323969133
3862.7803,1.3979930118548487,359.3745105302333
3863.6687,1.3941354970506865,299.2983852058685
3864.5598,1.3909436700740083,346.45187134891535
3865.4487,1.388423084606013,335.75358285642005
3866.34,1.3863324361022646,350.4847230282299
3867.2297,1.3844027330254218,315.3829610891542
3868.1213,1.3823621967737063,325.87782542865676
3869.0112,1.3800250062022799,313.53445694534435
3869.9014,1.3773709778800471,297.3020156031155
3870.7937,1.3746019688705127,327.56442321112564
3871.684,1.372041049848077,349.1204823084633
3872.577,1.3699191360858698,319.62137522312764
3873.4678,1.368376412932215,338.5763555531114
3874.361,1.3674643710662793,348.12765128687056
3875.2524,1.367155913278247,356.96625623178534
3876.1438,1.3672323070162795,305.62502387622203
3877.0376,1.3672567680539889,359.0215429782574
3877.9297,1.3666976516974432,346.3691526242918
3878.8237,1.3651998741988771,314.141629151894
3879.716,1.362853503248044,331.4180043318938
3880.6108,1.3601624888778392,354.3871260668112
3881.5037,1.3577158565300886,380.82381367880714
3882.3965,1.3556744343516915,327.905451939172
3883.2917,1.3536616532004115,313.3905025703572
3884.185,1.3511409668292622,250.55606191241037
3885.0808,1.347890145913815,364.5896246795166
3885.9746,1.3442304340997437,366.7781529898626
3886.8706,1.3406812414214109,367.4640477979123
3887.765,1.337588767873826,363.01752210589325
3888.6592,1.3348897018003978,360.7225356046456
3889.556,1.3323334556988171,338.3923730712849
3890.4507,1.3298741197622275,370.1233940168578
3891.348,1.3278355252281229,330.2383974529724
3892.243,1.3268141878360848,334.06894168536763
3893.1406,1.3272842722018403,328.4483309292244
3894.0361,1.3293487593855793,370.6506189398538
3894.932,1.3327633011259001,373.89511958541874
3895.83,1.3371593958065664,369.54928409257474
3896.7263,1.3421560538707136,305.1820855990473
3897.625,1.347437451312152,321.08167976213275
3898.5215,1.3526168051015137,361.7625932030459
3899.4207,1.357415825917889,305.8614194268392
3900.3176,1.3616900582639118,315.5688675019406
3901.2148,1.3655070883570875,309.507263227402
3902.1145,1.3689159361805643,335.04118411979283
3903.0122,1.3718448155030507,293.45808146925054
3903.912,1.3743671991560038,303.10350797319984
3904.8103,1.3769055685089922,332.0840590670735
3905.7107,1.3801638830781968,337.2153626984411
3906.6094,1.384582169268094,342.25219621944467
3907.508,1.3899972535799734,318.9231228841572
3908.409,1.3957555523641376,347.56683988903234
3909.308,1.4011388218800265,296.1477321479206
3910.2097,1.405795069612718,298.59602879558634
3911.1091,1.4095719029885607,289.3750899514981
3912.011,1.412304303436392,298.58551375286856
3912.9111,1.4136299051355485,337.6553998163782
3913.8113,1.413334972689741,301.0766750499313
3914.7136,1.4117631325210986,328.2104691512326
3915.6143,1.4099335557235857,312.526715857417
3916.517,1.4090328147117783,363.42491446263733
3917.4182,1.4096944583945996,301.9092314708933
3918.3215,1.4115972702061774,329.18717009569775
3919.223,1.413732141132681,279.2281590145552
3920.1245,1.415116412470157,332.13412908141635
3921.0286,1.4153170347405843,283.30738778900024
3921.9307,1.414507193935874,293.28395787400245
3922.835,1.4131456209758388,342.77354968522553
3923.7373,1.411667429621888,277.21536225721695
3924.642,1.4103685971176425,300.13431237696324
3925.5452,1.4094751222016673,328.6366652878543
3926.448,1.4090945289741275,340.412414723742
3927.3535,1.409065098715391,315.61760512731007
3928.257,1.4088210576063032,315.02248982975675
3929.1628,1.4075283991090008,332.0850576441481
3930.0667,1.4045324041290055,312.1402559979835
3930.9731,1.399749024487505,292.63751972597134
3931.8774,1.3938096676503322,300.3622988717647
3932.782,1.3876960008233,332.16026505767906
