wavl,flux,ivar
3566.9744,1.6983730980912566,238.47582428471432
3567.795,1.6900637037311566,266.0387374936784
3568.6177,1.6787979407510347,262.53965894138037
3569.4385,1.6674000130437812,268.13512805010555
3570.2617,1.6579440870380622,255.22400127150212
3571.083,1.6515159241380466,214.76430832643385
3571.9065,1.6481142832949103,237.06160575011353
3572.7283,1.6471103559533549,266.020168906325
3573.55,1.6474744276245576,215.1427111644785
3574.374,1.6481034719974452,267.4993107538932
3575.1963,1.6481230197837626,263.16356287878307
3576.0208,1.647081861383982,271.81119133771585
3576.8435,1.6448294068340839,262.2127478662688
3577.6682,1.641192795026906,233.2103218290342
3578.4915,1.63591166029993,270.4280115646516
3579.3145,1.6288620334681299,257.7971850749679
3580.14,1.620502700802658,284.8561962811973
3580.9636,1.6122887254834048,241.2500174876179
3581.7893,1.6063958929479476,370.2749036863745
3582.6133,1.6050825325864664,313.78649966204006
3583.4395,1.6094488298598044,287.84628547123356
3584.264,1.6185929347150787,283.2650276550761
3585.0884,1.6298080988812234,267.27080352005265
3585.915,1.6397967084331235,266.84983171439393
3586.74,1.6460988346012468,276.34047443293775
3587.5671,1.6481128685765563,284.02998609594647
3588.3923,1.6467363378787179,284.00445580826806
3589.22,1.643429232849819,267.9634463012719
3590.0457,1.6393470726166657,246.96710978414848
3590.8716,1.6350932177522244,248.32517447881136
3591.6995,1.631110057678457,242.28439883244403
3592.526,1.628005596779279,256.8676201437261
3593.3542,1.626272478172812,251.42407741117046
3594.181,1.6258213236432626,348.14195065413753
3595.0098,1.625857360723996,320.76761216787827
3595.8367,1.6255142267894656,267.73209581368866
3596.6638,1.624606280874418,297.17790238910754
3597.4934,1.6236894397167845,349.7826011898684
3598.3208,1.6233394496995415,320.36962287004104
3599.1506,1.6233811320465574,279.1890079189817
3599.9788,1.6229364568832516,262.7398402689462
3600.8088,1.6212418537653932,309.65436545709184
3601.6372,1.6184958640467413,297.6669515813148
3602.4678,1.615904836844384,248.536404806382
3603.2964,1.6149459820162635,213.99616740885196
3604.1252,1.6162962002588646,310.2278109328588
3604.9565,1.619382243671241,330.8228376803221
3605.786,1.6227419466413904,269.0718947496874
3606.6172,1.625037906103983,299.3243863935066
3607.447,1.6257409536413223,277.6892249857223
3608.2788,1.62515551003055,320.4698285307008
3609.109,1.6238288808708479,278.3450676800537
3609.9392,1.6220080625911526,302.52136988492185
3610.7717,1.6195431011185961,249.32446032561793
3611.6023,1.616175461199467,272.61001077357054
3612.435,1.611789617032438,260.19698364093466
3613.266,1.606612681528327,280.08963116517623
3614.0994,1.6010677395677233,277.4928099682796
3614.9307,1.5956706059485553,251.73213620157406
3615.7625,1.5907692655251289,272.3177745037271
3616.5962,1.5865994855473258,241.3844629787579
3617.4282,1.5833838451770585,261.8073567809186
3618.2625,1.5812361081108692,290.53212878391946
3619.0947,1.5800421009591454,307.7525859851772
3619.9292,1.5793520822476297,252.37730403461865
3620.762,1.5786466100462233,260.57764523403023
3621.595,1.5776887180086432,265.417831622914
3622.4302,1.5766341313354395,318.7894918176965
3623.2634,1.5757344453092368,264.7355897928071
3624.0989,1.5749337597193573,310.0601787650631
3624.9326,1.5738848997021235,271.160721709
3625.7686,1.5723136518345575,318.27783304615315
3626.6028,1.5703073062782715,309.8934111107538
3627.437,1.5680993769364755,296.35858714496584
3628.2734,1.5657325378394704,336.1453334571801
3629.1082,1.5631219303047692,263.9759333902819
3629.945,1.560436296191729,237.11014009910056
3630.78,1.558372632294944,361.4594563567854
3631.6174,1.557751966064089,285.38602931046086
3632.453,1.5588921534947293,324.307423898838
3633.2883,1.5612638048633767,293.27394315749433
3634.1262,1.5638356012431989,269.9189442467036
3634.9622,1.56572668496998,323.54351668812825
3635.8005,1.566697730609732,271.31837762206203
3636.637,1.5669746755408303,258.62106836195323
3637.4756,1.5667665271634112,242.10436718127414
3638.3123,1.5659301921184372,270.8080145520278
3639.1492,1.5641200333966785,269.96050162141154
3639.9885,1.5611882920023141,304.8000846257072
3640.826,1.5574691488205836,282.86048443545474
3641.6653,1.5536482011920973,282.94883992417755
3642.5032,1.5505236361435832,305.08517230442925
3643.343,1.548557192030904,314.46753272710384
3644.1812,1.5476107022168657,271.47492835401414
3645.0195,1.5469926098707603,317.58934442733045
3645.86,1.5460502677165988,281.50836458249427
3646.699,1.5448152260600583,275.185460476986
3647.5398,1.544082480514916,286.3123217191773
3648.379,1.5448453457459594,268.8989546565466
3649.2202,1.5475399677346342,210.45111442468797
3650.0596,1.551690343676633,337.6016264078429
3650.8994,1.5561995750980333,293.56823003556633
3651.7412,1.5598547194369061,313.16055372857926
3652.5813,1.5617461956412486,307.9905133019902
3653.4236,1.5615660757914196,230.72105159723122
3654.2642,1.559674369993803,259.9356105576879
3655.1067,1.5569242309241393,279.0468650604078
3655.9475,1.554203230070062,254.74124693796387
3656.7886,1.5519727819913207,282.29307571037134
3657.6318,1.5502853884361445,258.6931957252998
3658.4734,1.5490149408845133,309.2396356856551
3659.317,1.5478743040189729,338.0808029458966
3660.1587,1.5464169148110882,313.5606948423837
3661.003,1.5443272450306376,284.61195239740937
3661.845,1.541955870884829,322.02492124372054
3662.6875,1.5403190440387213,292.64441495118785
3663.532,1.5405181597624527,321.30326588724597
3664.3748,1.5430064544460342,302.79076020488054
3665.2197,1.5472728661281154,321.50457350212616
3666.063,1.5518968828059638,254.3920797270896
3666.9084,1.5550678807030636,221.94262161163508
3667.752,1.555319213740498,309.0917171724731
3668.5977,1.5524024988407306,308.09030311235034
3669.4417,1.54754433904079,297.4583690038014
3670.286,1.5428252111491003,328.0295589892032
3671.132,1.5401180507298105,287.3132777923052
3671.9768,1.5402051219820811,320.2611839467295
3672.8235,1.5425060163584365,257.51164035511505
3673.6685,1.5455373861032071,347.6495565964156
3674.5156,1.5477680164132839,257.42158028768154
3675.3608,1.5482976387155671,269.58570224811854
3676.2063,1.5471428503085642,300.46045767714793
3677.0542,1.5449586064460858,280.3880269680354
3677.9,1.5426157907476288,296.6654161023836
3678.748,1.540794563735477,304.43989366792493
3679.5945,1.53986731257654,296.021090175834
3680.4429,1.5398415270029349,300.7614601811533
3681.2896,1.5404001720742648,285.5011616060291
3682.1365,1.5409684806151955,279.84336692740254
3682.9856,1.5409274973215548,324.57570462580645
3683.8328,1.5399875486521322,346.46129910076564
3684.6824,1.5384660041060245,310.79751291855416
3685.53,1.5371209375645816,288.59215808921243
3686.38,1.536455917902686,398.1115375102612
3687.2278,1.5361442323590047,266.9222423169388
3688.0762,1.5351560232250523,328.29361495688823
3688.9265,1.5326628081155624,255.75529955725068
3689.7751,1.5289853669465254,304.33833502836416
3690.626,1.5256148111641432,281.5956559520581
3691.475,1.5242530922373694,327.06600745485616
3692.3264,1.5254521392436171,339.36153450184906
3693.1758,1.5281552656985344,273.7137805403943
3694.0254,1.530502255957716,262.4397583788241
3694.8772,1.5311441346563959,281.82190227894006
3695.7273,1.529975620272749,289.7818323784481
3696.5793,1.5278357787634926,381.1118120314472
3697.43,1.5256632602901425,294.962793259848
3698.2825,1.5238222752297257,262.0734653956636
3699.1333,1.5220504547727287,322.99377603774974
3699.9841,1.5197846555220762,298.1440719938332
3700.8374,1.5166417181005452,276.7615340198288
3701.6887,1.5127428461203893,316.44194024827453
3702.5425,1.5085552725641787,366.36108268114845
3703.3943,1.5045803440134267,286.06269941846045
3704.2483,1.5010450596438727,280.3241357606499
3705.1003,1.4981839350631072,303.8246856446269
3705.9526,1.4964682043366602,319.1675331315128
3706.8074,1.496466153119751,378.74565044599194
3707.66,1.4981961063706661,326.81044429436145
3708.515,1.5007001656625205,383.8527366739315
3709.3682,1.5023346860044753,259.40731960444737
3710.2234,1.5017262761042816,312.9870349204646
3711.0771,1.4985960267381597,309.3067748775685
3711.9307,1.4938609297379228,311.59961118259645
3712.7866,1.488908306833898,319.989682290924
3713.6409,1.484748211439802,307.1935121199353
3714.4973,1.4815263771058413,278.04649159018936
3715.3518,1.4788539503600195,342.14271743067025
3716.2085,1.4762566540993587,298.6429816093804
3717.0635,1.4736065154969842,384.11116488782415
3717.9185,1.4711813558356313,361.76072973037367
3718.776,1.4694998815184501,275.7525507524532
3719.6313,1.4689694917512885,330.8174852653724
3720.489,1.4696006606357443,349.98084352971455
3721.345,1.4710584935010667,343.21938895627784
3722.2031,1.4728739647687472,342.57920834799444
3723.0593,1.4745701066093206,323.15191867891514
3723.9158,1.4758021847146439,346.76955378271435
3724.7747,1.4764995197665645,372.7427642312118
3725.6316,1.4769441487108959,268.7522814637365
3726.4905,1.4775860588390033,275.93769673302427
3727.348,1.4786287432202232,268.07111091959564
3728.2073,1.4797794194234077,377.55211021004175
3729.065,1.4803901968651625,320.098972122607
3729.9229,1.4799471284649621,308.9040966740965
3730.783,1.4784235015474199,338.75804208222365
3731.6414,1.47626526182723,340.43748900635967
3732.5017,1.4740671880283491,332.1871217957376
3733.3604,1.4724004744559978,341.5941623443661
3734.2214,1.4717432865776925,350.20939865173597
3735.0803,1.4723935778973072,301.658066547695
3735.9417,1.4741979478297687,323.72294873978154
3736.8013,1.4764415752198574,289.5648136831356
3737.661,1.4782081892921877,270.8633786836507
3738.5227,1.4789022825544131,349.21362865392524
3739.3828,1.4784446595386196,301.7000271058642
3740.245,1.4769518145996996,374.68834311659754
3741.1055,1.4743340651305097,299.7315291345894
3741.9683,1.470357933803832,288.4296301991177
3742.829,1.4653016604005769,288.00342138878074
3743.69,1.4603018805258914,373.51851768560743
3744.5532,1.4569528699413825,389.3024113110398
3745.4148,1.4562839234300153,340.0779630490551
3746.2786,1.457974574624964,344.17829326311914
3747.1404,1.4606234255743202,381.01390201481917
3748.0044,1.4627485681376167,321.07513497159175
3748.8667,1.4635852247210501,331.74054867419676
3749.729,1.4632132326044514,339.9962057903284
3750.5938,1.4620322784455058,360.53878886706224
3751.4565,1.4603178469221416,322.1564078684234
3752.3215,1.458204503907819,301.34832905958444
3753.1848,1.4560161488019738,400.29694094386474
3754.0503,1.4542988701102892,346.80574581099535
3754.9138,1.4535255194840189,302.6781896009808
3755.7776,1.4537477878173648,321.8999164014208
3756.6438,1.454690657264193,281.271063211867
3757.508,1.4560494318985475,289.516235159244
3758.3745,1.4576847096482382,409.7415333052033
3759.239,1.4595153765542717,361.3130388954288
3760.106,1.4613623520302637,320.4439584335789
3760.971,1.4627916030581156,340.96524773233733
3761.8362,1.4631951673671932,309.8628639676086
3762.7036,1.4620338851831165,339.9831485896113
3763.5693,1.4592272251706226,259.98592953888675
3764.437,1.4553005509691415,336.42311953179194
3765.3032,1.4511743210462564,326.16465492488226
3766.1714,1.4476048762268408,339.4717351644785
3767.0378,1.4449302717466275,315.3337718553335
3767.9043,1.4431211182803598,324.21269763063094
3768.7732,1.4421051224565746,379.7261184845302
3769.6401,1.4418996606448475,317.8349953683946
3770.5095,1.4424983081261922,338.0609443228051
3771.377,1.4437487037007322,298.4289853151338
3772.2466,1.4453592666188033,276.77169399911884
3773.1145,1.4469575348750663,308.88403856189666
3773.9824,1.4481963537052513,328.500174710366
3774.8528,1.4488370963196657,355.1290306807491
3775.721,1.4488486955827014,308.6841139039501
3776.5918,1.448410433450526,300.2588749679569
3777.4604,1.4477415372972635,368.5509630591851
3778.3315,1.446942948530389,316.4399386108585
3779.201,1.4460841098409078,284.4582709332341
3780.0703,1.4453551512342786,356.59783236677845
3780.942,1.4449917867275408,335.5697925162101
3781.8118,1.4449744615815918,308.8055780407653
3782.6838,1.4449355736272564,348.3163520366564
3783.554,1.4444999092697661,343.0368923525307
3784.4265,1.4436651451694422,292.8447428510618
3785.297,1.4427751804079845,361.70207642756986
3786.168,1.4420974065517864,368.209654984654
3787.041,1.4415069870153245,350.8414949500663
3787.912,1.440564770662343,313.42336522140226
3788.7856,1.4388683014364854,345.66642311960504
3789.6572,1.4364016045856205,302.470613934853
3790.531,1.4335355863798929,321.36537024666757
3791.403,1.4307793053323499,400.33560337261656
3792.2754,1.4283584642065161,328.53874992367224
3793.15,1.4261162686641242,333.1090674912125
3794.0225,1.4237672615820478,348.54958615734506
3794.8972,1.421200330286819,343.555419942346
3795.7703,1.4186444429180778,323.01293066562783
3796.6455,1.4164718518256385,377.9807554301216
3797.519,1.414996931415118,422.5812119856292
3798.3926,1.4143079483818546,390.9564883778441
3799.2686,1.4143361405971608,316.5825064508533
3800.1426,1.4150005631311497,379.2624625057027
3801.0188,1.4163204860968117,326.53232047455253
3801.8933,1.4183676408328638,324.2084225493864
3802.77,1.4211150629066673,407.6909260084268
3803.6448,1.424199065236215,378.7515720934205
3804.522,1.4269137873207816,355.0349466194531
3805.3972,1.4283612070024225,378.6844864028872
3806.2727,1.4278858170081115,358.4635062076782
3807.1504,1.4253767114707487,384.555265304404
3808.0261,1.4214033459173563,313.6424653463
3808.9043,1.4170037767257955,359.30331443951815
3809.7805,1.4134338155487867,325.85256372771175
3810.659,1.411709329491154,365.99805082947466
3811.5356,1.412293946168985,350.57081001818904
3812.4126,1.4148544348241643,338.6691086695827
3813.2917,1.4184019845215232,330.3985686134913
3814.169,1.4216541337973838,354.33713014858364
3815.0483,1.423580731009627,345.7263825429137
3815.926,1.423726654261705,365.0925793613827
3816.806,1.4223497386524895,388.7943195248953
3817.684,1.4201439870797055,376.30403548414733
3818.5623,1.4176907829434153,352.2567006125088
3819.4429,1.415097019769205,372.60314622310466
3820.3215,1.4121569979829467,383.70518060207655
3821.2024,1.408731007625461,341.7962204029084
3822.0815,1.4050204146121643,347.3133968809222
3822.963,1.4013382055854504,326.97192817646084
3823.8423,1.3978818307642331,375.99815844712884
3824.722,1.3945879668205226,381.48062177227536
3825.604,1.391312924340275,357.76463328956163
3826.4841,1.3880065596233233,393.85706012183687
3827.3665,1.3845882181658415,366.9566419702765
3828.2468,1.3808050711055055,355.7145037742801
3829.1296,1.3761376553447564,381.6964361970846
3830.0105,1.3702131173040402,407.7087939417792
3830.8916,1.363206512835158,352.86707328764413
3831.7751,1.356070307228643,356.99885927175495
3832.6565,1.3502941531815673,391.2162256462885
3833.5403,1.3470869548430429,346.92361550955565
3834.4224,1.3467726457930838,427.5301559468285
3835.3064,1.3484754184592687,356.78050527671843
3836.1887,1.350632994347429,367.78667693793085
3837.0713,1.3519898898156828,400.2842041681987
3837.956,1.3523133628560717,381.50013943959783
3838.839,1.352365269637737,414.33434709390525
3839.7244,1.353266177283624,399.44863607681407
3840.6077,1.3557750461387195,370.39382174595335
3841.4932,1.3599431338092094,330.01194518350485
3842.377,1.3651513762158538,304.9762589057829
3843.261,1.3706207276555948,410.03608099829563
3844.1472,1.3759105841036658,356.677257198036
3845.0315,1.3810306045320002,420.9452851090271
3845.9182,1.3861455794167852,388.35215607580545
3846.803,1.3909889379287896,366.3444634439706
3847.69,1.395012647520927,344.92273418018493
3848.5752,1.397950973874553,354.9575076848987
3849.4604,1.4004468356098734,357.42572986535043
3850.3481,1.4038193029562105,396.01820281247797
3851.234,1.4091475297440526,339.29639994545647
3852.122,1.416486969342569,317.5534057256449
3853.0083,1.424597391966762,373.04514035640653
3853.8967,1.4316740058243735,280.3748143816013
3854.7832,1.4361655413432708,412.38127523512554
3855.6702,1.4376344163574533,361.9711288872555
3856.559,1.4367977991098777,342.0173408966869
3857.4463,1.4350030509279457,341.8563425322872
3858.336,1.433342391849505,316.5677528905705
3859.2234,1.432153017755642,339.18363411710766
3860.1135,1.4311639484733418,350.9616332675064
3861.0015,1.4300674101782498,324.2206306284413
3861.8896,1.428751734115746,339.03970634757104
3862.7803,1.4271080861601428,348.7674898912567
3863.6687,1.4248610011204925,325.28330399147694
3864.5598,1.4217239156539483,383.80083997252115
3865.4487,1.417771154286166,352.2883217162971
3866.34,1.4133851948131932,299.97371749976526
3867.2297,1.4090052676906577,437.007397215659
3868.1213,1.4046991051068711,298.55557990535095
3869.0112,1.4001614145895838,349.17662088245424
3869.9014,1.3949399413344337,463.80956473911704
3870.7937,1.3889281094141082,380.2935178803194
3871.684,1.3826715592314454,351.21172818995495
3872.577,1.3770073991151022,418.94867715516557
3873.4678,1.3725163196488948,426.60942903681007
3874.361,1.3688950983446335,340.30480424889817
3875.2524,1.36517177737681,378.8417903939853
3876.1438,1.3603622381962446,377.99514416174287
3877.0376,1.3541485875194845,369.9889781968447
3877.9297,1.3469072154034327,394.9406232266372
3878.8237,1.3390046493025372,414.55415186538403
3879.716,1.3304812379149558,350.8309042266004
3880.6108,1.3210835278818627,363.3270799995823
3881.5037,1.3108364079376782,418.0934611156782
3882.3965,1.3000125170098118,426.85315159183176
3883.2917,1.2889950621117143,387.40694114550615
3884.185,1.2781966729660905,449.48033284776244
3885.0808,1.2678483208452744,431.6995381109275
3885.9746,1.2582583128487284,464.8096886486738
3886.8706,1.2496901041723056,477.3583347038766
3887.765,1.2426467197049087,358.0645926278972
3888.6592,1.2377587263330436,583.2449381464238
3889.556,1.2356437345663398,504.79179815995286
3890.4507,1.2365302119532615,493.42729762558844
3891.348,1.2400265371245005,527.8576251695127
3892.243,1.2453118247475603,548.2453141679595
3893.1406,1.2516790637092974,476.05756892469014
3894.0361,1.2587494353099318,485.24484801870943
3894.932,1.2664842208534808,483.742931869445
3895.83,1.2747991195500217,411.24872130469623
3896.7263,1.2833419909823724,441.3464890444603
3897.625,1.291847922034987,432.05872069506495
3898.5215,1.3002861550815719,407.0074960025763
3899.4207,1.309065113332523,417.1060270787846
3900.3176,1.318558850318486,351.93606114979616
3901.2148,1.3289882192169564,319.86518949399533
3902.1145,1.340309822365312,416.5857577803361
3903.0122,1.3522130350613064,394.1088314087498
3903.912,1.3643624047399747,363.4345799130755
3904.8103,1.3762537355015898,366.7621743918515
3905.7107,1.3876318795123126,392.0697405074305
3906.6094,1.3984422504804814,348.9289590812127
3907.508,1.4087788166982964,359.2639973917843
3908.409,1.4183189641035387,350.7323429770075
3909.308,1.4261002272465075,327.8651996320286
3910.2097,1.4312279328654625,412.5609537060872
3911.1091,1.433638423800382,334.35194567010507
3912.011,1.4345438353944397,353.20189221529563
3912.9111,1.4357224255238374,435.8402410158743
3913.8113,1.4383843064012851,291.57861334053655
3914.7136,1.4424521481599055,355.637566673665
3915.6143,1.4467638249073915,311.2118745306806
3916.517,1.4500098088832525,345.4011546666559
3917.4182,1.4514423674339927,340.0205585203327
3918.3215,1.451161014023043,342.4273469489937
3919.223,1.4499006131903318,300.03967273915674
3920.1245,1.4487055950403418,299.24594985978035
3921.0286,1.4485806676677515,316.49983925811995
3921.9307,1.4501317672688137,302.2139035743681
3922.835,1.4533451288322763,325.80937820067874
3923.7373,1.4576784585830547,280.7247801680473
3924.642,1.4625478292640999,358.488107982546
3925.5452,1.4676264631212563,334.79841172889655
3926.448,1.4728751913431948,305.547445315632
3927.3535,1.478128043884507,333.7104125596213
3928.257,1.4827214766614358,330.0271584173504
3929.1628,1.4856784452928422,301.74843071412414
3930.0667,1.4860560352419148,284.2199352525601
3930.9731,1.4834106639172684,294.9578395032791
3931.8774,1.478003852037726,311.28550601691336
3932.782,1.4707310887898648,347.8467536914595
3933.6887,1.462843889594092,317.0984476839846
