wavl,flux,ivar
3566.9744,0.9923404951589616,459.1065574934508
3567.795,0.9903439495568014,488.65435230939585
3568.6177,0.9889878250049636,618.8382288927145
3569.4385,0.9885899530184804,451.4819860330696
3570.2617,0.988909871954932,543.909232901754
3571.083,0.9896532373836462,376.9025019785946
3571.9065,0.9918237114829284,576.2160800343851
3572.7283,0.9990887877270518,468.79325130975707
3573.55,1.0178494720425153,366.04080233950225
3574.374,1.0546035569134,542.8445609665531
3575.1963,1.1097274573011957,539.5444876763455
3576.0208,1.1725190437225135,634.0307792504211
3576.8435,1.2213377755649022,483.27996644088967
3577.6682,1.2355772145274768,493.40648212348907
3578.4915,1.2088773076598887,534.038184937935
3579.3145,1.1538564659130988,492.460369912397
3580.14,1.0922228341595965,593.0488167350859
3580.9636,1.0416579153464318,427.1446253606445
3581.7893,1.0079442680196744,531.9619550595783
3582.6133,0.9884757664483244,533.1204936533015
3583.4395,0.977838636969802,600.7370826389672
3584.264,0.9722736269182876,392.32303852253176
3585.0884,0.9701131528779436,519.818494030621
3585.915,0.9706765767655045,664.8161792597895
3586.74,0.9729211252675596,603.8045618466672
3587.5671,0.9751639778006835,450.5561113538307
3588.3923,0.9758143590789528,493.37948485076555
3589.22,0.9742951624007222,466.4990661452967
3590.0457,0.9711720230962401,432.02053402733
3590.8716,0.9675160203065881,560.3037117875723
3591.6995,0.9642153094993261,493.5018565882064
3592.526,0.9617227406071189,598.551505889781
3593.3542,0.9601362843238268,458.5435529950948
3594.181,0.9595130557364332,538.1828063956661
3595.0098,0.9600038945833558,597.2060181562106
3595.8367,0.9617418083810555,636.4484614909593
3596.6638,0.9645400499314549,526.1248377388143
3597.4934,0.9677306320202065,457.23743096687315
3598.3208,0.9702913161088428,489.5684248748151
3599.1506,0.9712979349535739,364.932940766589
3599.9788,0.9703232863913548,465.08228786875765
3600.8088,0.9677965616721519,527.4275418023211
3601.6372,0.9649861798299115,565.4153970637223
3602.4678,0.9633442885523121,568.648418839069
3603.2964,0.9635673836089146,565.4552032694124
3604.1252,0.9649794556886219,452.1361574532958
3604.9565,0.9659658110384155,512.9631138014739
3605.786,0.9651653695303145,440.471015370291
3606.6172,0.9625412622009376,486.23235219542295
3607.447,0.959414031313112,665.7165490794584
3608.2788,0.9574294957994584,464.7933502640493
3609.109,0.9574328096932788,491.8767282081015
3609.9392,0.9589639738534919,705.4739864652176
3610.7717,0.9606733909794429,615.7064702732027
3611.6023,0.9611907629759079,516.5028152376732
3612.435,0.9600568845313536,692.213558423702
3613.266,0.9581003811440973,492.75082672672403
3614.0994,0.9569188590834398,530.5015307383044
3614.9307,0.957780786271278,518.7628680216844
3615.7625,0.9607501756011047,601.8680614738818
3616.5962,0.9647200305014326,480.9515302337987
3617.4282,0.9680388330399254,510.90432053605423
3618.2625,0.9692996779433914,595.2239684194653
3619.0947,0.9677572382435595,452.0366887411013
3619.9292,0.9635266330444233,465.43207823890305
3620.762,0.9575572365836861,457.48690017594123
3621.595,0.9513014700934888,485.42393668320545
3622.4302,0.9463101224402747,554.9893836972883
3623.2634,0.943826667507408,453.72633282007706
3624.0989,0.9443434205449069,442.5782456879701
3624.9326,0.9473506432771236,449.11559344480946
3625.7686,0.9512811352229974,610.1934513923621
3626.6028,0.9540189613662824,482.15767379089743
3627.437,0.9541332672118131,553.1962229432376
3628.2734,0.9518312703800034,901.6395168261859
3629.1082,0.9488388598075175,423.15454612328
3629.945,0.9470253226758051,531.6133460676488
3630.78,0.947016097294245,628.9928180655714
3631.6174,0.9477871671524276,493.5465170795621
3632.453,0.9475015045743304,594.2011261700759
3633.2883,0.944791296414172,495.93281014832087
3634.1262,0.9395238514175346,548.5724539881294
3634.9622,0.9327645956573768,532.8148614772438
3635.8005,0.9259163742188697,583.3554971789242
3636.637,0.9200813787440517,525.452064036484
3637.4756,0.9156704865473739,482.52715141706227
3638.3123,0.9127393557040179,760.7374430277944
3639.1492,0.9112063179577006,675.302250302823
3639.9885,0.9109784506185612,751.459995478673
3640.826,0.9118292543158311,617.3463907529726
3641.6653,0.9133167108976774,599.8983422106219
3642.5032,0.9148432525737255,623.3584758498658
3643.343,0.9158606915994993,475.4778988486908
3644.1812,0.9160403743856118,595.0176826978446
3645.0195,0.915374054282106,580.5026747128483
3645.86,0.9140832029746625,603.8278021164693
3646.699,0.9124408754849268,573.5792142909514
3647.5398,0.9105730954338928,722.0386075456177
3648.379,0.9084644130467134,648.8606497171008
3649.2202,0.9060345054485448,710.979371884622
3650.0596,0.903262191225129,525.5518086973656
3650.8994,0.900117988311691,920.6164780039728
3651.7412,0.8965456039507627,577.727969210959
3652.5813,0.8925652351819079,501.8099350737007
3653.4236,0.8883784262388809,603.5589182121166
3654.2642,0.8845000390924175,615.8341969526779
3655.1067,0.8815450962191449,660.0188228699366
3655.9475,0.8800604414156085,660.1659885628234
3656.7886,0.8803293712453987,522.5855757078548
3657.6318,0.8823465587909507,831.5655681885914
3658.4734,0.8857028839129839,545.950306998005
3659.317,0.8895744118179622,567.0212649909655
3660.1587,0.8928867430023548,718.1512617564761
3661.003,0.894862058003115,440.79586017258333
3661.845,0.8953579375874511,590.4526337627731
3662.6875,0.8948458712139947,689.4516004616921
3663.532,0.8939878457564813,542.1332366675562
3664.3748,0.8933830965042822,447.92115603730826
3665.2197,0.8935853898766948,659.254578716971
3666.063,0.8951081787907899,679.5684374938505
3666.9084,0.8981260709852622,683.6092368090681
3667.752,0.90211581830704,386.24454041613103
3668.5977,0.9060627361780419,547.1305630744736
3669.4417,0.9090055601745286,739.7090647554509
3670.286,0.9105990683304354,704.8110952473571
3671.132,0.9110265371635263,579.7828341636571
3671.9768,0.9105870209219467,629.9078704603601
3672.8235,0.9093832696922345,575.30152891234
3673.6685,0.9073443402239578,556.3350167650188
3674.5156,0.9043789319434506,519.1245307993945
3675.3608,0.9005677955105048,653.8143918153935
3676.2063,0.8962701442828027,551.5832165225227
3677.0542,0.892240938847748,586.2675717922518
3677.9,0.8894294533597774,711.4416870585004
3678.748,0.8883223895277493,741.9756084511088
3679.5945,0.8886335737945473,621.4248312799525
3680.4429,0.889611995608497,854.4581732190842
3681.2896,0.8907005174984424,570.4553803019985
3682.1365,0.891711928996549,602.1045071236141
3682.9856,0.8924092823409401,473.77305589900743
3683.8328,0.8922409071960069,505.1967145669694
3684.6824,0.8907114579048666,618.8934528607278
3685.53,0.8879380850471468,677.854884133993
3686.38,0.8846304787852397,699.6884062679335
3687.2278,0.8815938080382345,605.7799126880149
3688.0762,0.8792172515862456,502.83244563426615
3688.9265,0.8775660998800012,467.4568071697401
3689.7751,0.8767256609394656,706.734936613765
3690.626,0.8769399870074706,1264.3664137565147
3691.475,0.8784533878161757,711.4836243353288
3692.3264,0.8812272597108963,542.594068322777
3693.1758,0.8847399060060744,630.3944472271932
3694.0254,0.8880951945878903,636.7309646351003
3694.8772,0.8903401888184271,604.6319007098075
3695.7273,0.8909527438683146,741.9792146683765
3696.5793,0.8901929713796439,534.8822363391484
3697.43,0.8889213939273578,577.7519278907046
3698.2825,0.8880161334507459,762.3089211383591
3699.1333,0.8878530741841213,837.5984195778342
3699.9841,0.888213262854655,537.348733401276
3700.8374,0.888638802458251,503.89993040076615
3701.6887,0.8888236824208987,545.850659773705
3702.5425,0.888759011464132,502.1841006629402
3703.3943,0.8886038467746027,629.6383818797302
3704.2483,0.8884917976677018,637.3951822435146
3705.1003,0.8884282954412306,693.39427455765
3705.9526,0.8883108066314842,491.5342611168271
3706.8074,0.8880366551201626,619.0370604520057
3707.66,0.8875962784019132,823.7283790287729
3708.515,0.8870292406060061,611.9142990648447
3709.3682,0.8862986604271611,638.0171435373219
3710.2234,0.8852462257604514,534.7974960691982
3711.0771,0.883789380875684,568.726036060048
3711.9307,0.8821440466445206,599.460338449107
3712.7866,0.8808242279949858,801.3281928782642
3713.6409,0.8803344881070501,552.282752597209
3714.4973,0.8807511514971263,748.5025493470572
3715.3518,0.8816241620498989,511.89451620575426
3716.2085,0.8823201220001006,545.2884748504252
3717.0635,0.882519673919736,529.0225080692453
3717.9185,0.8824104070570528,616.2701543594433
3718.776,0.8823593210696473,713.1701067121244
3719.6313,0.8824570686439994,472.5054950658636
3720.489,0.8823938892672026,567.7300560226121
3721.345,0.8817336316184782,558.3683422687651
3722.2031,0.8802683711882872,639.8475976647147
3723.0593,0.8782030978540856,458.0373796355796
3723.9158,0.8760324208916448,705.9284983718617
3724.7747,0.8742415876208768,727.8130135223074
3725.6316,0.873008467510561,709.7433371032585
3726.4905,0.8720991504947171,715.351095084032
3727.348,0.8711060528552784,602.6786912631626
3728.2073,0.8697440471173112,525.0200907095152
3729.065,0.8680834844262103,644.6474580286578
3729.9229,0.8665231351042304,665.7190478863902
3730.783,0.8655469735930466,669.0618399766757
3731.6414,0.8653894609091561,693.4903119454813
3732.5017,0.8659033179935872,624.8419939431367
3733.3604,0.8667738209685459,683.2588908763759
3734.2214,0.8678016543968265,637.958178627334
3735.0803,0.8689321021580935,607.145152182245
3735.9417,0.8701133128678912,684.5919938624597
3736.8013,0.8711236917161146,592.0235299501704
3737.661,0.871578125520919,651.4014791456368
3738.5227,0.8710448409109858,662.544662787316
3739.3828,0.86930172825994,655.7745890389913
3740.245,0.8665479151591634,604.5885158132677
3741.1055,0.8634048312369235,749.9314081183836
3741.9683,0.8605178830101362,927.4849745848825
3742.829,0.8582091735558715,655.1445086498778
3743.69,0.8563527270180299,757.1897997713611
3744.5532,0.8547625006904804,530.7708563692717
3745.4148,0.8536820130570097,452.94685693599143
3746.2786,0.8538516139817275,657.6606416934466
3747.1404,0.8559896835261976,693.6685566626193
3748.0044,0.8600294479102744,799.9777184113354
3748.8667,0.8647908505451959,654.6059230668493
3749.729,0.8686062807425885,695.3208339886777
3750.5938,0.8703288460914955,693.7799282383664
3751.4565,0.8700021025252935,538.0709539855559
3752.3215,0.8686878794885254,900.155089314322
3753.1848,0.8676331223870749,714.1142510739335
3754.0503,0.8675845961216739,552.0313493013371
3754.9138,0.8687721894436619,777.1762486879669
3755.7776,0.8712086447983707,599.2045481479968
3756.6438,0.8746950709524696,583.6654853723161
3757.508,0.8784393154784553,637.8991732093006
3758.3745,0.8810891813588868,543.336425939496
3759.239,0.8813338170509218,500.24793637956026
3760.106,0.878794064579036,717.9422742979904
3760.971,0.8742810147819288,515.6453205083146
3761.8362,0.8692514221336919,496.944261552637
3762.7036,0.8650560877561164,606.1158535736461
3763.5693,0.8624988312239037,858.8072054581284
3764.437,0.8616869608870157,548.4373666099925
3765.3032,0.8621821752050783,652.9055924441241
3766.1714,0.8631924624953697,606.0725474046807
3767.0378,0.863890678807538,734.9499976710838
3767.9043,0.8637594783332818,728.9625268764581
3768.7732,0.862724778999582,646.0692768229544
3769.6401,0.861065058822816,606.1307161791917
3770.5095,0.8591661583036462,554.5253042277786
3771.377,0.8573588654318891,673.7354665660479
3772.2466,0.8557781840553533,687.6982386672385
3773.1145,0.8543919976481105,627.7082921081
3773.9824,0.8530821560461761,734.4238355040234
3774.8528,0.8518004280513729,614.8571989897913
3775.721,0.8506363891113973,606.6738591896585
3776.5918,0.8497189284515526,629.842557966779
3777.4604,0.8491166955622141,663.665560467421
3778.3315,0.8487642214206595,569.5274965632839
3779.201,0.8485477184564654,526.4356416201202
3780.0703,0.8484472897456178,636.5778130800661
3780.942,0.8486308541577032,678.7759895431037
3781.8118,0.8493679421971795,608.5456820603938
3782.6838,0.8508356491495124,569.0226311755254
3783.554,0.8529527802253023,691.3861541897861
3784.4265,0.8553890314952973,698.8696197031434
3785.297,0.8576192934376786,819.0920219484308
3786.168,0.8591671988156095,559.6692245533715
3787.041,0.8598235143555618,631.9842748798347
3787.912,0.8597100795594486,691.3973640653708
3788.7856,0.8590534841866487,718.855867711486
3789.6572,0.8579130801757369,769.9404064299204
3790.531,0.856186258258991,611.9917548502835
3791.403,0.8538828031681943,817.2848659421896
3792.2754,0.8512497422838569,770.4173012057963
3793.15,0.848653377388095,774.373156579992
3794.0225,0.8463235065124768,639.7457285699531
3794.8972,0.8441204194422468,795.2799635344821
3795.7703,0.8416562949045179,746.6676339169111
3796.6455,0.8386101650500014,814.8055005007125
3797.519,0.8351790477174333,551.8940866336745
3798.3926,0.8321179437172586,651.0328406582771
3799.2686,0.8303702925366137,682.6037012559334
3800.1426,0.8304663685352717,890.4645786347758
3801.0188,0.8321462389700893,637.0235904747282
3801.8933,0.8345449072465075,589.1232299733227
3802.77,0.8367401792889234,690.5924944054138
3803.6448,0.8381518614617764,847.7389403694666
3804.522,0.8386932115941138,732.6879400196411
3805.3972,0.8386557382016331,645.329131994213
3806.2727,0.8385998425793838,963.8305016591853
3807.1504,0.8391906780989409,739.0684981692176
3808.0261,0.8409123715660951,640.0357741290379
3808.9043,0.843746648401066,626.3698705702456
3809.7805,0.8470060754114418,637.2046869956018
3810.659,0.8496817291151314,709.8956072909278
3811.5356,0.8509982245838804,829.6462598252067
3812.4126,0.850905857809432,590.9240109349453
3813.2917,0.849957575563129,780.8667205600318
3814.169,0.8488203369087112,745.7052572215746
3815.0483,0.847857646489332,675.7108846039879
3815.926,0.8471697314901855,580.0609322261957
3816.806,0.8467816812335539,653.3587978136584
3817.684,0.8466371296185037,599.431172546398
3818.5623,0.8463952398628961,601.270354010855
3819.4429,0.8454828119109616,533.639744974529
3820.3215,0.8435477215674411,652.2808768618609
3821.2024,0.8408439882927596,795.2748587527461
3822.0815,0.8381297170225177,577.5963262597941
3822.963,0.8360199935815421,592.1332971803222
3823.8423,0.8345135378886978,818.9520307456824
3824.722,0.8329595389720176,740.9974999559886
3825.604,0.8305185081365902,712.4755618146883
3826.4841,0.8267148767154087,656.6051761624328
3827.3665,0.8216941197224752,778.0192257124916
3828.2468,0.8162138375748068,812.3368224251972
3829.1296,0.8111219254018553,774.5882063695332
3830.0105,0.8069337357215584,751.3862925172496
3830.8916,0.8035107191857511,926.1149117317632
3831.7751,0.8003473915411088,758.0031604536058
3832.6565,0.7971025334848317,971.2116370227818
3833.5403,0.7938878975705373,857.9435419125014
3834.4224,0.7912145354419065,734.1368546119227
3835.3064,0.7895162736287938,787.8049590500488
3836.1887,0.78896699778393,545.4099816314617
3837.0713,0.7896671726877504,678.0612704233628
3837.956,0.7919424260401462,809.6594680998081
3838.839,0.7961161455004878,894.0961548132793
3839.7244,0.8019925264604872,747.9670813997379
3840.6077,0.8085885727218993,714.4453804039701
3841.4932,0.8148228080296422,504.90703783886636
3842.377,0.8202678591579973,613.7354862304041
3843.261,0.8254941634962503,647.9440353446266
3844.1472,0.83139107179925,730.6289905743399
3845.0315,0.8382419813517026,644.4163328645245
3845.9182,0.8455153300325536,641.5369213061629
3846.803,0.8521738814869637,643.5039189049493
3847.69,0.8574985228228291,762.9299342785099
3848.5752,0.8613797671323743,554.3691562775152
3849.4604,0.8643821409900596,677.5808193198702
3850.3481,0.8673653644040198,695.7034384718993
3851.234,0.8710116525831112,585.847936710296
3852.122,0.8755260421330592,602.3316974590915
3853.0083,0.8804714321010354,536.4336045182641
3853.8967,0.8850545951955268,548.3745673636862
3854.7832,0.8884209605656841,699.3024925013319
3855.6702,0.8900874407961309,697.0142748209594
3856.559,0.8900383369527931,606.0157395736173
3857.4463,0.8886437887395615,540.4976682904047
3858.336,0.8864313778727178,647.6934884902987
3859.2234,0.8839398951140027,665.901531295053
3860.1135,0.881594357922702,597.8003958751821
3861.0015,0.8796851846631837,651.8844722736194
3861.8896,0.8782527141959762,560.3345995980371
3862.7803,0.8771383000191673,832.4359918810569
3863.6687,0.8761506315007287,551.1262807926244
3864.5598,0.8751763561504261,748.3815859325528
3865.4487,0.8741159580980198,650.9035048337798
3866.34,0.8726762709743799,640.9026758367255
3867.2297,0.87042541904344,577.1893295240101
3868.1213,0.8670577490105721,638.6106489010098
3869.0112,0.8626640846230529,593.6245406738466
3869.9014,0.8575805028829713,665.1878326768937
3870.7937,0.8520942007429705,805.6715050501979
3871.684,0.8463272175631542,654.2281625793038
3872.577,0.840280069690937,619.8370165715178
3873.4678,0.8341804730426363,619.3401166280554
3874.361,0.8284468978510425,872.9755342005786
3875.2524,0.8237825779136057,613.9859741159383
3876.1438,0.8212905533771994,628.7162125819877
3877.0376,0.8230895661249897,782.312290875041
3877.9297,0.8324514713846705,613.687988982269
3878.8237,0.852307277705955,652.1569820367326
3879.716,0.8814129925656682,651.989440272294
3880.6108,0.9114869358072267,827.3107370834155
3881.5037,0.9285467424432051,912.8764832498945
3882.3965,0.9213917004006699,648.0008041305537
3883.2917,0.889404112661378,978.3594669536658
3884.185,0.8436976764480859,783.1599228123359
3885.0808,0.7988031869788779,938.3936418106686
3885.9746,0.764593300225895,786.2156132107015
3886.8706,0.7426323526137205,872.2887942482498
3887.765,0.7299055980048416,816.6215699835608
3888.6592,0.7227844433759312,1014.4384990044335
3889.556,0.7192686583960352,1023.0790558582577
3890.4507,0.7185897617161968,848.596604025561
3891.348,0.7201312168025913,1064.7446450071818
3892.243,0.7230881445670252,917.7038329519036
3893.1406,0.7268477410345426,854.2144298894863
3894.0361,0.7312670940611979,969.9755783829015
3894.932,0.7365692911129983,2167.838698115075
3895.83,0.7428941010203142,718.6451174420135
3896.7263,0.7500836221817692,739.9867590881703
3897.625,0.7580061212416728,737.0259429367634
3898.5215,0.7666071086200199,879.2428880004443
3899.4207,0.7759688541589157,792.3823006507791
3900.3176,0.7859311418178099,713.7895105934219
3901.2148,0.7962922496680427,850.3035569309444
3902.1145,0.8068958658866595,888.952612408556
3903.0122,0.8175579218465439,631.8137041902896
3903.912,0.8281197473084578,590.8254297942394
3904.8103,0.8382623927582945,632.032190546142
3905.7107,0.8478518829503365,794.1427549145706
3906.6094,0.8568005297795299,699.3624302116204
3907.508,0.8650389094753183,671.7940769807457
3908.409,0.8723625601247988,662.3083719235658
3909.308,0.8785948157483597,713.7447416994471
3910.2097,0.8839746913022152,509.66555488012807
3911.1091,0.8890079851482023,566.399102006558
3912.011,0.894244765962593,633.8028059323807
3912.9111,0.8999049682286272,724.1739697223769
3913.8113,0.9059897112803565,550.645086968062
3914.7136,0.9124132302019716,572.1915512842737
3915.6143,0.9189794948035893,541.0623145679527
3916.517,0.9253725930668343,563.9018303869009
3917.4182,0.9310184556506527,414.43901242995963
3918.3215,0.9353673413820198,537.5423565866915
3919.223,0.9380851348272521,440.81718353470905
3920.1245,0.9393396215892431,566.4447495457382
3921.0286,0.939774868305809,550.2697829264504
3921.9307,0.9402980300392575,491.14370917968597
3922.835,0.9416682370835009,598.1428864881051
3923.7373,0.944095100535055,510.68918437765717
3924.642,0.9472128615025174,693.8689763367829
3925.5452,0.9503612382995069,555.7918214204535
3926.448,0.9530124561072671,548.1132100881226
3927.3535,0.9548286317297038,486.37642309144763
3928.257,0.95542668073699,535.3490961908539
3929.1628,0.9542551106458809,471.72408523260066
3930.0667,0.9507899314960213,501.7501323275114
3930.9731,0.9449344410675485,479.2692463293143
3931.8774,0.9373626063444331,486.4811723551829
3932.782,0.9292931079890653,576.6927341712806
3933.6887,0.92210165399923,553.1353813504252
3934.5938,0.9168759437948399,798.602836618286
3935.501,0.9139493701999067,569.9178732775913
3936.4062,0.9128814301053176,519.9836905855359
