wavl,flux,ivar
3566.9744,0.8310287006054445,46.19497642027253
3567.795,0.8265745174905187,58.5185198660481
3568.6177,0.8232123044337458,40.04678917610112
3569.4385,0.8206662964484958,36.530655560573614
3570.2617,0.8182453932617074,43.588512536830564
3571.083,0.8155205444499246,40.49140624660959
3571.9065,0.8126822251564839,58.351726681662015
3572.7283,0.8105223613041114,45.45839098558426
3573.55,0.8099469033777136,37.82576550866035
3574.374,0.8115359889934601,36.04810624039222
3575.1963,0.8152069602793536,52.86790416205531
3576.0208,0.8201528748668755,38.947947408121955
3576.8435,0.8250033193528657,41.271957022553025
3577.6682,0.8285016954982942,50.94666780510224
3578.4915,0.8301290556264986,45.31226167745458
3579.3145,0.8304219908211162,41.46023135000999
3580.14,0.8304586042187476,41.75478612770467
3580.9636,0.8309790488907189,50.5152415325197
3581.7893,0.8318441532241914,47.12479539714729
3582.6133,0.8322576055029896,39.573519519031606
3583.4395,0.8314401752414203,51.7437789341419
3584.264,0.8290987247062278,51.16819295306066
3585.0884,0.8254819780099605,42.77815837022497
3585.915,0.821257326079314,41.64141399447638
3586.74,0.817415452869892,50.34915132694112
3587.5671,0.8149290746363026,54.40214175742176
3588.3923,0.8143797537939755,42.783157785482096
3589.22,0.8155868146819357,52.37603288801273
3590.0457,0.8177075337679964,36.69597992263558
3590.8716,0.8197365483953634,34.74036069102409
3591.6995,0.8210356650546774,48.82058697832357
3592.526,0.8215865288794397,49.790590505714896
3593.3542,0.8218939035910028,42.53971504710561
3594.181,0.8225629503906459,39.8524975691538
3595.0098,0.8237935723225962,42.10075493938132
3595.8367,0.8250808391886784,53.98742908967559
3596.6638,0.8255044805692141,70.34549530546687
3597.4934,0.82444216983768,34.438515624988085
3598.3208,0.8221853718931048,42.972134394345446
3599.1506,0.8197823191685149,44.73555846478538
3599.9788,0.8182687459124439,45.87975059703229
3600.8088,0.8178834357666703,42.61418220581795
3601.6372,0.8180924971364871,43.445761560113944
3602.4678,0.8182390614723739,32.9148781590718
3603.2964,0.8181471204743536,43.00684285260547
3604.1252,0.8181087431827947,58.05515326070494
3604.9565,0.818391115124355,35.950017751905094
3605.786,0.8188418017336476,52.16634309678877
3606.6172,0.8190031052729383,37.269775096720686
3607.447,0.818580414152537,48.699355181152
3608.2788,0.8177849781019687,42.56732568283483
3609.109,0.8172337861273837,37.94082820998627
3609.9392,0.8175369382211543,44.403473757383544
3610.7717,0.8189729715813532,38.437404580458
3611.6023,0.8213447679695344,46.63886992082853
3612.435,0.8240447139029863,50.51525723264728
3613.266,0.8262048358294213,36.23130491984765
3614.0994,0.8270893660033513,49.476318533370446
3614.9307,0.8264120894591788,27.96044988089213
3615.7625,0.824477029990206,48.19214394725882
3616.5962,0.8220090248766053,46.79022174890436
3617.4282,0.8198459034955945,46.11449785628273
3618.2625,0.8184925406143115,51.93065397622473
3619.0947,0.8178335963908375,42.18583883381407
3619.9292,0.817132917002865,55.26912239176595
3620.762,0.8155569333224646,36.25227941011689
3621.595,0.8128577743583065,47.24627008356287
3622.4302,0.8096828707083575,46.356200578613695
3623.2634,0.8071784815755345,45.71531228729217
3624.0989,0.806056636425477,57.3817831853042
3624.9326,0.8060522171975042,41.02335123899733
3625.7686,0.8061065973496411,51.18237361033903
3626.6028,0.8051295114429002,67.13610379953147
3627.437,0.8026254685789667,30.743044015033647
3628.2734,0.7987845131658744,47.981162578578335
3629.1082,0.794221400486761,39.720982292041015
3629.945,0.7895156320294623,49.35862350486428
3630.78,0.7850733056666992,42.544149754507124
3631.6174,0.7811133855701293,45.514490133271195
3632.453,0.7780072262152394,52.29930401430263
3633.2883,0.776298233448943,40.70147981364734
3634.1262,0.7764375370753347,48.298623508379535
3634.9622,0.7782427840479624,45.851763807554875
3635.8005,0.7807320332232341,37.182998223517615
3636.637,0.7826235468979944,41.60920260482206
3637.4756,0.7832287333226818,50.639283436542506
3638.3123,0.7828259064661361,44.71899719432473
3639.1492,0.7823112429388549,44.668152955387505
3639.9885,0.782504742997521,47.711122472459664
3640.826,0.7837577315845798,50.746726125967776
3641.6653,0.785997823564325,46.210116689413205
3642.5032,0.7888492052456456,50.716237227445355
3643.343,0.7916666190421737,46.78942676118811
3644.1812,0.7935211251932723,59.24282418396061
3645.0195,0.7935572525559013,45.61881514843012
3645.86,0.7914472022049163,42.94590783767312
3646.699,0.7876774880860539,55.25422119305943
3647.5398,0.7833096223437721,41.662146744464394
3648.379,0.7795619709731036,43.50057560765937
3649.2202,0.7772833225733953,41.868882323380944
3650.0596,0.7766933695350685,41.62636913684783
3650.8994,0.7772398666297217,51.273024506004475
3651.7412,0.77782182988042,38.03261146414648
3652.5813,0.7772100011744159,69.4547131791195
3653.4236,0.7745039135252135,36.999758015721845
3654.2642,0.7694698727683836,37.242651181826886
3655.1067,0.7626300996449111,39.09349566378301
3655.9475,0.7552384301947633,53.556541662858464
3656.7886,0.7487875965196825,35.736241368551724
3657.6318,0.7445384320190227,62.27564559236372
3658.4734,0.743158970519341,67.51838769637007
3659.317,0.7445257809893892,50.839646859877405
3660.1587,0.7477811913634675,73.76987084920273
3661.003,0.7515755245369636,54.81568316701913
3661.845,0.7545232863980561,39.48346724716257
3662.6875,0.7559473940752839,67.15945747974752
3663.532,0.7562593280968929,48.217712368149414
3664.3748,0.7567494112164903,41.3574423913586
3665.2197,0.7587469907099976,68.96424654260842
3666.063,0.7627212090965066,45.556377845085336
3666.9084,0.7680884113503482,52.266242992684006
3667.752,0.7736418774781582,42.60679265796099
3668.5977,0.7783105475599679,55.02710219138188
3669.4417,0.7813403112700664,44.901984235788554
3670.286,0.782306585180748,50.18420239187204
3671.132,0.7810338501307162,38.25671882383428
3671.9768,0.777755576440034,53.18476165793034
3672.8235,0.7731437515848026,52.7077521695905
3673.6685,0.7681880609596751,49.61578331833222
3674.5156,0.7638758652800438,45.17726751014055
3675.3608,0.7610880324759582,45.715722876285156
3676.2063,0.7603552146482804,48.81539900689983
3677.0542,0.761698991979731,42.438318591132145
3677.9,0.7644506392539636,41.76481261874643
3678.748,0.7673900762198417,54.56680336706576
3679.5945,0.7691183592198243,51.97825497571465
3680.4429,0.7686585571238835,40.31112966496391
3681.2896,0.7658093356626446,50.88617526934197
3682.1365,0.7611446812694416,47.76228162422467
3682.9856,0.7557114732560256,48.87169559687168
3683.8328,0.7507058409347197,46.67560948414296
3684.6824,0.7469946566782515,50.77639406155034
3685.53,0.744845982923148,104.54503958525126
3686.38,0.7437252817284435,40.20800393676397
3687.2278,0.7426788208035849,67.54410825357719
3688.0762,0.7409702914347743,83.15556461017084
3688.9265,0.738563748654257,56.3282561628417
3689.7751,0.7360600552255417,48.09080249863398
3690.626,0.734168143435729,73.4575646819494
3691.475,0.7332989038393496,49.02891755441102
3692.3264,0.7334554821996676,43.45798914828936
3693.1758,0.7344799499366362,63.559962130108026
3694.0254,0.7362658029550231,42.7546573984209
3694.8772,0.7387089262407136,56.77464413542917
3695.7273,0.7415014572262416,65.28205018508541
3696.5793,0.7442388067163622,50.64177079748397
3697.43,0.7467369898862282,42.15789342426739
3698.2825,0.7492796787768141,49.64548295331774
3699.1333,0.7522394615903202,55.60218600650783
3699.9841,0.7555250398510759,49.720562294177064
3700.8374,0.7584359016795381,53.58603884279003
3701.6887,0.7602231530482211,40.13317952756543
3702.5425,0.7608411951283648,51.47093611167382
3703.3943,0.7609208961741009,46.0009255293137
3704.2483,0.7610776476473318,43.77903076072687
3705.1003,0.7612757682580901,65.18752035512709
3705.9526,0.7609481742866132,37.282204748513266
3706.8074,0.7596430269346804,51.70821483309517
3707.66,0.7575166826869595,57.777882698431924
3708.515,0.7552257510963222,44.03892548911704
3709.3682,0.7535809222802944,38.98603771183597
3710.2234,0.7532105715194031,55.61982307394189
3711.0771,0.7543790630248673,45.09006811737161
3711.9307,0.7567172177618655,78.89846692807427
3712.7866,0.7591245232812311,43.089168450424395
3713.6409,0.7601703126880304,54.96583036030262
3714.4973,0.7590287131489006,41.306629214358445
3715.3518,0.7561115711080006,54.79889332364266
3716.2085,0.7528168203202226,42.806649078502176
3717.0635,0.7506500545056215,50.96508225415472
3717.9185,0.7503343488451966,52.288085632964005
3718.776,0.7516485842924587,41.30511163621487
3719.6313,0.7537949924136361,61.474450967299774
3720.489,0.7559218671881419,47.77629310748425
3721.345,0.7573052333903487,68.09836260285064
3722.2031,0.7573937910184302,51.897497138026296
3723.0593,0.7559327807482341,38.15606755809076
3723.9158,0.7532296352209151,35.85007127753734
3724.7747,0.7501104927646327,44.321594336367134
3725.6316,0.7474659281923904,62.320179672699425
3726.4905,0.7456620535631612,45.978634739677084
3727.348,0.7445368421470777,59.05028680936508
3728.2073,0.7438079315797583,51.88221567935727
3729.065,0.74351838125349,46.90173345903301
3729.9229,0.7439943431194553,47.988325899339195
3730.783,0.7454282761788801,44.78982207697899
3731.6414,0.7474769427473956,46.61632169689185
3732.5017,0.7493239335740214,51.14066047030934
3733.3604,0.7500959099857069,43.252291625469724
3734.2214,0.7493973221888901,55.42952975779184
3735.0803,0.7475379749920164,53.33444354208689
3735.9417,0.7453258333964784,51.319595350336606
3736.8013,0.7435509780711997,49.88519236364525
3737.661,0.7423875045311972,52.01806259598756
3738.5227,0.7413066026800622,41.127097540137086
3739.3828,0.7396249371590671,50.98330385685356
3740.245,0.7372283707909523,59.655453787382186
3741.1055,0.7348012423072054,58.15108644196758
3741.9683,0.7332055659718408,59.20858826332014
3742.829,0.7327355343142825,55.66808426001805
3743.69,0.7328624238272771,60.398760795529085
3744.5532,0.7327769235902551,50.32510810314722
3745.4148,0.7321368929853102,49.02478666964772
3746.2786,0.7313427748392216,59.39070179138329
3747.1404,0.7311108929260911,52.998282852565026
3748.0044,0.7317690784613443,57.422228524073816
3748.8667,0.7329839519501445,55.674852315855695
3749.729,0.7341312869445992,46.874771498988245
3750.5938,0.7348772935803954,54.39415258691157
3751.4565,0.7354187731883168,60.66021227448273
3752.3215,0.7362415080486377,48.80951957813969
3753.1848,0.7376099285234887,68.46607283941904
3754.0503,0.7392676796774313,43.15959966056963
3754.9138,0.7405572822927133,42.68173227208743
3755.7776,0.7409575898012595,53.768529320768664
3756.6438,0.7404743544038975,63.43860622160274
3757.508,0.7395511754626108,53.09656562046985
3758.3745,0.738576521874246,41.25121541824698
3759.239,0.7375999384959003,64.31975298391144
3760.106,0.7365168777035511,56.79909019146736
3760.971,0.7354667513944063,49.27113718927839
3761.8362,0.7348360748224793,45.48450457258191
3762.7036,0.7348988052780948,54.206959581987626
3763.5693,0.735528237585012,49.11058533889773
3764.437,0.736339892323132,52.32245715808058
3765.3032,0.7369989480748239,45.4917029426346
3766.1714,0.7373009708315585,52.96406123909541
3767.0378,0.7370361812275581,52.877365525162745
3767.9043,0.7360331202452491,45.39214135301543
3768.7732,0.7343929619004971,59.81465275904025
3769.6401,0.7326118132751075,64.96849349790915
3770.5095,0.7313196279443474,59.77479255908668
3771.377,0.7309490549361685,55.083471182244686
3772.2466,0.7315214065982795,58.20397736490719
3773.1145,0.7327389693651789,74.25444985260958
3773.9824,0.7342780011894136,54.284409216042846
3774.8528,0.73604307277591,53.06974791026276
3775.721,0.7380603070194259,61.095060649265065
3776.5918,0.7400953955519045,55.74558121017789
3777.4604,0.7413519473316387,56.14415740254391
3778.3315,0.7408591161045659,60.32147354242071
3779.201,0.7382216490049635,56.830729833029764
3780.0703,0.7341169461083924,53.59474310904335
3780.942,0.7300326146020518,61.98837742135134
3781.8118,0.7274794258853678,45.22752652291291
3782.6838,0.7271206645110329,59.3533906432145
3783.554,0.7285560032409889,56.65462411310384
3784.4265,0.730730022856126,57.316393014854455
3785.297,0.732610242144632,55.47797871838216
3786.168,0.7336717397284724,51.12414197906098
3787.041,0.7338730984200768,64.37639049884153
3787.912,0.7334036328178778,44.26620736570663
3788.7856,0.7324520345111211,53.030238127379356
3789.6572,0.731118982555602,48.392348122912885
3790.531,0.7294052285669177,54.50760399943214
3791.403,0.7273078980357625,56.87080398805244
3792.2754,0.7248897645098488,73.7849432121311
3793.15,0.7223059147639336,77.13261639731186
3794.0225,0.7197217864672371,69.87820533189213
3794.8972,0.7171743117105343,58.71581789722315
3795.7703,0.7147047976570273,52.80014986703787
3796.6455,0.7125343522110817,57.872407217773414
3797.519,0.7111775021948349,56.232871292829856
3798.3926,0.7111339533336619,62.96566729200947
3799.2686,0.7124860893004562,55.414504592773284
3800.1426,0.714708982573565,61.982112897670724
3801.0188,0.7169766681126998,52.062536777372436
3801.8933,0.7186149223904718,64.18674154940445
3802.77,0.7194298242276355,62.874430273496024
3803.6448,0.7196341466339978,57.15129593635571
3804.522,0.7196222715026711,48.350461257602085
3805.3972,0.7197208979366811,71.70434789024958
3806.2727,0.720065509386687,62.09159366912681
3807.1504,0.7206655851690164,59.54563412025115
3808.0261,0.7216121660046095,67.6342576316011
3808.9043,0.7232145952159607,61.17893628807961
3809.7805,0.7257870997896886,55.82839742356541
3810.659,0.7293058015673001,57.242997469247186
3811.5356,0.7331794929097705,53.58561899297487
3812.4126,0.7365028691225226,49.8307195383703
3813.2917,0.7384539937338717,52.19164648544008
3814.169,0.7386575658773908,66.31751191119658
3815.0483,0.7373315682324391,60.66650144586232
3815.926,0.7350934647443178,52.207619995249416
3816.806,0.7325747284081654,53.328629249045335
3817.684,0.7301909467879831,53.88580632819599
3818.5623,0.7281216124871374,58.39522864146227
3819.4429,0.7264675778931274,56.58933979138655
3820.3215,0.7252595108971925,73.98298127706391
3821.2024,0.7242959354760087,59.1004052269353
3822.0815,0.7231666921817838,50.33488337685454
3822.963,0.7214623568032392,60.072756499027584
3823.8423,0.7190342793862923,49.09686889646829
3824.722,0.7159823248340504,52.685056525369426
3825.604,0.7125391079654786,55.36154714808168
3826.4841,0.7090651779282766,57.950058773177155
3827.3665,0.7060353760054404,56.51560190087195
3828.2468,0.7039998908785957,69.11637076483633
3829.1296,0.7032090100318286,58.72453523516433
3830.0105,0.7033616864857962,55.64274620392267
3830.8916,0.7036416092443307,58.04546116877219
3831.7751,0.7031226158676532,50.33596028566897
3832.6565,0.7012342944577153,69.97146703475
3833.5403,0.698006181950488,54.34113513826334
3834.4224,0.6940652660703893,79.81719706544601
3835.3064,0.6902962788190538,70.22490341279827
3836.1887,0.6875202145102404,53.0175792615864
3837.0713,0.6861648709812462,77.78273876904564
3837.956,0.6862439444616389,66.31978095721995
3838.839,0.6874708955345626,64.44139429524827
3839.7244,0.689460838615819,52.00481621430829
3840.6077,0.6918670954910242,46.69915590830502
3841.4932,0.6944954495752027,59.324532005720734
3842.377,0.6972845286130375,55.14567709603252
3843.261,0.7003235908271405,58.913453334285926
3844.1472,0.7037778520927227,45.942123022668675
3845.0315,0.7077734180756496,56.750664338317634
3845.9182,0.7123344090865101,50.53113041935256
3846.803,0.7171579741014762,60.9514282387931
3847.69,0.7216570683024083,58.79754603016977
3848.5752,0.7251008578759821,73.76125855929418
3849.4604,0.7271259594146552,59.514087063438076
3850.3481,0.7280102590078208,53.63623471029106
3851.234,0.7285432866784508,58.28954789434364
3852.122,0.7295295947644364,52.644437838479995
3853.0083,0.7312984461291606,50.643145380079766
3853.8967,0.7336485471678208,56.16644866847974
3854.7832,0.7360776595201012,48.96083628829974
3855.6702,0.7381095575398658,53.48031698306258
3856.559,0.739412070141907,47.72747775940641
3857.4463,0.7398382929144692,54.850354412005224
3858.336,0.7394468754242582,63.55809599220017
3859.2234,0.7384503048100763,61.758744600618954
3860.1135,0.7371340576168938,55.83311813008555
3861.0015,0.7358445600902834,50.54476491694437
3861.8896,0.7349372354448921,75.70133542849072
3862.7803,0.7346397105886849,55.853990092802626
3863.6687,0.7348246886545412,55.53488711478798
3864.5598,0.7349590704095332,50.0056203950578
3865.4487,0.7343560944608996,52.59224901913902
3866.34,0.7325067333023081,74.43480098939112
3867.2297,0.7292478913452042,61.337230362415546
3868.1213,0.7247192408590775,62.509177256698386
3869.0112,0.7194270304741806,44.62920199368129
3869.9014,0.7141858816641379,80.1344714852987
3870.7937,0.7099058540755048,57.41829646180567
3871.684,0.7071305941115889,75.04054841012757
3872.577,0.7056338049160266,53.19931583649193
3873.4678,0.7046229374572704,61.61122888745989
3874.361,0.7032022123083393,70.62040314675721
3875.2524,0.7008280569539534,59.483074593513095
3876.1438,0.6974084463114713,69.07957254943899
3877.0376,0.6932147337489681,81.37101295576252
3877.9297,0.6888036224466522,62.1842421870535
3878.8237,0.6848427200888357,54.3434414207141
3879.716,0.6820128720671559,50.512084995149365
3880.6108,0.6806737720841601,70.53407561885871
3881.5037,0.6806099097884871,70.58577446361012
3882.3965,0.6809014251511334,60.04941456324253
3883.2917,0.680214926576508,53.79142441710241
3884.185,0.6773892922593879,59.78901768481431
3885.0808,0.6719712499109782,95.24234081875247
3885.9746,0.6644453017821785,50.909661309196046
3886.8706,0.6558220659914019,76.3917064790429
3887.765,0.6472509443360469,67.23400801747808
3888.6592,0.6395979285847562,71.17736659701751
3889.556,0.6335605405773912,79.04324617085345
3890.4507,0.6298657761708699,84.52701304909277
3891.348,0.6291052861863364,69.11963130222173
3892.243,0.6315036033864577,70.18118902467992
3893.1406,0.6366971053546602,72.44224697653095
3894.0361,0.6437934617366804,84.50922786818907
3894.932,0.6517857676843974,68.51918888829138
3895.83,0.6598014475749562,77.2012704345086
3896.7263,0.6671349338414405,63.66113429143644
3897.625,0.6734183401766081,59.8394123455646
3898.5215,0.6785695350096326,69.29364899306881
3899.4207,0.6829492821162458,58.92803925174356
3900.3176,0.6870403528092311,78.9395924890251
3901.2148,0.6911781695888327,62.69944844207419
3902.1145,0.6953426747385165,62.65251129072844
3903.0122,0.6993339861315194,48.31708449193912
3903.912,0.7031922783859913,62.52668457567988
3904.8103,0.7072172962666292,42.870421740496255
3905.7107,0.7117565257553619,70.3124439918011
3906.6094,0.7167487616354926,53.59809904508702
3907.508,0.7216622958475826,56.14443223389269
3908.409,0.7257037039010542,48.687710148745886
3909.308,0.7282343193410479,50.29224818952177
3910.2097,0.7292323471423526,40.01031535229195
3911.1091,0.7293916143977058,45.79734754441428
3912.011,0.7298937396659281,65.82771369627208
3912.9111,0.7318157897590768,54.86859036545601
3913.8113,0.735560909770037,64.92818283878228
3914.7136,0.7406869074267591,48.17418446383676
3915.6143,0.7461829148115728,49.809309742697366
3916.517,0.75111021603255,48.28974042410635
3917.4182,0.7548973902451318,60.01724092544471
3918.3215,0.7574469054900494,48.26119727211661
3919.223,0.7589130549872163,46.12191849116904
3920.1245,0.7596354130106574,45.391637143422734
3921.0286,0.7600648409427794,45.72503975135709
3921.9307,0.7606544366081899,49.87764812183888
3922.835,0.7616608660956468,68.03443995098068
3923.7373,0.7629841837255829,49.511557715507564
3924.642,0.7642536697033012,47.14230684976786
3925.5452,0.7650652199456786,47.87085294401733
3926.448,0.7652584698836442,48.334444625658726
3927.3535,0.7649608760094923,50.8998257443025
3928.257,0.7644193039120143,50.95186679427721
3929.1628,0.7637440650543821,49.545485233529185
3930.0667,0.7628015813231456,46.3368751659615
3930.9731,0.7612914144240911,47.26738136761479
3931.8774,0.7589657641568027,47.8688224016823
3932.782,0.7557538539972485,55.96404294644148
3933.6887,0.7517956241182876,50.98969339616529
3934.5938,0.7474202006000583,71.43509437136252
