wavl,flux,ivar
3566.9744,0.7158256908885727,584.7568443790758
3567.795,0.7173854513814076,842.4576739045167
3568.6177,0.7180270964858665,1003.0519210679097
3569.4385,0.7179288728272156,831.930808499329
3570.2617,0.717889442011953,833.1237958970141
3571.083,0.718783031722031,818.7072362037756
3571.9065,0.7208280056951875,907.7731746228915
3572.7283,0.723094278057301,701.9745988189544
3573.55,0.7238609022128514,613.7656754262863
3574.374,0.7217510549221174,1014.7762325063467
3575.1963,0.716968022442908,755.6399415062621
3576.0208,0.7114401776157161,1032.2497236409606
3576.8435,0.7077755638651244,914.0816204008047
3577.6682,0.7076117650321248,626.5043069332361
3578.4915,0.7108279104772816,751.9552819841559
3579.3145,0.7158427761284671,808.1323002421412
3580.14,0.7206330862433525,707.9638878712996
3580.9636,0.7236138493419163,856.2399671303903
3581.7893,0.7242271568180517,573.8315236413139
3582.6133,0.7228837616915226,963.8340863262754
3583.4395,0.720514665485113,835.8461476754816
3584.264,0.7179559627420156,597.1747214629039
3585.0884,0.7155095603287706,718.1340600785159
3585.915,0.7129596133414496,841.6389831853472
3586.74,0.709892361320173,1003.808724771326
3587.5671,0.706047384286483,983.4400223714081
3588.3923,0.701671334915568,671.8518695746563
3589.22,0.6974076388214718,1075.3797249205643
3590.0457,0.6940036945111872,924.4604679533006
3590.8716,0.6918578301711121,985.672607150576
3591.6995,0.6910439606601856,1042.1862324223048
3592.526,0.6915314795007075,899.722958340641
3593.3542,0.6932837156322517,816.241679082656
3594.181,0.6961085080773585,814.0243122420626
3595.0098,0.6995562192785786,859.4224483085254
3595.8367,0.7029497081130164,755.6711191496931
3596.6638,0.7056294079530713,1028.8878529870456
3597.4934,0.7070562264636693,626.9970194154466
3598.3208,0.706913211560096,668.7678126709586
3599.1506,0.7052494644646999,922.4649868518127
3599.9788,0.7025306366460264,811.6151957046205
3600.8088,0.6994677569337093,851.1875141031204
3601.6372,0.6967804267047227,1042.765670398735
3602.4678,0.6949085278028717,1000.2197514594862
3603.2964,0.693941119916871,948.5548499486191
3604.1252,0.6935977497519803,666.2246486105782
3604.9565,0.6934058979994276,987.2934053171543
3605.786,0.6929551220389475,713.1289351617477
3606.6172,0.6921143881195267,1285.1219668614979
3607.447,0.6910944453299935,1018.9761294116219
3608.2788,0.6903236683631493,819.6862177565652
3609.109,0.6902668753171226,682.5363508619251
3609.9392,0.6911829523152193,844.8445819009252
3610.7717,0.6929180045600285,655.334110931853
3611.6023,0.6948098671444968,643.4330034950648
3612.435,0.6959317865418357,1029.2540699753658
3613.266,0.6955005394272058,604.5051202785774
3614.0994,0.6932851951873967,839.5687420604163
3614.9307,0.6897608746494126,967.7708232139589
3615.7625,0.6859261867077422,880.2481600488654
3616.5962,0.6829432901499751,954.6253982001812
3617.4282,0.68164642570317,1047.892027678737
3618.2625,0.6820967548006709,1179.8375768315946
3619.0947,0.6835860325560652,1009.5380225679374
3619.9292,0.6850980927846061,768.9175977799345
3620.762,0.6859249105213728,1054.4142661113965
3621.595,0.6860312335757637,702.1066118359191
3622.4302,0.6858924235230475,1008.2926700813952
3623.2634,0.6861003954959465,958.3167440083728
3624.0989,0.6870923536282864,872.8293325937659
3624.9326,0.689132358381781,906.8678546616666
3625.7686,0.6923794987393824,1057.244971875922
3626.6028,0.6967165937268381,782.2103339771347
3627.437,0.7015773370096854,818.7061448594455
3628.2734,0.7059956921898943,1252.3894426326538
3629.1082,0.7090861414855775,670.1251228353847
3629.945,0.7107388888498214,528.6923026979043
3630.78,0.7117175299374519,782.2223844700255
3631.6174,0.7131984270215209,901.0060389173796
3632.453,0.7159631947328872,683.448457712354
3633.2883,0.7198858807313105,756.4699337205498
3634.1262,0.72389326146251,818.2265628502045
3634.9622,0.7264030604456765,555.3988302782301
3635.8005,0.7262249339077925,574.3442963795196
3636.637,0.7232317604995984,1090.567980785236
3637.4756,0.7183794847567962,974.8284261924109
3638.3123,0.7130702085767507,792.9785647374044
3639.1492,0.7083585248761398,633.086023757488
3639.9885,0.7048167230742586,712.2521330291
3640.826,0.7027526406022248,788.0701312811065
3641.6653,0.7021968464874385,770.1535195980745
3642.5032,0.7027658641046897,712.5464117827235
3643.343,0.7036277949964007,959.9696619724599
3644.1812,0.7038144615955875,1021.3648481686068
3645.0195,0.7026393517248137,1052.4540471355458
3645.86,0.6999350139153878,804.2646834448997
3646.699,0.6961726517518221,956.7672133687939
3647.5398,0.6923362932503409,756.9162503224543
3648.379,0.6896470139076981,868.694477886229
3649.2202,0.6889846410138428,947.323524034585
3650.0596,0.6905040201551482,1073.8072481125098
3650.8994,0.6935707578637558,782.7046712867417
3651.7412,0.6970889167983522,884.8187100376826
3652.5813,0.6998863550392397,734.9211684309098
3653.4236,0.7010530009056244,1177.8782222216473
3654.2642,0.700045636601634,717.4456239542669
3655.1067,0.6968897026521985,683.6253186902809
3655.9475,0.692449719684845,981.3346341399262
3656.7886,0.6883734832982067,1111.223704395777
3657.6318,0.6864637653107595,819.8031062497549
3658.4734,0.687638535355066,1211.5317633821567
3659.317,0.6913061350642792,1074.7294823901082
3660.1587,0.695753372214875,951.6984885191545
3661.003,0.699257774501996,810.1819414584667
3661.845,0.7009009184352215,944.893927610321
3662.6875,0.7008481594750707,801.0544931215544
3663.532,0.6999210738513004,833.4483015117219
3664.3748,0.6989807618905893,786.4798397528941
3665.2197,0.6984005250002997,886.9432103276365
3666.063,0.6980256959722768,756.5955135218728
3666.9084,0.6975380844695868,1071.9077220160252
3667.752,0.6968269646985161,804.4345200767256
3668.5977,0.6959509593563757,829.8725857814075
3669.4417,0.6948835067583014,951.369162311196
3670.286,0.69342339327938,696.7383657011817
3671.132,0.6914445945372912,718.9348156689088
3671.9768,0.6891659382806096,774.1432826597767
3672.8235,0.6870451469983443,893.1010735240266
3673.6685,0.6854595833909312,803.035120705529
3674.5156,0.6844114139100235,861.1050903382056
3675.3608,0.6836192054597116,761.6575626473448
3676.2063,0.6827788236019937,812.9280036262443
3677.0542,0.6818034085618332,752.238167897848
3677.9,0.6808478282893026,1733.3554936399323
3678.748,0.6801082992716888,775.9970080943701
3679.5945,0.6796152260794791,1200.3868012970727
3680.4429,0.6791303186906904,767.7355235542148
3681.2896,0.6782745322297948,1183.6047819271262
3682.1365,0.676740635284255,935.3600563202714
3682.9856,0.6744430514402623,842.6229864766736
3683.8328,0.671539621848336,896.4816638934715
3684.6824,0.6683199408409509,1053.2651458691478
3685.53,0.6652831040799358,927.2459817033025
3686.38,0.6631629525433109,820.6766743770794
3687.2278,0.6628599527109272,1183.4931796174428
3688.0762,0.6649223341094774,756.0705514274491
3688.9265,0.6690705666487368,932.0379810046933
3689.7751,0.674163144427604,905.708913344014
3690.626,0.6788973328038205,942.8456989763054
3691.475,0.6824043897080804,905.5688987126571
3692.3264,0.6844509450008929,962.3444177948863
3693.1758,0.6850461592269981,924.3926261381805
3694.0254,0.6842684642189878,918.6776104299839
3694.8772,0.6823926112231194,968.2569152262931
3695.7273,0.6801003205087155,1044.196584320029
3696.5793,0.6782647988168019,1269.9154762225153
3697.43,0.6775508026736365,1060.6874892563526
3698.2825,0.6781713615875908,875.5290917666016
3699.1333,0.6800435182823411,956.4367862385388
3699.9841,0.6829595077557693,936.7798460752475
3700.8374,0.6864835429483971,1051.4874910231197
3701.6887,0.6897410701680478,851.749260573742
3702.5425,0.6916621785809597,696.4217732610268
3703.3943,0.6914405582120599,988.4918258775278
3704.2483,0.6889663986981002,887.0772828349891
3705.1003,0.6848340154404493,923.3276132685198
3705.9526,0.6800267591683073,857.0293459953828
3706.8074,0.6755640563107669,1146.5855621038388
3707.66,0.6721955230982497,1217.4812010924816
3708.515,0.670080669139679,800.5000470781317
3709.3682,0.6688538587366888,1102.8949444138486
3710.2234,0.6678100424485655,758.3997406118104
3711.0771,0.6662458791607745,898.442765099525
3711.9307,0.6637066481551289,1166.559266629103
3712.7866,0.6602018693474004,1196.5233921477598
3713.6409,0.6564030819816813,1080.259052898286
3714.4973,0.6534848020625438,1184.933331137357
3715.3518,0.6526959348878903,1325.862477314075
3716.2085,0.6547019370922101,842.0070930849894
3717.0635,0.6593234085475028,1210.6171414672604
3717.9185,0.6657651679922101,888.7356620639557
3718.776,0.6729793857667429,869.6272363366398
3719.6313,0.6797414397709783,921.4019568857101
3720.489,0.6848473371839128,908.8340664894566
3721.345,0.6872788731062432,1043.5605392964005
3722.2031,0.6867043191351205,1016.7578316027468
3723.0593,0.6835623737676463,846.1403267981973
3723.9158,0.6787273736838803,976.6869650452738
3724.7747,0.6730400432626135,1268.183463822181
3725.6316,0.6672058668461731,704.2966672975336
3726.4905,0.6617964056059035,1003.4976604306686
3727.348,0.6573964623052797,1046.3693262202785
3728.2073,0.6543833429676226,1096.322011083427
3729.065,0.6528698059926582,863.8845099982651
3729.9229,0.6527356895821889,913.6051760718656
3730.783,0.6538447665422191,841.8650725458748
3731.6414,0.6560533609900822,778.3327848722486
3732.5017,0.6590617895779958,848.6743462417946
3733.3604,0.6622583615707304,929.6670988746482
3734.2214,0.6649271238402801,773.9409459769691
3735.0803,0.6665361740587411,825.8787663394584
3735.9417,0.6669777354828822,1084.3034319933727
3736.8013,0.6663910390598669,845.4336300104376
3737.661,0.6648588697718262,1033.9042697758366
3738.5227,0.6622392318574241,816.8448977503685
3739.3828,0.6584265742970569,916.3288476983391
3740.245,0.6537764390681581,794.1125902507888
3741.1055,0.6494105526373417,982.9838261552202
3741.9683,0.6467411957042296,1471.2781619661187
3742.829,0.646653122952979,1204.0834963536045
3743.69,0.6487709318356089,1094.9850478628903
3744.5532,0.6516686546192294,975.9043215456591
3745.4148,0.6537395575094612,801.5678834280081
3746.2786,0.6541618796196643,1236.9790325180575
3747.1404,0.6531410114656506,997.4816606347944
3748.0044,0.6514970639754427,1053.971416225138
3748.8667,0.6500461245079502,854.0947363872676
3749.729,0.6492550224057216,1033.3795656797593
3750.5938,0.6493394942910667,782.2761879310865
3751.4565,0.6504031478543196,901.1751209561082
3752.3215,0.6523308009416776,749.6419240036628
3753.1848,0.6545601364084961,738.6946732564037
3754.0503,0.6562223874785971,910.5392487254762
3754.9138,0.6566153646636411,782.1865787033456
3755.7776,0.655702831063331,701.3940019202029
3756.6438,0.6540924484496745,1032.390987211015
3757.508,0.6526016274246904,1047.7844680354754
3758.3745,0.6516969142911294,845.0075845273378
3759.239,0.6513173904180188,834.1697821789659
3760.106,0.651090057486532,837.5925917635343
3760.971,0.6507528120208588,1127.3549749558408
3761.8362,0.6503512380238899,891.1095639426812
3762.7036,0.6500594929405488,889.344241738887
3763.5693,0.6498476780072052,1145.6621697077003
3764.437,0.6494060254256031,1114.7993841637265
3765.3032,0.6484538205777,867.0464841853702
3766.1714,0.6470380726082996,1155.3358994742691
3767.0378,0.6455032395521961,1196.8782998953072
3767.9043,0.6442004422389476,880.4222377231438
3768.7732,0.6433520647558891,966.2065477834915
3769.6401,0.6431015404295668,917.839741476322
3770.5095,0.6435372253039922,935.3659168574088
3771.377,0.6446397470218935,1038.1240589615059
3772.2466,0.6462254687400468,1173.0960889187645
3773.1145,0.6479235297208312,885.7684641649979
3773.9824,0.6492775779718355,888.5792448313563
3774.8528,0.649922994479142,1225.7882731098243
3775.721,0.649809632622422,996.9541778882393
3776.5918,0.6492518999277471,932.3000898583376
3777.4604,0.648668022529552,826.4433034607664
3778.3315,0.648240192994009,757.2427464481182
3779.201,0.6478928839682047,1035.9246698343968
3780.0703,0.647596648619621,995.2451798508814
3780.942,0.6476443566675968,960.2029913166695
3781.8118,0.6485179264780496,721.4669167435833
3782.6838,0.6504321612288642,866.5938375572435
3783.554,0.6529603526146087,1183.8816483670269
3784.4265,0.6551868208591614,1163.087781037621
3785.297,0.656208544718841,834.1018753446616
3786.168,0.6556977144129497,1236.5504965712748
3787.041,0.6539591808066023,925.4528902934387
3787.912,0.6516116459100516,946.9983660877843
3788.7856,0.6491322016168043,1254.7578723938398
3789.6572,0.6467235251840233,872.8737239142382
3790.531,0.6443801407843297,1116.5953957943925
3791.403,0.6421462897676891,1038.32918464865
3792.2754,0.6401868795931304,976.852067843731
3793.15,0.6387441649523952,999.2014258446284
3794.0225,0.6379788487471414,1004.3286426398992
3794.8972,0.6378103543670957,950.2574655309478
3795.7703,0.6379398118784199,1038.3085583004083
3796.6455,0.6380263980024462,1162.2297237844955
3797.519,0.6379247322169247,948.7829413375791
3798.3926,0.6377775429503344,1250.7309338814368
3799.2686,0.6378779386450955,1164.1777505684872
3800.1426,0.6384318654313608,1006.7247470431461
3801.0188,0.6394519824412568,1091.2083798396718
3801.8933,0.6408449202807903,816.8092951772045
3802.77,0.6425596843880859,1007.210087542304
3803.6448,0.6445105163735131,862.079542039467
3804.522,0.6464224483444092,1310.9450501729273
3805.3972,0.6477676292749418,899.9000349440083
3806.2727,0.648090616758051,816.1135302939593
3807.1504,0.647387758789665,773.8185731882755
3808.0261,0.6462489979704193,1027.768638940118
3808.9043,0.6455216717942336,1076.7463250649446
3809.7805,0.6457774420633721,888.2358150694524
3810.659,0.6469546502236176,937.3251330224225
3811.5356,0.6484345152774751,955.5715392143603
3812.4126,0.6494262158857391,1122.2562515075738
3813.2917,0.6493287959665359,877.7957377953352
3814.169,0.6479540875475266,888.4456084404599
3815.0483,0.6455785406634273,989.3571274256091
3815.926,0.6428579913409711,908.4789525272464
3816.806,0.6404891358781137,1275.5675041738205
3817.684,0.6388835629209283,1111.477156645369
3818.5623,0.6379790442664283,1225.8405081201536
3819.4429,0.6374363370268037,981.2121045338715
3820.3215,0.6369215367470924,1032.192395917327
3821.2024,0.6362347817570856,900.6726310597455
3822.0815,0.6353170887901732,1200.6912564868726
3822.963,0.6342137000566987,964.8089460462816
3823.8423,0.6330585280724315,1056.0801935107518
3824.722,0.6319771246115029,1109.1469610657052
3825.604,0.631013516903928,948.1926972390897
3826.4841,0.6301070611524324,1040.4493446172985
3827.3665,0.6290664361928248,993.1846256428194
3828.2468,0.6275730503638802,1228.266177116934
3829.1296,0.6251998937219264,1032.51388220969
3830.0105,0.6216189722914338,1079.2265818021353
3830.8916,0.6168115851904117,980.8408529226704
3831.7751,0.6112063121218709,1127.3491395582325
3832.6565,0.6055942805968273,1359.9533670689646
3833.5403,0.6006776677989432,1315.5574567514907
3834.4224,0.5968802920104511,1171.342530863152
3835.3064,0.594220168842145,1098.6510260528153
3836.1887,0.5925638024668346,1158.6143720996895
3837.0713,0.5918222794141347,989.4431864164558
3837.956,0.5921304498771898,1047.3862701685805
3838.839,0.5938077218186475,989.1992843601661
3839.7244,0.5971129041596471,1086.1696894579336
3840.6077,0.6018317688339064,1136.4727094264426
3841.4932,0.607150006672397,1190.6693229252762
3842.377,0.6118746804902883,1138.9721244733848
3843.261,0.6152272601341823,1260.998680226136
3844.1472,0.6174017337873675,1023.12268341118
3845.0315,0.6194654497855099,1004.5504986766415
3845.9182,0.6225624043571029,1073.071718116275
3846.803,0.6269757007550989,875.9017953084817
3847.69,0.6320380292023041,1058.0468594471815
3848.5752,0.6367108489506491,976.8189084025494
3849.4604,0.6404410136703773,969.2780655361132
3850.3481,0.6433714204184545,906.8104146163264
3851.234,0.645992860186245,1152.8499976541973
3852.122,0.6487417863444914,1066.3603795288116
3853.0083,0.651751327608773,934.3797748476313
3853.8967,0.6549765726923104,867.0357121886693
3854.7832,0.6582365474156752,923.133388991632
3855.6702,0.661265844948962,1024.3736624122728
3856.559,0.6636775477168358,951.506979403739
3857.4463,0.6650649682180367,979.188049783655
3858.336,0.6652034230597713,1074.4758028806068
3859.2234,0.6641232776592211,1151.2367323164674
3860.1135,0.6620881090227053,778.5188500964359
3861.0015,0.6595353111541714,813.1053877264271
3861.8896,0.6569207414807121,989.4996588614714
3862.7803,0.6545641650516397,1040.818607586408
3863.6687,0.6525319057482967,895.8928993002229
3864.5598,0.650621632523542,814.7013477137784
3865.4487,0.6486158703835252,1030.5691191055182
3866.34,0.6464891290255874,1074.0725830023543
3867.2297,0.6445391539576205,1205.2990477506592
3868.1213,0.6431555312531063,969.4992571614346
3869.0112,0.6424696062255465,1223.4070775993762
3869.9014,0.6420855249840177,1607.2018611883486
3870.7937,0.6412440297106575,1090.8459681645163
3871.684,0.6393116706248223,973.9619164422829
3872.577,0.6361794342989736,989.6059917423981
3873.4678,0.6322803582392046,1117.0582811645277
3874.361,0.6280806413004725,1299.7938557070408
3875.2524,0.6236886434993211,1022.6231871906025
3876.1438,0.6187470230697961,1234.3523704286645
3877.0376,0.6128516812855757,1298.6208921538685
3877.9297,0.6060337195764308,981.5025427657215
3878.8237,0.5987099796029549,1023.6808267104814
3879.716,0.5914252733890862,1342.4050940387556
3880.6108,0.5843422983149377,1008.7595910803108
3881.5037,0.5773888631344649,1051.9670911312373
3882.3965,0.5705375310966436,1298.887252402707
3883.2917,0.5641420184372947,1416.4767211988014
3884.185,0.558787695277405,1223.1761588677296
3885.0808,0.5547075514172385,1668.6396231699928
3885.9746,0.5516452971498077,1260.522747460891
3886.8706,0.5489712071381436,1427.8658114282155
3887.765,0.5461381403492975,1521.019109780528
3888.6592,0.5429281419181115,1238.6624724729852
3889.556,0.5395705072369049,1670.040870353514
3890.4507,0.5367164736520392,1465.137855518601
3891.348,0.5351819728985051,1610.9672166984456
3892.243,0.5357115371037959,1229.8426637704563
3893.1406,0.5387251855504003,1491.0231120631197
3894.0361,0.5441897118423175,1953.0772285011633
3894.932,0.5516421590928051,1186.376779302855
3895.83,0.5602541577593737,1510.794055729362
3896.7263,0.5689610441162051,1213.269964199884
3897.625,0.5769538333730996,1191.6702960074724
3898.5215,0.5838255777308528,1551.5823422212823
3899.4207,0.5897795065149827,1244.3007065052723
3900.3176,0.5952171783264655,1302.4648003717039
3901.2148,0.6005054696365332,923.8497874741399
3902.1145,0.6057920747897099,1105.110960484589
3903.0122,0.6111305814030009,985.6634147429991
3903.912,0.6167599845449243,1138.2298534725833
3904.8103,0.6229341150180148,1362.2761642882697
3905.7107,0.6297379815256652,1037.9357719444513
3906.6094,0.6368191478604246,886.1493974336065
3907.508,0.6436802438575208,832.4135970147917
3908.409,0.6500323133586923,1014.7871035619635
3909.308,0.6559723241296334,949.8073951357763
3910.2097,0.6619239573451149,956.3901411924656
3911.1091,0.668130283783494,809.5377274055713
3912.011,0.6745016783981503,1028.5064617815583
3912.9111,0.6805420489342086,755.6538126924652
3913.8113,0.6856941990072937,790.3095135714766
3914.7136,0.6894827223504761,835.9334072864997
3915.6143,0.6916030376224337,832.1988611531975
3916.517,0.6921387232837852,828.1682643036005
3917.4182,0.6916788982642192,939.2370802842917
3918.3215,0.6911942473649252,914.7292009318536
3919.223,0.6915378591509809,1048.1202664754724
3920.1245,0.6929288516047506,933.918252172721
3921.0286,0.6948589774719529,786.0271762784479
3921.9307,0.6964567603416368,742.0771796451511
3922.835,0.697127774472853,764.183615194478
3923.7373,0.6969358609990755,829.5834495948994
3924.642,0.6965133984257027,1084.751665228232
3925.5452,0.6965301241834916,998.8878833815785
3926.448,0.6971981508220632,787.1820985861311
3927.3535,0.6982526212631076,727.8434702188209
3928.257,0.6992853228435952,993.5779456082998
3929.1628,0.7000328449838917,719.5336212433754
3930.0667,0.7003232545903993,899.8205663834358
3930.9731,0.6999741632284033,808.171340361147
3931.8774,0.6988638454932466,752.1364917399779
3932.782,0.6970957975945599,872.5030260292682
3933.6887,0.694997142052736,990.253950981963
3934.5938,0.69293212615233,937.4652149388901
