wavl,flux,ivar
3566.9744,0.9828484244802811,114.71610344840644
3567.795,0.9747817420174233,133.1141177519952
3568.6177,0.9653046294233124,186.98329137397718
3569.4385,0.9542608839075585,107.01757742560741
3570.2617,0.9370704067509579,129.3756027915565
3571.083,0.9014447904690562,147.83746603302865
3571.9065,0.8239343803391971,79.76495816982812
3572.7283,0.6750282214073873,162.06569459336976
3573.55,0.43768583153583807,131.5844112396533
3574.374,0.13733933775119625,170.54266724355597
3575.1963,-0.1406082796865588,273.3601525212861
3576.0208,-0.2873659898325448,116.51584998018477
3576.8435,-0.23543134758334572,176.39237099961124
3577.6682,-0.009636581611257402,89.49080264066403
3578.4915,0.2910066942857384,161.02246701982432
3579.3145,0.5632085516471236,175.9743989867122
3580.14,0.7531098121632184,135.5574385401402
3580.9636,0.8599005453836512,130.8301863100507
3581.7893,0.9112700793931373,292.10174090978825
3582.6133,0.9335749868956146,196.01467201602364
3583.4395,0.9421980752963748,105.71690772224146
3584.264,0.9429691443582555,169.31585659470238
3585.0884,0.9378817324773824,117.19590908934761
3585.915,0.9285933064999247,79.50991248070113
3586.74,0.9176006570259696,102.84996432948614
3587.5671,0.9076644618901978,100.61803679467077
3588.3923,0.9012039424214965,195.49778481744227
3589.22,0.8995168836757851,126.14805522809587
3590.0457,0.9026100853764938,122.27776973252735
3590.8716,0.9091982718990173,133.778884881923
3591.6995,0.9171612984635208,102.44820376075094
3592.526,0.9241749574677693,162.1895535884592
3593.3542,0.9286346773609049,120.3333475769453
3594.181,0.9300710659809244,140.75369568341864
3595.0098,0.9291177788363599,165.58772465849245
3595.8367,0.9268297935389096,135.9978457245313
3596.6638,0.9239664800497329,110.02567280996857
3597.4934,0.9208062296994585,170.76760266167838
3598.3208,0.9176695057271652,190.11768973248914
3599.1506,0.9153957275033141,149.34925335466733
3599.9788,0.9150931420159969,179.90947872120356
3600.8088,0.9169298978770145,174.80315976358008
3601.6372,0.9193124589266962,165.01299837166073
3602.4678,0.9195657966521248,119.94817083365211
3603.2964,0.9157925128154779,116.67611330817596
3604.1252,0.9084319347867342,76.77562496545575
3604.9565,0.9001760234021359,184.43683048255176
3605.786,0.8945105095292353,128.92530078426893
3606.6172,0.8936957118069532,209.312484023803
3607.447,0.897792095351847,159.17048548346406
3608.2788,0.9047185237208427,79.9743053506929
3609.109,0.9111780114444054,175.14641666276518
3609.9392,0.9142057542080267,112.60924041982477
3610.7717,0.912446094818111,111.71501737590484
3611.6023,0.906716440533607,134.84929443282445
3612.435,0.8993254348227693,203.84087774356357
3613.266,0.8928877713220682,125.92490826727092
3614.0994,0.8891596381851894,161.3187580271609
3614.9307,0.8887139764735645,294.6310461416491
3615.7625,0.8909235874309926,96.15871347205157
3616.5962,0.8943642948587709,130.83451497412733
3617.4282,0.8973935753540692,168.81484964933628
3618.2625,0.8989546067076603,120.04340848617609
3619.0947,0.898961733000946,114.10619963030513
3619.9292,0.8981122876707303,114.55419893220572
3620.762,0.8972733099657366,124.58925010249837
3621.595,0.8970599839501637,185.88452704375294
3622.4302,0.8978246222846816,149.33892089639963
3623.2634,0.8996888581785991,180.92561965088618
3624.0989,0.9024161864098529,123.75645894722733
3624.9326,0.9052141897244249,284.3397609234054
3625.7686,0.9068898668468687,114.55560139212324
3626.6028,0.9062687103048169,184.75118285164925
3627.437,0.9029057772780148,102.84081042699468
3628.2734,0.8976201356907222,90.78670232620267
3629.1082,0.8924456041783175,108.78081977306532
3629.945,0.8894520111200979,315.24178505043886
3630.78,0.8894220068656065,156.89897834106662
3631.6174,0.8913576165805409,147.78767591160772
3632.453,0.8933770694195181,120.25515765062283
3633.2883,0.894020776544934,164.33899619677743
3634.1262,0.8928140082119242,144.00762397108127
3634.9622,0.890047838701713,220.43625147197798
3635.8005,0.8862422277107129,158.4154774823587
3636.637,0.8818713940946605,198.77074161764733
3637.4756,0.8772703962802686,75.06253560200837
3638.3123,0.8729574134747218,156.66870245423
3639.1492,0.869830952651214,106.91381204422524
3639.9885,0.8691529811801362,158.8568427101732
3640.826,0.8719340223404243,113.616013736792
3641.6653,0.8781278196373755,216.95161486132125
3642.5032,0.886236880085494,140.6285261557793
3643.343,0.8938640134659522,149.5313334198398
3644.1812,0.8985813996303202,148.52729908516525
3645.0195,0.898880856908926,200.27624104330326
3645.86,0.8944367564149308,160.96740427114284
3646.699,0.8861778358031167,189.41047097747366
3647.5398,0.8759884413755651,148.88085327828145
3648.379,0.8662489016494234,193.83851553220865
3649.2202,0.8586523990028558,193.35460888470467
3650.0596,0.8534395994617057,217.05439801838492
3650.8994,0.8493453450172801,164.27985218670554
3651.7412,0.845029758346526,92.34776032270825
3652.5813,0.8406244228818079,153.95538834144543
3653.4236,0.8377758022408367,337.7501467629708
3654.2642,0.8380528705211553,138.53094375656144
3655.1067,0.8410638340438792,168.74937629818234
3655.9475,0.8442830107606184,150.67629017440433
3656.7886,0.8447785027472234,215.03325122096308
3657.6318,0.8412260742355718,128.7102189647315
3658.4734,0.8347804020743002,122.29867509378896
3659.317,0.8281380959208768,171.32965388153616
3660.1587,0.8238112544092987,279.07315861597124
3661.003,0.8225142439496697,118.86438862050124
3661.845,0.8229409789856896,161.6158405704436
3662.6875,0.8228004779312477,290.1236399863185
3663.532,0.8205085763830084,96.6599980934939
3664.3748,0.8163158584025971,126.96157503616064
3665.2197,0.8120191048779304,138.7724588540774
3666.063,0.8097004087122313,148.06248000052094
3666.9084,0.8103900569797015,165.37817143224183
3667.752,0.8137724117204466,141.21003804196744
3668.5977,0.8187624089464638,171.01805378318298
3669.4417,0.8241920816330681,196.78799969262744
3670.286,0.8292878748218733,134.469274330876
3671.132,0.8337433994267439,137.93097876566506
3671.9768,0.8376905879004836,186.16598012000176
3672.8235,0.8415988708036645,165.665579768971
3673.6685,0.845766257756095,156.8810160878909
3674.5156,0.8498577650544018,128.73938286641084
3675.3608,0.8527106691878442,130.35552597748446
3676.2063,0.853003783938606,144.33774198481495
3677.0542,0.8501618705792398,176.9751555492491
3677.9,0.8449405499097622,124.236105589885
3678.748,0.8390014805956757,105.84605452575904
3679.5945,0.8340479236892329,294.57685907222117
3680.4429,0.8308816064402583,157.620466595978
3681.2896,0.8292343056651371,164.38094122724127
3682.1365,0.8280706113795473,129.2496845891691
3682.9856,0.8262616731651488,132.05394319003184
3683.8328,0.8231968020825055,102.77759986575688
3684.6824,0.8190646278737141,177.9290733012347
3685.53,0.8148085410497007,195.1695278364972
3686.38,0.8115696320786159,249.69365953413205
3687.2278,0.810257933233445,196.7907161568852
3688.0762,0.8113544624733489,148.2608280862208
3688.9265,0.815064155630176,252.1572656250586
3689.7751,0.8211835873464484,192.80200226258512
3690.626,0.8288828032859739,260.3316087816572
3691.475,0.8366280169575792,150.20003313736098
3692.3264,0.8428845106876933,155.14149083685922
3693.1758,0.8466213218991006,120.73279671082138
3694.0254,0.8475719272949349,159.39401051972936
3694.8772,0.8459408918351999,252.92512879035303
3695.7273,0.842314358042702,135.14240124162276
3696.5793,0.8376938700998897,184.584526753759
3697.43,0.8335075829062968,219.14949351041938
3698.2825,0.8311057400480787,147.99292160570187
3699.1333,0.831017599119152,201.27740645963001
3699.9841,0.8322788403319866,128.11914460749782
3700.8374,0.8326700297515617,163.08799191191184
3701.6887,0.8299075005656311,236.97062841804984
3702.5425,0.8230808905254083,177.50458104528238
3703.3943,0.8133358358059248,169.95338280566213
3704.2483,0.803091101131741,183.4916867315375
3705.1003,0.7948166150650234,187.75994043754693
3705.9526,0.7897614118693712,147.24302522629216
3706.8074,0.7878325129691535,172.85608092949838
3707.66,0.788072273951973,208.79456836713416
3708.515,0.7893573937925885,128.3315852197983
3709.3682,0.791006203338105,143.30761026441104
3710.2234,0.7930417594303151,159.32793830018954
3711.0771,0.7958544392298421,172.79789996948736
3711.9307,0.7994763698519746,196.7669165975631
3712.7866,0.8029926395409863,234.769126522431
3713.6409,0.8046531977850243,166.63982929517994
3714.4973,0.8028006005219377,421.0155717855704
3715.3518,0.7968745118426608,132.04746641245885
3716.2085,0.7878224313941009,180.39918140618582
3717.0635,0.7778005334299785,263.62610032997975
3717.9185,0.7691589542361148,242.80340478704355
3718.776,0.7638081693650796,336.99266566181
3719.6313,0.7629534859853899,446.9216623435516
3720.489,0.7667682393784956,257.3202080793996
3721.345,0.7741432312452374,172.20552983915923
3722.2031,0.7829721068615739,135.6460106588411
3723.0593,0.7909655943926751,160.04015269144742
3723.9158,0.7966870841843812,284.7427352852897
3724.7747,0.7996183344471048,134.46318106705115
3725.6316,0.7998261414375093,315.1007388442315
3726.4905,0.7978371418038581,173.82466348978983
3727.348,0.7946597170269943,251.33934511715262
3728.2073,0.7915501453040755,172.15270518658946
3729.065,0.7894646783295381,298.8654849977358
3729.9229,0.7884451136756447,159.91238009874849
3730.783,0.7875668416412044,147.8282403185709
3731.6414,0.7855302509692046,185.6930369483564
3732.5017,0.7816410796296308,154.44850646758152
3733.3604,0.7765645305279807,129.59025367346263
3734.2214,0.7720161663157052,254.7880461543122
3735.0803,0.7696679683739173,196.97428648585412
3735.9417,0.7698806772260707,183.39957994764137
3736.8013,0.771563113975066,191.88188518137008
3737.661,0.7730416814980984,220.71216707920146
3738.5227,0.7731088909793006,389.78841858206715
3739.3828,0.7713834152646722,216.7398863790634
3740.245,0.7680192330703647,148.52549310767165
3741.1055,0.7634189567643754,149.66418008708854
3741.9683,0.7581533355047269,194.79069194560856
3742.829,0.7530966909723857,282.1304119858389
3743.69,0.7491530671173919,185.2024478412151
3744.5532,0.7469681173736473,214.9457138363873
3745.4148,0.7467188275589305,179.6608678255368
3746.2786,0.7480564762079155,175.00570848300563
3747.1404,0.750169188192638,324.4802956684969
3748.0044,0.7518830422275078,155.19650741020385
3748.8667,0.7518608164357564,238.95657102493956
3749.729,0.7491316187510578,199.71392413825424
3750.5938,0.7437017568282679,166.86526095676527
3751.4565,0.736939676411011,208.6976454823694
3752.3215,0.731006482844961,130.91079852153345
3753.1848,0.7278648462388808,290.3395786411138
3754.0503,0.7282672912767858,203.3641601277192
3754.9138,0.7317298496500914,248.64290697215517
3755.7776,0.7371280745323026,169.15715045842475
3756.6438,0.7432491965628293,233.60405842480134
3757.508,0.7488225747128934,151.32715701827456
3758.3745,0.7526732214658743,166.73894235698344
3759.239,0.7540437167805445,192.587413926669
3760.106,0.7531586971366568,224.62473947637992
3760.971,0.7511715330941919,200.11888741367667
3761.8362,0.7495485723335654,388.14731780233836
3762.7036,0.7494200886360475,199.17346845693024
3763.5693,0.7512710230302727,229.93559848120842
3764.437,0.7548472587966706,155.28195403810705
3765.3032,0.7589765269222369,235.28678851604047
3766.1714,0.7615946569631983,231.51842052038035
3767.0378,0.760343809845203,179.9903928645606
3767.9043,0.7539964490325782,188.31348483666315
3768.7732,0.7436139377761001,251.9233374720657
3769.6401,0.732490576209139,339.3973257851767
3770.5095,0.7240994879072485,156.4465078617483
3771.377,0.7200676997439156,199.96271854936754
3772.2466,0.7193721801249385,205.00017780838712
3773.1145,0.7198413046774561,216.16625401904454
3773.9824,0.720105137534327,194.6284965660001
3774.8528,0.7203165281949818,249.81667038259562
3775.721,0.7212979831644925,194.84609638521204
3776.5918,0.723393584299268,168.5557921170282
3777.4604,0.7261601152553693,301.2019215421916
3778.3315,0.7289959144205043,247.99841879603983
3779.201,0.7317006377003963,205.28556997855836
3780.0703,0.7345109004106943,161.92997128671428
3780.942,0.7375800942787325,184.94142454413404
3781.8118,0.7405708271687022,188.85793950613444
3782.6838,0.7428305062316842,268.5746224748318
3783.554,0.7438007043631631,150.37498009876649
3784.4265,0.7433870632203007,192.8915590595459
3785.297,0.7419220408613496,194.28086514226834
3786.168,0.7398899941862092,171.14563847745998
3787.041,0.7376607363907598,244.52126261974968
3787.912,0.7354975843102197,237.38450082418504
3788.7856,0.7337136640848274,205.79919639298194
3789.6572,0.7327335806576842,240.84973209852114
3790.531,0.7326885267806864,249.02172967342395
3791.403,0.7330424833516243,210.1029179100825
3792.2754,0.7327306124444133,145.29483385318898
3793.15,0.7308010478250971,187.03251940343904
3794.0225,0.7270291443515974,208.33928600906165
3794.8972,0.7220523681189046,168.9581668340173
3795.7703,0.7172344073046069,234.03467914490068
3796.6455,0.7140947929555975,408.9535369129331
3797.519,0.7136463351765419,228.53362197549674
3798.3926,0.7157395406209337,214.59916678386082
3799.2686,0.7191799254376569,281.09302411799723
3800.1426,0.7224386848815666,245.39890128275619
3801.0188,0.7245203850186237,166.782812051425
3801.8933,0.7251701817002622,188.92070995085217
3802.77,0.7246684060183601,227.90060997412616
3803.6448,0.7234844654274255,195.01125210212084
3804.522,0.7220447401150966,191.38131885870226
3805.3972,0.7205967661615821,202.5825678405606
3806.2727,0.7191182500543892,169.3499595058513
3807.1504,0.717423844325178,265.40254193802116
3808.0261,0.7153947152839318,238.65856951974445
3808.9043,0.7131200433292775,167.46448076313172
3809.7805,0.7109336346452697,290.04875015734206
3810.659,0.709192268422721,279.57151419968375
3811.5356,0.7080509109164632,277.5763266736011
3812.4126,0.7072581802075878,307.8092398552789
3813.2917,0.7062728282325402,192.0519146617568
3814.169,0.7046782397595108,333.2487474162427
3815.0483,0.7026002426731367,210.50200332615512
3815.926,0.7007953416993792,220.87272324905456
3816.806,0.7001936382496192,231.8484354552121
3817.684,0.7013303494680134,219.87693320371156
3818.5623,0.7040120551791685,284.43255541967585
3819.4429,0.7074510237721198,212.26093472845625
3820.3215,0.7106068136792433,238.83836720332295
3821.2024,0.7126430866754692,236.57827832974624
3822.0815,0.7131161014122066,215.34403218432115
3822.963,0.7119995130645063,239.52890075299769
3823.8423,0.7094704729018801,264.6879088882011
3824.722,0.7057090953284059,198.90344320435378
3825.604,0.7009074968073711,214.43311337567033
3826.4841,0.6954425124049839,274.33598362765775
3827.3665,0.6897629810914614,229.94695351393256
3828.2468,0.6842702785251578,183.76118420739704
3829.1296,0.6790495001386788,288.8853419348496
3830.0105,0.674066340986302,217.58869251930955
3830.8916,0.669326811915576,214.6532556848284
3831.7751,0.6650558837361734,280.34794594280635
3832.6565,0.6615907294104861,226.128172094611
3833.5403,0.6590438787237026,251.64824348093407
3834.4224,0.6572571022833483,188.17058724785252
3835.3064,0.6558637989918444,263.02200444271125
3836.1887,0.6545319844951524,203.38879617042642
3837.0713,0.6531219041359085,250.10070795353462
3837.956,0.6518125405284214,356.3159208806985
3838.839,0.6511090890321765,239.34473132638553
3839.7244,0.6516943305125472,305.31221149243214
3840.6077,0.6542705891140305,234.06017132426217
3841.4932,0.6594186879657489,232.4716871340601
3842.377,0.6672381214317104,306.0977668340098
3843.261,0.6769597748150026,347.7593144343754
3844.1472,0.6867682122718917,330.42960215687685
3845.0315,0.6943472344809674,253.45202306938597
3845.9182,0.6982900140073172,180.07403708561128
3846.803,0.6989333694534343,238.56495621311484
3847.69,0.6982049190503133,291.8702761588573
3848.5752,0.6982280106389647,301.8056696569071
3849.4604,0.6999584298472273,180.45470827546083
3850.3481,0.7029246944202112,172.69926483280815
3851.234,0.7059847479504124,235.50043894926185
3852.122,0.7083085664782738,151.0208151947131
3853.0083,0.7096366005809303,204.8921337801397
3853.8967,0.7100777143109268,201.4687829039055
3854.7832,0.7097930545828365,178.43626890774763
3855.6702,0.7089519634392046,216.85008618705223
3856.559,0.7078083386187313,179.4346406555575
3857.4463,0.706779045016352,201.8076273442497
3858.336,0.7064258243590549,188.39150321741963
3859.2234,0.7073381936630871,251.99281730122118
3860.1135,0.7098167706975625,265.00418549121366
3861.0015,0.7134771484943818,155.29607366986392
3861.8896,0.7172180548588242,212.5935003432495
3862.7803,0.7196516216562391,242.08517069269755
3863.6687,0.7198204453383841,254.1271631708287
3864.5598,0.7177042209855102,297.8918057857869
3865.4487,0.7140803602696996,265.8388765065928
3866.34,0.7098986794895382,292.0549715824877
3867.2297,0.7057929889874559,179.75927630345652
3868.1213,0.7018563936881493,268.19973319363095
3869.0112,0.6979145841012147,351.7440543876273
3869.9014,0.69374911439295,266.22778533564303
3870.7937,0.6892663038249613,246.6516736967296
3871.684,0.684531103578791,221.2060219397014
3872.577,0.6796133510148005,291.79798317189454
3873.4678,0.6745442495971375,305.2886728555901
3874.361,0.6691055863279308,201.70528069879623
3875.2524,0.6630304683960662,234.17013660216156
3876.1438,0.6562671234962805,264.4990140339336
3877.0376,0.6492948273100387,522.0996729893809
3877.9297,0.6430385543377785,363.55115121477064
3878.8237,0.6382368245915738,234.01793719679424
3879.716,0.6350601288363563,321.93984725584926
3880.6108,0.6329352715752795,411.9676853105075
3881.5037,0.6309144242319668,248.87408463543025
3882.3965,0.6281014196894142,295.39293368674964
3883.2917,0.6239678425723106,232.21370329079016
3884.185,0.6184133927787012,377.84926088577697
3885.0808,0.6115958094823887,282.4272844008031
3885.9746,0.6040717396409012,218.720824108222
3886.8706,0.5967755482611846,284.3216469954274
3887.765,0.5910168879750035,543.0106873755799
3888.6592,0.5878668313662982,442.46952709714566
3889.556,0.5876630270791706,337.84907577741393
3890.4507,0.5898067765385298,253.6255568922873
3891.348,0.5930888715725136,346.29700927156114
3892.243,0.5962483297434347,259.11952379133214
3893.1406,0.5985491140352075,291.8415251506371
3894.0361,0.599939274325938,245.27978533231186
3894.932,0.6008908690038184,513.9887287283502
3895.83,0.6018595927824552,387.37473641933025
3896.7263,0.6028692918461297,325.25590975596504
3897.625,0.6036289235931461,267.5261567183899
3898.5215,0.6040709324389519,251.44716445150593
3899.4207,0.6048132157119602,278.1167644053764
3900.3176,0.6070023759392521,366.7964311903241
3901.2148,0.6117045240584231,293.63479099297257
3902.1145,0.619315546307222,209.95150648607387
3903.0122,0.6292564519814311,310.0689188994713
3903.912,0.6403052458867297,268.31834021911243
3904.8103,0.6508760773203909,359.73011724269276
3905.7107,0.6596905671902379,181.01136257207713
3906.6094,0.665982655893641,238.99090021040547
3907.508,0.6698274675257294,296.50957602851923
3908.409,0.6720527193149362,188.0231965677081
3909.308,0.674011723733038,316.29422727591225
3910.2097,0.6771450003959428,273.4447791428974
3911.1091,0.6822836219377023,231.6424386065314
3912.011,0.6891965395517413,201.51886176910182
3912.9111,0.6964673837999945,331.04275997597017
3913.8113,0.7022428857659929,162.91394335381352
3914.7136,0.7051869155348085,519.5404773594217
3915.6143,0.7051801320332239,425.6288909124248
3916.517,0.7032751952079352,219.54241562643867
3917.4182,0.7009669571377678,291.0177779095112
3918.3215,0.6994660208403218,189.49600630955027
3919.223,0.6994961494181327,201.35665311910256
3920.1245,0.7013699321574466,297.24162230820673
3921.0286,0.7050650079664132,223.6816372153859
3921.9307,0.7101094193211778,227.21899420858026
3922.835,0.7156565613196079,187.94649827867613
3923.7373,0.7205740076456457,212.72750689985466
3924.642,0.7238338687034638,155.1596349387478
3925.5452,0.7248238643450455,210.4372391939519
3926.448,0.723742161393141,233.28384732194826
3927.3535,0.7214900894590852,153.0738336026219
3928.257,0.7191349335355937,208.6430169259731
3929.1628,0.7171566723485674,268.00976983893935
3930.0667,0.7152080891315665,236.16520974056706
3930.9731,0.7124581796180998,250.16160480355742
