wavl,flux,ivar
3566.9744,1.448529155074291,99.88138437241777
3567.795,1.4486024565846374,99.79639834914175
3568.6177,1.4512085136035797,150.0464651288888
3569.4385,1.4544541471279986,106.9507126792216
3570.2617,1.4573789655385492,120.33922772542745
3571.083,1.4600112602282211,148.64502115866117
3571.9065,1.4624304268001076,147.00012662599303
3572.7283,1.4637120214245483,101.8250284742661
3573.55,1.4621558210919483,126.05006484703681
3574.374,1.4565540252397764,142.76979252623818
3575.1963,1.4474543136349218,187.6852756435893
3576.0208,1.4370354920393194,108.70288322207695
3576.8435,1.428066771957745,231.97291009799255
3577.6682,1.422292910868939,123.9515715285519
3578.4915,1.419851727530524,97.50263690309825
3579.3145,1.4196426302707135,86.87716638697336
3580.14,1.4206206163487807,95.37987687007268
3580.9636,1.4226153740898142,114.53333168652964
3581.7893,1.4260261621155572,119.93405727426743
3582.6133,1.430834815378403,128.5843278632576
3583.4395,1.4362777669301463,163.11344689648897
3584.264,1.441213503468401,102.4086183355291
3585.0884,1.4447359552805459,120.11482229298923
3585.915,1.4462018525845661,178.4632121263804
3586.74,1.4452005245864106,137.18061835947634
3587.5671,1.441880216519104,103.03138911362282
3588.3923,1.437288930814888,102.49861058044223
3589.22,1.4329444066781813,173.81211195354118
3590.0457,1.4299179673794706,137.09753102736536
3590.8716,1.4280992748624532,135.47137144315923
3591.6995,1.4266120232971804,114.82071511626077
3592.526,1.4248011555219693,109.77332295350648
3593.3542,1.422913704502689,116.51492729733037
3594.181,1.4219968407934513,128.5629717814992
3595.0098,1.4229381318388965,111.4769577741674
3595.8367,1.4252476444644655,105.54704681107633
3596.6638,1.4265423929727081,136.94823315673656
3597.4934,1.423533728744886,113.6473903686762
3598.3208,1.41428097733697,127.00472326968212
3599.1506,1.3998266158650265,113.33827736132093
3599.9788,1.3840481076393176,83.12555151189869
3600.8088,1.3711576542156363,152.40635515279803
3601.6372,1.3635953765880413,176.9038519618885
3602.4678,1.3611949727044383,92.88387617486595
3603.2964,1.3624807313280958,116.33517954103013
3604.1252,1.3660727547363196,113.77820161868483
3604.9565,1.371240046351385,158.9952075504514
3605.786,1.3775374022891713,100.27106676776609
3606.6172,1.3846626507611843,128.52410383029354
3607.447,1.392334570938688,124.35877966682793
3608.2788,1.4001803160163353,145.81980246641643
3609.109,1.4071544418430184,101.6062294993037
3609.9392,1.4116442568780212,114.32215667118834
3610.7717,1.4121798891901338,130.80826728156362
3611.6023,1.408464929048909,100.19315243218631
3612.435,1.401691770834488,109.6087239220457
3613.266,1.3940001605140542,158.1819869909648
3614.0994,1.3873715830737139,112.3137890815035
3614.9307,1.3830154129026495,155.69202376378334
3615.7625,1.3810135055068544,137.83919896845939
3616.5962,1.3805173769554597,90.76872283772543
3617.4282,1.3800631322403034,102.2223234216226
3618.2625,1.3781489092542871,119.77658740308607
3619.0947,1.3740233453871162,91.94924453443382
3619.9292,1.368157069997677,147.2664493645435
3620.762,1.362078305912794,145.3239209037708
3621.595,1.3573148683037528,156.45446779818167
3622.4302,1.354469005904336,102.92554916764631
3623.2634,1.3530097399635783,134.01209940561753
3624.0989,1.3518666473254382,104.75228932509444
3624.9326,1.3503280086800167,125.22366136959609
3625.7686,1.3484110640830738,131.9038691994381
3626.6028,1.3467276400898778,163.43961378646458
3627.437,1.3460749695340524,143.35571929376033
3628.2734,1.3470277773605766,124.05979415341059
3629.1082,1.349344603289299,89.68515730900683
3629.945,1.3515134751950364,132.69234331998007
3630.78,1.3510445362432828,136.660868916356
3631.6174,1.3457363056118754,124.06163874312229
3632.453,1.3349800749518284,159.55151584675139
3633.2883,1.319978686833464,131.6025060634833
3634.1262,1.3030314426156182,135.285810087796
3634.9622,1.2867761215499778,171.17054722024332
3635.8005,1.2731491142751945,154.74228571678574
3636.637,1.2631877492235062,168.08505300702336
3637.4756,1.2564837583023805,145.93160821271613
3638.3123,1.251677079703518,114.28584781220559
3639.1492,1.2472929552948635,176.44709238974872
3639.9885,1.242839758807177,155.10629712101516
3640.826,1.2390041108794947,155.82803672256205
3641.6653,1.2367146832145277,131.2935859750773
3642.5032,1.2362689214897291,154.1209595938807
3643.343,1.237245346371419,223.74058178564198
3644.1812,1.2391882740890268,167.85377458240063
3645.0195,1.2420335993403562,147.98712728600316
3645.86,1.2457602378584,165.63287002869208
3646.699,1.2497416684646379,141.49167842218864
3647.5398,1.2527428033224486,139.2623119025634
3648.379,1.2535324848378064,113.20483504127502
3649.2202,1.2517454223988804,153.65525975945133
3650.0596,1.2481712233371547,168.45799292682818
3650.8994,1.244339851834624,197.9791156598127
3651.7412,1.2417653734316807,122.03828655987073
3652.5813,1.2411767101374571,222.87818850013053
3653.4236,1.2420011579804742,201.49827570341947
3654.2642,1.2425772626825464,134.2653415320353
3655.1067,1.2411973575910746,108.59526360741413
3655.9475,1.2374030871876511,152.0605110520254
3656.7886,1.2324157401495668,142.30682070147452
3657.6318,1.2283384401430577,154.06460412901467
3658.4734,1.226916590161244,133.6701326125493
3659.317,1.2287649139978654,191.47321047085262
3660.1587,1.2333945241176676,177.58918746566732
3661.003,1.2394209100503741,135.15590668515037
3661.845,1.2446309144759506,180.32377406944232
3662.6875,1.2466561786468877,131.6051032527841
3663.532,1.2440472674634062,215.20423411666115
3664.3748,1.237295939767715,174.97662352835385
3665.2197,1.22855158080322,224.2822272556857
3666.063,1.2203669362871146,125.72492123313576
3666.9084,1.2142250026224097,184.17338609373724
3667.752,1.2103704402881617,142.6771411816304
3668.5977,1.2082904974919078,159.7751656359002
3669.4417,1.2074678792892302,170.8336256933353
3670.286,1.2075900752399191,133.1860764976359
3671.132,1.2084984147888618,158.50115719050854
3671.9768,1.2099331984879542,139.80272521913156
3672.8235,1.2112260763154084,190.82730053036698
3673.6685,1.2111649859357316,136.64979103530146
3674.5156,1.208433073255698,172.01495963633852
3675.3608,1.2024504036962338,160.9188578881779
3676.2063,1.1939023463015512,156.71573028737672
3677.0542,1.184579573482745,198.80325611901247
3677.9,1.176763779590655,165.74506357372528
3678.748,1.172213785892262,216.89487560722137
3679.5945,1.1715793772992247,178.87141418588257
3680.4429,1.1738256519691266,216.22853020918865
3681.2896,1.176376428533483,165.53600926808275
3682.1365,1.1761490764513156,201.71416499074016
3682.9856,1.1710533210527532,185.11738777211838
3683.8328,1.1611743571494422,185.38114146817188
3684.6824,1.1486369233665812,274.21983040316013
3685.53,1.1367448363768136,208.94838825112282
3686.38,1.128345081843093,228.86483510758114
3687.2278,1.1248902902830098,166.74548396593585
3688.0762,1.1258646136597816,175.54811306801662
3688.9265,1.1293675714609674,187.75207057493753
3689.7751,1.1331962832315396,184.25425285477382
3690.626,1.136067045128947,184.18591141630947
3691.475,1.138063167705966,143.6709321005284
3692.3264,1.1402793002024003,183.5554798044313
3693.1758,1.143799560321531,180.02329920019736
3694.0254,1.1489158441290552,161.36050288376416
3694.8772,1.1549701749339336,173.2558003774298
3695.7273,1.1606946487263352,237.89783677083184
3696.5793,1.1647699938141003,182.4435672159168
3697.43,1.1660514554768364,169.43166552615182
3698.2825,1.1639218262218478,203.22144398967615
3699.1333,1.1586206529521954,186.03419847171347
3699.9841,1.1513781178367453,144.40751866515205
3700.8374,1.1441307446321085,156.39583865777908
3701.6887,1.1389468478669658,258.51858957871116
3702.5425,1.137154220799829,236.5114320379165
3703.3943,1.1389188178208063,250.1980137038996
3704.2483,1.1431751318842716,139.2743111214018
3705.1003,1.14810671754925,161.98370095269416
3705.9526,1.1519915689897577,167.8129408179921
3706.8074,1.1537473922582973,200.71151831120147
3707.66,1.1529762831373076,173.8947012818054
3708.515,1.1497004781769768,180.93487454220917
3709.3682,1.144290564334029,128.0636537710463
3710.2234,1.1376140377770985,276.94299214933176
3711.0771,1.1310994060225066,169.9737184425909
3711.9307,1.1260813920620494,187.62028006234843
3712.7866,1.1231423786098889,195.31376168531668
3713.6409,1.122004160097582,184.74660319430242
3714.4973,1.1220259643902901,184.5614924956537
3715.3518,1.1228395445418924,179.9304368393651
3716.2085,1.12437153963411,155.24257184702458
3717.0635,1.1263422698589247,163.43609542472993
3717.9185,1.1279705267231999,171.39421418507862
3718.776,1.1282919797783475,182.7595093463826
3719.6313,1.1268583913647043,161.92595087963312
3720.489,1.124101014927403,182.25780070823146
3721.345,1.1210076815261805,170.81709862786502
3722.2031,1.1183225834904695,173.60101489444864
3723.0593,1.1160763975770909,217.16949514156124
3723.9158,1.1137069005643765,211.38907080681383
3724.7747,1.11077328009764,206.7641172156983
3725.6316,1.107569506066367,156.9420253538517
3726.4905,1.1049954988056088,205.2445176353428
3727.348,1.1038934627942043,222.88795457109103
3728.2073,1.104262215377172,222.28421182569062
3729.065,1.1051184711161184,193.30921768063186
3729.9229,1.105101332015623,188.88145542351228
3730.783,1.1034081027721592,198.91733805764858
3731.6414,1.1003599587170476,197.59667523592174
3732.5017,1.097033388104057,245.0569735754614
3733.3604,1.0943695114043233,145.52658026952253
3734.2214,1.0924808135929351,194.88067484657012
3735.0803,1.090869687782879,232.03544048223318
3735.9417,1.0890012837652072,199.20993666869887
3736.8013,1.0866898380693761,144.6011511445442
3737.661,1.0839483838930148,185.72161009310537
3738.5227,1.080776503127875,166.99244333416462
3739.3828,1.077211247144675,161.87535451272927
3740.245,1.0734990547946164,251.09507045115802
3741.1055,1.0703018179859385,272.958431986225
3741.9683,1.0684543098374673,219.79838147153802
3742.829,1.0685348601669522,283.7624014666803
3743.69,1.0703655034483315,199.59872901226925
3744.5532,1.0729899027628538,199.38489069468088
3745.4148,1.075013288480221,197.52176465039028
3746.2786,1.0751311697857933,165.59498458312112
3747.1404,1.072464889024273,247.88820796021594
3748.0044,1.0668424543001935,189.8371904477349
3748.8667,1.0591161532437128,195.41992295898547
3749.729,1.051074855930426,227.15605404688705
3750.5938,1.044880282559586,209.18280202030806
3751.4565,1.0421348773863228,270.9223594548105
3752.3215,1.0430233854480293,187.11488353144537
3753.1848,1.0463265272050029,249.7879907207656
3754.0503,1.0500837204743112,210.14301574963628
3754.9138,1.052539204904219,183.47167940686217
3755.7776,1.0530471306838398,235.79649830355874
3756.6438,1.0522658334793378,123.38837351450263
3757.508,1.0515879685079206,275.0723590576686
3758.3745,1.052112700234201,186.49842801865253
3759.239,1.0540324482316652,249.53527570780048
3760.106,1.0568090646129824,212.98315908199416
3760.971,1.0596210428158357,201.87918303210063
3761.8362,1.0616333078949742,268.7389920961291
3762.7036,1.0620164083853776,185.2385023117654
3763.5693,1.060250454044203,155.14847591941214
3764.437,1.0565748700322861,343.3124494501802
3765.3032,1.0520121795326864,200.4001622768679
3766.1714,1.0476602409758768,202.23348911282375
3767.0378,1.044047211809571,202.07767477938964
3767.9043,1.0409911303971027,247.87105282659397
3768.7732,1.0381163101223287,303.49753863853084
3769.6401,1.0353270925135718,207.53861320161678
3770.5095,1.0327865825516382,215.39611822766975
3771.377,1.030691113224896,214.85749497366245
3772.2466,1.0289816535105294,231.78536830270323
3773.1145,1.0274404251983513,227.39875987947497
3773.9824,1.025982922082047,209.88632048192187
3774.8528,1.02492123261817,160.5811362233121
3775.721,1.0248252360993861,327.127096973136
3776.5918,1.0260876641383407,241.1830173034275
3777.4604,1.0286784418161867,215.10749945843696
3778.3315,1.0322644196648718,163.59570417226183
3779.201,1.0362798468648777,249.03227040572506
3780.0703,1.0399269799809852,286.2967056393301
3780.942,1.0421678645704582,188.29389594058424
3781.8118,1.0420650321123959,271.03878905014034
3782.6838,1.0393563853020218,271.5669072847618
3783.554,1.0347849925047123,204.26511836912903
3784.4265,1.0298442354050152,251.5556370737113
3785.297,1.0261165430870407,302.82107351631817
3786.168,1.024273161977394,204.46444135729848
3787.041,1.0236276168611573,219.48775369596908
3787.912,1.0225159374898802,260.921865613364
3788.7856,1.0193900779966683,199.40629479914318
3789.6572,1.0138485966118762,272.49257178186815
3790.531,1.006701012734599,194.00486537971614
3791.403,0.9994058947391677,247.69226291602226
3792.2754,0.9932330673536077,227.58710811206345
3793.15,0.9890103119268601,223.8677562799332
3794.0225,0.9871419129126652,330.55398226067007
3794.8972,0.9875204105259838,293.8672387453602
3795.7703,0.9894929763976653,225.5162963161354
3796.6455,0.9920596896728918,262.53684418842556
3797.519,0.99440161121503,299.23602095436365
3798.3926,0.9963950734493942,194.998919235697
3799.2686,0.9985007488188529,249.71098663256237
3800.1426,1.001124883841078,246.0621197174717
3801.0188,1.0040937088061406,201.62223337537776
3801.8933,1.006620429213344,200.35230147427166
3802.77,1.0078930847269674,206.5832300398422
3803.6448,1.0076159782980534,310.7522701212216
3804.522,1.006231836564694,170.02816241955898
3805.3972,1.0047017328168715,329.0981996301255
3806.2727,1.0040136437131402,264.25051493540025
3807.1504,1.0046899961847373,225.92598640962197
3808.0261,1.0064777161239529,218.32486244556233
3808.9043,1.008524134626448,198.5023398005601
3809.7805,1.009943673167049,215.72138724273952
3810.659,1.0104109480109318,243.61174251939397
3811.5356,1.0101291256578926,271.56723804618946
3812.4126,1.0093339536591324,287.22006010475405
3813.2917,1.0079753963599924,299.67856652986717
3814.169,1.0060638787474065,192.07370565865966
3815.0483,1.0041545740631015,225.22689351541285
3815.926,1.0032523701562766,310.6102616040596
3816.806,1.0039373095349169,257.5492648928563
3817.684,1.0056297463521475,267.68892233029055
3818.5623,1.0067919629494957,250.86158955082007
3819.4429,1.005975487060954,227.18415346530696
3820.3215,1.0027944606597885,238.82700473439843
3821.2024,0.9979204394135628,211.38113711758274
3822.0815,0.99229649742288,242.29495005155027
3822.963,0.9862574046688641,213.70810700977583
3823.8423,0.9795734705667521,270.51124844846527
3824.722,0.9719087605899042,275.0797626624924
3825.604,0.9633548399654787,258.89880915241326
3826.4841,0.9545410999538223,267.3140237232302
3827.3665,0.9461645608649104,243.20637046025067
3828.2468,0.9387850464889315,302.189455569214
3829.1296,0.9324924426668963,255.6086345398038
3830.0105,0.9271348633072166,294.91140090855976
3830.8916,0.9224470981989634,248.52859027547862
3831.7751,0.9182562483404829,298.54184942198907
3832.6565,0.9144396099204614,256.128632211102
3833.5403,0.9107900862559727,269.10942905744514
3834.4224,0.907339443110017,275.6666957919058
3835.3064,0.9046801077269885,321.5947038184463
3836.1887,0.9039575949652152,313.6680472296203
3837.0713,0.9060405069196449,358.8734305617709
3837.956,0.9106691830875457,302.2567376871269
3838.839,0.9163789616578258,164.9705828069623
3839.7244,0.921589551368873,285.05393793306206
3840.6077,0.9256589380933555,222.5234835976741
3841.4932,0.9292343490593356,280.9139257483581
3842.377,0.9334673799312219,304.56833014316146
3843.261,0.9390991087335201,251.3580705137344
3844.1472,0.9458929309383749,297.8270639759734
3845.0315,0.9526946470063707,273.5971412146425
3845.9182,0.9582202658187515,245.41529937189156
3846.803,0.9617786630932218,243.4210783633354
3847.69,0.9637849659573607,270.26322526900213
3848.5752,0.9652974006763041,207.32785245873941
3849.4604,0.9672171803814779,321.23831680898536
3850.3481,0.9698024862270004,213.23092400560122
3851.234,0.9728876718603431,241.64705254494731
3852.122,0.9764030412651071,236.483166617151
3853.0083,0.980358975175339,336.8324345817644
3853.8967,0.9845410402027291,213.48936293139963
3854.7832,0.9882448272872836,262.1749033778395
3855.6702,0.990694644121885,278.40954550366513
3856.559,0.9915734606570172,166.26120993756973
3857.4463,0.9912323291425619,254.31251224062302
3858.336,0.9903210589350895,302.2971205229984
3859.2234,0.9892272331051152,263.5570609497463
3860.1135,0.9878523159153807,221.90264510321242
3861.0015,0.9859247222184264,272.68612267605283
3861.8896,0.9833880641047327,242.1132928269592
3862.7803,0.9805014428406337,241.37540911891048
3863.6687,0.9775958504351413,267.13846234166135
3864.5598,0.9747073577410222,237.24468872128543
3865.4487,0.9715942622144886,241.70603031654846
3866.34,0.9679220304614388,220.84939430169558
3867.2297,0.9636610050212139,266.9090073764346
3868.1213,0.9591486058167589,312.9888062053214
3869.0112,0.9549204267152084,249.4111946535898
3869.9014,0.9511774398751204,303.9455419343822
3870.7937,0.9475516775907851,266.7390324676607
3871.684,0.9434107419642632,291.20714938990045
3872.577,0.9384368786078158,266.203338767046
3873.4678,0.9330695323472635,282.6281330377353
3874.361,0.928044599241646,236.08059205828627
3875.2524,0.9236576350073724,281.81322228316924
3876.1438,0.9191475201086207,283.8847382082156
3877.0376,0.9130692661817086,242.9832213642327
3877.9297,0.9043715602141857,218.69259825662235
3878.8237,0.8931550299085291,265.6275602785495
3879.716,0.8807455486953235,384.3497360794597
3880.6108,0.868560708211745,414.7386787501441
3881.5037,0.8573185282434326,308.170166543535
3882.3965,0.8465996233293681,404.6270782788731
3883.2917,0.8355412426248956,358.251050799643
3884.185,0.8237483404897225,330.8330992668283
3885.0808,0.8114532953566429,278.43523497715046
3885.9746,0.7994779928112622,354.40721138045376
3886.8706,0.7885235909288443,364.8455245039354
3887.765,0.7791792886012422,324.15744858819625
3888.6592,0.7719027414653049,558.2732852442921
3889.556,0.7673191211134991,465.73622216420057
3890.4507,0.7661961868044495,471.58796928970713
3891.348,0.7690383153486556,455.93873854061667
3892.243,0.7757009606234676,443.0680789285728
3893.1406,0.7853075830411528,387.0740580692809
3894.0361,0.7963732915343539,426.618127562966
3894.932,0.8074885833169194,420.6992794252592
3895.83,0.8176846704460226,268.3111768373438
3896.7263,0.8265062716445748,390.4630605529673
3897.625,0.8341012256909338,404.08980308294
3898.5215,0.8409514804015411,332.4074102004856
3899.4207,0.8479421069542661,221.75369055574143
3900.3176,0.8559068746188975,498.9036242273382
3901.2148,0.8652361530910295,578.5381522410335
3902.1145,0.8754969837851916,373.67878442966014
3903.0122,0.8856534221567419,320.46650970682083
3903.912,0.8949755268254871,253.9874561548593
3904.8103,0.9032891867578355,321.4561312169907
3905.7107,0.9108927063641217,284.84393409615933
3906.6094,0.9179206526525462,320.57926625239566
3907.508,0.9243060911293489,359.6721403977953
3908.409,0.9299233824158918,241.53069659639493
3909.308,0.9347462605479943,229.65324623172194
3910.2097,0.9389811158618765,295.90983535195016
3911.1091,0.9429903496464915,241.88795889201842
3912.011,0.9473874192531537,229.46550820506144
3912.9111,0.9528083427389841,258.98211684014393
3913.8113,0.959670183188107,310.96770541711305
3914.7136,0.9679014916548749,255.04110343987355
3915.6143,0.9768769335864713,271.0498845992448
3916.517,0.9857857418900253,334.1902689974931
3917.4182,0.9937701171506934,204.31648410708502
3918.3215,1.0002817901205234,231.28557560812632
3919.223,1.0050558065798336,232.24490254547496
3920.1245,1.00821190422746,240.7882730141194
3921.0286,1.0100819023157013,265.4948021241185
3921.9307,1.011070589103917,255.7992588779586
3922.835,1.0115537758370905,215.1417799184428
3923.7373,1.011697623293611,227.62812958956235
3924.642,1.0113183137119035,224.6547539582014
3925.5452,1.0099610120364892,238.90873736720434
3926.448,1.0073576613682746,224.20924946819054
3927.3535,1.0039475232777682,242.3399288187846
3928.257,1.000939893586705,232.5255483134086
3929.1628,0.999556792929815,215.27383635466845
3930.0667,1.0001805222154196,237.26601983237825
3930.9731,1.0020044300850421,218.64821108806126
3931.8774,1.0035243731694174,249.5754313543629
