wavl,flux,ivar
3566.9744,0.5112087951244602,517.4873799738891
3567.795,0.5119749628452572,479.1699563429157
3568.6177,0.5120049611454982,570.223153743849
3569.4385,0.5111338206318042,348.5973396560389
3570.2617,0.5096087153879691,475.6784917282085
3571.083,0.5078059998951014,409.3670383497512
3571.9065,0.5058973150226114,738.1333121969363
3572.7283,0.5038371665061971,577.8552053735457
3573.55,0.5015347982043782,317.4346407361841
3574.374,0.4990780753686501,422.8517188714905
3575.1963,0.49675925181425507,440.35537260087324
3576.0208,0.4948586693228142,1089.508467656537
3576.8435,0.4935665640371243,414.3200523955873
3577.6682,0.49299470999528106,499.0028573069971
3578.4915,0.49323998867836566,372.11292104499864
3579.3145,0.49427960813606797,403.50283624275704
3580.14,0.49591186208974175,424.41336153888517
3580.9636,0.4978259442074717,542.2039704653316
3581.7893,0.4997585716791089,841.8714446703387
3582.6133,0.5014812532355575,473.77857378241384
3583.4395,0.502840510883189,548.7251941758393
3584.264,0.50382258126475,352.07907625557357
3585.0884,0.5045950771932414,317.57796040652187
3585.915,0.5052844586521512,568.22932974414
3586.74,0.5057487472414902,492.53411743756647
3587.5671,0.5056893909760762,494.4175666472974
3588.3923,0.5050084731913036,558.8124885540174
3589.22,0.5039793947186606,347.2222889740812
3590.0457,0.5030033870768181,481.0501969528544
3590.8716,0.5021995833108871,570.6164019494056
3591.6995,0.5013231061332974,394.8782889542598
3592.526,0.500057785396602,340.83512239059473
3593.3542,0.49836543086127366,497.9128118567122
3594.181,0.4966151857551141,398.8520369277146
3595.0098,0.49531841073600047,417.74959268600094
3595.8367,0.49475559572067584,913.6048050755727
3596.6638,0.4947317981792364,617.6614490384839
3597.4934,0.49478500163127,573.0890825675376
3598.3208,0.4946222886832466,414.8083376254873
3599.1506,0.4943289652260202,438.19372476345546
3599.9788,0.494107260597949,649.7976373874466
3600.8088,0.49389328549339556,342.69723615587037
3601.6372,0.49339070675780433,490.6244978881665
3602.4678,0.4924861575737829,797.116178600926
3603.2964,0.4915187000121911,711.2116512553877
3604.1252,0.49099215567762,460.03736933947994
3604.9565,0.4910803839643783,428.97379042806966
3605.786,0.49145850777101113,532.908797713575
3606.6172,0.49161534491178793,370.20032907237703
3607.447,0.4912262892830675,550.6023339378955
3608.2788,0.49021663685499245,648.2245380913797
3609.109,0.48862259555396803,552.5126674623374
3609.9392,0.4865499677552571,735.6237078669377
3610.7717,0.4843180352880117,501.9752694632508
3611.6023,0.48250107117902286,590.1156518130496
3612.435,0.4815986203196693,532.4690837069198
3613.266,0.4816931342530356,770.812756009536
3614.0994,0.4823885432724272,512.3499855535002
3614.9307,0.4831589013293564,508.41548180012825
3615.7625,0.48372967548475426,523.9603261363699
3616.5962,0.4841408895656608,345.8341566313386
3617.4282,0.4845726044099582,496.9607201764739
3618.2625,0.48517400211438855,479.50981954866654
3619.0947,0.4859566104674882,517.0949607460747
3619.9292,0.4867427879151603,647.3645949721615
3620.762,0.48717454920133,646.4617971645275
3621.595,0.4869387822678176,432.6168422079518
3622.4302,0.4860458645467503,485.03656002179514
3623.2634,0.48488150963388665,518.8890500990886
3624.0989,0.4838430721661129,1034.3209987963908
3624.9326,0.48294958079529227,438.9521723476918
3625.7686,0.4818048955352263,517.4409745166682
3626.6028,0.48001610365233205,756.0424038128832
3627.437,0.47755883655658193,671.8050327581248
3628.2734,0.47478756639855496,932.2870678916429
3629.1082,0.4721850394753535,445.9959203721031
3629.945,0.47005559634858524,631.1269676867677
3630.78,0.46846349112764624,439.60870400303673
3631.6174,0.46718773622710524,883.1634625419225
3632.453,0.4658409995584991,402.74071708487736
3633.2883,0.46404810969039456,530.4105509975831
3634.1262,0.4616640060223238,557.405568931603
3634.9622,0.4588257723227811,489.8714996956448
3635.8005,0.4557515282879483,701.851331776259
3636.637,0.45270654978632824,632.4349970529374
3637.4756,0.45005504292485154,463.1716198871625
3638.3123,0.4484190112122297,744.2729279752522
3639.1492,0.44841278693400083,1131.4344368097845
3639.9885,0.45019892216860996,783.6838143584755
3640.826,0.45317828172099583,620.6994968286917
3641.6653,0.4563050974394358,640.0235330495439
3642.5032,0.45866246086904006,548.2900465673665
3643.343,0.459901256242819,575.4041267980776
3644.1812,0.46015169276153456,590.3626915779652
3645.0195,0.4598282348022989,471.32278622949275
3645.86,0.45949365721743796,375.7858533335637
3646.699,0.4597124984052668,709.5629641308751
3647.5398,0.4607178601118966,557.9023010516024
3648.379,0.46215456883622763,697.3652721279859
3649.2202,0.4632717893103021,661.5334131209768
3650.0596,0.46343602202989265,643.6605407566215
3650.8994,0.4625862764216124,673.1640623366684
3651.7412,0.4612099667320079,490.6092469625838
3652.5813,0.45992152640711476,559.258701177626
3653.4236,0.45888796005312443,464.36371638205003
3654.2642,0.4576215743234856,556.7516622685164
3655.1067,0.4553215925404451,687.8882021469925
3655.9475,0.4516724525708728,790.1176495710795
3656.7886,0.44736211403094767,457.57765550429247
3657.6318,0.4438805560652975,742.0525668026387
3658.4734,0.44263648873039624,478.50244180651487
3659.317,0.44398562581504425,428.5965581214979
3660.1587,0.44702210579178187,620.9325848025101
3661.003,0.4502126838505907,517.9988340694073
3661.845,0.45231362664473557,669.9367608333819
3662.6875,0.4530327836528468,472.16770697093847
3663.532,0.45285398884716527,732.1493759213363
3664.3748,0.4523864968760186,431.74653498356776
3665.2197,0.451757946316934,566.2161406067653
3666.063,0.45056994329715355,459.7774859300886
3666.9084,0.44834442716415945,930.8814287805506
3667.752,0.44506921060853527,529.1996684265094
3668.5977,0.4412944300680508,619.2289419443009
3669.4417,0.43787513703752545,636.8351688350632
3670.286,0.4354122128237036,867.8339077123564
3671.132,0.4339958306353928,612.5275080727298
3671.9768,0.4333394286060569,665.6305666933174
3672.8235,0.43315642195848597,530.0475775788614
3673.6685,0.43343797801684303,613.316545253592
3674.5156,0.43438304246894605,638.7800805754655
3675.3608,0.4361391114998288,699.552904186951
3676.2063,0.4386222336796197,566.5761746183132
3677.0542,0.44146284830378607,630.2371947184464
3677.9,0.44403773640650246,603.0956531935467
3678.748,0.445698080989013,666.5823622387443
3679.5945,0.44597589097256013,498.90026532131793
3680.4429,0.4448189143563674,536.6236227029641
3681.2896,0.44261637327118675,617.7948670058587
3682.1365,0.4400569709250851,705.8730165637492
3682.9856,0.4379140267664202,889.5000153299637
3683.8328,0.43679548838865073,626.867043003413
3684.6824,0.4368651602196761,623.7725824644294
3685.53,0.43779582757894064,1002.5845340416579
3686.38,0.43900958658151196,684.8957742769783
3687.2278,0.4400933683359415,717.2555976035942
3688.0762,0.4410628478066182,483.73306721320074
3688.9265,0.4421521062263076,582.7614297766212
3689.7751,0.44334249535062165,406.3509368903998
3690.626,0.44414409058938287,739.9455183925173
3691.475,0.4438683992460355,640.375754374735
3692.3264,0.4422044881355314,603.3810545646791
3693.1758,0.4395413152621835,714.122277314493
3694.0254,0.4366914966020961,521.0606965284724
3694.8772,0.43429208609249015,790.178493455398
3695.7273,0.4324079845860249,719.6543563765446
3696.5793,0.43064135622162875,550.8016000014273
3697.43,0.428662459843575,635.3773869448215
3698.2825,0.42650051072792056,693.9034942141553
3699.1333,0.4245268055733307,657.8915617590407
3699.9841,0.42322422487201716,571.6006518364777
3700.8374,0.42303012709953897,585.7384558756016
3701.6887,0.424110009260814,1073.4375433478162
3702.5425,0.42611190417106487,538.1433275955338
3703.3943,0.4281297426151861,910.0477116977396
3704.2483,0.4290985130100847,455.7963597214648
3705.1003,0.42831250708807733,895.2982326550692
3705.9526,0.4258222034779563,673.0027558127103
3706.8074,0.42240717902877223,531.8074575700058
3707.66,0.4192399201760072,834.629650938451
3708.515,0.41725290937260284,690.8540245353076
3709.3682,0.4167600229375935,803.5701746642873
3710.2234,0.4173879271281229,669.6356042476513
3711.0771,0.41843754885745765,603.4610126662047
3711.9307,0.41930064744373097,917.895321317082
3712.7866,0.4196671786788613,708.8652062863378
3713.6409,0.4195116160165465,899.6734672649973
3714.4973,0.41898629394813164,658.9023957205524
3715.3518,0.4182887336903209,1006.3083581477991
3716.2085,0.4175523944382629,763.4981563612408
3717.0635,0.4168542157859984,704.8046408045919
3717.9185,0.4162959099667703,917.2068820832092
3718.776,0.41610209337301785,759.4778361000384
3719.6313,0.4166004746813631,830.9061718695843
3720.489,0.41805837397583523,725.8511004489983
3721.345,0.42044439876461814,713.9596162950342
3722.2031,0.42334001196359794,690.5114908360523
3723.0593,0.42604796314935994,518.3494304455371
3723.9158,0.4279899012725911,387.1589006940219
3724.7747,0.4289531202054835,753.9578143627219
3725.6316,0.4290717283568346,826.3362879732849
3726.4905,0.4286113941298013,784.9402509456502
3727.348,0.42778329384151637,692.4799812328307
3728.2073,0.42673375865629687,754.3724053810595
3729.065,0.42562871178862227,648.1050784183325
3729.9229,0.4246476800887438,682.8525492428835
3730.783,0.4239063286512484,704.7039721333658
3731.6414,0.4233692185945859,713.654428461323
3732.5017,0.42285520392465703,638.2051184620713
3733.3604,0.4221979571828304,592.6996152299553
3734.2214,0.42140706726479266,618.7185599077441
3735.0803,0.42070695465193836,935.4267128722469
3735.9417,0.4203458809363571,1129.858648683458
3736.8013,0.42038542567808324,549.4067831102275
3737.661,0.4206627760960581,702.3178653204682
3738.5227,0.420999537260429,699.0107497572047
3739.3828,0.4213848146492311,649.4487097916399
3740.245,0.4219093605033786,757.644233877706
3741.1055,0.4225125776256376,618.707830023834
3741.9683,0.42289324661096994,525.0447389592599
3742.829,0.4226871411308504,627.3205972352605
3743.69,0.4217459628244744,900.4795653256515
3744.5532,0.42022654726320763,548.6081195884474
3745.4148,0.4185038299569617,640.6907174161904
3746.2786,0.41694802803864106,808.7083939307375
3747.1404,0.4157556669886659,708.8963847739176
3748.0044,0.4147997284995778,587.7088458748801
3748.8667,0.41369868541783145,758.8427699524492
3749.729,0.41203723271397674,539.8495934996556
3750.5938,0.4096772868511261,709.2630161138613
3751.4565,0.40695420046464664,1214.6382156814964
3752.3215,0.4044953450649176,643.747471546146
3753.1848,0.4028672054682636,790.8581185548834
3754.0503,0.4022032374153649,738.2783926643251
3754.9138,0.40226989746380476,738.2513173562618
3755.7776,0.40278332142876844,684.0224848182279
3756.6438,0.40366296910281735,1192.6551642998265
3757.508,0.4049512640439094,706.0043579934996
3758.3745,0.40660850609828497,629.9783025110427
3759.239,0.4083801491402451,725.4483323037932
3760.106,0.4099063566801361,890.7974337516588
3760.971,0.4108640864283965,669.0567326806524
3761.8362,0.4111592725777439,795.1752535813605
3762.7036,0.41098114014990617,861.4204891709908
3763.5693,0.4107134086025134,815.9115140478355
3764.437,0.41068941865336756,760.0574247859747
3765.3032,0.4109851116746242,661.1708500083902
3766.1714,0.41142344822660404,710.7196797940476
3767.0378,0.41175687435519764,595.931887230046
3767.9043,0.41183053107798534,694.3739490411549
3768.7732,0.41158401881920165,573.2979851586853
3769.6401,0.4110217507339803,872.2727241346815
3770.5095,0.41028638287809094,656.6898501107368
3771.377,0.4097732569015575,722.9745794302435
3772.2466,0.409977060724757,779.5077550172623
3773.1145,0.41105639815304074,699.7976467282723
3773.9824,0.41248332347739397,552.8107425916821
3774.8528,0.4132331865908491,765.309169544538
3775.721,0.41245440339662137,622.842606704572
3776.5918,0.41009363045549324,489.0736908678579
3777.4604,0.406962880170257,672.9363519641339
3778.3315,0.4041565414431792,637.1229101652232
3779.201,0.402406537356736,1001.590475876008
3780.0703,0.4016784597233882,661.6571652199763
3780.942,0.4013892669800304,639.9474735828809
3781.8118,0.4009314191749121,572.0948620304384
3782.6838,0.40008782072768534,605.6575651553698
3783.554,0.3990334062805942,853.5419776024523
3784.4265,0.3979894299893633,675.5980012538896
3785.297,0.39701081709845876,847.1971856885674
3786.168,0.396071816952047,715.3616512669942
3787.041,0.39528297413423036,746.8957922827171
3787.912,0.3948509982182626,920.9532562179788
3788.7856,0.39479368476536914,686.3896533938162
3789.6572,0.3948065115433659,792.1815736243906
3790.531,0.3944545761050101,817.6263375895956
3791.403,0.3935254679176273,785.779459835381
3792.2754,0.3922156115035333,834.3251586160592
3793.15,0.39103268401609237,941.7013175759175
3794.0225,0.3905128585884193,681.3674910907995
3794.8972,0.3909158127898303,716.7661971709687
3795.7703,0.3921269433280557,758.3351481382002
3796.6455,0.3937695781205328,776.7115902310046
3797.519,0.3953905994337536,714.7238498135591
3798.3926,0.3966624143258332,515.7673369230203
3799.2686,0.397478570193142,908.8522641884479
3800.1426,0.39796312416384044,954.401363244184
3801.0188,0.398383325241164,682.5153427612189
3801.8933,0.39896666410014514,806.7669538161474
3802.77,0.3997765214020106,720.0152116738157
3803.6448,0.4006718131369674,855.3420315955285
3804.522,0.4013810676798031,611.9589523901933
3805.3972,0.40158761678193267,996.3511889271019
3806.2727,0.40105153710813146,662.4046373246418
3807.1504,0.39970406482139414,788.6115168688513
3808.0261,0.39774071141932965,589.7498072895945
3808.9043,0.3955620969949305,869.1809056842438
3809.7805,0.39361397986547436,902.6114787089074
3810.659,0.3920840616522864,1055.8351540657334
3811.5356,0.39080156363143453,670.7019164884908
3812.4126,0.3893193925941032,631.8034794009387
3813.2917,0.3872145830053014,668.863665503417
3814.169,0.3844116960006516,489.958700924649
3815.0483,0.38127286419875545,871.2151475831031
3815.926,0.3784772563312752,926.6848514374128
3816.806,0.37660879772280925,1213.688775755153
3817.684,0.3759408555839053,843.4937894816628
3818.5623,0.3764317237210049,794.2525891908565
3819.4429,0.37793125052636034,647.7824131214563
3820.3215,0.38024178838667005,926.5930553174807
3821.2024,0.3830840923288294,1215.7406531049955
3822.0815,0.38599121068913717,777.0963831776005
3822.963,0.38841423600189995,738.1845054640852
3823.8423,0.38987449968389354,782.1280458794972
3824.722,0.3902259956217551,567.7839057629689
3825.604,0.38968348205118314,952.2362962137915
3826.4841,0.3886446647447411,715.6530189201247
3827.3665,0.38740629228076484,649.0677230910685
3828.2468,0.38609585999035856,708.5684350240218
3829.1296,0.3847707522724595,943.6564293181378
3830.0105,0.38353034625851534,834.5923055153526
3830.8916,0.38241597616490347,967.6951852474047
3831.7751,0.3813437759741429,715.5101628787476
3832.6565,0.38020759918240776,827.4620060461893
3833.5403,0.37902153105393865,759.042997492226
3834.4224,0.37793848357370124,956.253629841837
3835.3064,0.377054741000422,1043.0875094474266
3836.1887,0.37632908459780384,801.3460978503658
3837.0713,0.37569170494055476,745.3934692444404
3837.956,0.3752310831499945,1005.8361577747858
3838.839,0.37518080052676733,1005.6420334204024
3839.7244,0.37569105350830223,798.3900497766507
3840.6077,0.3766242852519931,1279.3073714036316
3841.4932,0.3775789958502156,792.9828121864299
3842.377,0.37809704928679283,645.2427733779267
3843.261,0.3779295491298967,1302.237770967082
3844.1472,0.37713790438063916,840.3666801391701
3845.0315,0.3760334139437864,839.5233250322406
3845.9182,0.37497183240179077,648.4601982412196
3846.803,0.374167104900767,1105.4938830268654
3847.69,0.37356922486441035,928.7404735047763
3848.5752,0.37298535243166014,802.2633158966574
3849.4604,0.372356321370619,873.5051535419381
3850.3481,0.3719838586896884,847.561910387739
3851.234,0.37242286315488293,714.2842415621841
3852.122,0.37406660547996057,798.8962454488535
3853.0083,0.3767801661678247,911.8931258097077
3853.8967,0.3799736612583279,932.1836382143038
3854.7832,0.38293670156735116,814.0842509955374
3855.6702,0.38522825393275895,682.2183464490766
3856.559,0.38669433155993665,660.5073567419366
3857.4463,0.38735210732257536,815.6839934282249
3858.336,0.3873751314020071,753.326008001026
3859.2234,0.3871346167921372,879.9359911175357
3860.1135,0.38711206096827194,1295.3040034800742
3861.0015,0.3875844142937074,881.1703552250698
3861.8896,0.38835229446742864,722.9999936417222
3862.7803,0.3888371974784478,887.5540787976464
3863.6687,0.3885090714361567,855.3525450755678
3864.5598,0.38726837203659376,1046.1584923407086
3865.4487,0.3854398327973238,867.7301641050692
3866.34,0.38341325461480147,969.3964670540017
3867.2297,0.38138663425840486,771.029827838887
3868.1213,0.3793369913815569,1110.8499212031659
3869.0112,0.377263893218268,1098.2579943787455
3869.9014,0.375306223851424,1191.3020706472294
3870.7937,0.3736965980770152,898.8137616150884
3871.684,0.37257959473827695,1362.8201673601486
3872.577,0.3718431201392659,761.0253119629455
3873.4678,0.37116719753904437,1056.0285015974318
3874.361,0.37020118114094874,931.3267177479187
3875.2524,0.3688208493754567,874.9965688612442
3876.1438,0.36723190777424963,1000.9513607891304
3877.0376,0.3658831579026016,796.8509045115959
3877.9297,0.36522165969880976,813.1218276972362
3878.8237,0.36539350775478674,1113.6346249181836
3879.716,0.36612538902835284,904.2030637680249
3880.6108,0.3668600670056439,970.0128441239051
3881.5037,0.3670887560147919,855.6734338827113
3882.3965,0.3666755262821877,856.6748246969169
3883.2917,0.36588706858413955,1238.8237039670914
3884.185,0.3651540970325498,694.6441209566316
3885.0808,0.364743433081358,872.8968712930422
3885.9746,0.3646393987825096,843.0843116181447
3886.8706,0.3646414791402927,864.0042528053029
3887.765,0.3645631594084576,902.9991658573797
3888.6592,0.36434152675974535,902.1632105969384
3889.556,0.36400733789398204,939.2676461475232
3890.4507,0.3636001703755917,802.2441593370894
3891.348,0.36312382184378406,1012.7458044365405
3892.243,0.36259147050812807,1194.9977266302878
3893.1406,0.3620616853612477,830.2913870197431
3894.0361,0.3616487961093582,925.1541162429053
3894.932,0.36148292908217516,938.5196737230057
3895.83,0.36168488451738057,861.6709647051975
3896.7263,0.3623104461114787,1320.99340405159
3897.625,0.36328054482549416,698.2386475002924
3898.5215,0.364337925338853,1083.694117799409
3899.4207,0.3651491735822297,744.4360045993171
3900.3176,0.36544852638384634,1134.2045139681343
3901.2148,0.3651767817270364,1449.8951544445606
3902.1145,0.36449393947151953,1150.7215915569948
3903.0122,0.3637516792665971,840.6229562732123
3903.912,0.36338492576245485,997.9467075770842
3904.8103,0.3637199184387257,732.237505972026
3905.7107,0.36474058867503883,762.6557484667991
3906.6094,0.3660600733765919,933.3369613006394
3907.508,0.3672226675273538,798.5193138757686
3908.409,0.3680358417207379,697.2539293290668
3909.308,0.36859147164178047,907.5336622079114
3910.2097,0.36899820152986684,987.9265221442366
3911.1091,0.36913832037312977,762.1896257979552
3912.011,0.36872679438364364,691.2153150535321
3912.9111,0.367539543590673,841.7861401203561
3913.8113,0.3656060831692218,807.997660144132
3914.7136,0.3632845876212555,998.6512746852259
3915.6143,0.36122428228124437,1131.2046687706113
3916.517,0.3600929372076955,848.6825649365994
3917.4182,0.3602555230709752,691.6299387877384
3918.3215,0.36153083037854583,1146.1958906487382
3919.223,0.36328672613234236,922.4798012892313
3920.1245,0.3648343813356344,782.0448702070664
3921.0286,0.36582625336038566,785.1079238739457
3921.9307,0.36641433192362644,862.350177320556
3922.835,0.3670674544153997,954.5091300590342
3923.7373,0.36812879564208856,803.8114769595218
3924.642,0.3695103247561681,833.4347516835612
3925.5452,0.37072907568765473,735.3092114329535
3926.448,0.37131102531549615,800.1361260880716
3927.3535,0.3711346790096926,1255.4940074367069
3928.257,0.3704496265188641,992.3642701688767
3929.1628,0.3695795257477129,1102.1736428917327
3930.0667,0.36865664597666814,815.1835834275015
3930.9731,0.36759420988941716,914.1894212815151
3931.8774,0.3663004072939794,1122.609483694717
