wavl,flux,ivar
3566.9744,1.6409056919855807,71.3458952892374
3567.795,1.6411169111326311,91.3159562645802
3568.6177,1.6421853897860355,67.16034697374457
3569.4385,1.6431693458102712,66.91005206134359
3570.2617,1.6432119803315164,59.80678650109895
3571.083,1.641648355786891,55.828602304500166
3571.9065,1.6383041252470927,68.2007401285381
3572.7283,1.6337058051338977,71.73878626792535
3573.55,1.6287771555014139,74.00896349204238
3574.374,1.6243496007153944,58.224830541480635
3575.1963,1.620869098322918,57.94369261519349
3576.0208,1.618279335484775,91.82704774625721
3576.8435,1.6162317917301652,49.3265032397381
3577.6682,1.6143407406855612,62.61311018303676
3578.4915,1.6125760976833414,59.696570266631305
3579.3145,1.6112758907401883,58.64143380635245
3580.14,1.6107483794330937,71.30320406667278
3580.9636,1.6108196485519906,52.11770650774547
3581.7893,1.6108055504990901,55.433385670356394
3582.6133,1.6098920850980505,54.25846105260177
3583.4395,1.607520106255103,53.035474628383234
3584.264,1.6036821726518522,79.30987678612185
3585.0884,1.5990984424378936,79.46031028090086
3585.915,1.595161231424135,84.11253174487415
3586.74,1.5932962617246567,65.35023905832064
3587.5671,1.5938189571265509,75.96159526850064
3588.3923,1.5953682332340622,74.09501736665054
3589.22,1.5955169165568566,52.590065945779735
3590.0457,1.5922697543248672,63.150023289636714
3590.8716,1.585414995299199,55.1726887162071
3591.6995,1.5767844633171757,57.71890448779598
3592.526,1.5693550870147868,80.33507663382603
3593.3542,1.5654215655368184,81.78189162422414
3594.181,1.565446851464217,63.357053880032446
3595.0098,1.5681617950361353,54.831841897406015
3595.8367,1.5717840764086786,96.60643081992546
3596.6638,1.574986561364922,73.93028777825059
3597.4934,1.5768393933073173,65.7355889870246
3598.3208,1.5764369000981264,71.73374752024087
3599.1506,1.573091172613392,73.1015836200784
3599.9788,1.5669946839114715,84.02208670331727
3600.8088,1.5595235039187672,62.254370803585765
3601.6372,1.5528926127050406,80.78311557069527
3602.4678,1.5490561053527496,68.42145783665143
3603.2964,1.548938789765081,69.36833635787244
3604.1252,1.5520944039789422,69.06738540995099
3604.9565,1.557068197012785,88.87571818568478
3605.786,1.5619226601069223,75.3162837678663
3606.6172,1.5650935664158778,58.573471294144646
3607.447,1.5660490341707014,79.49844262191628
3608.2788,1.5655289472282472,57.6066439984961
3609.109,1.564817518238301,70.49843670797563
3609.9392,1.5646698704036752,65.68555867916872
3610.7717,1.5648486475314778,70.40472582932759
3611.6023,1.564553260539494,55.03905023911772
3612.435,1.5631595795834317,67.34962240145781
3613.266,1.5606200563184303,68.87140120447513
3614.0994,1.5573374092902694,63.280502266333755
3614.9307,1.5538344779397626,87.7323276678254
3615.7625,1.5503210127018057,60.693958612606544
3616.5962,1.5466079667832844,71.98349482683952
3617.4282,1.5423676890847569,63.52291264206905
3618.2625,1.5373657218747794,66.52313693134272
3619.0947,1.5315204270243215,76.29142526637087
3619.9292,1.524624507880216,69.54831925139405
3620.762,1.5166204312396114,85.53275248984194
3621.595,1.5079497800527373,72.90229595219475
3622.4302,1.499670968471936,73.75463351690718
3623.2634,1.4928546482600973,71.25995641505617
3624.0989,1.4876510154013949,57.205890436721994
3624.9326,1.4834062265164587,74.4595783171159
3625.7686,1.4794136017027202,65.60299851779877
3626.6028,1.4758955693179183,54.68746491051955
3627.437,1.4740102212288726,62.84656956750408
3628.2734,1.4750556532721575,84.02076928115625
3629.1082,1.479321924019232,97.1024071182371
3629.945,1.4855450563535637,65.40350281105766
3630.78,1.4913583452451342,67.57637454524013
3631.6174,1.494788426530918,73.7520761173248
3632.453,1.4954023262121336,82.99971451691003
3633.2883,1.4944777062462073,84.42559788547226
3634.1262,1.4939347353113241,72.68682228271271
3634.9622,1.4951737539069054,69.64468800521969
3635.8005,1.4985322536257086,73.5938835965774
3636.637,1.5033558208590916,84.981637541539
3637.4756,1.5083836510960391,68.49972624587487
3638.3123,1.5120151987798593,88.47016143077576
3639.1492,1.5128827287771132,73.17210944855435
3639.9885,1.5104594273273368,65.41251655478413
3640.826,1.5056340366668004,81.2051458913174
3641.6653,1.5004849522204415,77.7010796161642
3642.5032,1.497339866817484,70.67987256967616
3643.343,1.4974636769461336,69.16779895879152
3644.1812,1.500444851129083,58.137624796283376
3645.0195,1.5044665724218065,94.31664647182757
3645.86,1.5071766121760095,57.73529517248614
3646.699,1.506551013837618,64.94554277536535
3647.5398,1.501508607271675,62.04247763056504
3648.379,1.4921459405474808,77.24590795112564
3649.2202,1.479505444692468,83.09255456900787
3650.0596,1.4653140372314735,69.53104667301378
3650.8994,1.4512349672912181,74.33132322528627
3651.7412,1.4386196850448614,66.90251455311943
3652.5813,1.4285477522947632,87.70765639897196
3653.4236,1.4217590715627892,65.63004035557795
3654.2642,1.418691855167377,83.91164203084749
3655.1067,1.4190272289780719,71.87655463652385
3655.9475,1.4217193663606296,86.16809814018858
3656.7886,1.4254750020145694,76.12903589796713
3657.6318,1.429311516167809,69.94488449372113
3658.4734,1.4326236455395684,77.07748301951679
3659.317,1.4349930510762874,77.2231920692022
3660.1587,1.435964177636902,78.01099247875308
3661.003,1.435199972326099,89.5797891661842
3661.845,1.4327886309485858,67.44148758153386
3662.6875,1.4295451908143442,78.6513413313598
3663.532,1.426994636474941,82.24056039946126
3664.3748,1.4267282712823868,72.22389855054789
3665.2197,1.4292878071049195,88.48128480743858
3666.063,1.433493555660059,80.15304763960287
3666.9084,1.4369337151198094,81.75949789139662
3667.752,1.437225195162453,70.97039258057846
3668.5977,1.4332868085458594,61.365474085751956
3669.4417,1.4257660895005597,93.45019872220254
3670.286,1.4165686697683628,96.34706120015065
3671.132,1.4080079954482687,78.55851099064414
3671.9768,1.4020091772899224,80.59967945551423
3672.8235,1.3993280042109872,109.68245518231797
3673.6685,1.399221119104503,81.58094961479014
3674.5156,1.3995395505919725,86.55418235212085
3675.3608,1.39781501518873,68.49841476524507
3676.2063,1.3928780601707256,73.86077425474924
3677.0542,1.3857635660369996,96.08898318980735
3677.9,1.3790948358605195,91.98889158583651
3678.748,1.3750682305844064,69.59770764977249
3679.5945,1.374065589494663,90.766924785864
3680.4429,1.3746347800546324,99.96767657554926
3681.2896,1.3749312068538793,73.85372014371862
3682.1365,1.37412615976962,70.27412447826856
3682.9856,1.3726465332689737,87.49589913715373
3683.8328,1.3713681138155913,104.44908205410162
3684.6824,1.3707397237935748,89.66573497336367
3685.53,1.3706621728531267,94.6840849223623
3686.38,1.370795222956712,94.86040562701189
3687.2278,1.3708106693738173,90.07239312142572
3688.0762,1.3704954678078778,85.41800336232681
3688.9265,1.3698496542092717,108.24519931032192
3689.7751,1.36908697114702,114.65079857819735
3690.626,1.3683886095851043,78.95667329468588
3691.475,1.3676684166464625,91.10096382396839
3692.3264,1.3666266630072716,96.90893816872959
3693.1758,1.3651394763045182,99.53825673347936
3694.0254,1.3635578175014513,91.43830601504165
3694.8772,1.3626247835002983,98.41726578114832
3695.7273,1.363004612877289,90.94754571803668
3696.5793,1.3648273685205132,81.36716716140432
3697.43,1.3676651764480157,91.75013894698083
3698.2825,1.3708872970062147,78.8118082084823
3699.1333,1.3738628546282856,92.77732390711304
3699.9841,1.3759500674269702,93.56128170098891
3700.8374,1.3763646136103698,91.2639843927064
3701.6887,1.3743731650678634,118.3936004025628
3702.5425,1.3697097986451816,96.07539453053866
3703.3943,1.3628594973743018,80.31284125259884
3704.2483,1.3547544441792518,84.29739766074866
3705.1003,1.3464155353185343,98.42658263591169
3705.9526,1.3384733383392449,90.04304251563451
3706.8074,1.3311987237504355,105.13916457608386
3707.66,1.3247455182037915,71.52193522965777
3708.515,1.3192212420397682,101.9059676372493
3709.3682,1.3148491006305298,100.19777864461902
3710.2234,1.3116790141176429,80.12589787975315
3711.0771,1.3094731922981937,94.11152319867246
3711.9307,1.307685879356149,99.49045261829649
3712.7866,1.305775033735029,122.3746246695607
3713.6409,1.3035752556414528,76.06726004772568
3714.4973,1.3013896100231306,83.25085377323526
3715.3518,1.2997539507196607,89.45036838299308
3716.2085,1.2989051151543403,91.96855068363931
3717.0635,1.2984954139096674,91.66713479633863
3717.9185,1.2977092463576128,114.55286559288514
3718.776,1.2957955261745733,82.7317411332989
3719.6313,1.292705442043962,81.99885976603879
3720.489,1.2893156403275388,102.50770797655308
3721.345,1.2870765473478456,134.75466661186914
3722.2031,1.287075710275974,80.5049799111748
3723.0593,1.289278881238304,98.00350237474281
3723.9158,1.2923519213258243,86.42392569478045
3724.7747,1.2942035272419021,89.79097159763596
3725.6316,1.292966271411445,117.60319666948588
3726.4905,1.2880734042719553,86.86432336938861
3727.348,1.2808643369375814,97.26317684164825
3728.2073,1.274134825752211,128.24936618132205
3729.065,1.2708178859640544,84.11271427874476
3729.9229,1.2722043444206146,98.83075608248211
3730.783,1.2772595927571828,83.71155850530945
3731.6414,1.2832763855755132,104.47876002684428
3732.5017,1.2875313191292317,98.11883910828915
3733.3604,1.2884345613366956,149.66066526682823
3734.2214,1.2859066720452175,114.54257090376875
3735.0803,1.2811031764430394,107.2532385200826
3735.9417,1.275851728232511,106.70615547410293
3736.8013,1.2719429145820405,109.73150557164075
3737.661,1.2701237048611105,106.84776898561448
3738.5227,1.269694278817439,92.81297750197045
3739.3828,1.2689483963998098,101.18703549912746
3740.245,1.2661799040917852,88.10897767124371
3741.1055,1.260566277361965,102.08922407214264
3741.9683,1.2524091722571362,118.07544215806134
3742.829,1.2431142207418866,139.5252879018227
3743.69,1.2346176456663192,120.79015899867295
3744.5532,1.228700659058836,104.03634120273455
3745.4148,1.2262036746867138,150.5068758270159
3746.2786,1.2265642666851213,114.21924974960805
3747.1404,1.228323202095281,118.32851689959905
3748.0044,1.230105044994947,96.25113450127718
3748.8667,1.2313764252394848,98.9095109056035
3749.729,1.232504945551556,119.64621308605719
3750.5938,1.2341398301877249,99.9635238963146
3751.4565,1.2365122369056856,92.0325905492934
3752.3215,1.2392024580956846,102.16159336694847
3753.1848,1.2413387826065934,110.39229076428187
3754.0503,1.2421367478468515,128.77263941772003
3754.9138,1.241308747304178,92.35123691856043
3755.7776,1.2391825562945507,156.35710048969554
3756.6438,1.2363408604752661,104.30031258977999
3757.508,1.233157740561814,99.1102766915454
3758.3745,1.229598209105331,91.08084118469283
3759.239,1.225637886924599,108.27585663702845
3760.106,1.2216301758210082,108.78742226739502
3760.971,1.2183677260446661,129.46845110241568
3761.8362,1.2164854356217376,107.95472760612714
3762.7036,1.2159219511250168,111.0613987542285
3763.5693,1.2158025971634636,98.841885493402
3764.437,1.2149075291563234,125.61460307271783
3765.3032,1.2123491507781363,107.32670127900509
3766.1714,1.2079480427872662,110.07186842176218
3767.0378,1.202291925005483,111.30047431965585
3767.9043,1.1964012409858653,101.9891360789745
3768.7732,1.1912446598276365,119.82440023173064
3769.6401,1.1872386863418043,132.85654448627471
3770.5095,1.1840055988838278,117.956658186091
3771.377,1.1809435513305784,97.95749051019241
3772.2466,1.1778176835001468,124.22331586952055
3773.1145,1.1748941378070967,207.08532366232677
3773.9824,1.1723313980890802,103.1146560695741
3774.8528,1.1698312866021785,98.93362284727745
3775.721,1.1670594497088385,121.39701566461204
3776.5918,1.1642933795484571,114.08829465821728
3777.4604,1.1625795398204029,155.72355745380494
3778.3315,1.163002304992546,142.7771146277185
3779.201,1.1659245463780805,114.5085081536588
3780.0703,1.1707925297433515,118.37164710919672
3780.942,1.1766002059948917,108.10819460432259
3781.8118,1.1823397561930868,126.13722135174865
3782.6838,1.1872143349600426,102.42170006920298
3783.554,1.1904488680748149,86.11420944761258
3784.4265,1.1915540524737815,89.1170584440279
3785.297,1.1907020609115753,146.9624065188676
3786.168,1.1887864472442866,125.0255480963662
3787.041,1.1866830074247339,112.1070367299875
3787.912,1.184456781937203,117.23284207808724
3788.7856,1.1813786940396762,120.52810781264746
3789.6572,1.1769605943259285,113.72101388234096
3790.531,1.1717658327892524,130.45377757918052
3791.403,1.16728001289151,132.66024443957693
3792.2754,1.164702437837528,116.02938648359877
3793.15,1.1640016617649571,100.89435434937647
3794.0225,1.1639334367253076,111.22744903321902
3794.8972,1.1630251565374008,109.46049684946608
3795.7703,1.16070396089118,115.7653780090299
3796.6455,1.1576308544005751,109.42218407817829
3797.519,1.1551437742858923,129.54025238200242
3798.3926,1.1542260429221025,119.51334314612538
3799.2686,1.1549028870923537,133.35503468790714
3800.1426,1.1563028979783436,130.52159692657364
3801.0188,1.1573180153174365,109.06110402411525
3801.8933,1.1573237773827398,117.11741366638594
3802.77,1.1564869501510475,120.22909294329112
3803.6448,1.155430517944398,113.37439340184308
3804.522,1.1545931680411246,127.46588478126532
3805.3972,1.1538738517674842,174.89947901306812
3806.2727,1.152750210001146,114.9224776743013
3807.1504,1.1507080400922782,151.7791860011704
3808.0261,1.1476166296166184,159.33487589732263
3808.9043,1.1437990959236197,149.45149090538587
3809.7805,1.1399927966673122,120.89921884409529
3810.659,1.13702841279894,143.30115641821996
3811.5356,1.1354795626113705,149.5964153142512
3812.4126,1.1352102249892946,106.0304684920812
3813.2917,1.1354205645073778,118.67155360888147
3814.169,1.1352456496728396,116.83363170798226
3815.0483,1.134468412570616,130.00942145288042
3815.926,1.1335691264706682,199.21266196612044
3816.806,1.1330062698495567,117.05102985408617
3817.684,1.1325758534064985,126.68922162111103
3818.5623,1.1315605329543583,124.23388947654547
3819.4429,1.1294640280842938,131.3437948342256
3820.3215,1.1264963541448716,153.28880490859595
3821.2024,1.123334664310758,136.16390652109425
3822.0815,1.1206777685301554,114.97943029725349
3822.963,1.118870927006789,134.6763258233947
3823.8423,1.117846896334278,126.43865919463005
3824.722,1.1170979370237513,126.72701582276645
3825.604,1.1158471061070834,111.35253638785471
3826.4841,1.1134333458275174,163.32190643558647
3827.3665,1.1096950763404128,124.39477707632606
3828.2468,1.105101679589032,143.72305638331997
3829.1296,1.100353130393455,159.99556697596262
3830.0105,1.0960574345461371,164.3509645089313
3830.8916,1.0925712496253777,114.78739098428177
3831.7751,1.0902516072180453,149.21796915752884
3832.6565,1.0895429441025073,176.71372367361226
3833.5403,1.0906699677240406,156.16018912600373
3834.4224,1.0932651675903757,173.63117027552858
3835.3064,1.096285608274779,147.61903479454827
3836.1887,1.0983161251380207,112.10252174927786
3837.0713,1.098169471364638,120.39887925859227
3837.956,1.095309550631073,139.9624210619974
3838.839,1.090067801946639,135.0580210950899
3839.7244,1.0835190676381825,120.37722275826286
3840.6077,1.0773108751772575,204.91030755225452
3841.4932,1.0730632911560813,161.1592683059557
3842.377,1.0717625222008016,171.28808643494722
3843.261,1.0731423608057116,145.711633848332
3844.1472,1.0758537440738563,122.30733803760745
3845.0315,1.0782256157510348,135.41427103226826
3845.9182,1.0792067884455545,148.17823759392923
3846.803,1.0786976782279878,149.45788762332768
3847.69,1.077336142139241,134.38148625099362
3848.5752,1.0760452433706658,132.4216174114773
3849.4604,1.0756389404699245,174.4200166291538
3850.3481,1.0765729666199426,139.00484120779004
3851.234,1.078770110917822,118.28311621641089
3852.122,1.0816522347055193,144.3510253155655
3853.0083,1.0843010564419961,154.51137137268933
3853.8967,1.0858212800399998,137.73938944371847
3854.7832,1.085656095303231,128.9388643059611
3855.6702,1.0838783416520732,143.3937592741834
3856.559,1.0811023861989832,147.31931780235686
3857.4463,1.0780393308112837,146.27424774992187
3858.336,1.0749397985834621,144.39037814761798
3859.2234,1.071619402828123,134.70153763619336
3860.1135,1.0678806244345405,137.86808800931195
3861.0015,1.0640488804259034,178.8775615164212
3861.8896,1.0608561432535093,157.7816448417777
3862.7803,1.0589922623939172,176.086412604319
3863.6687,1.0585964204922267,147.382850676613
3864.5598,1.0589998195693904,130.84328222725165
3865.4487,1.0588128641332715,170.25741387142992
3866.34,1.0560528110457175,136.25860537269037
3867.2297,1.0481148944699585,165.0607805408943
3868.1213,1.0317260717290273,129.36404913401344
3869.0112,1.0042790128539225,105.42144748240011
3869.9014,0.9666666537974825,143.36489648311883
3870.7937,0.9263586134591968,150.266751949492
3871.684,0.8966545352782339,138.3746304762494
3872.577,0.8891022170439423,192.35583784184598
3873.4678,0.9058821228621761,181.42296342673808
3874.361,0.9381141620225107,114.92992887463869
3875.2524,0.9721253473023632,176.55448097353582
3876.1438,0.9981465481564444,189.31553352157619
3877.0376,1.0133160535199406,183.45414065951837
3877.9297,1.0195073170278626,177.14964131307116
3878.8237,1.020023375138976,126.40816984980303
3879.716,1.0175392445351061,146.75760050810806
3880.6108,1.0139682549514923,145.4790764288864
3881.5037,1.0108112694637452,149.6288955241122
3882.3965,1.0090849957854884,179.17733160312878
3883.2917,1.0090621128458213,137.84459051876973
3884.185,1.0101569176768932,161.41501181460174
3885.0808,1.0112833920458992,167.11561164065307
3885.9746,1.0115090115162897,176.06315009805638
3886.8706,1.0106283705186494,158.661263748532
3887.765,1.0092387476036622,168.54160690492907
3888.6592,1.0082357893135279,171.47412575678067
3889.556,1.0080579246353865,144.82379361373836
3890.4507,1.008210234946363,174.34551017857427
3891.348,1.0074642673421237,156.34881127179125
3892.243,1.0046684726749484,164.73561280199027
3893.1406,0.9995934026936094,164.78095143916968
3894.0361,0.9933893782167091,164.11045243031793
3894.932,0.9881553119188289,215.37108409396976
3895.83,0.9860425723128445,182.43399085803244
3896.7263,0.9881321152089648,180.8796251119226
3897.625,0.993717109685798,197.99276039906755
3898.5215,1.0004898013416343,223.58565532357636
3899.4207,1.005793170792508,140.55684039723772
3900.3176,1.0079486790687502,128.4875158698738
3901.2148,1.007125655369854,155.37992806091958
3902.1145,1.0048458979677237,146.87390917942426
3903.0122,1.002809743477457,200.73180434250332
3903.912,1.0018175211293348,186.8677875467372
3904.8103,1.0016598291461298,155.46859219156576
3905.7107,1.001770770668808,151.80165026064006
3906.6094,1.0019953361203175,157.0143608659623
3907.508,1.0027460788418263,166.45797569934334
3908.409,1.004476733562594,199.34370666675508
3909.308,1.007005212978324,169.294926265078
3910.2097,1.0094464951808109,147.31413679991007
3911.1091,1.0107984819232534,178.41834750213837
3912.011,1.0107471673988464,219.7309279521188
3912.9111,1.0098230378754833,165.71622882951735
3913.8113,1.0088837406209137,156.92895837985344
3914.7136,1.0084483674965792,161.90205241221585
3915.6143,1.0084869986007097,186.7982275528758
3916.517,1.0086550392951168,166.78462526477523
3917.4182,1.0085763772157652,156.42161227485397
3918.3215,1.0079254943378262,139.47907464066316
3919.223,1.0064619158482437,195.48232223562007
3920.1245,1.0041671383602624,141.09380866437908
3921.0286,1.0013877015690071,172.72606978858585
3921.9307,0.9987497949317548,170.39439912489442
3922.835,0.9967075080203975,161.66462993110483
3923.7373,0.9952162624746519,164.1762367894821
3924.642,0.9937422617306623,147.5817299133567
3925.5452,0.9917455804907634,186.6761500163223
3926.448,0.9890721145944221,149.05377632013364
3927.3535,0.9859690843946235,170.07988168322905
3928.257,0.9828276100051783,151.6642187449712
3929.1628,0.9798443452929809,181.34568897844213
3930.0667,0.976972293272161,187.0628714829906
3930.9731,0.9739505811687332,179.47584021709844
3931.8774,0.9706373058384077,167.2442313251248
3932.782,0.9672584585633458,153.30445211776876
3933.6887,0.9644380908984675,197.60725173204742
