wavl,flux,ivar
3566.9744,0.9246095052798979,6.6750968571001374
3567.795,0.922350853858312,3.942296002779927
3568.6177,0.918688428427403,3.6214643074269084
3569.4385,0.9144851309549892,2.575986252964274
3570.2617,0.9109394304007217,3.90661440750444
3571.083,0.9090464236326621,7.242128721977212
3571.9065,0.908870197162639,5.542043934386412
3572.7283,0.9094873378947843,4.840897433640098
3573.55,0.9094603419226097,6.549801104953358
3574.374,0.9074962952869834,6.658406300671049
3575.1963,0.9030259211766044,3.004735877586774
3576.0208,0.8966248597309625,2.8938230053478504
3576.8435,0.8903672967517035,4.734141982582771
3577.6682,0.8873366521636532,6.340609916843038
3578.4915,0.8902838748885779,3.5208593256970104
3579.3145,0.8997058176420382,11.915303082199468
3580.14,0.9130817564502314,11.113192300626512
3580.9636,0.9257804093490175,4.374531350082497
3581.7893,0.933680472455924,3.3276442207056753
3582.6133,0.9349583356835768,2.3900227053784886
3583.4395,0.9304525460124927,6.004392165282093
3584.264,0.9223442275458429,3.9657954970259337
3585.0884,0.9126523207431828,2.2972484925721
3585.915,0.9027463870591893,3.048641968544993
3586.74,0.8938585508910797,4.234512674676018
3587.5671,0.8872783190645678,4.597020742659784
3588.3923,0.8841403055101189,6.516386358675412
3589.22,0.8845813119588767,8.463602355755409
3590.0457,0.8875777890950013,6.004073593046953
3590.8716,0.8915558388327599,6.63995065088892
3591.6995,0.8953265748894802,3.381184764484255
3592.526,0.8984875778229745,6.569529769953778
3593.3542,0.9012190690067262,3.0721966191042713
3594.181,0.9037213345589303,21.424839919008104
3595.0098,0.9059712468495718,6.4220505276832895
3595.8367,0.9077278837725223,3.6766634005624486
3596.6638,0.9089158846788448,3.709874586691406
3597.4934,0.9099987185432259,3.9093106460879117
3598.3208,0.9118610961346317,7.763009565811284
3599.1506,0.9148585524977256,3.634333753307266
3599.9788,0.917652764454455,3.8752551065180203
3600.8088,0.9174115258160701,4.226643042654996
3601.6372,0.9116257715326223,3.3680996834816934
3602.4678,0.9001251645656035,7.570747428298733
3603.2964,0.8855509096344578,4.127021137272571
3604.1252,0.8715735262098161,14.507120380750681
3604.9565,0.860966121321091,5.825837190552372
3605.786,0.8548190789415284,5.493434698169054
3606.6172,0.8528679967778475,3.2663157491246566
3607.447,0.8545642876015664,5.127673793545768
3608.2788,0.8594932664817906,9.256244128040146
3609.109,0.8670811496712395,3.4434919499584984
3609.9392,0.8760172982390524,3.938431067934256
3610.7717,0.8839402001225198,4.1710522013830005
3611.6023,0.8880359312491609,8.608912376194372
3612.435,0.8865978534212197,3.6423214551694683
3613.266,0.8801551826112972,3.8176341734867885
3614.0994,0.8713765889845627,6.555495697196461
3614.9307,0.8637752032990995,4.917732189235684
3615.7625,0.8597883058033836,5.751304128718763
3616.5962,0.8598320365143168,6.455722295936914
3617.4282,0.8624875707913819,4.041933681360468
3618.2625,0.8656876887423615,9.208611899492421
3619.0947,0.8678586100270591,4.299528529845932
3619.9292,0.8684131299533254,4.331144289346282
3620.762,0.8675235101344112,4.012725189852588
3621.595,0.8658170865066865,4.113435255863173
3622.4302,0.8640798772032937,6.818623109325048
3623.2634,0.8628713408633588,6.762245568644808
3624.0989,0.8621231143276428,4.571828453217192
3624.9326,0.8613025935285582,5.119822273699333
3625.7686,0.8600904373723138,7.343048074062182
3626.6028,0.8589838552788162,11.336547280400271
3627.437,0.8590889866358069,3.719557353198454
3628.2734,0.8612438541623031,6.414544192984298
3629.1082,0.8650637284591773,7.009788903115133
3629.945,0.8687496608495698,4.258883899765541
3630.78,0.8698195754801498,4.942195710637807
3631.6174,0.8665156777303736,4.064359656655973
3632.453,0.8587591411323264,9.934840390960801
3633.2883,0.8480469036894561,6.480346903060673
3634.1262,0.8367175801893378,4.121560925076768
3634.9622,0.8274187335389905,5.0532435217511775
3635.8005,0.822338880025189,6.426008258433479
3636.637,0.8225973676232871,5.8210450481966305
3637.4756,0.8274661604164991,7.166573192339417
3638.3123,0.8344651058133881,6.050837722013583
3639.1492,0.8403540436715844,9.631717048229259
3639.9885,0.8423262589324069,4.859982648704774
3640.826,0.8391607357716172,6.401520830676059
3641.6653,0.8319870234112382,7.877843540387241
3642.5032,0.824107197728547,6.8398104459646145
3643.343,0.8194051366050397,7.167373700250614
3644.1812,0.8202980477291397,9.767873054963555
3645.0195,0.8263069373008309,5.082287223224588
3645.86,0.8345427635115074,5.399600199396089
3646.699,0.8414623380555643,4.57603013332387
3647.5398,0.8448981811601736,5.44099397712787
3648.379,0.8445843813154841,6.7408926100787365
3649.2202,0.8413852298688457,5.669735870464902
3650.0596,0.8360949777239016,4.906362502624861
3650.8994,0.8290245979123092,13.987899063399908
3651.7412,0.8206101486590512,4.047589163627798
3652.5813,0.8120608836628775,11.614103742663975
3653.4236,0.8049111539375287,7.7671009346379
3654.2642,0.8001796296454292,7.150211799212692
3655.1067,0.797704889377166,7.992282484218486
3655.9475,0.796772656193466,6.244543670812593
3656.7886,0.7970822683499871,14.620458284388771
3657.6318,0.7991104247585251,75.01085121484226
3658.4734,0.8034212007793451,3.939287848516396
3659.317,0.8098481825299846,7.665250950290768
3660.1587,0.8171120152303878,4.914153513265381
3661.003,0.8231232062080771,4.691233058254041
3661.845,0.8253688197613498,3.0664507161876573
3662.6875,0.8219954978791718,2.809680348498485
3663.532,0.8130283900734666,3.489337405296999
3664.3748,0.8011956419108426,5.6638714266338965
3665.2197,0.7908672150120029,41.36800086760391
3666.063,0.7859051190522821,4.824741757941751
3666.9084,0.7873671343985356,16.917654512569694
3667.752,0.7931953064617406,6.6522944851186905
3668.5977,0.7997291400103754,9.938710558957075
3669.4417,0.8037831591574627,14.106838259087969
3670.286,0.8041373921645161,7.85729177507083
3671.132,0.8015364378153347,8.48370566127175
3671.9768,0.7978392892802506,4.863730128108848
3672.8235,0.7949110199068269,3.771371754582187
3673.6685,0.794013974137807,3.9938034297823615
3674.5156,0.7955853087354688,3.9078379559350003
3675.3608,0.799278224033389,5.91281907197609
3676.2063,0.8041092194021177,5.876514609389507
3677.0542,0.8087132595807746,6.88332535519267
3677.9,0.8116562849541152,7.836653744948526
3678.748,0.8119268345085723,4.326944078253286
3679.5945,0.8093011717157887,4.876264164703386
3680.4429,0.8045806807559283,9.341084766034115
3681.2896,0.7993342831084547,4.40408437905991
3682.1365,0.7949768965569873,5.880317826245106
3682.9856,0.7918659399556743,4.25391603503853
3683.8328,0.7890174845076359,8.274381377245785
3684.6824,0.7848324774878085,12.394995239883434
3685.53,0.77869717204946,5.092385369748702
3686.38,0.7719422108054963,12.856651976296739
3687.2278,0.76729657189658,11.315240022583586
3688.0762,0.7666804811194424,4.489069003174179
3688.9265,0.769578654841903,6.5599094890705025
3689.7751,0.773222997432338,4.57960326609204
3690.626,0.774535526589802,7.706734678525129
3691.475,0.7720285080654884,4.108419763598221
3692.3264,0.7664903726889915,5.69283966316627
3693.1758,0.7603373727303727,8.91659394512995
3694.0254,0.7562405306773784,5.162961558540282
3694.8772,0.7561061197296162,7.8939862846853295
3695.7273,0.7604710954125308,9.072939434231554
3696.5793,0.7683261690485866,8.2576039443323
3697.43,0.7772929026663716,7.3187284869524145
3698.2825,0.784533948878103,3.54319439760931
3699.1333,0.7877582385990567,4.686809077279487
3699.9841,0.7861520135700164,3.879779949672776
3700.8374,0.7804923189343795,4.923855114541644
3701.6887,0.772946657498879,6.546224389847715
3702.5425,0.7661444035942973,12.759272349195593
3703.3943,0.7619538140075602,11.327565226196457
3704.2483,0.760281769823533,4.826100451966563
3705.1003,0.7595159527094859,5.299279667028811
3705.9526,0.7581746742515999,5.390722537748038
3706.8074,0.7562688627450725,8.165439291558338
3707.66,0.7549599099882859,8.660701992978762
3708.515,0.7550270291682598,5.554597233707297
3709.3682,0.7559941410296884,3.8034034097083906
3710.2234,0.7566874949662007,9.10896054617077
3711.0771,0.7564067838042046,7.172936697369172
3711.9307,0.7554211929068186,7.155448234651788
3712.7866,0.7544451145213565,8.399891506821312
3713.6409,0.7538609928235879,5.302235075320779
3714.4973,0.7533974470714074,5.610940954126132
3715.3518,0.7524698602225423,8.945105745441769
3716.2085,0.7507393570004713,31.106252169962765
3717.0635,0.7484487877372977,13.929566429437232
3717.9185,0.7461921325259029,8.15265363368777
3718.776,0.744374303286219,7.910376553654054
3719.6313,0.7428150112807693,6.874170390004394
3720.489,0.7407712258718453,5.386617987462564
3721.345,0.7374066005068968,6.798522082012382
3722.2031,0.7322207398910631,5.314056320889107
3723.0593,0.7254159955411869,23.813754805219528
3723.9158,0.7179095933296873,31.71205611178013
3724.7747,0.7112219314329579,21.885195558944712
3725.6316,0.7070272536658512,8.772668948290367
3726.4905,0.7062852336376648,12.786101803933256
3727.348,0.7088696903394491,6.16048039292826
3728.2073,0.7139342030827036,6.32594187111936
3729.065,0.7206841259454225,5.855086488532491
3729.9229,0.728653178644688,6.198845427962538
3730.783,0.7370276967054556,5.0100230215754165
3731.6414,0.7440282890619676,7.1512076341698485
3732.5017,0.7475545080362186,7.418465164636284
3733.3604,0.7463543357997294,6.877312140122809
3734.2214,0.7408914214157499,7.470580489757966
3735.0803,0.7331152621888051,8.944942692283004
3735.9417,0.7254293963542042,8.945820445497072
3736.8013,0.7199338705751697,7.987751543568191
3737.661,0.7176983461328245,5.406517791040131
3738.5227,0.7184943271631121,6.428709036793833
3739.3828,0.7207829483598035,6.412405420053847
3740.245,0.7223749230267414,5.664357987823205
3741.1055,0.7216112695588228,8.214247184059028
3741.9683,0.7184282242599572,15.473067594976838
3742.829,0.7144115354520496,11.722160930726563
3743.69,0.7115903967474382,7.005281317950363
3744.5532,0.7109801967232171,7.947549102763943
3745.4148,0.7119740137038422,3.083890050831141
3746.2786,0.7130239526222402,8.07480107436813
3747.1404,0.7128574472573644,6.281505075907594
3748.0044,0.7111151950530666,9.460892033190309
3748.8667,0.708121405813659,8.946563813817393
3749.729,0.7044285177982924,7.387167860679544
3750.5938,0.7007529170492715,6.156586091981521
3751.4565,0.6980815010145477,14.637808849970806
3752.3215,0.6973010347342533,7.1085216075038895
3753.1848,0.6986188149048312,15.620548966930057
3754.0503,0.7012260004174763,8.300617843713491
3754.9138,0.7036434226616949,7.759906048808573
3755.7776,0.7045430203329212,6.6032584278277655
3756.6438,0.7033516947927397,5.538733188347244
3757.508,0.7004187938389177,4.2554725281697
3758.3745,0.6966757875461841,8.698196742810422
3759.239,0.693201160624837,7.690057547838898
3760.106,0.6908444119766944,8.950148611636246
3760.971,0.6902329044010501,9.167900673836115
3761.8362,0.6916952967619853,6.809729170914726
3762.7036,0.6950698429038081,9.99191444880589
3763.5693,0.6994430197211209,11.727351591446759
3764.437,0.7034623859120175,9.103699398574317
3765.3032,0.7060397119066361,8.633551518253718
3766.1714,0.7070652961232133,7.741178611595892
3767.0378,0.7072829040902913,5.235387726257621
3767.9043,0.7075215877079836,11.010198752479022
3768.7732,0.7079103068745605,11.870305715771373
3769.6401,0.7077903407427606,7.614622362766232
3770.5095,0.706324966163423,7.775946573889121
3771.377,0.7031996836147484,9.383051213556147
3772.2466,0.6988133585848979,10.376564439038013
3773.1145,0.6941150561458557,9.836867372495938
3773.9824,0.6902186179630075,9.257199389773108
3774.8528,0.688121077500543,4.201212734703534
3775.721,0.6883604137668343,5.985842047690059
3776.5918,0.690746042022927,7.60508989980566
3777.4604,0.6944851217681061,4.8390200232451415
3778.3315,0.6986793505544139,4.930837772658187
3779.201,0.7026517860544239,9.547369095726587
3780.0703,0.7060703333754728,4.290129692345425
3780.942,0.7087206718309651,7.9537196728761215
3781.8118,0.7103014465065665,5.755811154573905
3782.6838,0.7104459238646313,4.5572208646386025
3783.554,0.7088403041693343,7.078029558573071
3784.4265,0.7053913387684713,5.771144967148396
3785.297,0.7003692531199144,10.111258932434776
3786.168,0.6943926716106216,4.747135454946012
3787.041,0.6883320483276242,9.949379812135891
3787.912,0.6829963515348414,11.510363455857455
3788.7856,0.6786209971370359,7.160249326324217
3789.6572,0.674950405905389,9.99122510501088
3790.531,0.6716212457193074,7.134201422795545
3791.403,0.6686772263655534,9.119083313323813
3792.2754,0.6663987175514713,16.957851937920736
3793.15,0.6648759786846301,8.888231191973096
3794.0225,0.6639005125930443,8.780038570356
3794.8972,0.6633518878907547,9.508030934527564
3795.7703,0.6635587839282884,17.70628433803482
3796.6455,0.6650562055284203,9.718805042741486
3797.519,0.6680058277798847,5.49351555027963
3798.3926,0.6719093457532496,6.389030717216003
3799.2686,0.6758291221113296,14.781558706122933
3800.1426,0.6788498423996545,11.497910751695752
3801.0188,0.6805067135272733,7.629264307023287
3801.8933,0.680679524516816,11.404406026182729
3802.77,0.6793028141061617,14.132503435889635
3803.6448,0.6762988691471122,8.346521430376468
3804.522,0.6720483844343482,4.637807609108668
3805.3972,0.6680184835878299,8.232926048400717
3806.2727,0.6663474703541497,10.73215684512358
3807.1504,0.6684023512095373,12.885884861278935
3808.0261,0.6733364214948191,15.699473282397474
3808.9043,0.6784195887483231,5.338720156944675
3809.7805,0.6809217829132227,8.079933275886248
3810.659,0.6799828710403613,10.38380024201687
3811.5356,0.6766514652694875,5.656021957875769
3812.4126,0.6726066173959211,7.392215662779539
3813.2917,0.6689917909224465,19.806796666401386
3814.169,0.6661764023902542,7.76914752494585
3815.0483,0.6639461275184366,8.201493705395048
3815.926,0.6617489520257984,10.724689539199986
3816.806,0.6587964306087933,11.88909907200635
3817.684,0.654532395728806,6.083483298646603
3818.5623,0.6491639706918565,16.671978946553455
3819.4429,0.6437670025420288,9.881753847888673
3820.3215,0.6396723064695962,9.347822899301324
3821.2024,0.6375275649337688,10.448962445471489
3822.0815,0.6371865690716075,8.416708257034339
3822.963,0.638244684821812,8.490945372108168
3823.8423,0.6406346498138326,9.91627616761668
3824.722,0.644571125173514,8.372221198842587
3825.604,0.6500187965510544,8.394680564610448
3826.4841,0.6564156030629493,15.504284493459874
3827.3665,0.6634102554538085,11.520914746455288
3828.2468,0.6717533948014587,6.019226449176878
3829.1296,0.6834031647604393,8.31062303977795
3830.0105,0.699260157907221,9.154063795653343
3830.8916,0.7164837428943478,20.1737602668278
3831.7751,0.7280177983165953,8.031453451872348
3832.6565,0.7264889189780135,11.37616494961518
3833.5403,0.7099620542586673,9.479434464465065
3834.4224,0.683992684564416,8.580138436126562
3835.3064,0.6578226704317532,10.493982112363849
3836.1887,0.6389338617923614,10.801283301116822
3837.0713,0.6294008011602857,13.760252595659312
3837.956,0.6268081318872374,12.103828874975893
3838.839,0.6270049246281806,8.337085452860757
3839.7244,0.6266523283425396,6.967158702265981
3840.6077,0.6244932428450157,7.541677675511238
3841.4932,0.6212990870125877,8.564108939269396
3842.377,0.6190627080841842,13.691740612505207
3843.261,0.6197750653500319,7.675383206977605
3844.1472,0.6244179800938773,14.209900341856892
3845.0315,0.6323566498394875,13.811516890203476
3845.9182,0.6416046439340936,8.532462291819156
3846.803,0.6495659115702732,8.017269782726718
3847.69,0.6544102512091619,12.471579911178349
3848.5752,0.655804702858698,4.189233069770439
3849.4604,0.6549168504570159,6.1675307374772075
3850.3481,0.6534151776969871,6.221000630692027
3851.234,0.6524370035875998,9.515478221150815
3852.122,0.652153120772166,7.316948470636759
3853.0083,0.6522178813448468,17.98526597385715
3853.8967,0.6525291542800928,15.034301177850432
3854.7832,0.653574020479694,7.820349562226481
3855.6702,0.656007137456053,13.016721682954914
3856.559,0.6598355160193303,12.153224667344187
3857.4463,0.6639495423301061,6.982091251399807
3858.336,0.6666312499804752,8.456150959298906
3859.2234,0.6665998262505792,7.912179714840577
3860.1135,0.6639603490739293,14.441672105552378
3861.0015,0.6601799929012989,11.607417860472118
3861.8896,0.6571151668410055,11.746921204460007
3862.7803,0.6559623723048472,7.189085605302634
3863.6687,0.6567942961185819,8.954552298583799
3864.5598,0.658747062724337,7.779976784266535
3865.4487,0.6604281084691138,8.612269524503542
3866.34,0.6603206225471456,10.356733741157564
3867.2297,0.6572017623841708,8.24738738998567
3868.1213,0.6506066083531606,8.485960652477948
3869.0112,0.6410797326592551,21.120632326817983
3869.9014,0.6298651269153611,19.747673768147756
3870.7937,0.6185311185275267,13.146795723160011
3871.684,0.608760508415064,8.905004656595349
3872.577,0.6018840586627969,10.822285658663661
3873.4678,0.5985965745167585,15.026989245336404
3874.361,0.5984034981032256,9.555794230331838
3875.2524,0.5997866214147403,9.291132674653735
3876.1438,0.6009097096490528,8.772540492102923
3877.0376,0.6004311026723906,10.335464457695528
3877.9297,0.5978247821933437,5.417278806800107
3878.8237,0.5931894667287991,6.210927030554874
3879.716,0.5869909821190952,11.198231978748806
3880.6108,0.5798186624750022,11.483262022530162
3881.5037,0.5724674845041863,10.261179478514219
3882.3965,0.5657923980564272,14.432040713714056
3883.2917,0.560523081064774,15.675776620497423
3884.185,0.5568725108451869,11.747789772355743
3885.0808,0.5542162820614742,14.146268017619885
3885.9746,0.5514972239673489,13.085411463176346
3886.8706,0.5478944572786177,12.16762817251814
3887.765,0.5434526962922647,27.508040903732812
3888.6592,0.5390460013173088,13.7605120141873
3889.556,0.5358994184428991,17.75778348507206
3890.4507,0.5348863008561223,18.381294807148553
3891.348,0.5358710426712027,27.588597976515178
3892.243,0.5376465854992937,10.729340419868361
3893.1406,0.5386272165239239,9.505190803371011
3894.0361,0.5379444209073682,11.659033624286447
3894.932,0.5361509093302699,11.68960960442883
3895.83,0.5348366443627584,16.000466722543145
3896.7263,0.5355285832422259,16.063226242079313
3897.625,0.5387765667003003,15.288797422845578
3898.5215,0.5441437194616374,11.099529590872034
3899.4207,0.5509988804110102,7.610273829599707
3900.3176,0.5590297679823986,13.663055562513549
3901.2148,0.5682732164641919,10.813381367214703
3902.1145,0.5784702760532457,7.2948292923830245
3903.0122,0.5886303552814132,10.139346674686498
3903.912,0.5975550905699997,9.371235957829539
3904.8103,0.6043767061583802,14.297863727052082
3905.7107,0.6090760191961943,13.375314693828594
3906.6094,0.6121398807889744,9.496047199858104
3907.508,0.6142154303241694,8.839571217358818
3908.409,0.6158964437972606,15.262982609955856
3909.308,0.6177767013078884,7.678637932613285
3910.2097,0.6204140449315302,11.0178481165556
3911.1091,0.6240264840467613,6.3545410242991185
3912.011,0.628469937200827,10.283959749590087
3912.9111,0.6335431220154447,22.889602708598307
3913.8113,0.639484052574839,10.792747308332428
3914.7136,0.6467454366006489,14.037255156229207
3915.6143,0.6550713452521101,7.401472247907526
3916.517,0.663026210216888,9.562055042954729
3917.4182,0.6684320858732947,7.627057648746123
3918.3215,0.6699118825042991,9.659062787690695
3919.223,0.6678337829560016,8.614060170412602
3920.1245,0.6640661819758849,21.05323858507664
3921.0286,0.6606637135564606,9.507294033649986
3921.9307,0.6587054614169006,10.459002037722264
3922.835,0.6579793813801427,10.151473542222073
3923.7373,0.6576539736692345,8.061956154251908
3924.642,0.6570267749614016,8.948948729073143
3925.5452,0.6557776632991702,6.550678173310841
3926.448,0.6537409972258206,8.993923251243606
3927.3535,0.650799349126852,7.992895215212509
3928.257,0.6472187606083026,9.456894650620846
3929.1628,0.6438535093891953,8.943828083846899
3930.0667,0.6418197247510938,8.17081215220115
3930.9731,0.6415584705615153,10.569989234646332
3931.8774,0.6423616833052617,9.262134544368546
3932.782,0.642855446178894,9.042541458581912
3933.6887,0.6420659378179134,10.723245432955645
3934.5938,0.6400674464716769,8.28710395206199
