wavl,flux,ivar
3566.9744,2.3897228204089505,194.52115444129842
3567.795,2.3904078574360574,187.5302485062185
3568.6177,2.3910029455022626,219.3920812140934
3569.4385,2.3915922158789664,193.11783089711867
3570.2617,2.3947828116934877,195.27742691054505
3571.083,2.407415892002546,213.78279908444998
3571.9065,2.441674069344089,197.37284758415942
3572.7283,2.51177449935228,201.9249864587692
3573.55,2.624303180263152,199.31635036221644
3574.374,2.7643617418404953,249.47901165097488
3575.1963,2.8893859635316548,192.79127657737519
3576.0208,2.948780346405695,66.18107814936201
3576.8435,2.9146067941988467,208.35359012144104
3577.6682,2.8025901173797068,171.6412609658365
3578.4915,2.660456880532323,196.0008335623688
3579.3145,2.5347487575772285,204.21591992551373
3580.14,2.4479776413928698,176.4151807062571
3580.9636,2.399016049459796,214.52670148104392
3581.7893,2.3748115268167234,200.85381767137375
3582.6133,2.363301014266849,174.99376780688686
3583.4395,2.357149807068174,200.343971336201
3584.264,2.3532067466782403,194.89604417231718
3585.0884,2.3504601469461215,237.78475656848863
3585.915,2.3489074878542553,231.88526911802256
3586.74,2.3489124724872656,221.64752686897515
3587.5671,2.3505489966132287,214.07497237905133
3588.3923,2.3530130767549897,193.77129395978076
3589.22,2.354666648047237,186.50027237661965
3590.0457,2.353883845536576,236.0475505331288
3590.8716,2.350222114780459,218.72287885975373
3591.6995,2.3447765489201537,190.40784979275398
3592.526,2.3394761820861794,227.8706450244627
3593.3542,2.3357087491136523,219.9162075756161
3594.181,2.33361397256388,209.99667212275807
3595.0098,2.3322383187139692,224.86485912323022
3595.8367,2.3303987565244615,202.6968403026058
3596.6638,2.3273771267333268,183.16674840226923
3597.4934,2.3232293886063387,205.22282638774968
3598.3208,2.3187441039135503,203.87429113767473
3599.1506,2.314972127782116,227.18925649653823
3599.9788,2.3128315843635763,235.29597291452913
3600.8088,2.3127861984235634,217.5222171129145
3601.6372,2.3148854778552073,225.79039509247136
3602.4678,2.318655984607159,244.06954460542588
3603.2964,2.322734830954608,259.4463869890415
3604.1252,2.324978120763762,190.2799992244216
3604.9565,2.3234021125724276,187.31404917825483
3605.786,2.317636084226792,229.71168776936076
3606.6172,2.3094563524856433,224.92760538581283
3607.447,2.3019635836130314,226.06678778105513
3608.2788,2.297757789222418,232.7498650150508
3609.109,2.297706707722881,208.66746070691062
3609.9392,2.300604952012541,205.16114057162926
3610.7717,2.3039387007290295,194.53952130580794
3611.6023,2.305054666783837,210.83534818356642
3612.435,2.302402446636136,198.29346159017211
3613.266,2.2962048308821625,243.60998559103342
3614.0994,2.2882621302974475,257.31568249159136
3614.9307,2.281121992409372,222.81464246119276
3615.7625,2.2767233651824856,218.9647200664176
3616.5962,2.275686444113953,214.8082304819871
3617.4282,2.277360741038167,235.41376113534645
3618.2625,2.280554982386791,221.82450070473948
3619.0947,2.2841615000430235,219.54345620370967
3619.9292,2.2873245295929716,210.80866660528508
3620.762,2.2892413857127893,227.3750321389372
3621.595,2.289321733299392,227.2072611524459
3622.4302,2.2874590322375004,227.1015518553141
3623.2634,2.284086337919924,252.82946217274795
3624.0989,2.2797505464313716,213.08450370428972
3624.9326,2.27490776806418,220.57496828938733
3625.7686,2.270085338727394,264.8869030961819
3626.6028,2.2662585484205624,211.2127313673098
3627.437,2.264444011343329,237.25899987843962
3628.2734,2.2649406175277407,216.53844120568723
3629.1082,2.266838737466924,193.17041715250957
3629.945,2.2683978343903575,270.5643018390228
3630.78,2.267990309960552,207.95627242465812
3631.6174,2.265047871106505,251.1774516510085
3632.453,2.2604020778662655,229.9317382120662
3633.2883,2.255653719412391,236.76016270916713
3634.1262,2.252043769050151,211.5643383121951
3634.9622,2.249743183324147,225.9471656548407
3635.8005,2.2480994149547247,243.54433544907255
3636.637,2.246621695707516,248.38342852636336
3637.4756,2.245446682895055,203.3544767639865
3638.3123,2.244964063109505,243.60625798908788
3639.1492,2.244993509074416,270.5546284086786
3639.9885,2.2444728037407193,243.36208817333656
3640.826,2.242023846739805,216.56908237050945
3641.6653,2.236986691072289,236.3228033305638
3642.5032,2.230133795331767,231.80794144242938
3643.343,2.2232689176053295,236.52901737026883
3644.1812,2.2181897184432544,254.42026798803096
3645.0195,2.2154907588376394,222.62689335569146
3645.86,2.2144087070275695,238.9061373048632
3646.699,2.213571677029977,240.40674171073735
3647.5398,2.2120329777784646,246.17388623970515
3648.379,2.209798877037774,250.59089224057817
3649.2202,2.2075124111241395,253.73498404617496
3650.0596,2.2058014522638385,236.46979724694978
3650.8994,2.204706213093119,234.310924815571
3651.7412,2.2036467441221363,251.77776295664702
3652.5813,2.20183133917151,215.8505012346784
3653.4236,2.1987899361206558,264.1440276487027
3654.2642,2.1947025613501143,272.9739711709892
3655.1067,2.1902441397552193,228.36682048867326
3655.9475,2.1863893833057726,244.68010138981214
3656.7886,2.1841158206370674,263.6061052478494
3657.6318,2.184114698260925,266.3963247373379
3658.4734,2.1863090581259286,231.39674277090484
3659.317,2.189682953754163,240.52221499123974
3660.1587,2.1927407020442,244.7686985203146
3661.003,2.1944034090946074,218.51357635853478
3661.845,2.1944801889938224,239.20761484336836
3662.6875,2.1935726640271396,227.90101833601997
3663.532,2.1925462854568183,232.0185110963434
3664.3748,2.192090435754935,273.28322410012817
3665.2197,2.192483070662201,281.3781898340045
3666.063,2.1935585537315485,225.9342823530171
3666.9084,2.194762910967869,265.78272765350624
3667.752,2.195271968648867,248.77667223635376
3668.5977,2.194296498206045,239.69613901630004
3669.4417,2.1914917188554313,249.40453764005196
3670.286,2.1871880331970277,241.01469122470925
3671.132,2.1821477865435117,268.7931311649968
3671.9768,2.1770677736522495,261.2650768143626
3672.8235,2.172262629476592,254.5216046950889
3673.6685,2.168075296751191,277.4090894379349
3674.5156,2.165186395485464,249.3559178781793
3675.3608,2.1644259610745826,270.9380971097019
3676.2063,2.1659149292328115,255.1660018122354
3677.0542,2.1686301784667847,249.38651139509832
3677.9,2.170844414566085,242.30635340294927
3678.748,2.171292976113735,246.24556258308155
3679.5945,2.1699253007578463,272.2208223169846
3680.4429,2.1677055159846437,249.41964067161436
3681.2896,2.1656466876404203,250.85696358860937
3682.1365,2.1639417030754386,240.6293724517409
3682.9856,2.1619681986054107,242.77703391933875
3683.8328,2.158991143502401,234.55049441899283
3684.6824,2.154821022207438,218.31398787031378
3685.53,2.150067400111471,275.3625265990879
3686.38,2.145711185495994,281.0351690732611
3687.2278,2.142593290171664,275.75839671601165
3688.0762,2.1409154971792788,233.9666398496878
3688.9265,2.140364824832296,255.65990183532583
3689.7751,2.1405770590179123,256.5602668491202
3690.626,2.141483564564618,308.1812800204372
3691.475,2.14315851841633,229.20944791398907
3692.3264,2.1454516381607633,228.11329274474033
3693.1758,2.1478687037807083,236.400634007438
3694.0254,2.1499051245124003,243.98042138381882
3694.8772,2.1513028124019584,264.5921860373691
3695.7273,2.151996176370517,249.27100329882603
3696.5793,2.151920012413179,242.8995713870418
3697.43,2.150955010946371,295.3962032368075
3698.2825,2.1490843627212217,248.97375919240537
3699.1333,2.1465496047423844,228.3725599498392
3699.9841,2.1438348521723065,250.80730562984556
3700.8374,2.1415868162051495,275.32032308743845
3701.6887,2.140430011820587,269.94685554451047
3702.5425,2.1405666860540555,293.2964467064331
3703.3943,2.1414638155074153,278.4897319191111
3704.2483,2.1419553102732807,275.81142497793115
3705.1003,2.14095835332721,267.6357490972077
3705.9526,2.138345817532356,276.8183156708663
3706.8074,2.135096922347607,263.4618376169104
3707.66,2.1325089541333777,282.66233737182637
3708.515,2.131021234515722,288.83457414101366
3709.3682,2.1298876718058377,262.25832919960175
3710.2234,2.1277575015369457,252.88608509353205
3711.0771,2.1236780385733307,261.0924422369421
3711.9307,2.1176521808071738,266.7659487002926
3712.7866,2.1105979941519517,267.78838686771576
3713.6409,2.10399050622168,277.846794164762
3714.4973,2.0991460196505445,281.78282895556475
3715.3518,2.0968253638415493,279.5006545080064
3716.2085,2.096990867641155,268.52362267236776
3717.0635,2.099103512668998,220.69648107632406
3717.9185,2.1024752766865342,297.3945152879516
3718.776,2.1063781804315465,270.9032821263122
3719.6313,2.1098386688590147,314.91299431882743
3720.489,2.1117572438818923,263.8394166534919
3721.345,2.1114142376513594,256.2877954764396
3722.2031,2.109148245265357,251.7787107313371
3723.0593,2.106332886529203,301.0539175481771
3723.9158,2.104474081754044,282.53606844901753
3724.7747,2.10423270388231,291.24568783990145
3725.6316,2.105118980515454,280.9440518153854
3726.4905,2.1060106600126334,265.7399412469026
3727.348,2.105946425085847,287.15150741999116
3728.2073,2.1046536849875332,270.01877148296796
3729.065,2.1026138402712,294.44268711846803
3729.9229,2.1007109052103354,285.14911455316695
3730.783,2.0997041056363934,266.8916647641453
3731.6414,2.099783609299533,306.96404472447244
3732.5017,2.1004565832133872,219.37274044465644
3733.3604,2.1008374251347965,283.62626399783534
3734.2214,2.100127837042395,265.7749398051342
3735.0803,2.0980016201187186,269.0012055274681
3735.9417,2.094656972210026,256.2126909620218
3736.8013,2.090629250430666,242.39448606959158
3737.661,2.086454046611756,268.25929747731095
3738.5227,2.0825655918006682,262.0843481018259
3739.3828,2.0793650388828606,279.76114484158234
3740.245,2.0771901489059372,255.49626668141897
3741.1055,2.076309553035412,249.20897328695094
3741.9683,2.0767663122846285,231.97193920927438
3742.829,2.078279399201291,306.12382501869683
3743.69,2.0802397817500324,283.47631509308644
3744.5532,2.081937892248942,257.39729735396287
3745.4148,2.082918037067946,292.4214880430562
3746.2786,2.083206126439862,276.0166200214597
3747.1404,2.083120843611207,284.0550751492958
3748.0044,2.08296859986866,261.274756715154
3748.8667,2.08294625725398,254.43131844525143
3749.729,2.0832291043649067,300.30831740667014
3750.5938,2.083941211128987,307.90639877868955
3751.4565,2.084984757445649,281.4114659720678
3752.3215,2.086105553560119,275.79381680911956
3753.1848,2.0872101768513853,276.89567009944926
3754.0503,2.0885666337077073,282.64028354299523
3754.9138,2.090478672041765,294.29952232026744
3755.7776,2.092801221410592,284.82520049970344
3756.6438,2.094774668759141,266.08451320367817
3757.508,2.0953940826212873,277.5118806426377
3758.3745,2.0940490938782705,282.7682345380999
3759.239,2.090852342196611,276.83635349679446
3760.106,2.0864298571791897,266.7559477877789
3760.971,2.081489580130502,315.4253452912175
3761.8362,2.076394797923772,297.58444913257006
3762.7036,2.071224306733681,252.5422060006341
3763.5693,2.0661063955476324,283.6512262666038
3764.437,2.061386700147254,279.49222750512916
3765.3032,2.057653157585908,259.5527201389503
3766.1714,2.055298136980481,281.31626781568644
3767.0378,2.0541658454097274,297.88273209702186
3767.9043,2.0534299746874187,284.73667997336554
3768.7732,2.0520225589458687,289.2311639026472
3769.6401,2.0493344830981166,275.7935406015181
3770.5095,2.0456859904229985,273.3672194350137
3771.377,2.0423026608146957,291.1568765208598
3772.2466,2.040587970294383,283.72216584930754
3773.1145,2.0413057682536984,324.419162107254
3773.9824,2.04406652224913,300.10290255487234
3774.8528,2.0476221388408127,260.8578326307983
3775.721,2.0506017628907185,287.02179497977
3776.5918,2.0522927600831378,278.46706405059786
3777.4604,2.052812574906107,275.2334923992897
3778.3315,2.052909785253522,288.8357757029695
3779.201,2.053488531715188,286.97404749315757
3780.0703,2.055147422396657,282.20416615925274
3780.942,2.0578570308895814,294.2268541463044
3781.8118,2.06090303702461,279.6214804471592
3782.6838,2.063261803422307,259.0746639429422
3783.554,2.0640400926924225,316.5270607347003
3784.4265,2.0628097246392954,298.61448284794943
3785.297,2.0596156276516697,263.7089989806234
3786.168,2.0548668726799155,294.32411590460924
3787.041,2.049218047431257,283.1794984131115
3787.912,2.0434163234110625,289.3163534969235
3788.7856,2.0379179030292853,292.5591369646074
3789.6572,2.0328741431741557,260.2084159005531
3790.531,2.0282008469760706,267.67601910961116
3791.403,2.0239050640229754,295.38196031494783
3792.2754,2.019967328406963,272.38634574647904
3793.15,2.0161392144613055,314.8496105482089
3794.0225,2.011916286473003,287.1348013265323
3794.8972,2.0067808669688785,287.2580811431941
3795.7703,2.0007158752859717,281.29387250345764
3796.6455,1.994307014024374,266.84490882330647
3797.519,1.9886425775156773,313.7297821607754
3798.3926,1.9847211197988641,294.66268476831027
3799.2686,1.9830149295144561,304.568292587965
3800.1426,1.9833216445579611,322.83348565327327
3801.0188,1.985054458965817,267.92698549492155
3801.8933,1.9877541761462163,324.37473883360207
3802.77,1.991361930191902,299.61995597782897
3803.6448,1.9959493311630052,284.8697065282253
3804.522,2.0013750630608103,324.4460233787083
3805.3972,2.0070635709519675,285.30573447789953
3806.2727,2.012410237226598,298.06277977751347
3807.1504,2.0171779860343824,270.58474922255226
3808.0261,2.0215930816238794,280.36478980359715
3808.9043,2.026160412634312,253.64363951867227
3809.7805,2.031233719284618,283.33196494477465
3810.659,2.036936947140971,287.50625670259143
3811.5356,2.042983854703252,288.0291146669292
3812.4126,2.048685464556311,262.83141292481196
3813.2917,2.052993763172747,330.9689286462299
3814.169,2.0548572621670322,258.3482182916937
3815.0483,2.0537302862129354,274.6927893027978
3815.926,2.049721488437854,276.73849054759603
3816.806,2.043439598721152,273.83033091685445
3817.684,2.035852956274639,267.08506084067477
3818.5623,2.0280853321736108,258.0813891750707
3819.4429,2.021292917449565,323.20891342004103
3820.3215,2.016378723278008,295.60578130212866
3821.2024,2.013462285432262,293.6366309500676
3822.0815,2.011822450492926,309.1285217361071
3822.963,2.01014172181773,264.2721146035026
3823.8423,2.0071419433581035,262.7610715539831
3824.722,2.0020846324488493,300.717716256739
3825.604,1.9949994080963342,304.0606401861554
3826.4841,1.9866540100604768,297.2255736513454
3827.3665,1.9780466604414382,294.45944674734454
3828.2468,1.970043424144719,318.8109051424872
3829.1296,1.962802603582434,281.0075921911245
3830.0105,1.9557807336597028,332.9296900405946
3830.8916,1.9478074792563977,296.8305897849084
3831.7751,1.9377063905432008,359.41501838680614
3832.6565,1.9252050453080238,315.9423087680947
3833.5403,1.911358622498928,324.1714538858769
3834.4224,1.8986381241443393,347.1061126403164
3835.3064,1.8896495934236568,298.1777814817833
3836.1887,1.8860165025110163,342.2511546888773
3837.0713,1.8875798918134874,345.6560559774646
3837.956,1.8929141350785894,332.50498157022867
3838.839,1.9003141760786255,326.95153734459547
3839.7244,1.908799052742009,336.1558050144982
3840.6077,1.9181835601415755,294.55206197475087
3841.4932,1.9288136853343973,365.43783901437865
3842.377,1.9408672871938877,311.8368484641669
3843.261,1.9542643941786375,335.7067996217742
3844.1472,1.9686123786334975,318.72603068640484
3845.0315,1.9831552338919156,308.619302199352
3845.9182,1.9970736633412067,301.2104539554948
3846.803,2.0093884150830497,299.60646145985703
3847.69,2.0195679040502994,271.83059272480773
3848.5752,2.0276234725858915,259.52524002239153
3849.4604,2.034273390157889,288.7948341546977
3850.3481,2.0404380933332136,337.99323137035384
3851.234,2.046665274236367,283.6065488788763
3852.122,2.0530713058372525,272.8600515315509
3853.0083,2.0594771621134043,272.2133286409726
3853.8967,2.065764237259931,249.69382782472215
3854.7832,2.071639423158686,294.81334938199126
3855.6702,2.076611116662132,256.8506746231398
3856.559,2.08024001821939,247.625686338254
3857.4463,2.0826411467536463,276.85578962435477
3858.336,2.084524056187788,269.8416865004709
3859.2234,2.0865076698369336,281.45027100044985
3860.1135,2.0886046275065784,256.50067588389345
3861.0015,2.0902661786799124,255.37730073833893
3861.8896,2.0909080545098746,263.2097604156899
3862.7803,2.0901755917178173,268.30696361375567
3863.6687,2.0879100589878274,268.2680390478829
3864.5598,2.0840106821205127,271.66257343424985
3865.4487,2.0785139784539064,322.9307826684037
3866.34,2.071602431616901,280.57805333410306
3867.2297,2.0637374056367532,263.07091368338973
3868.1213,2.0554594947730322,291.1777872068132
3869.0112,2.047308837585227,283.62715764550614
3869.9014,2.0393875813934006,277.9656660176179
3870.7937,2.031169229226812,287.65085759231033
3871.684,2.021667411971981,277.60776718473005
3872.577,2.0098031259236926,307.16196938296895
3873.4678,1.995228742496909,273.8085451467325
3874.361,1.9784530182973166,290.686647147431
3875.2524,1.960990229447495,297.85171295876575
3876.1438,1.9444803497942236,302.35792150519694
3877.0376,1.9300032736544062,317.9391764311035
3877.9297,1.9176129601103673,332.1529054748196
3878.8237,1.906069056122806,345.6080603216859
3879.716,1.8935886028742521,326.9887647519649
3880.6108,1.8784656100214978,284.5539353733844
3881.5037,1.8600480727558908,372.1906525381824
3882.3965,1.8387497599590898,363.66981473876945
3883.2917,1.8157947260372576,343.2860633069048
3884.185,1.7928046694501976,360.7903715536244
3885.0808,1.7708619777786507,374.818137435015
3885.9746,1.7507417989338465,383.78838881197663
3886.8706,1.7326128094258282,394.5872428358981
3887.765,1.716726335091078,323.43162497048627
3888.6592,1.7034697431210502,422.10679585148745
3889.556,1.6936654929085984,460.74186445672956
3890.4507,1.6884900703249857,435.6867813291367
3891.348,1.688953877749837,417.4723393820871
3892.243,1.6955788551229045,466.8782808435466
3893.1406,1.7081558734038376,384.1138560742011
3894.0361,1.7255910415459181,418.8268880418068
3894.932,1.7463848168763458,392.5015158775431
3895.83,1.7690132269910168,430.47815091739534
3896.7263,1.7921087553716735,382.58242931002724
3897.625,1.8149930979548952,350.4732061023016
3898.5215,1.837143401961545,337.4375072144659
3899.4207,1.8585020448983396,336.4941327603434
3900.3176,1.878929906148472,326.83281337704364
3901.2148,1.8986507103680321,357.1594217894884
3902.1145,1.9180900686858164,312.43549907703624
3903.0122,1.9376419769309918,352.85005641038146
3903.912,1.957729561810694,306.8170480431255
3904.8103,1.978129639524479,275.18093457696654
3905.7107,1.998227703038758,292.73794461925024
3906.6094,2.0169647253910568,294.866986440557
3907.508,2.033653765274426,297.3303995566893
3908.409,2.0481768538934855,287.5476442947141
3909.308,2.0608483734031755,288.228694825777
3910.2097,2.0723783451111673,262.6281915030454
3911.1091,2.08339343695989,290.9554164068348
3912.011,2.094497262939064,271.6371993552851
3912.9111,2.1058821619964347,265.5890208557274
3913.8113,2.117430561951303,301.6595323095557
3914.7136,2.1287846048798813,258.983130580063
3915.6143,2.1395765783421883,256.1928853481908
3916.517,2.1498248954624746,251.83631932611974
3917.4182,2.159639315824439,262.6723888240938
3918.3215,2.16906662537766,228.10079056914873
3919.223,2.1777381529129882,251.10361552136052
3920.1245,2.185210020113993,233.3187470747026
3921.0286,2.191236607677693,261.56010996138957
3921.9307,2.1958847722891637,248.29423240913746
3922.835,2.199452744064694,246.76893102614324
3923.7373,2.202140182354426,249.9360753255267
3924.642,2.204116822488316,250.8292219787515
3925.5452,2.2056628372283353,268.5473695300792
3926.448,2.207234313447106,255.0980034525958
3927.3535,2.209134569087672,213.61668895764484
3928.257,2.2110963645509507,235.10439175942332
3929.1628,2.2122346519623783,232.48729661915468
3930.0667,2.2113802727220953,237.45364152537186
3930.9731,2.207711689075156,231.99789122826908
3931.8774,2.2013488159679167,240.05364808185624
3932.782,2.193384450870605,258.66791647843945
3933.6887,2.1852826663314007,244.34834104464716
3934.5938,2.1780112696976333,273.952205276889
3935.501,2.1714842415801985,230.5631747506818
