wavl,flux,ivar
3566.9744,3.442430929876867,87.35798847840405
3567.795,3.4456561201639664,83.19076309974228
3568.6177,3.4477327671351925,93.29314626115894
3569.4385,3.4458594279988035,76.34115821200031
3570.2617,3.4384942165034533,86.8304463175111
3571.083,3.425962859279661,85.16766507526556
3571.9065,3.410051219965522,95.86374219193942
3572.7283,3.3935954473501564,88.87966627318178
3573.55,3.3795024852852724,81.55783879010423
3574.374,3.3699532913380033,103.14677690931164
3575.1963,3.365587595779811,121.08701107606211
3576.0208,3.365318930870356,83.67217872634598
3576.8435,3.367517803126538,97.5856948688526
3577.6682,3.371181238956118,93.69128802778545
3578.4915,3.376023548284109,102.71520993202644
3579.3145,3.3818125544888886,81.8648754902482
3580.14,3.3879572589083886,102.8070318117774
3580.9636,3.3935722225293112,88.57740915318583
3581.7893,3.397629095534443,98.89548989777771
3582.6133,3.398738221562673,87.35838330615753
3583.4395,3.3955914839966774,89.03031847760796
3584.264,3.3879366867364564,103.40740296518749
3585.0884,3.377096584422649,125.44215461411237
3585.915,3.3653058984324145,91.43915451040337
3586.74,3.354624685156238,105.60957212724833
3587.5671,3.3461599908314303,96.54168258995882
3588.3923,3.3405210589654115,116.72982498962425
3589.22,3.3379522763338505,91.3313185553511
3590.0457,3.3381188476655512,107.05073109280693
3590.8716,3.339549823171062,103.38315470440385
3591.6995,3.340040258845061,84.89486093659171
3592.526,3.3380275205589163,93.12165652435137
3593.3542,3.333762429335986,95.19022052559873
3594.181,3.3289658164658054,94.24115680763188
3595.0098,3.325177286676076,100.01573482974037
3595.8367,3.3227303713636696,99.39877301573163
3596.6638,3.3210294984485778,90.99611214068472
3597.4934,3.319538303813464,99.13501506704556
3598.3208,3.3181184380772084,114.00782717466669
3599.1506,3.316746205503564,104.1817365534855
3599.9788,3.315515370091929,108.83886874340686
3600.8088,3.3148601341216555,96.66712121828427
3601.6372,3.3153227277770907,106.02703883266321
3602.4678,3.3166863276805425,95.09794923572062
3603.2964,3.3175250798395997,93.65078559186993
3604.1252,3.3159340117154725,94.62933279160676
3604.9565,3.310722654940374,105.06344216399066
3605.786,3.3021339887130337,105.81195030461822
3606.6172,3.291507680670597,94.78276314539673
3607.447,3.280789997890573,106.93208496115058
3608.2788,3.271807399722015,121.66660134595931
3609.109,3.266046557889302,99.6979451588439
3609.9392,3.2642673774077915,115.09296034453368
3610.7717,3.2663814993753855,110.66007909843917
3611.6023,3.271216231898005,93.6268990661652
3612.435,3.276691492129996,115.91639244542633
3613.266,3.2804086187700556,96.01887319662579
3614.0994,3.2806438215516196,104.20893473164945
3614.9307,3.276838658701033,97.7087258733945
3615.7625,3.269510299352687,102.76823283105861
3616.5962,3.2597921693394025,98.49317231511955
3617.4282,3.249152135348233,110.5001303222772
3618.2625,3.2389520411904154,105.23369316525734
3619.0947,3.2302876285170004,107.40182256030202
3619.9292,3.223450823929769,108.32371261862068
3620.762,3.2180194201176215,104.30600053929275
3621.595,3.2131366497322262,105.0587007378003
3622.4302,3.208303314546259,100.68347049746747
3623.2634,3.203932753485361,117.41320204799347
3624.0989,3.2010556010709874,109.72715683900222
3624.9326,3.20055031953916,96.94906540887368
3625.7686,3.2024162069445476,99.29146233057243
3626.6028,3.205864356456276,108.70178796630921
3627.437,3.2099160646250358,107.20508926785874
3628.2734,3.2138560486773704,103.95047813494986
3629.1082,3.2172930042740018,85.25055563181616
3629.945,3.220026563895849,98.21596738479886
3630.78,3.221521689521331,110.264867934923
3631.6174,3.2205388889229942,100.69821689078913
3632.453,3.2154855626174497,97.77886234793476
3633.2883,3.2057524770798826,95.52336334853526
3634.1262,3.1928360826935953,107.30550691933801
3634.9622,3.180058404579081,108.49304740574787
3635.8005,3.170319701470583,105.79812827990332
3636.637,3.1644310538269704,110.87437018790965
3637.4756,3.1608103989916216,98.79598311985738
3638.3123,3.1572638456888664,110.23277363936256
3639.1492,3.1526669571471873,108.66888614683037
3639.9885,3.1473627493172005,118.22724974789533
3640.826,3.1422969348862324,106.06590170332322
3641.6653,3.137969002825279,100.35333198521751
3642.5032,3.13435223080247,113.2057449251761
3643.343,3.131122084777214,96.10364204523393
3644.1812,3.127876419767644,123.17089053239168
3645.0195,3.1241088239896717,128.8341163506989
3645.86,3.1195181515576236,104.93567364278908
3646.699,3.114544138520333,119.93380865944967
3647.5398,3.1103564396112584,112.42377725991152
3648.379,3.1081996910708654,111.3314279930807
3649.2202,3.10837530033453,109.59878157403557
3650.0596,3.110009738094708,107.03546748837675
3650.8994,3.1116784727359965,116.1428356262076
3651.7412,3.112255340179317,101.01289482340961
3652.5813,3.1112550933428227,112.97810774094819
3653.4236,3.1086225508842644,109.03907238464681
3654.2642,3.1044955417947726,112.67515403006861
3655.1067,3.099227646730632,100.38597623009115
3655.9475,3.093666886494874,113.68556590065967
3656.7886,3.0890113457552877,117.6548264261812
3657.6318,3.0864254512548013,119.16070368266955
3658.4734,3.086567802580085,121.82756178599219
3659.317,3.0892974176669177,114.15454011106918
3660.1587,3.093643465865594,98.34276287177107
3661.003,3.0980358739066216,105.83634282069013
3661.845,3.1007428670373853,110.4600021343035
3662.6875,3.1007319161003366,119.90307930214074
3663.532,3.098282894137796,114.23323776335735
3664.3748,3.095062747249692,107.9197854091454
3665.2197,3.0932140892706177,118.94490255779564
3666.063,3.0940358202786564,110.15107180698465
3666.9084,3.097042004608227,121.47408978553536
3667.752,3.1001364111063863,112.5203492872921
3668.5977,3.1007848536134164,110.12030966415305
3669.4417,3.0973606157850275,110.41639968430646
3670.286,3.0900853753663595,102.63614863910188
3671.132,3.080945671027358,122.19489286728171
3671.9768,3.0726294505312604,117.87272287951257
3672.8235,3.0668117148247624,114.41781820554257
3673.6685,3.063455594268724,114.26558419068128
3674.5156,3.061270075106047,126.1876929209601
3675.3608,3.0590141814857295,120.93718473755682
3676.2063,3.05617461922646,114.02697535679975
3677.0542,3.052766157232467,110.82679079359652
3677.9,3.048750161334313,114.34166181947863
3678.748,3.043688672901541,117.99982097101127
3679.5945,3.0371500308871635,109.46150400869503
3680.4429,3.029169917751857,123.06771730383059
3681.2896,3.020627800902627,123.76159062630703
3682.1365,3.0128777058486946,121.06977210468668
3682.9856,3.0072865069138452,118.78988574550122
3683.8328,3.0048283538811935,114.15684041735628
3684.6824,3.0057808990903876,104.37333237501949
3685.53,3.009676835004187,125.12122629815612
3686.38,3.015385565565623,113.64594556978523
3687.2278,3.02146458031572,110.51123912099166
3688.0762,3.0269213437148577,116.71047534865544
3688.9265,3.0315411822465688,117.9599597713941
3689.7751,3.0355125555278715,133.25852178479613
3690.626,3.03872802457046,137.79163598107039
3691.475,3.0403944962951295,120.12249980012957
3692.3264,3.039582365087158,124.87600952599878
3693.1758,3.0360098617897657,117.29922938184912
3694.0254,3.030360998190948,114.52485356735194
3694.8772,3.023854751531911,111.00269393754539
3695.7273,3.017594527889506,120.7815272291158
3696.5793,3.012087867601119,113.70220498437278
3697.43,3.007517976313151,114.87432812165711
3698.2825,3.004027059059655,111.3221614113191
3699.1333,3.001873315271343,126.26857371551202
3699.9841,3.001047040684331,124.01523982195731
3700.8374,3.0009524376948344,125.51783732519972
3701.6887,3.0005228022495043,98.64941375004888
3702.5425,2.9988194940592403,113.74168979834363
3703.3943,2.995560569083347,120.37150275406883
3704.2483,2.9910346487036885,125.34862595145361
3705.1003,2.9857168254409627,116.23565697364765
3705.9526,2.979802751086093,131.340917954494
3706.8074,2.973098389200823,117.24090245264932
3707.66,2.9652262388724187,142.97169749852262
3708.515,2.955899009994485,107.98911387766367
3709.3682,2.9455570329228222,120.19808849339945
3710.2234,2.9353517649962795,116.40773509816452
3711.0771,2.9269940774919245,128.19418578624888
3711.9307,2.9220148717981074,137.31462217219664
3712.7866,2.921256931582799,127.00128283293712
3713.6409,2.9244852991294676,114.71361730735704
3714.4973,2.9303822495903957,120.07337845178294
3715.3518,2.936976057538073,118.39836412566288
3716.2085,2.942465517232145,125.64355960814208
3717.0635,2.9456451870229743,119.24925180060197
3717.9185,2.946076643401831,121.03120993418187
3718.776,2.9438382436915274,117.5630999465999
3719.6313,2.9395151671708213,123.14551864173454
3720.489,2.934311153258471,118.69183018099301
3721.345,2.9300737425678047,138.8215000469093
3722.2031,2.9285472453368047,126.67176682427586
3723.0593,2.9303575281513483,146.66463661792193
3723.9158,2.9343628756710833,121.26130727423802
3724.7747,2.9381711447756653,124.95434722824393
3725.6316,2.939396658164732,117.13090681937693
3726.4905,2.9368563282431683,134.60789350702515
3727.348,2.930809260322165,115.15478366284046
3728.2073,2.9224607596376875,121.99198233271244
3729.065,2.9134679661652445,135.3312329825679
3729.9229,2.9053831239179986,126.60889978590764
3730.783,2.8992999606576695,137.03033404825257
3731.6414,2.895541823555057,129.3459860703117
3732.5017,2.8935428453384997,118.17822434589304
3733.3604,2.8922169294608575,127.04017948014075
3734.2214,2.890302751682758,135.66002086542554
3735.0803,2.8867901065704094,116.0913261261716
3735.9417,2.881285480818481,115.80390888195784
3736.8013,2.874340172118007,123.07103716617854
3737.661,2.8671493166950563,130.4059128329723
3738.5227,2.8609433358442025,134.41209560261927
3739.3828,2.8564517491972574,124.71047441363066
3740.245,2.8536521311829417,128.33685813328813
3741.1055,2.8520938137690974,128.43124092217533
3741.9683,2.851205444542371,131.46743139262156
3742.829,2.850569002555349,135.27101940485502
3743.69,2.849956311101127,141.2232415223436
3744.5532,2.8493661630839484,123.66640396251815
3745.4148,2.84915229857599,125.78984267443026
3746.2786,2.850037518130721,129.7674233840643
3747.1404,2.852722412231933,123.94397656907888
3748.0044,2.85727265038928,126.37145349653038
3748.8667,2.86277617299445,112.11243186254747
3749.729,2.8677832954037545,137.59405886705477
3750.5938,2.871029504981049,127.10990551973899
3751.4565,2.872014296586089,115.54585153155433
3752.3215,2.871159557267531,142.20174360361347
3753.1848,2.869345508085394,132.71887793656742
3754.0503,2.867228924746332,129.7508056707303
3754.9138,2.864885468593413,127.52464152298303
3755.7776,2.861912917151277,137.85813596456833
3756.6438,2.857792330504296,137.72116327798886
3757.508,2.852151130480851,134.06637581732997
3758.3745,2.844813078830314,135.91519440161176
3759.239,2.836123324421706,145.3945655698911
3760.106,2.827028812318028,129.90188886890238
3760.971,2.819173641887943,137.7309554003183
3761.8362,2.81420219957993,139.35580977472455
3762.7036,2.813036757551398,126.54996346614242
3763.5693,2.815271343477564,138.64277642305163
3764.437,2.8193384702460036,131.77040207348705
3765.3032,2.823392026774545,125.9827093204759
3766.1714,2.826258119655562,132.16921457785153
3767.0378,2.8275642815693236,133.2789023766149
3767.9043,2.8273414393389675,149.52667381272622
3768.7732,2.825638782396709,127.38224022900353
3769.6401,2.8226043259910054,135.6556731641162
3770.5095,2.818499983861309,140.33150376243827
3771.377,2.813510253430868,141.3731914511074
3772.2466,2.807467307605866,144.12897430777488
3773.1145,2.800245048052111,138.32443901872085
3773.9824,2.792242448334924,157.110208841099
3774.8528,2.7845794664650954,139.37828255587274
3775.721,2.778629342160945,124.2827433979766
3776.5918,2.775103788702219,149.79809908852343
3777.4604,2.7739294203874008,136.1123892421456
3778.3315,2.774641063663698,149.01304392243978
3779.201,2.7769402542256683,136.43668995027335
3780.0703,2.780618118848763,128.8980353644013
3780.942,2.785107635827983,135.94886790038717
3781.8118,2.7893022066566533,128.99734591865095
3782.6838,2.7920808016397562,139.15306094559418
3783.554,2.792887209212834,153.76741565358054
3784.4265,2.792057887551724,132.36574272948403
3785.297,2.790497802900846,130.79643344845022
3786.168,2.7889562865273825,146.39853572164196
3787.041,2.7874175554165044,140.44676885545732
3787.912,2.7851788519346794,132.85412475120015
3788.7856,2.781633481490251,140.22622454850514
3789.6572,2.777158217574855,148.04030647732807
3790.531,2.772990218330722,145.95715607974782
3791.403,2.7702973051122592,135.73855430646236
3792.2754,2.7691454490702636,131.49565352105907
3793.15,2.7685184948274513,145.67961480034083
3794.0225,2.767129237944591,124.3183115061503
3794.8972,2.7642528401598683,139.2300560779492
3795.7703,2.760079913634694,146.22937033222308
3796.6455,2.755449504513461,132.7294556708536
3797.519,2.751385012906585,150.4692102830776
3798.3926,2.7484572465058292,137.5382898019647
3799.2686,2.746545496826749,146.38205601814147
3800.1426,2.7450548660960767,137.92957081665324
3801.0188,2.7434287370335597,163.2102628667826
3801.8933,2.741665198006525,139.58448183643875
3802.77,2.740341350283774,128.87507934063476
3803.6448,2.740176329928236,142.48959269542823
3804.522,2.74134325501878,139.12255334787645
3805.3972,2.74315257839755,155.91979148410786
3806.2727,2.744426665546509,160.22032829876412
3807.1504,2.74422459676814,144.44586128428787
3808.0261,2.7423217334834447,146.44017147927897
3808.9043,2.739112709054585,143.1546900883818
3809.7805,2.735296001290039,155.63654985968833
3810.659,2.7316052631207803,150.16069208321062
3811.5356,2.728815822033983,136.95777760121254
3812.4126,2.7275567679377226,137.34346568977284
3813.2917,2.728081509297194,151.7006359481356
3814.169,2.730019762406192,148.0962669111597
3815.0483,2.7323978164333775,142.96990399905465
3815.926,2.733912009383834,134.34762408244887
3816.806,2.7334928133637333,135.4954027734926
3817.684,2.730850709518076,139.32418160478954
3818.5623,2.726709941431891,147.01875114179498
3819.4429,2.722404817647817,152.48891219703256
3820.3215,2.7190400482889774,136.33772432880593
3821.2024,2.7166296509799195,148.59773345824135
3822.0815,2.714132063798894,147.1401737484475
3822.963,2.710257695708398,144.65860075050622
3823.8423,2.7046587959013033,135.31157864421417
3824.722,2.6983516536507386,160.23061740354837
3825.604,2.6931239620306595,149.51622319557703
3826.4841,2.6903049239273478,154.91304210893807
3827.3665,2.68974784480617,152.74056319833994
3828.2468,2.6900276133086733,151.81760895631962
3829.1296,2.689475727083385,142.55601190177927
3830.0105,2.6872877013232044,149.16050996283195
3830.8916,2.6838109805213985,142.36065555580493
3831.7751,2.6799272146553808,146.62039018752606
3832.6565,2.6761972048412237,140.9751671090059
3833.5403,2.6723757134193686,137.19678426676583
3834.4224,2.6678430915159805,141.99405360996664
3835.3064,2.662250117940761,152.80760684583916
3836.1887,2.6560721068712603,159.03723166639537
3837.0713,2.650523339675287,133.7464003514292
3837.956,2.6472644872141053,154.6107069935556
3838.839,2.647875192992463,150.01988378010543
3839.7244,2.6531309508156715,164.9587044942019
3840.6077,2.6624363570752814,151.21188476149788
3841.4932,2.673980901828349,154.8461230716459
3842.377,2.6852845226333812,148.17744547538763
3843.261,2.694212737567234,139.26444115267978
3844.1472,2.6994372875307033,151.23909207440906
3845.0315,2.7006402747728,136.5180979090879
3845.9182,2.6984878326753097,152.33559229500474
3846.803,2.6941227299705406,164.9795442621843
3847.69,2.688450994344975,131.08221313034076
3848.5752,2.681902407276734,139.74290130349198
3849.4604,2.6747525804218895,148.62109737243426
3850.3481,2.6677666942183778,167.2751145933853
3851.234,2.6622641701890624,143.45950958345813
3852.122,2.6592127828320793,158.24084008978937
3853.0083,2.6584799452861123,167.04074860182575
3853.8967,2.6587254684232002,139.69234015693814
3854.7832,2.6582769830660276,142.35906693339516
3855.6702,2.656132575445253,151.67739747256013
3856.559,2.6523425144185167,145.61935087681178
3857.4463,2.6476872210794045,145.6514735558413
3858.336,2.643006780527618,156.06564609263825
3859.2234,2.638983163921204,143.33253958708164
3860.1135,2.6361807317145654,156.3808254441093
3861.0015,2.6352884373040335,161.22907836647428
3861.8896,2.6368099476826696,168.4492893208321
3862.7803,2.6405117074484865,152.07653457728352
3863.6687,2.6450232285844826,142.20718428457621
3864.5598,2.6483666811931843,149.5834820420163
3865.4487,2.6489809014904075,163.06773599723888
3866.34,2.6466971816900386,147.89172723175358
3867.2297,2.6427595004137716,147.52521033449463
3868.1213,2.638977579550188,161.84594655796747
3869.0112,2.636763529757865,158.48528773763314
3869.9014,2.6365422216337473,141.40997723947496
3870.7937,2.637873579101427,144.70415264401473
3871.684,2.6397996525492946,145.62964434581968
3872.577,2.6411877240266173,144.91544271076586
3873.4678,2.640920502730947,150.7618636993092
3874.361,2.6381745536194203,153.72903022238486
3875.2524,2.6328319888060627,155.77008530086388
3876.1438,2.6258099475607612,149.59405634540633
3877.0376,2.6189876488791297,160.19756821711997
3877.9297,2.6144790070824993,148.9566320046746
3878.8237,2.61335180559726,162.27946619777254
3879.716,2.615035458110245,158.81449307676021
3880.6108,2.617704204658549,155.4705782758007
3881.5037,2.619330844012958,150.00662620538316
3882.3965,2.6186547920838965,154.06275247874365
3883.2917,2.615550271599493,168.63033668154927
3884.185,2.6110065500952424,160.35790061508072
3885.0808,2.6065917112664856,134.19041578022382
3885.9746,2.6037045801432024,150.4565133346431
3886.8706,2.602740889742474,162.56194126053296
3887.765,2.6029975607436335,173.75002716292659
3888.6592,2.6032368556510725,156.80625199915352
3889.556,2.6024997423520064,150.83670231152962
3890.4507,2.600512178745003,150.6575785123969
3891.348,2.597580600730409,161.6070616019012
3892.243,2.5944143959790003,147.34599200406518
3893.1406,2.591909385274879,169.68689633026807
3894.0361,2.590860830857882,175.39954751796404
3894.932,2.5913051826240823,157.80512773925895
3895.83,2.5922060898480814,156.23408507424963
3896.7263,2.5919759059481224,161.47586458752386
3897.625,2.589721971399565,163.48545967471398
3898.5215,2.586132749365792,149.90430687572362
3899.4207,2.5831312693981205,175.28548429741525
3900.3176,2.5827627591875615,179.9485449984141
3901.2148,2.5860720146946115,164.71098905886424
3902.1145,2.592736627415749,165.75522782807118
3903.0122,2.6010873504750696,158.38022420781635
3903.912,2.608728012053363,144.69331388421503
3904.8103,2.6133772916735976,145.30481388422115
3905.7107,2.614171623928223,153.45614208812563
3906.6094,2.612198538840983,152.88070657653424
3907.508,2.6098808690229016,159.13527357962263
3908.409,2.60936713253386,179.16795486105582
3909.308,2.611171743925704,162.51211058761282
3910.2097,2.6141076908592793,153.50183974523475
3911.1091,2.616513776860065,155.01570822958453
3912.011,2.6177377037266782,147.48240634968255
3912.9111,2.6184930963556616,155.55358128131172
3913.8113,2.6200647385965325,160.92488823361327
3914.7136,2.6231520783570623,151.5019823183699
3915.6143,2.627285250464522,161.78175567013807
3916.517,2.631136637105264,147.89759580987752
3917.4182,2.6331767972036446,146.6637320807001
3918.3215,2.6324390507016084,161.67933028696717
3919.223,2.6289002494909046,145.83055732080197
3920.1245,2.6234287832259042,157.97197967488017
3921.0286,2.6173178999662086,171.1996973489175
3921.9307,2.6117726941917025,153.9288797850114
3922.835,2.6074465963629456,153.93738605912569
3923.7373,2.604486498805403,143.69114908371222
3924.642,2.602542314794138,167.10252488793026
3925.5452,2.600869932814736,160.33674150883337
3926.448,2.598345023397057,173.6169551243924
3927.3535,2.5937282292468193,149.0956571118176
3928.257,2.586258327177687,153.31637613242916
3929.1628,2.576086821215928,143.70710659864682
3930.0667,2.5644465616571805,164.40376893056276
3930.9731,2.5528898141252783,174.75483208806628
3931.8774,2.542813310451003,157.31647883196666
3932.782,2.5350837627470546,158.99552579892296
3933.6887,2.530518350404465,161.94370306014756
