wavl,flux,ivar
3566.9744,11.632740498210296,28.88272907282647
3567.795,11.62794027190305,29.220258456451827
3568.6177,11.6247060336176,29.142277323610138
3569.4385,11.623280381866184,28.57064812556894
3570.2617,11.623200309988517,28.762837344767807
3571.083,11.622989141973008,29.396246357107113
3571.9065,11.620713878783173,30.186446181226135
3572.7283,11.614846909439697,30.299371360383482
3573.55,11.604869096755772,28.70465158817793
3574.374,11.591485940423942,31.036505347405484
3575.1963,11.576561331855409,30.58877986808775
3576.0208,11.562335307366459,29.479981843297388
3576.8435,11.551094283771409,29.052529527302397
3577.6682,11.544460627829697,30.449228346330628
3578.4915,11.542992183692586,30.68962188808661
3579.3145,11.545059385512877,29.188463559182658
3580.14,11.546079840615505,31.191638210510423
3580.9636,11.539342415120396,28.60698129886467
3581.7893,11.519307183407493,28.71683994358785
3582.6133,11.485729871492179,27.8305186366808
3583.4395,11.444411946257542,27.203354756153157
3584.264,11.40461041415396,34.20335063696237
3585.0884,11.373359303462284,31.321431457960333
3585.915,11.352912113500365,29.421567873048794
3586.74,11.341704910204204,32.48907975506437
3587.5671,11.336689650262679,32.062831025260316
3588.3923,11.335277085169345,31.99631051938605
3589.22,11.335388232024968,32.372351649895116
3590.0457,11.335422607203013,32.648762865037135
3590.8716,11.33459699437291,31.589394623007767
3591.6995,11.333051615225955,32.05348001510479
3592.526,11.331118416475752,32.42483820432098
3593.3542,11.32829113179317,30.82471775715927
3594.181,11.323184951708761,30.784968995609468
3595.0098,11.314564417562694,32.170196877796556
3595.8367,11.302599852485368,31.70283914262632
3596.6638,11.2887216007116,30.842432914472322
3597.4934,11.274621061341339,31.9011939793462
3598.3208,11.261483366894094,34.183483450513506
3599.1506,11.249707296847337,30.655226569106464
3599.9788,11.239643920209692,30.289588190645155
3600.8088,11.231499943007304,31.983004219657925
3601.6372,11.225291569314546,32.38915674021453
3602.4678,11.220620187213482,32.26368930996443
3603.2964,11.216908040294046,32.066264754157096
3604.1252,11.213049336988737,32.45162805631675
3604.9565,11.206802139587538,30.0610759660484
3605.786,11.194935268178059,32.74523447732667
3606.6172,11.174751385241368,32.83763458227682
3607.447,11.146623622788995,33.07868708257152
3608.2788,11.114456710955436,34.09985391685489
3609.109,11.084260065424083,32.37539623182061
3609.9392,11.060369729607075,33.41960459911725
3610.7717,11.043536887871985,31.24189616466885
3611.6023,11.031404439821673,32.44521767308034
3612.435,11.0203650984064,31.717967180251705
3613.266,11.007702663735264,33.14984351885577
3614.0994,10.99206437190369,33.36979511243992
3614.9307,10.97386391048514,31.317875616529022
3615.7625,10.954978412759662,34.16570410604419
3616.5962,10.938167929718636,35.64807525178378
3617.4282,10.925648332292528,34.69593211816141
3618.2625,10.917722732865808,33.01980589327311
3619.0947,10.91323124060787,32.0974312082616
3619.9292,10.910398084376162,33.67185024109052
3620.762,10.907621741034,33.487227717342655
3621.595,10.90370566261674,32.61466367426021
3622.4302,10.898315688029868,34.157141626009675
3623.2634,10.892381303817633,34.080038879708546
3624.0989,10.887526649291603,32.16327825178001
3624.9326,10.884993250403111,33.44261209432088
3625.7686,10.884678790154798,31.496419133935834
3626.6028,10.885217804013832,33.49602945877705
3627.437,10.88469709637375,34.44378064996514
3628.2734,10.881627011925875,34.92648153222869
3629.1082,10.875820105545426,31.253581791435394
3629.945,10.86859752942498,35.13820878919908
3630.78,10.862261094830982,33.43983105113433
3631.6174,10.858740616238753,34.24337599691694
3632.453,10.858493404757805,34.24132458144149
3633.2883,10.859722111121235,34.16837513528097
3634.1262,10.858557118038158,34.473494772370195
3634.9622,10.850457611365227,32.17824467894735
3635.8005,10.832655257286136,33.76629247732977
3636.637,10.80654545853058,34.134287688241585
3637.4756,10.777286164844062,32.24644048736849
3638.3123,10.751458601392017,34.445284935401325
3639.1492,10.732873234069865,35.92195343636073
3639.9885,10.720957208908784,33.55442629570826
3640.826,10.711966250778142,33.95333322994705
3641.6653,10.70183344242015,35.04910917389985
3642.5032,10.688894881189048,36.25362866187614
3643.343,10.674268633277789,35.68521223829819
3644.1812,10.660975516640962,35.29733470881996
3645.0195,10.651933981187836,34.7673484117903
3645.86,10.648362807812154,36.457674071839065
3646.699,10.64890373371093,34.721526296001336
3647.5398,10.650422838810062,34.15580451236167
3648.379,10.650294416888467,35.220644083933465
3649.2202,10.648218879245832,34.390979654385845
3650.0596,10.64599971182517,35.44106726353444
3650.8994,10.645682063976407,33.50283106902978
3651.7412,10.647933065535812,34.03091577511252
3652.5813,10.6515600885269,33.580658461726266
3653.4236,10.654068095401081,34.77521310210478
3654.2642,10.652620811891259,35.00892665616224
3655.1067,10.645327789044613,34.81829949670081
3655.9475,10.632326597415005,36.333915712033914
3656.7886,10.615724705203062,35.63857262183189
3657.6318,10.59843383348902,35.804223042545274
3658.4734,10.582781251066738,34.620155718950244
3659.317,10.569478305667932,37.58603696714563
3660.1587,10.558196153066516,34.07556545347696
3661.003,10.54810713467091,34.77833945137356
3661.845,10.538776201704259,35.13388712655559
3662.6875,10.530337395432886,35.168866063028915
3663.532,10.523521626703507,35.990463211506594
3664.3748,10.518962618189592,37.49602785643044
3665.2197,10.51624486115487,35.808258438835026
3666.063,10.51390966259375,34.741136872020306
3666.9084,10.510220111431625,35.910862103093166
3667.752,10.503972697694255,37.245798676647425
3668.5977,10.49437821477765,37.94499289122197
3669.4417,10.480951258656424,35.41780361100656
3670.286,10.463727086876297,35.908286080839716
3671.132,10.44388127204585,36.14476683845845
3671.9768,10.423662249399086,37.93635207745994
3672.8235,10.404983413714495,36.90804150890515
3673.6685,10.388825576928008,36.545459160204125
3674.5156,10.375152357321273,36.25080226137358
3675.3608,10.364088489743931,36.70233756916427
3676.2063,10.35602675794504,37.84675291898307
3677.0542,10.351231890988727,36.904550098508004
3677.9,10.34929396339441,36.32349498036931
3678.748,10.349393379639542,35.55469110397192
3679.5945,10.351261477571878,38.88512408977646
3680.4429,10.355373401923355,37.99795767381407
3681.2896,10.361717736283943,37.25527126376554
3682.1365,10.368265609161408,37.567735622997304
3682.9856,10.370870962300087,37.13524033975521
3683.8328,10.365484696653,35.23489334894095
3684.6824,10.351139044725272,36.61682687444102
3685.53,10.331220982418337,38.50897500896638
3686.38,10.31135463911085,35.68837308032226
3687.2278,10.296377318016303,38.41099645077624
3688.0762,10.287796714845719,38.02033755513388
3688.9265,10.284213903674056,38.51256554375636
3689.7751,10.2830110313124,39.346626232371804
3690.626,10.281838231074964,36.68757983643921
3691.475,10.278989804982068,38.23344370137823
3692.3264,10.272959696187637,39.81480292346656
3693.1758,10.262501298749902,38.94740191242445
3694.0254,10.247259286637254,36.9056308481115
3694.8772,10.228341963835536,40.565709298432836
3695.7273,10.208028213634835,38.97802953604379
3696.5793,10.188318676485826,38.98994674005605
3697.43,10.170559468827175,40.10379035914432
3698.2825,10.155261113104995,37.84361320035397
3699.1333,10.142769636346163,38.76429377995599
3699.9841,10.133173132254198,39.993276525433686
3700.8374,10.126448335777573,39.31396006685101
3701.6887,10.122606573913462,40.09843033951987
3702.5425,10.12151909772312,41.11443943347178
3703.3943,10.122511072188598,39.53588425336885
3704.2483,10.123909137814001,38.211327138965636
3705.1003,10.123521922580776,38.5347350808572
3705.9526,10.119990312301336,42.26263868491247
3706.8074,10.113660884138747,36.01605360262304
3707.66,10.106132394072658,41.44705956271213
3708.515,10.098772087092016,39.86447647507974
3709.3682,10.092172080870393,38.25553802084242
3710.2234,10.08633835596917,39.88329867232147
3711.0771,10.081141173407316,39.749588132091915
3711.9307,10.076064576274693,39.663382657270084
3712.7866,10.070273872259694,38.57293266630034
3713.6409,10.063337256373027,43.137379081509366
3714.4973,10.055550671069428,39.100165869881174
3715.3518,10.047496612511436,40.4441680416412
3716.2085,10.039075957730368,39.415777288038846
3717.0635,10.02982508213385,39.97959838510793
3717.9185,10.019818318015398,39.855115090475515
3718.776,10.010249152606425,40.21808080031829
3719.6313,10.002692278098802,38.873384053380356
3720.489,9.997390599884904,39.28761135998781
3721.345,9.99258125219989,39.380618469305254
3722.2031,9.985133947016054,40.516716324468746
3723.0593,9.972446791102287,40.879809733028345
3723.9158,9.9537132364197,39.44719990359691
3724.7747,9.930031234060976,41.9437907276765
3725.6316,9.903876039457417,40.46667201068039
3726.4905,9.877945770231541,40.303404043996544
3727.348,9.85525407982466,40.383694406646185
3728.2073,9.83837750041603,42.66546858483138
3729.065,9.829043361645413,43.23797193661949
3729.9229,9.826938144831251,42.42129605867324
3730.783,9.829535540435247,41.440766832558566
3731.6414,9.832896705779625,41.92501116512453
3732.5017,9.833628757775736,43.69968185561371
3733.3604,9.830598305530257,40.09237996052627
3734.2214,9.825234021617792,42.43182739941076
3735.0803,9.820234752304607,41.81502206443049
3735.9417,9.81749434462599,41.89338390519135
3736.8013,9.816954740022945,40.896241541127566
3737.661,9.816862729592277,42.24239101116375
3738.5227,9.815323623815457,40.158072339273225
3739.3828,9.811826524280061,41.25581033593965
3740.245,9.80754767398024,40.8136238693048
3741.1055,9.804464549412542,39.33569692320181
3741.9683,9.804064265510949,42.31114023108754
3742.829,9.806687494779553,41.99461964017002
3743.69,9.811284876403365,42.40653747347413
3744.5532,9.815540336758337,42.73408948562577
3745.4148,9.816571763777132,41.54986813464381
3746.2786,9.812402331537408,42.095988387408546
3747.1404,9.803069057775765,42.12717923611251
3748.0044,9.790296679559756,40.91520526397289
3748.8667,9.776248740326942,39.87942748772545
3749.729,9.762028036057707,42.219298268882746
3750.5938,9.747586906973476,42.15284146173108
3751.4565,9.732814652469536,41.043012995822316
3752.3215,9.718223897962208,43.03656564375989
3753.1848,9.705102356422842,43.76435626143006
3754.0503,9.69423050150562,43.45285070513525
3754.9138,9.685381826463338,42.781093212001686
3755.7776,9.677465712357867,40.77043921031597
3756.6438,9.669482533956746,42.429577328392575
3757.508,9.66101495971252,43.6494802547478
3758.3745,9.65196109822142,43.9342735795859
3759.239,9.642586365030246,43.44875994858637
3760.106,9.633520111582316,43.28687292518095
3760.971,9.625983591726218,42.70880545794441
3761.8362,9.62112669342761,42.845658750198716
3762.7036,9.619290248724852,45.07304267066756
3763.5693,9.619581286503056,43.79563201429479
3764.437,9.620384365058088,44.018667925904694
3765.3032,9.620433545380173,40.30991432626719
3766.1714,9.619365023615423,47.1263825152912
3767.0378,9.617280421173481,42.398280613988156
3767.9043,9.613941175424575,43.29032860831627
3768.7732,9.608569338048454,44.459114442840004
3769.6401,9.600557069228255,43.30514775977959
3770.5095,9.590230899670846,44.751398272655656
3771.377,9.579302249155218,42.57459425015551
3772.2466,9.570065488669796,47.94591385793679
3773.1145,9.564402978531596,42.912030254957195
3773.9824,9.562609325231623,41.627218667171384
3774.8528,9.563225920783855,45.95838892025695
3775.721,9.563662527165246,41.144314868232534
3776.5918,9.56146238929328,44.07310223077625
3777.4604,9.555539964402278,44.11162253933875
3778.3315,9.54665497238993,45.340163116691784
3779.201,9.537094554444222,43.431449713490544
3780.0703,9.529396883863892,45.29371663931229
3780.942,9.525124308596563,44.877880176611534
3781.8118,9.524039025921976,44.511003870051546
3782.6838,9.523986644753302,44.34089173857323
3783.554,9.521636964466337,46.01155502791403
3784.4265,9.513644162691719,45.029845300956175
3785.297,9.498110793969518,41.79469765856359
3786.168,9.47557411969871,45.379135325700815
3787.041,9.449147170677584,44.6812361523212
3787.912,9.42354734651258,46.926563306462604
3788.7856,9.402608546694099,41.41875884875362
3789.6572,9.38818595400586,44.706157497918355
3790.531,9.379654541008026,49.312902213245096
3791.403,9.375179444952485,44.95835999016684
3792.2754,9.372460899215051,46.785856002169034
3793.15,9.3691534042826,45.66212696426973
3794.0225,9.363219807299098,43.74615316442532
3794.8972,9.353744216434103,45.39920415486244
3795.7703,9.341926452966888,45.33077956208646
3796.6455,9.330693645761604,47.53376345301244
3797.519,9.32323886673755,46.083182246773525
3798.3926,9.32086975256821,45.11559676006416
3799.2686,9.322367245933119,47.475811941843695
3800.1426,9.325009208259463,48.286006033226855
3801.0188,9.326581213755063,47.41438237342539
3801.8933,9.326610366576993,47.54005509866539
3802.77,9.326042479436058,47.05154384165477
3803.6448,9.325873973591918,44.05801239966462
3804.522,9.326134152005388,45.29865745243668
3805.3972,9.325995748159196,46.418891327047945
3806.2727,9.324614722602549,45.89255137666102
3807.1504,9.321746659524692,45.34666132506196
3808.0261,9.317726146345558,44.35634334207245
3808.9043,9.312991195542526,45.90748765174173
3809.7805,9.307962865953057,45.95527808100754
3810.659,9.303127555759216,44.44300707566042
3811.5356,9.299161005014474,46.051970604699065
3812.4126,9.296300207235362,45.07333919118603
3813.2917,9.293678041303489,47.19561236267028
3814.169,9.289485856998539,45.985362100927155
3815.0483,9.282225919488436,45.10853767934235
3815.926,9.272174846231515,44.6472540182872
3816.806,9.261218930857677,48.901142405365114
3817.684,9.25142762415698,47.697775621880965
3818.5623,9.243325053396385,46.951823862318385
3819.4429,9.235918188938737,47.365772775991864
3820.3215,9.227858265448432,49.72817122442808
3821.2024,9.218108914257273,46.7642516619786
3822.0815,9.206163349080375,47.00461053130732
3822.963,9.19197629291837,46.983938660169464
3823.8423,9.176612813360252,49.3717138158985
3824.722,9.161914944570574,47.04119080527623
3825.604,9.149496519874527,47.05663737161698
3826.4841,9.139650911233936,47.37029924166943
3827.3665,9.131148144120184,46.6745516070656
3828.2468,9.122591658659504,47.49393697644841
3829.1296,9.11334684633187,48.05668791598456
3830.0105,9.103854185121264,49.450189884923056
3830.8916,9.094883495153796,47.80825579004972
3831.7751,9.087049117808542,47.034667001471654
3832.6565,9.080595614480606,49.832845058727955
3833.5403,9.075113716247177,47.27908400208675
3834.4224,9.06973547674449,49.052929752372116
3835.3064,9.063584566068302,46.323012720147624
3836.1887,9.056761745216647,49.71379035815312
3837.0713,9.050674166735421,49.57700545804859
3837.956,9.047437124281103,47.64389774066282
3838.839,9.048458665654788,52.48583239767545
3839.7244,9.053269377623051,48.66132442086637
3840.6077,9.05963569009502,48.62546121968258
3841.4932,9.06496520954468,48.489013727006174
3842.377,9.067651830704195,49.56662217666986
3843.261,9.067654785224233,47.66095335873364
3844.1472,9.065929610081584,48.19059958254971
3845.0315,9.06356753235027,47.337813648317145
3845.9182,9.061077441874794,48.6691815410522
3846.803,9.058297080362383,48.52820317853891
3847.69,9.05480164971615,49.01465270504404
3848.5752,9.050573175979919,49.53909647543051
3849.4604,9.046134753213353,48.98866505397159
3850.3481,9.042278237329457,48.73317845688862
3851.234,9.039832166404805,48.57924017949603
3852.122,9.039584651076169,48.47894064582414
3853.0083,9.042160930825517,51.68050071196313
3853.8967,9.047450997849733,49.507890129678294
3854.7832,9.054149954970345,47.578832899757344
3855.6702,9.060402608837377,48.83817750121106
3856.559,9.065113479553418,50.60516586515008
3857.4463,9.068739168725674,47.6290342082886
3858.336,9.07258341334484,50.41416077889803
3859.2234,9.07700776435087,47.08851991172925
3860.1135,9.080600136156493,47.472959180401894
3861.0015,9.080933616200193,48.51126748220201
3861.8896,9.076444639065404,47.801697628079545
3862.7803,9.067503394038347,46.92458054051684
3863.6687,9.056100001388586,47.68329222644423
3864.5598,9.044183408038997,48.487866804649755
3865.4487,9.032774999873508,48.16157002011206
3866.34,9.021817927648085,51.00420852785958
3867.2297,9.011099883256497,48.79072648560357
3868.1213,9.000247629794318,49.20340240191265
3869.0112,8.988675870333386,50.66343505672225
3869.9014,8.975665146839196,47.613906259631875
3870.7937,8.96119075092546,48.768781649383584
3871.684,8.946245487155979,49.72436474951507
3872.577,8.931647835692972,49.49818745087183
3873.4678,8.917122345066343,50.090679884639755
3874.361,8.900872168033725,51.30743655431063
3875.2524,8.881007873780955,49.08655748206556
3876.1438,8.85670941619292,51.257499268315016
3877.0376,8.828935324685713,52.052346732065274
3877.9297,8.800096995575064,51.54819487913286
3878.8237,8.772163835023845,55.90773012476465
3879.716,8.745903542863767,52.36741127727559
3880.6108,8.720483891566102,52.954777517995204
3881.5037,8.695199566232798,54.422897882853135
3882.3965,8.67009808718457,54.74867439898796
3883.2917,8.645961324781727,55.220481791082065
3884.185,8.623566565733016,53.43504199534901
3885.0808,8.602870861710452,52.98667355652633
3885.9746,8.583968915103156,53.62934125132837
3886.8706,8.567349943093895,52.53190808594067
3887.765,8.554265552825116,52.84571948216099
3888.6592,8.545884286687766,57.8667117063507
3889.556,8.54273657140268,54.54813339485754
3890.4507,8.54422119230341,55.13069907257625
3891.348,8.548598970842317,54.95992502653535
3892.243,8.553847129885833,54.16438795875857
3893.1406,8.55923515871011,53.93176707322277
3894.0361,8.566216633487409,54.03372749315298
3894.932,8.577809106198721,57.472585153475364
3895.83,8.596405308182392,54.18186364358384
3896.7263,8.621705982494245,54.43616568409786
3897.625,8.651076156936831,56.38206112708312
3898.5215,8.680820187784397,52.746935473396064
3899.4207,8.708713162627877,50.267962242060925
3900.3176,8.73417435505182,53.51560327595399
3901.2148,8.758118322354592,53.40956994245001
3902.1145,8.781309537240388,53.916450044273276
3903.0122,8.803298871787993,50.674823991475115
3903.912,8.823044034120842,50.984375935035956
3904.8103,8.839520590132134,51.74071474756658
3905.7107,8.852802597993895,49.88057650138712
3906.6094,8.863614943877224,50.99649184348726
3907.508,8.872773986254632,52.8022939903554
3908.409,8.880500216960064,50.80586349930621
3909.308,8.886549354738563,50.17378818420749
3910.2097,8.891123702416337,48.559660797806714
3911.1091,8.895358932311696,48.80423849657305
3912.011,8.901058823901687,49.083277120783
3912.9111,8.909431544426685,50.37401907427279
3913.8113,8.92021274787381,52.129511289036486
3914.7136,8.931681324471748,48.37263963850866
3915.6143,8.941465330258108,48.925253405297255
3916.517,8.947782579525327,48.95894615325715
3917.4182,8.949891424229211,52.9607138356307
3918.3215,8.948154936137463,51.38102969386735
3919.223,8.94361494687681,49.03560138366263
3920.1245,8.937606844286416,50.64206418109279
3921.0286,8.931455234392184,49.56991979397742
3921.9307,8.926151438122533,47.89603774071539
3922.835,8.921895269934385,49.78021735621173
3923.7373,8.918277500354924,49.06786050143146
3924.642,8.914798094837266,52.89680122029382
3925.5452,8.911442897294819,49.83023453257857
3926.448,8.908432502113998,52.521886632528705
3927.3535,8.905630200892714,52.20310806700038
3928.257,8.902397555367719,49.17861393618942
3929.1628,8.898074268364441,49.42721295843241
3930.0667,8.89258636031337,47.92690277169083
3930.9731,8.886243961366572,51.757627175101284
3931.8774,8.879321160037165,51.90510352420299
3932.782,8.871665589505561,48.31282958920937
3933.6887,8.862851279148668,49.7655667326632
3934.5938,8.852390648221826,52.03506519638089
3935.501,8.83968453458277,50.06286786062952
3936.4062,8.824462880676574,51.98971300428345
3937.3142,8.806904769311183,51.02038358532576
3938.22,8.787976407974531,48.83208952019022
3939.128,8.768527468733662,51.64216540829082
