wavl,flux,ivar
3566.9744,2.4225994155803177,51.51188183130344
3567.795,2.4135110681284853,47.19119533015074
3568.6177,2.4021992778735317,55.78131844991041
3569.4385,2.3893484410314514,51.849733578997856
3570.2617,2.377057086250784,56.281992023708746
3571.083,2.367790909719396,51.28671963688059
3571.9065,2.362639857528793,50.50206326615975
3572.7283,2.3611745684293974,61.05747769800543
3573.55,2.3622247999984527,59.77022169451293
3574.374,2.3649355644125922,60.14732680740696
3575.1963,2.368812147687049,81.40743651428232
3576.0208,2.3730314656251785,52.78514499888629
3576.8435,2.37588904988662,46.02946788303493
3577.6682,2.3755702883781944,55.4701516278388
3578.4915,2.3715356083666457,47.67619292390526
3579.3145,2.3650564188701253,57.974975769918
3580.14,2.3580257428531963,61.75356257315351
3580.9636,2.351365016714305,49.78802971692263
3581.7893,2.3444603075700794,59.76291431220623
3582.6133,2.3364233234894822,51.71390090659933
3583.4395,2.32727068143123,50.916719499640074
3584.264,2.3181775915406404,59.771927975453615
3585.0884,2.310368148748263,55.234244260373046
3585.915,2.304392660807857,51.019590375226855
3586.74,2.3002918278195033,54.3947937297161
3587.5671,2.2980812909319654,53.47758419023527
3588.3923,2.298067564186713,62.21290299016838
3589.22,2.300564639992752,48.8071863969182
3590.0457,2.3054529497364666,56.54360138583622
3590.8716,2.311770451985859,63.35856453726438
3591.6995,2.3175055958624355,85.15074286068247
3592.526,2.3200899718730383,55.82297762942298
3593.3542,2.3178222967149797,54.36317508081548
3594.181,2.3110784635824255,56.92428308016878
3595.0098,2.302188788325523,53.16051836929033
3595.8367,2.2940673701777343,55.135341188206134
3596.6638,2.288411480891193,53.7030037167545
3597.4934,2.2852427405042643,65.81513077224484
3598.3208,2.283670039128334,53.000227160883945
3599.1506,2.2830106348632366,57.951721858402315
3599.9788,2.283270531346713,60.43501492743244
3600.8088,2.284440184389973,49.47363273701913
3601.6372,2.285469218722917,60.667109495868885
3602.4678,2.2842502972856216,48.313869359785265
3603.2964,2.2790728211673583,46.479103730643125
3604.1252,2.2703473738433053,65.66832188761796
3604.9565,2.260850716432997,54.58841100590134
3605.786,2.254183323681516,52.910699640959756
3606.6172,2.2523566602573544,57.41766646228733
3607.447,2.254745901072673,45.42331154821358
3608.2788,2.258614411661492,66.28131902219786
3609.109,2.260783575791076,45.78491938170711
3609.9392,2.259259551043851,53.397338001761845
3610.7717,2.253742869603856,73.11239659009826
3611.6023,2.2452909214197967,47.530942268239166
3612.435,2.235526498528002,53.8651917821514
3613.266,2.2263093309357367,57.89217307651378
3614.0994,2.2191784403676693,62.551509522258335
3614.9307,2.215055272228621,57.949379623718215
3615.7625,2.2138360443577447,63.66825387932013
3616.5962,2.2146209870101377,62.20000275153608
3617.4282,2.2160966744910153,78.48281075234819
3618.2625,2.2169637261013806,69.84503072532235
3619.0947,2.2162178574133415,58.83727058156423
3619.9292,2.2133395948642227,64.81431322657915
3620.762,2.2083589743149052,57.332452079609084
3621.595,2.2017493931277277,63.07239475270273
3622.4302,2.1943733198770086,65.5425180698226
3623.2634,2.187530246077512,85.27811486524065
3624.0989,2.182660914236852,94.20661907668162
3624.9326,2.1809572382195177,69.33510125153614
3625.7686,2.182579055159607,80.61849823692496
3626.6028,2.186327267491565,63.853625793960575
3627.437,2.1901350221394664,54.24967858770349
3628.2734,2.192243098523295,56.003288190716894
3629.1082,2.1921511174661097,67.98149680653754
3629.945,2.1905447934229603,60.80716837807825
3630.78,2.188300170492373,60.48420848409217
3631.6174,2.185624123170976,56.06810802001149
3632.453,2.1821040304965797,55.18725013816709
3633.2883,2.177214499970716,53.85159524013191
3634.1262,2.1708255529306415,64.0787077844483
3634.9622,2.16354487730305,64.13192545396959
3635.8005,2.1566592482159574,58.08899430523589
3636.637,2.1519789713146444,60.575850323438864
3637.4756,2.1509909986257645,58.117435492853716
3638.3123,2.1541317036092797,66.45976223771486
3639.1492,2.1604365853832257,59.111298798688495
3639.9885,2.16796264637361,64.10179745226601
3640.826,2.174481511116559,55.977499472608876
3641.6653,2.1783202584929056,71.45155149107927
3642.5032,2.1786370016385597,60.76642531688587
3643.343,2.17562264545593,75.13454941106184
3644.1812,2.170493523458127,73.72182215478655
3645.0195,2.16512406105746,63.61296916765825
3645.86,2.161204919604238,88.56388339088709
3646.699,2.159316409354189,77.39759845190588
3647.5398,2.1586982707992988,71.00372282115482
3648.379,2.1581485989087157,59.88418407252495
3649.2202,2.156988563939738,71.70049020060301
3650.0596,2.1551234219198347,60.28791850809402
3650.8994,2.1522178179497455,64.20484753946302
3651.7412,2.147234012539337,62.12727847639266
3652.5813,2.1391824458852335,58.41813529408525
3653.4236,2.12828640620154,74.41824678976711
3654.2642,2.1165374388546128,59.7678637234387
3655.1067,2.106511749077362,69.4796774373285
3655.9475,2.0999771924438404,66.72500622620433
3656.7886,2.096888333894192,67.37288881600671
3657.6318,2.0958330287816667,85.72000330328044
3658.4734,2.095005881642274,62.226621129879604
3659.317,2.093050039953019,70.8315441346868
3660.1587,2.089459226950234,69.09248947687689
3661.003,2.0845048904023464,66.57199481745671
3661.845,2.07902236631688,70.22975766835839
3662.6875,2.0739068346984886,59.56108938991207
3663.532,2.0697718657913566,80.58736992705686
3664.3748,2.066732815187279,54.150615391213904
3665.2197,2.064348397017507,67.28677770112155
3666.063,2.0618842601911846,58.71383591044259
3666.9084,2.058604149586193,62.26689602347021
3667.752,2.0541936731770045,61.56051081880579
3668.5977,2.0489129008491562,68.66320036128434
3669.4417,2.0436076562663414,67.20331199122226
3670.286,2.039353477720599,64.7745933691642
3671.132,2.0372342055862465,75.76548009710265
3671.9768,2.0380829453277727,67.16282221658818
3672.8235,2.0420580428301056,89.00116189180518
3673.6685,2.0482132952093473,76.37790725829579
3674.5156,2.0546326724904977,64.7137409265507
3675.3608,2.0590946942999415,61.974243013567204
3676.2063,2.060169411772353,71.09306294129725
3677.0542,2.057676110850285,62.18490390294236
3677.9,2.0525904699138833,72.12412698935462
3678.748,2.0464141618890435,68.48467175589602
3679.5945,2.0406646275845124,66.87484407988157
3680.4429,2.0363646094215273,81.65258183041337
3681.2896,2.0339461516375708,77.67018521876977
3682.1365,2.03315508801766,86.5715972696522
3682.9856,2.033225274414479,90.47136195428823
3683.8328,2.03318943938782,65.09776707157069
3684.6824,2.0322389937454357,79.02772760344783
3685.53,2.02980660595834,95.42181579295318
3686.38,2.025392748344755,64.35036128096904
3687.2278,2.0187592639640632,58.85766215775739
3688.0762,2.0103695974240705,69.21979450394093
3688.9265,2.001550422414334,89.16879882986544
3689.7751,1.9937759989329122,82.06816584760875
3690.626,1.9875070202367733,89.0299548889273
3691.475,1.9821414341957109,83.76954842155062
3692.3264,1.9767692735540676,66.38090235244991
3693.1758,1.9713452205683923,82.66791867576757
3694.0254,1.966866304126564,87.25368209686788
3694.8772,1.9646872846969738,78.72660653658882
3695.7273,1.9654415146281599,102.65415105671259
3696.5793,1.9685493017750872,82.0130101604417
3697.43,1.9727213337448115,69.81880911392966
3698.2825,1.9768484326227087,71.01681179665137
3699.1333,1.9802610643127194,84.48573388227905
3699.9841,1.9825244674688456,68.54051317331111
3700.8374,1.9832803663364913,67.93896368525871
3701.6887,1.9825703358399538,81.25540618032676
3702.5425,1.980984882614408,70.02205975164755
3703.3943,1.97914749743801,91.9208581465643
3704.2483,1.977059346363586,88.77314995863689
3705.1003,1.9742502009270448,86.16582171297388
3705.9526,1.9704433467651532,78.72834483386913
3706.8074,1.9658725634459084,71.04055605922979
3707.66,1.9608786186975233,82.42182089427936
3708.515,1.9553801454376885,86.47763479400243
3709.3682,1.9493446535213503,88.48992823107655
3710.2234,1.9434623471114287,72.84331865680262
3711.0771,1.9392855139668925,82.72016552597384
3711.9307,1.9380500063240567,97.0984109395819
3712.7866,1.9394504721019807,82.23124273550796
3713.6409,1.941426459321484,63.76747251227847
3714.4973,1.9414014468525613,65.24216126007693
3715.3518,1.9379701441218158,72.26320620048241
3716.2085,1.931680650369876,83.77633350830064
3717.0635,1.9244229858440602,110.23426210607569
3717.9185,1.9179709179901627,92.62828275711786
3718.776,1.9132376479254785,86.82421433908577
3719.6313,1.910523406208222,82.39174434241629
3720.489,1.9099047064487746,87.45381945836259
3721.345,1.911244047205048,74.93997587043972
3722.2031,1.9137632947173566,72.03004223871098
3723.0593,1.9159623891454056,67.73382017046247
3723.9158,1.9162936134709485,92.39800529246892
3724.7747,1.9140687840259571,69.24015295245825
3725.6316,1.909957545050535,73.61085054518321
3726.4905,1.9054505413489435,74.51221585882777
3727.348,1.9018010854976761,77.7861844379091
3728.2073,1.8991561906373322,89.72556697911585
3729.065,1.8967935441875508,93.39177552968707
3729.9229,1.8939829542945659,77.0018877216364
3730.783,1.8906928381475145,79.22562813125003
3731.6414,1.8874754211086082,85.54682149339696
3732.5017,1.8847443336617986,98.1409576356824
3733.3604,1.8824034124672222,91.16789041284245
3734.2214,1.8799888152400142,88.99449077715967
3735.0803,1.877189966697372,91.18552485822389
3735.9417,1.8740513488126562,70.37230278826452
3736.8013,1.8709392916917262,78.84244370243523
3737.661,1.8682325929851689,91.11495621730042
3738.5227,1.8660822433058315,93.86968710568932
3739.3828,1.8642407941997625,100.47130162189272
3740.245,1.8620582975828233,83.8938359400265
3741.1055,1.8588477921449575,80.75769712461567
3741.9683,1.8541945440570866,78.4414282274881
3742.829,1.8480171532481444,81.48890881031934
3743.69,1.8401957398176432,107.28956441548783
3744.5532,1.8306185053957267,76.5733407052045
3745.4148,1.8199226876804493,87.5584336367493
3746.2786,1.8098438178932854,102.75972971557364
3747.1404,1.802767390099536,117.36515277543522
3748.0044,1.7999500938970177,107.62579770449229
3748.8667,1.800539784957438,81.4914285975044
3749.729,1.8021892337762895,85.93890263267723
3750.5938,1.8030867111003397,82.01006604046435
3751.4565,1.803342062144858,88.40886196233652
3752.3215,1.8044011705668261,109.0541229918608
3753.1848,1.8070496869938708,104.02697718926865
3754.0503,1.8102133794427122,85.2898870159141
3754.9138,1.81179721707238,95.26614845858788
3755.7776,1.8107967115751653,89.00845674496944
3756.6438,1.808319718005296,97.2994971936402
3757.508,1.8065956733774295,101.33231391525695
3758.3745,1.8068758865772305,87.97621237169326
3759.239,1.8083905903497468,92.68547674901068
3760.106,1.8091425922413478,86.6168359008875
3760.971,1.8075626928294437,80.29457916896358
3761.8362,1.8035471001436565,95.18252105785812
3762.7036,1.7982637990729191,94.58391333763585
3763.5693,1.79331612009673,96.16358460099225
3764.437,1.7896784908085297,81.92339653301862
3765.3032,1.7871819406723837,92.66012335127292
3766.1714,1.7846561556043314,84.49438259624907
3767.0378,1.780995115789011,99.10982553132641
3767.9043,1.7761785814071551,83.41192708981725
3768.7732,1.7713289531029317,100.66111860104874
3769.6401,1.767687087490709,105.82068311259587
3770.5095,1.7654561383610623,77.84424020393838
3771.377,1.7638874058682348,97.32489908577135
3772.2466,1.7620876512864774,92.89647958155385
3773.1145,1.7596493045253556,96.3409353134605
3773.9824,1.7564648130825757,85.54894787007719
3774.8528,1.75235871845578,82.65671715923611
3775.721,1.7471533518613238,91.49174310477248
3776.5918,1.740954088156949,117.59740329916922
3777.4604,1.7345225296390243,101.98728991785072
3778.3315,1.7289413617212406,105.80613500553714
3779.201,1.7251330434499252,116.0234011349105
3780.0703,1.7232492759461062,98.50628162197422
3780.942,1.7227874190867358,101.00393551056646
3781.8118,1.7230957531550226,116.9891078580408
3782.6838,1.7237308258806552,99.32046712365995
3783.554,1.724334353063978,95.72114209204692
3784.4265,1.7244106852219212,117.08462582383744
3785.297,1.7234996225005825,96.11534929021076
3786.168,1.7216491166843322,129.6562284376038
3787.041,1.7195145387509871,100.42512175219953
3787.912,1.7178380577312513,100.28820416988972
3788.7856,1.7167687072277404,107.99570034774825
3789.6572,1.715862883759371,82.59913324591356
3790.531,1.7146109406176417,113.5304654295394
3791.403,1.7128990388182346,121.90995013992571
3792.2754,1.7108892447980952,97.47807437866679
3793.15,1.7086825767233378,128.04325041268078
3794.0225,1.7062607149303293,99.510571764282
3794.8972,1.703690115743713,98.99439330103174
3795.7703,1.7013586156853528,89.17341637870679
3796.6455,1.699807304025978,105.42574710360448
3797.519,1.6994073973573705,108.24639274290129
3798.3926,1.6999870369483496,113.28088988434101
3799.2686,1.700755517013689,102.34313019160598
3800.1426,1.7006176220975837,97.3724676690458
3801.0188,1.6988338486728989,111.35683121231821
3801.8933,1.6955024358340172,112.43596260964543
3802.77,1.6913873315094492,105.70721598274017
3803.6448,1.6873918504113259,96.17486391377157
3804.522,1.6840256069151383,85.47326311353687
3805.3972,1.681383092169137,118.7228236545963
3806.2727,1.6791915830298891,91.75866056638512
3807.1504,1.676978341081551,110.51615562845753
3808.0261,1.6742510519451086,134.38361084235868
3808.9043,1.670713258322752,98.26709267524679
3809.7805,1.6665945951914207,116.15781434891495
3810.659,1.66264261254991,130.27111266102122
3811.5356,1.6598515483054959,120.92339605548392
3812.4126,1.6588476976010076,119.27061079316725
3813.2917,1.6596016771068318,96.66052826605812
3814.169,1.6614501486605955,119.1076880230464
3815.0483,1.6633293365772113,125.23950879818767
3815.926,1.6640686201237191,110.50492043938539
3816.806,1.6629402274497695,112.83196077324475
3817.684,1.6601579795062043,96.41133698176385
3818.5623,1.6568100789979068,99.21457472252784
3819.4429,1.6541431009083922,109.4274142848008
3820.3215,1.6528219190848967,111.33642195746101
3821.2024,1.652666751852558,122.68739779212096
3822.0815,1.6529945813499238,102.93775519102273
3822.963,1.653007917800352,121.67602380337279
3823.8423,1.651961310079376,103.87556879812183
3824.722,1.6491834063790738,116.21112466172649
3825.604,1.6442428734421985,92.99202458529516
3826.4841,1.637421406947339,112.85785493063749
3827.3665,1.6298518833527946,98.10654690678574
3828.2468,1.6231624132713423,125.32058429158603
3829.1296,1.6183229344230956,117.73758888490678
3830.0105,1.6150850584441792,129.83888698258463
3830.8916,1.6122460763234892,119.90726385897165
3831.7751,1.608696359002397,121.92548462435427
3832.6565,1.6041165189565987,116.16409571926759
3833.5403,1.5988235123243135,116.84099704646012
3834.4224,1.5934286202685854,101.38500885431253
3835.3064,1.5884336921685853,128.88964760166292
3836.1887,1.584126046998387,101.90863755009369
3837.0713,1.5803083949216117,101.67611869422538
3837.956,1.5762999263904998,146.27200404607356
3838.839,1.5713372761140396,117.11342318638498
3839.7244,1.5651873103622718,112.03313825036038
3840.6077,1.5587267999722032,129.9259839444519
3841.4932,1.553668450721347,137.18669326933278
3842.377,1.551830525775574,132.7519570449757
3843.261,1.5540640639977656,127.15726495410752
3844.1472,1.5598554108771217,124.3639422879029
3845.0315,1.5675802796731926,133.73376548131364
3845.9182,1.5754274374909527,151.8372457178157
3846.803,1.5820040950232768,130.40632671187862
3847.69,1.586824779467174,109.75177145191456
3848.5752,1.5901876444100362,102.76971173104243
3849.4604,1.5929815720551868,117.53886276830941
3850.3481,1.5961364529909263,90.84434097673844
3851.234,1.6000336965054511,117.37195153350069
3852.122,1.6043093060928202,141.34412019594976
3853.0083,1.608033994831807,110.41973151531235
3853.8967,1.6103442758854523,126.98136956856047
3854.7832,1.610840446295847,106.77884339677453
3855.6702,1.6097286155484938,100.18496337393556
3856.559,1.6075412488847933,125.49959435995014
3857.4463,1.6048463106073292,121.5801509933505
3858.336,1.6021642302381867,120.04142267393986
3859.2234,1.6002115949169924,118.69695610792537
3860.1135,1.5998346706999922,121.38966177328287
3861.0015,1.6015210365711148,118.67458068711949
3861.8896,1.6047775053509643,121.65206323369146
3862.7803,1.6081240081894312,104.08729437638499
3863.6687,1.609727237642492,113.41751019474036
3864.5598,1.608305252606078,124.99919492863728
3865.4487,1.6035753961450467,122.99693674242909
3866.34,1.5961363148781744,115.53633484728601
3867.2297,1.5871131842030546,114.97873248864805
3868.1213,1.5775147773449836,111.9378721786411
3869.0112,1.5679895120641012,137.7866152140087
3869.9014,1.5586383522207186,153.07525212761323
3870.7937,1.5494479802814616,126.4457161843407
3871.684,1.5408657706032411,122.7173338930436
3872.577,1.5337150433886273,116.65765297717664
3873.4678,1.5286866766351594,115.97369270668105
3874.361,1.5253668190149,147.6627901364916
3875.2524,1.5222705605669895,158.75363648132
3876.1438,1.5177421492513936,119.21014641118366
3877.0376,1.5111266003481958,167.0836322272404
3877.9297,1.5030947309368008,141.675673864528
3878.8237,1.4947296742291103,124.36132343467673
3879.716,1.486683811376013,140.74472997076987
3880.6108,1.4788190338440068,122.23202547243869
3881.5037,1.4708404921925347,146.78835452035108
3882.3965,1.462662783535024,130.79719384826942
3883.2917,1.4545134127963326,135.24113647452603
3884.185,1.4467415143557052,111.52473418218644
3885.0808,1.4394373533454987,164.592460395425
3885.9746,1.432512583880532,147.69928816966473
3886.8706,1.4256537615866656,151.38383968475205
3887.765,1.4186674399959707,178.98450425545255
3888.6592,1.4115896306868247,147.36179802768527
3889.556,1.4048196044920405,155.22456645445823
3890.4507,1.3991652737281117,176.825021004052
3891.348,1.3956735300690366,144.69539797422553
3892.243,1.3955187546773378,140.68177037569896
3893.1406,1.3994246205442564,161.094515245632
3894.0361,1.4070000232324678,155.14678255220016
3894.932,1.4165760908261387,149.9068571515557
3895.83,1.4258149515857188,148.64735164750212
3896.7263,1.4327975919584797,179.13410897006423
3897.625,1.437107344163652,124.89512288917172
3898.5215,1.4397545412331967,169.47861656592843
3899.4207,1.442454751497278,132.547585359205
3900.3176,1.4464569284371531,132.07786108972815
3901.2148,1.4519695916602369,144.5890707389748
3902.1145,1.4583383572716886,131.494225762675
3903.0122,1.4646834286810482,134.4404772532858
3903.912,1.4705023239561046,141.53763701911424
3904.8103,1.4754532418571809,140.82644839458723
3905.7107,1.4791490752645482,123.82261031501095
3906.6094,1.4812707197296469,120.19668694306215
3907.508,1.4822710613657877,112.55605636071994
3908.409,1.4835192499286436,184.2604081292393
3909.308,1.4864558416758469,129.10527291953719
3910.2097,1.4914472836464048,139.97252781969507
3911.1091,1.4974297283079385,147.30828221127075
3912.011,1.5028941083999345,135.0146419137734
3912.9111,1.5069755546118024,117.70254167267765
3913.8113,1.509977189830715,175.11235285352686
3914.7136,1.51280143768623,136.58935090447793
3915.6143,1.5161281796171115,167.6281962451743
3916.517,1.52010099265504,108.06983919560004
3917.4182,1.5244616449001445,126.78510355010917
3918.3215,1.5289375205064861,110.36618433645577
3919.223,1.5332678940445719,107.87285744595822
3920.1245,1.537206451561941,121.28499445020722
3921.0286,1.5404840148422319,118.22316637490502
3921.9307,1.542930519910065,126.95265696052373
3922.835,1.5446512658100136,124.01552739372492
3923.7373,1.5458621926792642,142.62019823634813
3924.642,1.546540041951026,113.3525465264099
3925.5452,1.5460744409872447,122.21401481996507
3926.448,1.5434513273880726,109.1490549543755
3927.3535,1.5379415740192908,121.79683534805937
3928.257,1.5299558785169607,146.87739048852012
3929.1628,1.52112002675878,135.80734457895176
3930.0667,1.5136798365624815,123.99611139205581
3930.9731,1.5091454705535876,135.80819279636899
3931.8774,1.5075594522087656,119.67101157277602
3932.782,1.5075244827647158,116.05113175983911
3933.6887,1.5072443822686254,142.02229175576434
3934.5938,1.505592901469285,119.40148442050824
3935.501,1.5025248728653269,133.69426231859637
