wavl,flux,ivar
3566.9744,3.168265447806765,170.07681254915
3567.795,3.1648840853439286,156.76400501595202
3568.6177,3.159409052626034,188.691723781646
3569.4385,3.1525119084665345,160.63349801778327
3570.2617,3.1457439073911178,180.5106524839447
3571.083,3.1409660023506047,167.31167488260076
3571.9065,3.1392424097250715,176.74703161896525
3572.7283,3.140372486335534,168.0995543640161
3573.55,3.143185536575217,158.43794093686492
3574.374,3.146481219056495,177.25980647473472
3575.1963,3.1496416697800353,187.7851196104399
3576.0208,3.152638726795934,168.3571068009146
3576.8435,3.155506361518668,155.0262504563174
3577.6682,3.158018202754787,169.35611236200475
3578.4915,3.1595259188686757,191.16662406920915
3579.3145,3.1591105090732974,166.63345472614515
3580.14,3.1559448265295322,164.38007121239684
3580.9636,3.1499904577103277,174.35692862035845
3581.7893,3.1423837709927573,179.63687912802013
3582.6133,3.135161041684353,163.02962687292177
3583.4395,3.129987691032943,174.87163811436514
3584.264,3.127167358522395,172.12595644967325
3585.0884,3.125395695873076,160.928455405022
3585.915,3.1228052620998183,173.94410845253358
3586.74,3.118430058446169,203.3823617948592
3587.5671,3.1129900560573502,184.54673118692924
3588.3923,3.108526423615107,165.8703625389692
3589.22,3.1069009034796022,187.81888646760441
3590.0457,3.1085107793004,177.57319996379198
3590.8716,3.1119334523434348,185.7859273139989
3591.6995,3.1148748376843005,172.647755374446
3592.526,3.115536398032398,188.6784430184522
3593.3542,3.1134746328069753,174.2695387445237
3594.181,3.109420725505189,187.85776742960252
3595.0098,3.104536806056286,180.29295506052995
3595.8367,3.0998932800513366,189.49537341358567
3596.6638,3.0960923515640957,162.9493978982531
3597.4934,3.09312581185271,186.79075595604203
3598.3208,3.0903449601800568,186.9744032364546
3599.1506,3.0867992044568013,187.53119422720502
3599.9788,3.082172574039642,155.7303071828264
3600.8088,3.077394054037562,175.3529121642845
3601.6372,3.0743785113070636,209.8556289722096
3602.4678,3.074587744192812,193.0053902593113
3603.2964,3.0777161627780476,194.70139129242548
3604.1252,3.0816038677422157,172.9103404538281
3604.9565,3.0836643531754526,172.8899042001181
3605.786,3.0826360854750074,184.67010205062635
3606.6172,3.079164889558104,181.45160668289674
3607.447,3.0747105894182543,189.21198678935085
3608.2788,3.069939006214684,189.30402262508005
3609.109,3.0643241127151333,163.62134396804646
3609.9392,3.0570273170073152,182.92730653455476
3610.7717,3.048175336976921,188.5881939503636
3611.6023,3.0392437352822133,187.67754133233922
3612.435,3.032006207931402,175.7462290690961
3613.266,3.027436172758686,170.4736821702588
3614.0994,3.0250282241879782,191.31209283254861
3614.9307,3.0234145942348736,162.48939858478442
3615.7625,3.0214022936023683,201.53576719874087
3616.5962,3.0187864692562285,195.6363240066551
3617.4282,3.0163522630987916,190.89980104766832
3618.2625,3.0151323890468724,189.3455412313342
3619.0947,3.0156216047156783,208.0459783838635
3619.9292,3.017407402270445,199.40728921136275
3620.762,3.0194422760571205,170.07643757711685
3621.595,3.0206456159134163,202.71606774874806
3622.4302,3.0203538562693146,186.2382777126331
3623.2634,3.0185320668920026,173.20611527530426
3624.0989,3.015733118872112,208.650645259302
3624.9326,3.0128649073452722,202.47023144319567
3625.7686,3.0106372597990507,182.3197855583648
3626.6028,3.009093513338602,176.35938712913304
3627.437,3.00754724659406,182.42519775880703
3628.2734,3.0052780124346294,174.53822948140885
3629.1082,3.0023765253119246,195.01566894492217
3629.945,2.9997745004907967,214.73359136754598
3630.78,2.9984651777648614,220.01984845475977
3631.6174,2.9986784766273704,202.70721612479312
3632.453,2.999962847766301,190.8480960191219
3633.2883,3.0017637911447657,176.82827867248943
3634.1262,3.0037201278243035,193.73447145295077
3634.9622,3.005472005078143,198.16373541023376
3635.8005,3.0065205712655145,204.40396071782297
3636.637,3.0062860479668414,168.4541245941529
3637.4756,3.004372758527815,172.60231860680318
3638.3123,3.0008447940205554,179.00099671661656
3639.1492,2.9963441623733997,185.6500689139608
3639.9885,2.991892456776568,189.13771005159816
3640.826,2.9883906716943183,192.03189358116282
3641.6653,2.9861011686307255,178.03277774640577
3642.5032,2.9847888118977006,179.37335202879538
3643.343,2.9841254571526954,182.8740830992067
3644.1812,2.984006713977103,189.04867745398022
3645.0195,2.9844274765778906,185.27259442160917
3645.86,2.9852041598518486,186.797362659058
3646.699,2.9858061979469794,184.6909817850255
3647.5398,2.985384014100083,178.78326388648787
3648.379,2.98288783101526,181.1596276243251
3649.2202,2.977336914078538,180.31373996426146
3650.0596,2.9684200260173994,193.40496785355833
3650.8994,2.9569325752713156,192.52312975210717
3651.7412,2.9447841510061683,222.92665786245135
3652.5813,2.9343210961768595,179.6847876587217
3653.4236,2.927209164725943,206.89416326011343
3654.2642,2.9242065883797284,190.32521943306202
3655.1067,2.9252099125518427,194.36664514046473
3655.9475,2.9295080061370924,214.76147201890888
3656.7886,2.935745022281879,175.37887209191126
3657.6318,2.9420203062351753,199.4120312087665
3658.4734,2.9463840500355856,181.3774029452335
3659.317,2.9477153461220076,178.0657384208821
3660.1587,2.946090398515658,172.9577986313823
3661.003,2.942578551371599,201.13113744034715
3661.845,2.9386304500727913,182.66795658809818
3662.6875,2.935425176965567,184.97421436990246
3663.532,2.933586690058135,188.2710290633922
3664.3748,2.9330883744487726,189.47639098970748
3665.2197,2.9333529687546878,206.23201773397292
3666.063,2.933639276297403,196.58996583027314
3666.9084,2.9334580665206675,201.7313365984215
3667.752,2.9326474687241224,195.22805480910512
3668.5977,2.9310283851455785,197.21415803148275
3669.4417,2.9281210471590304,192.5529036386831
3670.286,2.9233520880150676,190.9389673044304
3671.132,2.9167404790487588,179.7769208703242
3671.9768,2.9094530807898105,209.94677709566935
3672.8235,2.9034019006793805,205.03603359620197
3673.6685,2.900302386005194,193.38843153176768
3674.5156,2.9005685433170183,226.46969549073447
3675.3608,2.9031057188610787,194.60804864293243
3676.2063,2.905977329789528,200.7775686980142
3677.0542,2.9075506661955104,209.81895677223736
3677.9,2.9073071782190305,205.1672341325961
3678.748,2.9057855208469685,216.8006826715425
3679.5945,2.903798608350719,201.5572885170532
3680.4429,2.9017555900879155,185.8386922430767
3681.2896,2.8996574029354214,185.9788595015302
3682.1365,2.897371734244228,204.4239582210632
3682.9856,2.8948354019027196,197.5186364057736
3683.8328,2.8921474820142867,201.15010345664012
3684.6824,2.8896539129202603,217.86820637407502
3685.53,2.8880435709343266,206.91268919119543
3686.38,2.8879996783705475,223.7029238621627
3687.2278,2.889686426254586,223.52744418185952
3688.0762,2.892453440591999,214.162528386337
3688.9265,2.8951260527733673,207.1658470591571
3689.7751,2.8966522581195226,175.02665313839285
3690.626,2.8966765966981782,190.80520204319123
3691.475,2.89553832470603,222.04607322602885
3692.3264,2.893828999953341,208.87958860135768
3693.1758,2.8918667337555743,185.13140260874033
3694.0254,2.889406545742982,217.02559392107125
3694.8772,2.885844136376784,173.92871905527485
3695.7273,2.8808326887244355,208.59511034944057
3696.5793,2.874789781001032,200.23717813233333
3697.43,2.868978259619465,251.47613675248232
3698.2825,2.864700589887076,204.7793020469539
3699.1333,2.8624765686465388,235.43714871364554
3699.9841,2.8616544369945607,199.28927634832274
3700.8374,2.860984865114942,202.23769823871916
3701.6887,2.8595694705312775,214.0472767712529
3702.5425,2.8574590681161753,204.95726430766632
3703.3943,2.855499572737286,209.11681139076157
3704.2483,2.8545403483382366,210.25302967324518
3705.1003,2.8548347987550433,196.74265346508858
3705.9526,2.8560138680362734,217.6693388989233
3706.8074,2.857519617906768,194.75466057918024
3707.66,2.8588334464131107,190.2736129487509
3708.515,2.859376465083784,210.09833974259323
3709.3682,2.858410107688845,198.32661048428042
3710.2234,2.8554042746390675,213.12627219748495
3711.0771,2.8505657005611105,203.88148766155678
3711.9307,2.8448522296741703,198.7353523042223
3712.7866,2.839466030457861,240.17538806200056
3713.6409,2.8353381874630896,202.17116413692077
3714.4973,2.832740849909598,206.8356065194101
3715.3518,2.831323727445641,206.85932834392656
3716.2085,2.8302998088140514,204.71662338215236
3717.0635,2.829051291094327,185.99986190910056
3717.9185,2.8276769174940815,239.16084267232245
3718.776,2.827023991336902,214.44597914602218
3719.6313,2.8281582268595256,226.320222397754
3720.489,2.8317864999357054,210.82448448252484
3721.345,2.837900154399488,212.10973501543702
3722.2031,2.845593078785124,215.06579222177396
3723.0593,2.8528281926706462,217.63456899417898
3723.9158,2.8570396153532593,204.89178053707127
3724.7747,2.856291859586939,223.38921767227924
3725.6316,2.85055075401789,206.68237058835064
3726.4905,2.8417816667875866,210.90652319766446
3727.348,2.8328530741659157,213.76859916651472
3728.2073,2.8258975643286615,225.39249924243362
3729.065,2.8216185462427332,201.6508762317551
3729.9229,2.8193686363413946,222.2093351179198
3730.783,2.8179883304620885,220.09346552544312
3731.6414,2.8166107078187914,221.15589089040563
3732.5017,2.8150531868729036,204.9025026108467
3733.3604,2.8136243377056545,218.96116650353315
3734.2214,2.8124790240570725,221.12159834863974
3735.0803,2.8112368039092095,218.3253822352423
3735.9417,2.809167770514892,224.90004607569995
3736.8013,2.805832438259023,203.71619670773092
3737.661,2.801452073365123,201.66391656157194
3738.5227,2.796751696971302,213.93528532843447
3739.3828,2.7925082566137305,221.37850560053883
3740.245,2.789192096573778,213.0942378891001
3741.1055,2.7872053929497964,218.22985045290292
3741.9683,2.7870158162609937,248.93065374130737
3742.829,2.7888458550704596,228.03316173132907
3743.69,2.7919575034260156,234.70737444209396
3744.5532,2.794494929239468,206.0792101169453
3745.4148,2.79435307352228,209.81598997340393
3746.2786,2.7906177344988747,217.2930012071214
3747.1404,2.784302454794786,222.51224759982753
3748.0044,2.7776708860957045,225.6890465276015
3748.8667,2.7728970678342435,214.69399004770273
3749.729,2.7708386467995405,230.04962196707515
3750.5938,2.771034292028243,232.002652446235
3751.4565,2.772495873121926,206.34950742525032
3752.3215,2.7745811347906346,218.1225042080425
3753.1848,2.777164226637838,242.17752819082978
3754.0503,2.780206111451015,228.7530022098086
3754.9138,2.7832120737740897,218.62686152893033
3755.7776,2.785230742042092,228.3338367287792
3756.6438,2.785164312444626,212.0678479752355
3757.508,2.7822855410226346,223.46696199740524
3758.3745,2.776718943929092,211.57179951843452
3759.239,2.7697175174259603,233.3451314500778
3760.106,2.7631929806846816,219.3626628000439
3760.971,2.75891360411016,222.16744199259685
3761.8362,2.757520919544051,226.42847244198015
3762.7036,2.758421528758343,211.19454586623752
3763.5693,2.7602904538022153,210.70368047677084
3764.437,2.761812535445204,236.8037714319731
3765.3032,2.7621075724788895,222.66661608897553
3766.1714,2.760919450641071,232.96114828914844
3767.0378,2.7586678906887125,210.55072825703488
3767.9043,2.7562351802211116,228.61877472646543
3768.7732,2.7544037969865056,204.28990796989052
3769.6401,2.7533621753109383,231.22146814433532
3770.5095,2.7527711550260463,229.91637785868699
3771.377,2.7523526457255962,247.0905020676375
3772.2466,2.752156761763335,236.44543283644276
3773.1145,2.7522334626509832,227.05808714597885
3773.9824,2.7521831386635833,229.85771924509604
3774.8528,2.7512307423884246,222.07351660616948
3775.721,2.748824726067831,212.0062513893882
3776.5918,2.7451841258152743,229.05305861750045
3777.4604,2.7414569298427294,235.5578058635796
3778.3315,2.739215291163216,233.05599055392258
3779.201,2.7397471172818717,231.76270143356967
3780.0703,2.743272990073652,208.92528347103044
3780.942,2.7487044765315924,222.98918686410158
3781.8118,2.7539927925093477,214.69780972788985
3782.6838,2.7571564760240292,208.87385883676632
3783.554,2.757135012490611,222.21816585168227
3784.4265,2.7541514866329364,227.93653572337203
3785.297,2.749260638303235,263.7482308355085
3786.168,2.743536305960808,279.83341777503426
3787.041,2.7376284433688673,235.7969241046813
3787.912,2.7318767187243633,233.430544518564
3788.7856,2.7264145413114167,206.48183726747962
3789.6572,2.7212589258947713,219.1187157542564
3790.531,2.716067193940946,243.8236812572419
3791.403,2.710306875301783,217.4831513827671
3792.2754,2.703462734557538,252.5052353376192
3793.15,2.6953042001203587,237.5252998164425
3794.0225,2.685977864815713,235.76271669766288
3794.8972,2.6757823852103977,228.60285813568711
3795.7703,2.6653430246218037,255.93544558657734
3796.6455,2.6555294223282795,236.00534351229405
3797.519,2.6476266280238367,252.35250270578024
3798.3926,2.642933493876293,224.25754471634386
3799.2686,2.642439370151998,261.40532963475783
3800.1426,2.6464116890104448,234.06801946293763
3801.0188,2.6542249824886484,234.00862674495025
3801.8933,2.6644400796698955,245.58972077880412
3802.77,2.675379140661737,254.79508129095393
3803.6448,2.6855508580879905,229.3084822902268
3804.522,2.6943695096763727,232.46784298168038
3805.3972,2.702198540362333,252.35202389241513
3806.2727,2.7102248183470907,262.909763704741
3807.1504,2.7195647129731175,272.20826088591826
3808.0261,2.7303136040973714,215.11301404871918
3808.9043,2.7414959674862622,224.5151338945766
3809.7805,2.751546831450808,226.74748850467708
3810.659,2.7594780941274055,221.28637481748325
3811.5356,2.7650893776299226,224.10316572067688
3812.4126,2.768713518902843,224.46934780977205
3813.2917,2.77048147731156,213.99036981408756
3814.169,2.770053828988329,222.09834763543114
3815.0483,2.766980952182917,204.36588991796856
3815.926,2.7613678199281644,212.45100043220708
3816.806,2.754166993923042,230.18174358459942
3817.684,2.746879443867818,246.73245956112135
3818.5623,2.740541485879783,214.69707093274522
3819.4429,2.7350826713583123,242.18559100113131
3820.3215,2.7294719559787595,239.5394120252553
3821.2024,2.7224154264596336,252.0806705575039
3822.0815,2.713387990416295,229.02600306798422
3822.963,2.7029532990922225,236.35740552111278
3823.8423,2.692570212862617,238.65633632254796
3824.722,2.6833814704144747,231.02233889684013
3825.604,2.6752608520499312,241.62358112200047
3826.4841,2.6667306467736243,254.05011489987865
3827.3665,2.6557890170335945,233.8529994017087
3828.2468,2.6413769419894124,242.44156584462127
3829.1296,2.623731535033271,241.96196068096606
3830.0105,2.6042902338018763,264.3798264888484
3830.8916,2.5846208858794273,235.1413358555462
3831.7751,2.5659370199605296,264.04801230007695
3832.6565,2.5489322701840837,260.68023753886746
3833.5403,2.533443375816615,308.1285387732275
3834.4224,2.5192686125259396,254.41634999347778
3835.3064,2.5067160897387777,260.9900549064203
3836.1887,2.4973782668293394,278.52767856512094
3837.0713,2.493497449768511,289.38510005334035
3837.956,2.4969076741469447,299.8320242034314
3838.839,2.507942018609154,283.02546847551463
3839.7244,2.5253618966891778,282.383442885678
3840.6077,2.5468085850465383,277.63594083752776
3841.4932,2.5700835931371624,245.27502937143186
3842.377,2.593592265325679,239.18024360896294
3843.261,2.6168958665400495,264.06948028206995
3844.1472,2.6399923224956265,245.20697584200673
3845.0315,2.662338338054588,208.23356584937716
3845.9182,2.68303319607256,221.80986438565887
3846.803,2.701093878821031,236.37255836796805
3847.69,2.7166772325426014,227.30095364872182
3848.5752,2.7307687761327575,226.65172867390046
3849.4604,2.744673648229553,235.66280223511
3850.3481,2.7591441389978457,225.25609315141674
3851.234,2.774064858819518,214.6127927983295
3852.122,2.7889902756239917,228.77546553713628
3853.0083,2.803144318731357,214.30841588152373
3853.8967,2.815768413679511,220.88093578283252
3854.7832,2.8258876343996,206.36999868295192
3855.6702,2.8328128671122483,220.03777374084433
3856.559,2.8365406444075365,183.9001746179561
3857.4463,2.8381092379895994,216.80973088135264
3858.336,2.839274603537442,225.174725325969
3859.2234,2.841454479870422,202.66435271901946
3860.1135,2.8448715098966413,206.3194671227472
3861.0015,2.848501142021825,195.90864317244063
3861.8896,2.850956585964937,209.37920085911173
3862.7803,2.851249058649434,217.2193499566129
3863.6687,2.84893601895416,218.12914461063755
3864.5598,2.8438233483049156,208.6701250301626
3865.4487,2.8359392029143784,207.94206217989736
3866.34,2.825622789023293,211.93998822783092
3867.2297,2.8136764625203656,232.7372183007302
3868.1213,2.8007940733478205,223.7298173635396
3869.0112,2.7873737378580654,207.4328223477991
3869.9014,2.773348001624895,206.23041826011058
3870.7937,2.7585014572753783,223.95142518412973
3871.684,2.7426895914928187,232.12461084378444
3872.577,2.7255309919424238,231.43115051634723
3873.4678,2.7067173701921523,226.1693500334945
3874.361,2.6857916684326466,246.0828751406289
3875.2524,2.662636099503027,225.7361875319052
3876.1438,2.6371974124176636,230.5440313937472
3877.0376,2.609696684942645,238.8647830313734
3877.9297,2.5809396230537014,247.25403404413387
3878.8237,2.5516975093636756,321.77252083628383
3879.716,2.5227577154425047,268.98027947789643
3880.6108,2.494113580444674,270.41691375829873
3881.5037,2.465576688310894,278.9971914121568
3882.3965,2.4366271296301583,271.422802937628
3883.2917,2.406788927431662,316.68229005629036
3884.185,2.375876555360745,283.33316428766153
3885.0808,2.3435676087509214,315.7711224192639
3885.9746,2.3103790466597465,315.17889273113826
3886.8706,2.277448326488226,321.4518033333738
3887.765,2.2471997330924993,327.9211305005055
3888.6592,2.222422937547397,344.9617809950918
3889.556,2.2057672121562013,371.79994902247233
3890.4507,2.1990495791582974,334.7094454451511
3891.348,2.202541153062276,344.18363702712594
3892.243,2.215192017920132,346.4537033918302
3893.1406,2.2353477948728058,346.3882652389265
3894.0361,2.2612643415527645,331.9022482801126
3894.932,2.291857316156054,339.972733220229
3895.83,2.3265001286313707,321.4608877604379
3896.7263,2.364361891758564,317.803258256571
3897.625,2.4047144298991285,296.82282060328953
3898.5215,2.4460992631861305,285.6487900159593
3899.4207,2.4872687457153617,283.3781432612689
3900.3176,2.5265849968404606,253.5013947322928
3901.2148,2.5631210982502783,238.35886942863968
3902.1145,2.5965035579345472,254.29844456445406
3903.0122,2.6267500377427035,247.23904068366326
3903.912,2.6547019445739464,250.62701482770785
3904.8103,2.681246311400298,260.45803163418987
3905.7107,2.7075687574032155,234.69118713769262
3906.6094,2.734387521361682,242.2551271375555
3907.508,2.762028844986766,229.48649143069557
3908.409,2.790084566025253,211.71873708749953
3909.308,2.8173518037426017,220.32239316607507
3910.2097,2.8427829538128293,227.86554807554506
3911.1091,2.865558418807712,185.02037767703933
3912.011,2.8858256667271567,208.84671636111773
3912.9111,2.9040335173439047,191.11752817786098
3913.8113,2.9208542370276533,203.33057026283453
3914.7136,2.936756183665283,195.82074267556393
3915.6143,2.951943805707529,209.49648376926783
3916.517,2.9668203859886373,190.64670641818205
3917.4182,2.9817776579775463,207.20570348588672
3918.3215,2.9971988001991026,190.359734005681
3919.223,3.0128112432161824,190.56340234254856
3920.1245,3.0277703319656766,184.094406264474
3921.0286,3.0407861264702745,182.863900816519
3921.9307,3.050594163730431,175.3741389736836
3922.835,3.056721302343421,163.42498121228363
3923.7373,3.0595519641479045,178.6408485416971
3924.642,3.0602466521773346,198.6206873644946
3925.5452,3.0601667777284773,194.98932412273496
3926.448,3.0603637741997605,178.01034187741888
3927.3535,3.0612682642770546,194.3794391700631
3928.257,3.0626882911243265,187.49480072962623
3929.1628,3.0640309710537577,174.85553463982916
3930.0667,3.0645028293123953,182.36140867098035
3930.9731,3.0632730286548857,178.67449797105047
3931.8774,3.0595996302411783,175.975412964147
3932.782,3.0529879750561246,181.37487600034422
3933.6887,3.043392255042408,173.76467156414665
