wavl,flux,ivar
3566.9744,0.9611951188595518,1178.72365045133
3567.795,0.9578052672107785,1143.9837939106246
3568.6177,0.9545735849074118,1704.0918030999053
3569.4385,0.9523998158247153,1005.1470508164545
3570.2617,0.9514918929564554,994.5761789195328
3571.083,0.9516605743755676,1382.9823242800007
3571.9065,0.9527769100522735,2097.4466544095085
3572.7283,0.9550217790848852,1101.3571147898624
3573.55,0.9587213942811728,1143.1702585259704
3574.374,0.9639620472707129,837.615022009778
3575.1963,0.9702833542364234,1080.3562723257328
3576.0208,0.976815012744062,879.1517782297822
3576.8435,0.9823962179865037,1089.143548351381
3577.6682,0.9859759929882654,995.9070019636614
3578.4915,0.9868822058184493,891.37917017578
3579.3145,0.9852730108152695,938.9422756999184
3580.14,0.9822238717393499,875.0935357923637
3580.9636,0.9793814754017595,1064.1545285070317
3581.7893,0.9780945388872939,958.4211617733419
3582.6133,0.9786635680006982,1148.560216912515
3583.4395,0.980057891742079,1020.3878162411633
3584.264,0.9804180801502257,887.7880181633687
3585.0884,0.97816189724849,898.4169378667954
3585.915,0.9729625871045612,1013.691470839668
3586.74,0.9660741891898958,1219.4533439789648
3587.5671,0.9596561395634435,1082.6732846821956
3588.3923,0.9559195626900115,1183.9935991247503
3589.22,0.9561805906371811,1701.410350402241
3590.0457,0.9604303408739097,1094.9594884951885
3590.8716,0.967327089342851,1214.0741043491694
3591.6995,0.9747778547354133,1135.2761636697958
3592.526,0.9807112249720309,972.7963773759442
3593.3542,0.9837962033111918,995.5504136204255
3594.181,0.9835103655192886,1188.9733173638122
3595.0098,0.9801135628510017,1026.5180638207007
3595.8367,0.9746622965322537,1043.9365423716918
3596.6638,0.9689335972124813,1153.2921440544067
3597.4934,0.9650036952923372,1105.555800319789
3598.3208,0.9643715204066973,1106.6945858258043
3599.1506,0.9670406495928587,1423.9819143341508
3599.9788,0.9714309464957981,1295.5512913575249
3600.8088,0.9753273282225243,1028.1986205744147
3601.6372,0.9772187243005798,913.9211404555641
3602.4678,0.9771760354260098,1029.987820763861
3603.2964,0.9764765027380531,1185.2096983347326
3604.1252,0.9765535598224508,1171.013828577822
3604.9565,0.9781608654778869,1036.081254552483
3605.786,0.981168083891849,934.0855613196552
3606.6172,0.9848630208736086,1037.98798537301
3607.447,0.9882906991330416,1111.3767146166135
3608.2788,0.9906282803507975,1242.5354254426716
3609.109,0.9913156445621786,1271.9871006934172
3609.9392,0.9901440685463547,1349.5497534651404
3610.7717,0.9872484362456738,1025.4887734294498
3611.6023,0.9831783475017237,1292.248439794571
3612.435,0.9787649932117269,1396.0085926202644
3613.266,0.9749683000583401,1052.6032482403202
3614.0994,0.9725492753783096,1972.267612414977
3614.9307,0.9719382086714473,955.6915575424679
3615.7625,0.9730517088870332,998.0058112566265
3616.5962,0.9752902186415416,1071.468367115728
3617.4282,0.9776837666773951,1043.4878834271067
3618.2625,0.979310764389116,1017.5360724462365
3619.0947,0.9796463429752266,886.2792972685777
3619.9292,0.9787372004706119,1062.8176633475707
3620.762,0.9770838252941001,1178.824698311219
3621.595,0.9754554263165355,986.904708096312
3622.4302,0.9747485701623873,1025.5626857779503
3623.2634,0.9756978873465961,1102.5790846451162
3624.0989,0.9783515629895568,927.3928416226878
3624.9326,0.9817199700733942,1298.3103006321167
3625.7686,0.984219111840362,1071.2430026306076
3626.6028,0.9846393937524438,983.5342044247328
3627.437,0.9829506898620181,1049.0558044586307
3628.2734,0.9800915499057458,1372.8735648315007
3629.1082,0.9771792722752455,1132.376589192245
3629.945,0.9748322428135126,1038.0507147669514
3630.78,0.9732417997989515,1727.4884917731229
3631.6174,0.9724763858585153,944.0209734766306
3632.453,0.9726216577704752,1187.0887452143309
3633.2883,0.9735178880375553,1212.5164119140186
3634.1262,0.9745531455531572,953.3646532292577
3634.9622,0.9748371568374669,1213.9506304499898
3635.8005,0.9737840515083084,830.5141030593663
3636.637,0.9716059373131684,1157.9588488299619
3637.4756,0.9692580257190136,1059.681272732249
3638.3123,0.9679190867451333,998.3575025170088
3639.1492,0.9683371622236363,1378.2098182586578
3639.9885,0.970555929623371,1059.6184088717282
3640.826,0.9738743311883865,1341.5222278673762
3641.6653,0.9770872742196458,1644.3289715904807
3642.5032,0.9789018052830747,1058.0417110204314
3643.343,0.9786427816452827,794.3238013270707
3644.1812,0.9766346526685509,1067.9371607568928
3645.0195,0.973918890727651,969.7716246231453
3645.86,0.9714882129907143,1106.559307588949
3646.699,0.9697860457883587,1109.8193265616587
3647.5398,0.9688037195123742,965.5922620504118
3648.379,0.9686076747147823,1053.3332090916485
3649.2202,0.969573099827008,1137.7814323213854
3650.0596,0.9721459714836979,1160.2590077555678
3650.8994,0.9763953636906577,1262.244841055486
3651.7412,0.981673502016562,1137.825736986768
3652.5813,0.9865172510369958,997.4820974914489
3653.4236,0.9890685595319975,989.1507167409633
3654.2642,0.9878024059164489,947.2430301661362
3655.1067,0.9825261423620489,950.276660258812
3655.9475,0.9748832460955015,1167.632652565921
3656.7886,0.9677914651037071,1212.8738373802537
3657.6318,0.9641069252555199,976.0689465646415
3658.4734,0.9651115088807768,1621.9925088605166
3659.317,0.9697742381726872,1209.0475096412904
3660.1587,0.9754686507472685,1020.3394044258985
3661.003,0.9797214653859746,811.8217385632006
3661.845,0.9815434816592076,893.4321847269105
3662.6875,0.9817215151775955,1335.2259041507566
3663.532,0.9818854089108237,1310.5510242583987
3664.3748,0.9833634228138163,974.0974809651088
3665.2197,0.9864480311320105,1287.7359391358905
3666.063,0.9902935241962415,1240.9986905414835
3666.9084,0.9934629870172408,931.032089404648
3667.752,0.9946594246340965,1029.3839230925553
3668.5977,0.9934601324091,832.2194866975946
3669.4417,0.9905262396402031,983.2117926983002
3670.286,0.9872553720260101,1606.4363952408087
3671.132,0.9850822567382865,1144.3457278710218
3671.9768,0.9848284207131476,1624.8838564552586
3672.8235,0.9864098145478838,1115.0508188110355
3673.6685,0.9890729682640235,864.8357944616255
3674.5156,0.9919149576191932,961.2226765359198
3675.3608,0.9942497520314345,1000.178854985017
3676.2063,0.9957844704139978,958.5084409841103
3677.0542,0.9964683395327086,969.4257279583077
3677.9,0.9962288318567836,1023.549794151134
3678.748,0.9947657469507757,886.5880098749043
3679.5945,0.991705592514487,1174.6299754453485
3680.4429,0.9871397642858414,1264.7908220217294
3681.2896,0.9821454026803428,1058.1839687766746
3682.1365,0.9784124598330086,1077.4726212084315
3682.9856,0.9772050026699963,1214.423115769009
3683.8328,0.9783952174976689,1021.020573121652
3684.6824,0.9804877373905941,1110.6601123260607
3685.53,0.9815821167105773,1303.7402929945645
3686.38,0.9804934681740082,1096.1108985672813
3687.2278,0.9773243398531872,1260.3119934403976
3688.0762,0.9734397123772769,1087.4430586577867
3688.9265,0.9709491070938079,1513.0520298702504
3689.7751,0.9717284152127813,1058.321387231857
3690.626,0.9763347440988324,1470.8087831611333
3691.475,0.9836498403081395,831.2464977586437
3692.3264,0.9917348846203627,884.6088284530982
3693.1758,0.9989776183772622,1035.6583607218604
3694.0254,1.00491617575912,1086.8388240823165
3694.8772,1.009947788017408,848.1119093680189
3695.7273,1.0146828327819664,750.405651906265
3696.5793,1.0195140240329348,1152.1023428195904
3697.43,1.0242362724297558,1092.7876267724037
3698.2825,1.0280751264594465,1093.1881612169122
3699.1333,1.0299953083526934,887.0873588904892
3699.9841,1.0294668130699982,847.2399413523462
3700.8374,1.0268755588071043,982.6009866095822
3701.6887,1.0233166108817697,1268.979069054281
3702.5425,1.0198556788354352,967.1801337781488
3703.3943,1.0171413957425945,1012.8918481044864
3704.2483,1.0153956979262178,878.3324185161065
3705.1003,1.0146421409951367,1281.4392326131454
3705.9526,1.0146087539774267,971.7167255044163
3706.8074,1.0146281247658469,1172.4327146686808
3707.66,1.0138534757904678,945.1607356757322
3708.515,1.0118178003896476,1256.3915427965367
3709.3682,1.0088945791379733,1395.968138142424
3710.2234,1.0061470936872414,1032.4413682537036
3711.0771,1.0046910937138147,867.9670009885073
3711.9307,1.0048807392413173,1126.4361688755914
3712.7866,1.0060707136111224,1273.6598257974044
3713.6409,1.0071123038258922,967.248716220778
3714.4973,1.0073130943736008,934.0071682557548
3715.3518,1.0070046884833772,1073.6802597259955
3716.2085,1.0072344387671803,964.4034099076886
3717.0635,1.0088162002212746,893.6009506840151
3717.9185,1.0116049726755842,849.1541232760087
3718.776,1.0146252442390942,1048.780572274173
3719.6313,1.0168442771473898,851.5089442215949
3720.489,1.0179984052912128,1028.993493726519
3721.345,1.01869016193058,1228.4768155155684
3722.2031,1.019892567319101,1087.2825855911751
3723.0593,1.0222116452838683,848.4173261228198
3723.9158,1.0255229882748396,1305.9078637593757
3724.7747,1.0291308185095116,824.7167152403681
3725.6316,1.032254528416965,921.1581825496248
3726.4905,1.0345891877963267,899.7772268939771
3727.348,1.0363870319818522,710.5090734546731
3728.2073,1.038208557563158,1050.7649392741494
3729.065,1.0403989101812599,1038.4148508220605
3729.9229,1.0427786803686692,942.354305976607
3730.783,1.04467455087502,837.2320212949633
3731.6414,1.0452819506335096,1138.8387798563274
3732.5017,1.0441426885794092,863.9472021466223
3733.3604,1.0414185254105317,889.519511498879
3734.2214,1.0378642532599438,959.9339106192888
3735.0803,1.0345891620303371,871.1299741909036
3735.9417,1.0325520949588873,1364.9601323691338
3736.8013,1.032243409518949,1053.708526975225
3737.661,1.0335148919605812,1155.9051167445846
3738.5227,1.0357246133327984,1304.2268808272977
3739.3828,1.0379118061901313,1020.9862025487154
3740.245,1.039031873442359,951.0795622944784
3741.1055,1.0381770964968067,878.6657591363796
3741.9683,1.0349547791378182,770.358265149262
3742.829,1.0298925913692163,857.7382880267595
3743.69,1.0244965772932146,910.3783813463399
3744.5532,1.020830427246633,734.0645806563983
3745.4148,1.0206664210338365,930.5348662146023
3746.2786,1.0245980988843502,1053.6439672544384
3747.1404,1.0317561010378418,1085.7429052728312
3748.0044,1.0402958992421176,971.84778594048
3748.8667,1.0481111036932866,929.680266047486
3749.729,1.0537596257222188,779.9569589326675
3750.5938,1.0567665843914757,959.7639441815417
3751.4565,1.0574086174248871,1007.6904483354523
3752.3215,1.0562682397407077,755.0340334055635
3753.1848,1.0539518820407925,793.7263526814218
3754.0503,1.0511907928183128,1017.1263198350912
3754.9138,1.0489715443670808,1068.0672740633263
3755.7776,1.04821158432847,977.503676248177
3756.6438,1.0492855925540447,1039.4874547898844
3757.508,1.0517311908610725,853.4770431260984
3758.3745,1.054548699835247,849.9934310803241
3759.239,1.0568379730984627,958.0737168751438
3760.106,1.0583831688761056,969.9959487307017
3760.971,1.0595492779343818,1097.817072375927
3761.8362,1.0607464174530643,955.8650165702641
3762.7036,1.06194347296367,1127.118049587091
3763.5693,1.0627196447672058,752.0940955065374
3764.437,1.0626606850027656,889.729483291348
3765.3032,1.061541955686863,859.9145339649027
3766.1714,1.0592209454615171,913.0980345792514
3767.0378,1.055633945424589,1015.6376909057749
3767.9043,1.0510684526915781,1216.6712920253908
3768.7732,1.0464678819778495,850.1410195466676
3769.6401,1.0432741691737297,1068.4250920955878
3770.5095,1.042618709601866,1066.568403168218
3771.377,1.0446800940000258,946.9209252726598
3772.2466,1.0486093341406093,864.6479048709302
3773.1145,1.0531202281087249,736.6662947434063
3773.9824,1.057355107147465,938.4109036055896
3774.8528,1.061295638413701,811.5665805734678
3775.721,1.0655179458456088,892.778532730083
3776.5918,1.070615934221774,931.4477011415146
3777.4604,1.0765017019168186,787.3593640554446
3778.3315,1.082429737387968,738.9763397810591
3779.201,1.0873445185715547,858.1311034634632
3780.0703,1.0905575557524885,797.3335547338254
3780.942,1.0919117236013862,852.313512848632
3781.8118,1.0915942036527653,837.8762599401018
3782.6838,1.0898900386973618,1006.0935716330919
3783.554,1.0871235880258474,845.8348914999698
3784.4265,1.0837256947639196,840.0313350095508
3785.297,1.0803457583025489,971.0394520915522
3786.168,1.077674452702439,858.8160852229094
3787.041,1.076167127136356,902.7473975251658
3787.912,1.075728497958547,1025.894679956664
3788.7856,1.0756604116157604,797.1654136635168
3789.6572,1.0750469025570877,898.6009962562329
3790.531,1.073252324791229,883.7137236599469
3791.403,1.0702121644122051,901.3654264966569
3792.2754,1.066325005515793,758.4523286542113
3793.15,1.0621423878079572,839.6187272350938
3794.0225,1.0580476024201313,881.4983350506818
3794.8972,1.0540038026693057,1060.5509731981904
3795.7703,1.0498175587931993,872.1494068028398
3796.6455,1.0455106998204433,783.6108227281745
3797.519,1.0416662526118183,966.8057684230192
3798.3926,1.0391778988330487,1017.1206308274016
3799.2686,1.038866217560041,925.5954385498771
3800.1426,1.0411840614241548,841.8015322205916
3801.0188,1.0461513228341017,1014.0608301302823
3801.8933,1.0533207662864634,944.8756134147678
3802.77,1.0619156360724926,1144.717565880357
3803.6448,1.0708548200191037,1115.4633933321427
3804.522,1.0791043693238946,1081.659270768143
3805.3972,1.085684056533491,841.657032616773
3806.2727,1.0899651248174966,799.9206970736878
3807.1504,1.091728118097628,993.5540027230784
3808.0261,1.091252183978661,878.7383279053424
3808.9043,1.089292357037787,781.4496107211785
3809.7805,1.086944523842059,783.7157665149066
3810.659,1.085377626645142,993.1996557250366
3811.5356,1.085506192774856,751.6922356071892
3812.4126,1.0876133504633114,856.9361545299273
3813.2917,1.0913110766080112,881.4246328597908
3814.169,1.0958124768529733,789.1464338899741
3815.0483,1.1004322028243527,1190.298263433676
3815.926,1.1047047986223433,800.0951235980208
3816.806,1.1083594029840296,780.1260500910746
3817.684,1.1110841840018575,797.1005630893981
3818.5623,1.1125735136007722,790.5335570583973
3819.4429,1.1126403121201993,803.3897149765806
3820.3215,1.1114145852746684,1051.8769369513257
3821.2024,1.1094055584935254,866.1813144469073
3822.0815,1.1073337404858816,887.1373592606061
3822.963,1.1057126072094778,902.5763309773308
3823.8423,1.1045523122752972,856.2434744333515
3824.722,1.1033552451365491,879.8157932694904
3825.604,1.1015050676904554,840.5076562181195
3826.4841,1.098678907289512,907.1975170474091
3827.3665,1.0948501840456055,822.601796585967
3828.2468,1.0900115447950804,974.7632852663047
3829.1296,1.0838100234480499,811.1235428758832
3830.0105,1.0758063104261257,975.3510950965142
3830.8916,1.0659135785758334,934.1594678661589
3831.7751,1.0548246749331354,739.8752566085996
3832.6565,1.0439516487291438,1037.224973858692
3833.5403,1.034622177104801,923.1946216386609
3834.4224,1.0277842456330775,934.8712104912377
3835.3064,1.0238022044359756,1287.8566523358834
3836.1887,1.022859138314122,959.1087761527123
3837.0713,1.025089328378147,973.6402436613014
3837.956,1.0305765624380445,1097.39780647503
3838.839,1.0391027568085884,803.7678023876706
3839.7244,1.05014049643266,749.5806971303194
3840.6077,1.0627449688514568,785.6721215273018
3841.4932,1.0758838523868934,811.7227694511643
3842.377,1.088351040307105,798.4423558182809
3843.261,1.099111173666118,817.3103463380277
3844.1472,1.1074418030027722,754.7080345735401
3845.0315,1.1131967079399618,990.9216191430845
3845.9182,1.1170225340784055,713.3502415763099
3846.803,1.1199273240567724,831.6058667764232
3847.69,1.1228162864691995,751.3501240166605
3848.5752,1.1260391802116034,907.3207029798533
3849.4604,1.1294206241850122,786.4993920913844
3850.3481,1.1324958688474087,876.1877251389676
3851.234,1.1347943621280863,636.876307848981
3852.122,1.1361168083451036,662.6899871145102
3853.0083,1.1365563051059009,720.7024533449581
3853.8967,1.136434911296597,841.0202613510952
3854.7832,1.136157162965933,651.7373474606301
3855.6702,1.1361266178325469,813.5666011476882
3856.559,1.1366834261655057,794.0112050703168
3857.4463,1.1379985257608827,799.3864099379466
3858.336,1.140016841729989,688.0915352795078
3859.2234,1.1424836836510626,891.8670194644636
3860.1135,1.1450969438082967,832.1754876279426
3861.0015,1.1474765674656031,852.5270800156012
3861.8896,1.1491536355072325,883.0546667124491
3862.7803,1.1496110273827058,754.973002791753
3863.6687,1.1485829508234018,710.3734447878655
3864.5598,1.1463288555003934,792.6710178244203
3865.4487,1.1435962887223543,916.4600567124587
3866.34,1.1412091634015988,769.4172091078074
3867.2297,1.1397314543507842,944.5109735868048
3868.1213,1.139217190851833,762.3857407109992
3869.0112,1.1391871609959272,818.7996585808594
3869.9014,1.1387718464249466,957.2858674188917
3870.7937,1.1371489765071348,752.0622327201751
3871.684,1.1340916501511331,717.2310986399049
3872.577,1.130121355126686,716.6098737831683
3873.4678,1.1262003547870114,857.717706230057
3874.361,1.1230522430787626,777.2353602852195
3875.2524,1.1208608470904797,767.4013839360995
3876.1438,1.1192764213464403,696.2588830967071
3877.0376,1.1177494396173335,734.9984002179158
3877.9297,1.115807014243398,792.6576943890527
3878.8237,1.1131489360573699,835.4769582841967
3879.716,1.1096931094297198,799.764552770313
3880.6108,1.1054731352864338,997.5573827828962
3881.5037,1.1005970892449672,1042.9649029506768
3882.3965,1.0950496992202876,713.230233682473
3883.2917,1.0886109884194688,848.1486961093669
3884.185,1.0809223741160128,809.9376382759035
3885.0808,1.0715405412644285,873.6559928793932
3885.9746,1.0604404448891611,923.5439694605694
3886.8706,1.0482319800634898,934.0941431701721
3887.765,1.0365261308178737,848.3111015330575
3888.6592,1.0274321107023021,976.9827246936973
3889.556,1.022896867660324,1092.4420682565703
3890.4507,1.023995166709127,880.3532323420521
3891.348,1.0306932138147054,1000.3025718310676
3892.243,1.0422157075462264,975.583550526535
3893.1406,1.0576573317346722,792.6511965166595
3894.0361,1.0758063129243507,824.9496885141006
3894.932,1.0951455624012425,784.8493384906429
3895.83,1.1137166774383511,791.8894346231689
3896.7263,1.1295609422634183,871.4238230732929
3897.625,1.141805815491565,615.3987650935595
3898.5215,1.1505532387435011,817.7034087887369
3899.4207,1.1565113755599985,757.3867164091723
3900.3176,1.1600712137498084,904.6488064472443
3901.2148,1.161373894579082,671.3271683171339
3902.1145,1.1607675735960457,825.1337173908892
3903.0122,1.1591990143106696,798.2980401754913
3903.912,1.1578793465881745,721.546666141444
3904.8103,1.157624930469184,616.1597060806962
3905.7107,1.158512760955321,856.442362376293
3906.6094,1.1601463428156849,822.6978756502214
3907.508,1.162120105040761,712.9311759727566
3908.409,1.164180804348119,852.9475521104496
3909.308,1.1660392652631042,650.3080976755253
3910.2097,1.1672767507827355,707.3483957957981
3911.1091,1.1675618850873948,757.9286706237672
3912.011,1.1671418052347526,664.7390433790453
3912.9111,1.1669727853341105,888.1616971374976
3913.8113,1.1681708166769251,793.1655284196449
3914.7136,1.1711514079083638,827.9073818644798
3915.6143,1.175203139079541,605.7133154247992
3916.517,1.1790298465998854,712.3949092083126
3917.4182,1.1816682068368924,644.9454259353756
3918.3215,1.1831693151303952,741.6926335358856
3919.223,1.1843407883038022,811.3761056542056
3920.1245,1.1859695747750572,698.2612724864931
3921.0286,1.1881375626167885,778.3305317974759
3921.9307,1.1902373123045396,646.3519663225533
3922.835,1.1916881305130385,597.2479329143647
3923.7373,1.1925433441558897,763.2584860133004
3924.642,1.1934724981331224,798.3121361754695
3925.5452,1.1950919864939649,827.837300927414
3926.448,1.1974225783886967,719.1837121154485
3927.3535,1.1999070114845434,732.7765797114764
3928.257,1.2017611172166651,736.2722812499443
3929.1628,1.2022929095825465,806.9957014861682
3930.0667,1.2009251417251765,667.9383159504063
3930.9731,1.197252112513251,685.9467842645558
3931.8774,1.1913097205124965,696.2215262632442
3932.782,1.18379863711849,775.4639814757843
3933.6887,1.1761067410540156,676.5316268466125
3934.5938,1.1699178693879275,738.006155934633
