wavl,flux,ivar
3566.9744,2.428810897010615,164.95940559542734
3567.795,2.427541446379233,166.50449087439773
3568.6177,2.427430085168085,128.19691656412135
3569.4385,2.425464778845672,153.236511157207
3570.2617,2.420049959941621,138.6038168828137
3571.083,2.4122330911055387,140.89625632082632
3571.9065,2.4046220428499163,153.4578472218904
3572.7283,2.3992905037082615,152.4555650443086
3573.55,2.396117140644796,167.61804987701274
3574.374,2.393298275846484,141.317965826531
3575.1963,2.3892092202284045,236.70699379097468
3576.0208,2.383766425762586,142.57420225918216
3576.8435,2.3782551759703607,181.4109760484561
3577.6682,2.373909430145929,160.68741221987716
3578.4915,2.3711343413522905,158.15931027830925
3579.3145,2.369756499182905,147.79519832817672
3580.14,2.3697811575254755,155.6792030883817
3580.9636,2.3713692376371114,164.8151939517105
3581.7893,2.374085407955007,140.9204306411051
3582.6133,2.3764739724696935,148.92351995083473
3583.4395,2.376809504267431,150.0920776271032
3584.264,2.374333446238492,159.8044134647394
3585.0884,2.369809408142907,188.90532354681366
3585.915,2.364778742586645,275.26991033582914
3586.74,2.3604181351416296,157.46928798872068
3587.5671,2.356970372946448,143.90919179685287
3588.3923,2.354345604360272,134.33882255736282
3589.22,2.3527929739636604,130.5281650333783
3590.0457,2.353002331255425,133.36995335696466
3590.8716,2.3553050435149756,183.15518268698716
3591.6995,2.3588395150389787,181.7017439515255
3592.526,2.361480301440587,185.04511360536623
3593.3542,2.361023543482288,173.93024684514822
3594.181,2.356710839607906,145.11028449174586
3595.0098,2.3497854772442026,169.14819570862062
3595.8367,2.3425339324215315,176.43584100626083
3596.6638,2.3364689209397507,149.4160571307384
3597.4934,2.331671915692288,188.31664718039025
3598.3208,2.3277056649389865,144.6314350305031
3599.1506,2.324839095933901,166.46708724645922
3599.9788,2.3242020144547757,183.52289163048744
3600.8088,2.326377422654711,146.1146525990993
3601.6372,2.330224905496191,213.3773423229676
3602.4678,2.3334057734639404,152.90006527238336
3603.2964,2.334159500863647,134.65160465262488
3604.1252,2.3326668048128947,177.76410170237793
3604.9565,2.3305368641667847,152.90010635939953
3605.786,2.329199419303908,183.24008098940794
3606.6172,2.3286748008313722,142.96124437567323
3607.447,2.327789637202387,204.58651811407472
3608.2788,2.3252914842839023,189.80549934755274
3609.109,2.3209133461103653,139.64747722284548
3609.9392,2.3155372032637858,193.90563470041553
3610.7717,2.3104806821237176,162.2613542794869
3611.6023,2.3064966995698666,161.01191326330823
3612.435,2.303243222610661,166.00464835534427
3613.266,2.299921562702621,155.6018885924993
3614.0994,2.296159953661161,164.06573086944763
3614.9307,2.29246102175572,168.80685770230204
3615.7625,2.289654038461357,159.66054873564346
3616.5962,2.2881294476864587,182.4830983362547
3617.4282,2.287377156544476,176.80879831113268
3618.2625,2.2861739026386085,154.52359455052274
3619.0947,2.2834122320001744,149.09250972169343
3619.9292,2.278975589927584,189.27318228629602
3620.762,2.2740345033132456,162.1001867211821
3621.595,2.270134547397099,179.9139844563454
3622.4302,2.267878023023176,161.4624561493823
3623.2634,2.266279634512328,174.45441379142324
3624.0989,2.2634640291979564,159.8251057399213
3624.9326,2.2582193739049212,164.65179315276393
3625.7686,2.250856421286613,198.50477348433506
3626.6028,2.2429014283049113,202.68365066780177
3627.437,2.2357792986721026,197.8803214127049
3628.2734,2.229945721154447,193.40658387468272
3629.1082,2.22490847206429,177.16366542687484
3629.945,2.219799556762569,160.8879419290912
3630.78,2.2142467240908075,186.1398435043102
3631.6174,2.208582888602394,193.8610244658356
3632.453,2.2035704152746614,168.94083454129688
3633.2883,2.199510281955073,162.79299941335915
3634.1262,2.1958703709031915,214.4160332585838
3634.9622,2.1917884225442315,207.2378536070987
3635.8005,2.187004670902853,206.9894904325289
3636.637,2.1824063251526744,159.52389855566813
3637.4756,2.179163946902069,170.48267044022595
3638.3123,2.1774299868832965,183.42911959922196
3639.1492,2.1757704731095298,188.60193231701237
3639.9885,2.17222197102163,225.0053104658221
3640.826,2.1658666148913315,186.9228588811656
3641.6653,2.1572766622952475,184.96670053772866
3642.5032,2.1479051876068334,206.39284528870624
3643.343,2.139114376287778,190.16306037374216
3644.1812,2.1320834948950904,239.14532157532614
3645.0195,2.1276533343904602,229.5232718035384
3645.86,2.1260503898534355,214.4426427282409
3646.699,2.1264542795500705,199.87048637192478
3647.5398,2.127158832036465,163.32964109108875
3648.379,2.1264363579586485,169.42662050436056
3649.2202,2.1233959323082643,195.235888175997
3650.0596,2.1182590639399015,200.37228660564006
3650.8994,2.112020711220144,227.9172506708621
3651.7412,2.1061392222573865,182.20632426175985
3652.5813,2.1023343675425497,188.5450033824767
3653.4236,2.101910313430505,224.50617715196552
3654.2642,2.104717820043333,275.34544714859055
3655.1067,2.108448592885755,183.1932087481273
3655.9475,2.10943724101153,208.03471067510324
3656.7886,2.104866124521102,231.7570481201937
3657.6318,2.094534905598753,191.02557499465962
3658.4734,2.081058071289982,217.34722818586897
3659.317,2.068100059662075,208.5905946270938
3660.1587,2.0586729710943166,228.3967907126699
3661.003,2.053912149287439,296.0317176446785
3661.845,2.053330642672949,217.86228404184766
3662.6875,2.055469572133771,202.6353272443818
3663.532,2.058765950965478,240.5160548466603
3664.3748,2.061900221911195,182.46132779753162
3665.2197,2.0638034966420014,200.71823742659654
3666.063,2.063543506275531,202.73004333161978
3666.9084,2.0606545601340853,242.0547882694368
3667.752,2.0556568533224318,193.41417868101215
3668.5977,2.050076719680864,255.968152677691
3669.4417,2.045804031534894,204.75222541233285
3670.286,2.0439488144591116,196.66802300937883
3671.132,2.044361447279586,178.09043748515217
3671.9768,2.045938642419573,232.12354287363928
3672.8235,2.0473726368957137,224.82756107140727
3673.6685,2.0476562316609033,209.9542806966332
3674.5156,2.046204675424124,204.67181780538726
3675.3608,2.042783969098292,232.40617954881213
3676.2063,2.0374939278992388,220.7483431763983
3677.0542,2.030866722271948,236.0570683885976
3677.9,2.0239575449226406,195.63245911058505
3678.748,2.01792243292236,217.95483320520106
3679.5945,2.0136124344078166,241.98951983170684
3680.4429,2.0110840880179626,278.3518533009555
3681.2896,2.0098004959989657,215.20044889082465
3682.1365,2.0090547961317005,207.56482796801612
3682.9856,2.008364150794976,213.9027407658386
3683.8328,2.00757360324654,204.13392587865678
3684.6824,2.006832013224758,258.8160915410893
3685.53,2.0065038707146012,247.87038667750267
3686.38,2.006850959012401,214.60640726866671
3687.2278,2.007711075810901,205.2026644062565
3688.0762,2.008561290943049,176.6708402853822
3688.9265,2.0089636220610587,209.94669213245598
3689.7751,2.0089277603524023,189.2812084241706
3690.626,2.0088376256887885,234.9185040962832
3691.475,2.0090529972192392,207.89446372609777
3692.3264,2.009570556518416,234.26713500441056
3693.1758,2.0099907365332705,190.23600037844577
3694.0254,2.009776276993597,234.21252431608184
3694.8772,2.0085171110784654,259.4318045531692
3695.7273,2.0060447627139073,220.74850590734513
3696.5793,2.002405699379045,190.89252801386698
3697.43,1.9979564676470976,248.11053070863332
3698.2825,1.9933033962441786,240.60319160065393
3699.1333,1.9890727589733572,243.14284703460746
3699.9841,1.9854498257947728,222.93202807855695
3700.8374,1.9822122496422008,215.550944923838
3701.6887,1.9791585856648546,260.3224060108068
3702.5425,1.976293772662671,259.65897235249963
3703.3943,1.973698959062603,224.64500117499904
3704.2483,1.971219688691329,223.48094925481814
3705.1003,1.9685442721813264,207.39291947738303
3705.9526,1.965288690971663,223.8015117137889
3706.8074,1.9610208514991039,217.45436496940204
3707.66,1.955399843047325,267.9563207848651
3708.515,1.9484834206695256,230.83930450355356
3709.3682,1.9411807094121964,311.8681282163669
3710.2234,1.934799073481542,221.56024702931322
3711.0771,1.93024106329023,242.66616990714164
3711.9307,1.9272856497668696,264.41505639797583
3712.7866,1.9249489138269096,297.83922640524514
3713.6409,1.9223792215453075,220.7465282806641
3714.4973,1.9193819940936152,227.93840740005533
3715.3518,1.9163693061442273,279.70985187403875
3716.2085,1.913924587930049,245.88500776841647
3717.0635,1.9126432207070232,221.88629401244305
3717.9185,1.9130325651022633,262.17249795224143
3718.776,1.9153731254878326,237.41370690039483
3719.6313,1.919370868373522,241.78433411153546
3720.489,1.9240784451571797,269.5229203119946
3721.345,1.928162531318503,227.92566016696912
3722.2031,1.9306038437689905,245.13090780527995
3723.0593,1.9310497963153685,248.03931749991102
3723.9158,1.9297466713637612,244.03610333653117
3724.7747,1.927081486528524,244.52708493252527
3725.6316,1.923380984526968,233.95957606948463
3726.4905,1.9189681715055285,260.5388972171368
3727.348,1.9143501969855645,237.50561434977024
3728.2073,1.9099480131885371,234.77702444552486
3729.065,1.9057930254029387,243.24290382388094
3729.9229,1.901422110457759,245.19583797836577
3730.783,1.8963618562603801,249.74086289160425
3731.6414,1.8906659478055279,277.38877159702685
3732.5017,1.8848768926433446,311.06600409893764
3733.3604,1.879772943130647,258.8359009302052
3734.2214,1.8759455131658023,245.84775892995341
3735.0803,1.8736855855823902,245.5006420456309
3735.9417,1.8727215978573846,233.47549192286297
3736.8013,1.8722577208396598,221.97061970494454
3737.661,1.87136386786867,276.18698317910275
3738.5227,1.8695932708255112,253.30352002465722
3739.3828,1.867196733409006,261.2947572250588
3740.245,1.864656526088624,293.0387879841674
3741.1055,1.8621214785303464,237.63844094353135
3741.9683,1.8592136711539289,249.74783319338042
3742.829,1.855542699031301,297.3462003019098
3743.69,1.8513007072680037,243.04519346993698
3744.5532,1.847507796466533,238.36496556378995
3745.4148,1.8455563151379846,302.5829237376509
3746.2786,1.8462010674668592,229.94534614713612
3747.1404,1.8488877433747744,279.87607534532515
3748.0044,1.851925400966754,250.05880255917356
3748.8667,1.8534320837236833,291.17694169053806
3749.729,1.8524795047081968,271.0072427916679
3750.5938,1.8494830569303,265.37216915431947
3751.4565,1.8457305961569899,214.60241071425003
3752.3215,1.8423541151459168,270.98068374123596
3753.1848,1.8398184273390132,283.37064334098704
3754.0503,1.8380946675295893,223.50752206720793
3754.9138,1.8372664817271966,275.75101450755665
3755.7776,1.8376288607344384,270.0906319858423
3756.6438,1.8392628123725976,298.7988469116434
3757.508,1.8415305601371004,219.97358031906725
3758.3745,1.843137523094147,282.7026098821853
3759.239,1.8426136430176072,276.50815592950363
3760.106,1.8388952519045727,236.20138842552524
3760.971,1.8317005845239425,254.11645980012472
3761.8362,1.8216076358687046,297.39255783806095
3762.7036,1.8099609743527831,262.46687959263784
3763.5693,1.7985897584035435,257.2602705084093
3764.437,1.7890294769969717,261.9188149175993
3765.3032,1.782204970981308,267.6979092647085
3766.1714,1.778125359498653,294.8231533337131
3767.0378,1.7761274916276621,269.47088150284424
3767.9043,1.77513583348951,260.57917943522386
3768.7732,1.7742152030033356,293.41527239642835
3769.6401,1.7731050706781075,286.70561180825416
3770.5095,1.772282037708221,293.30769992904345
3771.377,1.7723542436317719,281.45381221775983
3772.2466,1.7732647566989281,286.2335848658134
3773.1145,1.7741947490324763,221.40901606634446
3773.9824,1.7742915301633702,389.1328683884525
3774.8528,1.773434009651445,286.58426723438754
3775.721,1.7723409780864101,278.74307500420235
3776.5918,1.7719919998147957,215.63690870127405
3777.4604,1.773029663768759,279.6030023422574
3778.3315,1.7756018441936414,255.4976970885854
3779.201,1.7795443352821194,268.0973506889963
3780.0703,1.7845218821966142,291.17606317569556
3780.942,1.7898865805462176,273.34151668279014
3781.8118,1.7946047404542618,248.2610374921033
3782.6838,1.797698625098935,311.2642694483429
3783.554,1.7985949282170957,255.34486473291022
3784.4265,1.7972131086131364,272.58756555287266
3785.297,1.7936978169427886,241.09618268598877
3786.168,1.7882638947184515,255.89663965244208
3787.041,1.7812133028649844,263.48572528907243
3787.912,1.7729619276587638,299.2779652026673
3788.7856,1.7637687097554828,270.0342346917183
3789.6572,1.7538764920344585,318.55285348480686
3790.531,1.7435205110133507,291.9509257992917
3791.403,1.7332687010017245,292.2717243717675
3792.2754,1.7237125612182929,351.1722525964054
3793.15,1.7151568233532626,236.7887053167038
3794.0225,1.7074079119870644,302.9367819461231
3794.8972,1.6997778693572103,264.1928219952855
3795.7703,1.6917362523028194,347.7144580655
3796.6455,1.6832869761871136,374.27547451484077
3797.519,1.6752680264894264,319.3844093675663
3798.3926,1.6688671529889791,384.78757182876154
3799.2686,1.6650720757299062,377.0144348304937
3800.1426,1.664244085714436,366.5860312861283
3801.0188,1.6659933617400258,298.5380942579873
3801.8933,1.6694096479120768,404.5639766293971
3802.77,1.673463338941936,334.5031907802662
3803.6448,1.6774930754197326,350.5728579983347
3804.522,1.6817482209319015,330.16483049575527
3805.3972,1.6872676927752035,397.6233396006172
3806.2727,1.6952648892253985,319.9601681682862
3807.1504,1.7062294690863238,241.45196917023867
3808.0261,1.7193633358577631,334.0642795504058
3808.9043,1.7330419158182027,299.3791537392735
3809.7805,1.7454231796245898,239.704818434905
3810.659,1.7556096865390598,247.34722792669353
3811.5356,1.7637417683217809,287.0585401574149
3812.4126,1.7706466321370533,241.22985061632195
3813.2917,1.7768727546777232,260.64588964022744
3814.169,1.7821807133948562,267.0658466565141
3815.0483,1.7858376193992205,308.1205633684304
3815.926,1.787028833489799,258.81103482713104
3816.806,1.7852802784912685,259.74481895000366
3817.684,1.7805766585296392,289.9886510545196
3818.5623,1.7733492535895092,296.75817827036315
3819.4429,1.7643065604930936,262.8045220010886
3820.3215,1.7542411894875563,343.3884569887721
3821.2024,1.7436224935639966,334.79857427386696
3822.0815,1.7327673406019621,322.5297817401708
3822.963,1.7217476138081105,277.01702639333377
3823.8423,1.710515113598095,301.77509796427313
3824.722,1.698558953819384,275.48877098123194
3825.604,1.6851250707167593,298.42579203476424
3826.4841,1.6698886342077597,331.08744709321434
3827.3665,1.653161800673869,325.61771499004936
3828.2468,1.6359291975793038,281.17959723985064
3829.1296,1.618721775506102,343.5159877263845
3830.0105,1.6013502710313918,368.9221747613307
3830.8916,1.5828648574445574,350.7777052317232
3831.7751,1.5626325434991042,361.8140965635642
3832.6565,1.5413616696168038,449.4359557522636
3833.5403,1.5207950614461112,443.2712658653241
3834.4224,1.5034461177201741,387.30494610976496
3835.3064,1.4913771910925073,487.96797656467925
3836.1887,1.4858887697992684,364.79566849662564
3837.0713,1.4870495589548527,397.68978212837766
3837.956,1.493901064862656,369.86420850021716
3838.839,1.5048856654319582,398.17497268066523
3839.7244,1.5187952974139132,354.23965466142164
3840.6077,1.5350719052612054,433.529888363228
3841.4932,1.5537942042837758,409.30304928835136
3842.377,1.5747172354815018,406.0598529771759
3843.261,1.5971752437515945,409.13235183005037
3844.1472,1.6200513779925727,309.15321335407094
3845.0315,1.641846572811779,313.20376133585853
3845.9182,1.6613181534216572,388.13032633930464
3846.803,1.6774615786645104,303.6335506899503
3847.69,1.6902833260074144,328.2469420616917
3848.5752,1.7005287850300215,298.5867258720402
3849.4604,1.7094456610749151,384.3058575758926
3850.3481,1.718110557654368,296.6010299935489
3851.234,1.7270902747818457,282.0561533005127
3852.122,1.7366745717180332,260.2822286988559
3853.0083,1.7468072012248803,275.90920685756885
3853.8967,1.7571887082098665,288.4540636183658
3854.7832,1.7670052687647977,283.30678272391845
3855.6702,1.7753581143984016,265.5748983731222
3856.559,1.7817016636648328,271.4391566113068
3857.4463,1.7861677152158066,254.5246263041942
3858.336,1.7894521651473678,249.4986351415245
3859.2234,1.7921960513539217,306.4575975337476
3860.1135,1.7946195169541295,300.39834897966364
3861.0015,1.7963344009176059,326.86903991344997
3861.8896,1.7965268135574914,300.49379804711435
3862.7803,1.7942156470029644,277.17533517399266
3863.6687,1.7887271362075805,277.34603207982235
3864.5598,1.7800904622615181,252.3694020377226
3865.4487,1.769302729978895,303.0008301630076
3866.34,1.7576978913757564,293.02044933665064
3867.2297,1.7463098695623638,272.5068979276565
3868.1213,1.7351527171545622,298.6346406915812
3869.0112,1.7237097131075747,308.1803884705795
3869.9014,1.7115328821737652,292.3071356438311
3870.7937,1.6987305611162127,341.2664599653486
3871.684,1.6857887553510706,325.63390274440496
3872.577,1.6727851429598828,315.43161282854965
3873.4678,1.6593565439283535,323.75492472841705
3874.361,1.6446391078170173,333.09344361752807
3875.2524,1.6279877405146002,345.49176211285027
3876.1438,1.6090775123874845,335.3885550467668
3877.0376,1.588017481143089,345.583796616329
3877.9297,1.565310949972231,400.2119215996874
3878.8237,1.5412111207598016,409.28646154180973
3879.716,1.5159314295158828,406.38580176460914
3880.6108,1.4892660331652456,472.9191380640981
3881.5037,1.4612359527405085,432.2842482406555
3882.3965,1.4318985556594177,393.7230302282408
3883.2917,1.4016849455360043,447.5640512265994
3884.185,1.3716053523094578,409.9697805111991
3885.0808,1.3424078117286915,513.1943833837972
3885.9746,1.3148235074732302,501.21045767440484
3886.8706,1.2890654896322993,571.1798507249717
3887.765,1.2659492043152358,549.8667034027839
3888.6592,1.2471645943487815,612.4750458289224
3889.556,1.2353675133689976,650.0909659753131
3890.4507,1.2330506019575178,746.5538355261546
3891.348,1.24093924974128,530.6664999243595
3892.243,1.2575892775854285,566.0145681212329
3893.1406,1.2804607872444371,493.7716507934464
3894.0361,1.3069474900715266,550.6466886515074
3894.932,1.335447011647397,492.7850403972696
3895.83,1.364910800684982,392.6019251847723
3896.7263,1.3940508001673761,456.250166894412
3897.625,1.4218081314346072,371.95938944457066
3898.5215,1.4473268695273502,396.67423624023274
3899.4207,1.470922899287936,387.900975912892
3900.3176,1.493261586657484,433.08291347816817
3901.2148,1.5151903688537383,406.8769402399809
3902.1145,1.537247502108512,365.3881360612689
3903.0122,1.559683967912824,365.4528344885869
3903.912,1.5829482303736775,357.07670529684447
3904.8103,1.6070033398377233,360.22914241005543
3905.7107,1.6314309209056055,321.2968452698404
3906.6094,1.6551426521568287,341.4584516429132
3907.508,1.6772582374533025,286.0031907459042
3908.409,1.6973781958721486,318.63143345959503
3909.308,1.7154926818748881,296.69881306366506
3910.2097,1.7321212398563413,265.3557889956317
3911.1091,1.747861365817008,252.95505224522537
3912.011,1.7636177685116947,281.205891472755
3912.9111,1.779926116071091,289.4348445346788
3913.8113,1.7967222099100768,283.6198000423041
3914.7136,1.81313700941449,236.98586573288347
3915.6143,1.8279264672468076,233.45250502037985
3916.517,1.8405211129927472,285.71875781293863
3917.4182,1.8510948191552774,273.5917845700711
3918.3215,1.8603639491823605,257.0890470765042
3919.223,1.8686875634982028,240.3637950534627
3920.1245,1.8758462854454465,273.4720070382237
3921.0286,1.881133465711467,254.50624199208676
3921.9307,1.883857490395685,275.7291588037361
3922.835,1.8839681723800432,239.3858207120317
3923.7373,1.8822310759820957,224.54306686290477
3924.642,1.8798978100202548,254.09374456861855
3925.5452,1.8779810737422205,268.7890478814094
3926.448,1.87667508134442,257.60867144334264
3927.3535,1.875571059737103,277.75835984327
3928.257,1.8744319993547744,217.446911618958
3929.1628,1.873668598214179,242.12495865894587
3930.0667,1.873970238136217,269.47683207770064
3930.9731,1.8753945427349088,273.5960686817183
3931.8774,1.8769003750076445,233.26485377085945
3932.782,1.876863230243978,269.53914785743257
3933.6887,1.8740625571960239,228.70913839355362
