wavl,flux,ivar
3566.9744,0.8525182845841546,704.382563111504
3567.795,0.8512317860540295,428.49195106896985
3568.6177,0.8482852515981827,392.25565931639534
3569.4385,0.8440408392565238,455.2993704130188
3570.2617,0.8392763028560298,455.62561732884194
3571.083,0.8348750139254941,439.5696513768091
3571.9065,0.8315230652188753,507.22181847310145
3572.7283,0.829720173255142,464.0544205370044
3573.55,0.8295028592370297,571.4676319288
3574.374,0.8302376086075359,446.6456878658855
3575.1963,0.830742955015237,582.7866970573237
3576.0208,0.8298972708917479,465.6971928180202
3576.8435,0.827289333262271,590.301378155578
3577.6682,0.8234516866283648,516.6703351380651
3578.4915,0.8196173225104421,856.3516050879932
3579.3145,0.8170298617023464,421.939161197094
3580.14,0.8163539224375341,517.8081346375493
3580.9636,0.8174677004020476,466.63051183199656
3581.7893,0.8197350207629098,385.50496015739293
3582.6133,0.8224918234036976,604.1937180967926
3583.4395,0.8254426611205563,607.8355347114774
3584.264,0.828668166537979,589.5754604347294
3585.0884,0.8323960774549276,645.8864395557445
3585.915,0.8364869311515771,555.0390828586275
3586.74,0.8400423260407023,423.66546616887234
3587.5671,0.8417104050398488,432.08853592798744
3588.3923,0.8404414052671816,635.0250423526559
3589.22,0.8362445093157206,534.9777288918385
3590.0457,0.8303036949645939,527.9293390489133
3590.8716,0.8243819537392313,411.0560808746692
3591.6995,0.8201300275624755,714.6785884934918
3592.526,0.8185380002773122,740.061675375961
3593.3542,0.8196178457565562,676.9525257309272
3594.181,0.8225483409744755,487.64203768279134
3595.0098,0.8261748366034445,441.5715193449281
3595.8367,0.8295108063736811,579.0687228590863
3596.6638,0.8319599562430274,334.5003215136406
3597.4934,0.8330044718513948,662.1912317801753
3598.3208,0.832021009643883,368.1688346047779
3599.1506,0.8286564465621944,356.41026161349834
3599.9788,0.8234613591755522,453.1290984244285
3600.8088,0.8178985614192221,522.553862380244
3601.6372,0.8136917179876866,960.7294735615595
3602.4678,0.8118316731103814,524.9552507438381
3603.2964,0.8122611145253124,535.0138444918325
3604.1252,0.8141147707751155,525.9437912544435
3604.9565,0.816399791373835,449.820476511562
3605.786,0.8186135050884917,445.02006421461164
3606.6172,0.8210332136514744,646.0139240982593
3607.447,0.82423840360505,558.2269888296036
3608.2788,0.8283031048952598,490.8449314223612
3609.109,0.8322226451009155,630.3624776501777
3609.9392,0.8343754968584706,451.7846611858965
3610.7717,0.833616362450563,520.4187386904616
3611.6023,0.8302774176024486,505.8038097131623
3612.435,0.8260476945336557,515.3913347063706
3613.266,0.8228229454084472,692.0080518930865
3614.0994,0.8213833397747166,662.555813728372
3614.9307,0.821238165817685,545.1154636756406
3615.7625,0.8214541389751472,593.6052671509982
3616.5962,0.8215049001826622,505.4765454652624
3617.4282,0.8212060308884352,528.3176585643196
3618.2625,0.8201315204553378,434.0883890201954
3619.0947,0.8175494257697411,407.93230863762204
3619.9292,0.813084088698432,714.2834246364075
3620.762,0.807407990362169,581.9789772946807
3621.595,0.802006727170902,489.9180590696794
3622.4302,0.798407035568953,513.783708427678
3623.2634,0.7974522727519864,592.2981384387533
3624.0989,0.798998167591446,401.8771360757128
3624.9326,0.8021588715691108,437.3449026200493
3625.7686,0.8057758204250839,477.97847715344807
3626.6028,0.8087256288560162,528.023253820591
3627.437,0.8101208573153305,676.9668218197987
3628.2734,0.809439008426157,449.01826616129875
3629.1082,0.8069003514618254,603.574605954975
3629.945,0.8036385649585862,749.6299382432455
3630.78,0.8012139020453644,624.5361234360735
3631.6174,0.8004839024513115,758.5147456460633
3632.453,0.8009270578793853,458.00230416086396
3633.2883,0.8010028263035844,551.5138981345028
3634.1262,0.7993397856617733,717.664760191573
3634.9622,0.7957410020207444,654.8164160721601
3635.8005,0.7912065939459041,467.6792639407995
3636.637,0.787238256742817,630.7556802180388
3637.4756,0.7848669826883293,668.5069782864247
3638.3123,0.7843102697740745,708.9648135614398
3639.1492,0.7851147981976473,725.4102142090055
3639.9885,0.7866511968013337,488.7990775644372
3640.826,0.7884041411125156,533.4237226102732
3641.6653,0.7900109797622819,462.6989603743174
3642.5032,0.791125083007898,767.9285452163547
3643.343,0.7915001046084682,478.23584394018536
3644.1812,0.7912075939150206,503.3788458564409
3645.0195,0.7907262063884838,547.4636508348236
3645.86,0.790638029802672,513.7907605661792
3646.699,0.7911814262758821,630.2428175460968
3647.5398,0.7921187210257704,493.53962028915817
3648.379,0.7930519456196232,464.70542931752124
3649.2202,0.7938425469906596,588.0476080704526
3650.0596,0.7946494343938887,476.45688118940006
3650.8994,0.7956322785503105,637.2533383614468
3651.7412,0.7966303517819936,593.6188429187353
3652.5813,0.7971248765213145,626.9309777385172
3653.4236,0.7964907494110507,376.89111910650087
3654.2642,0.7943551099590938,397.04157365535156
3655.1067,0.7909164623470747,454.01829566991546
3655.9475,0.7871059582332541,602.7875176375751
3656.7886,0.7843051133090343,541.9685853595034
3657.6318,0.7838215636943474,640.4442982451253
3658.4734,0.7862800517918904,821.2732915360517
3659.317,0.7912993031176798,528.7914271902098
3660.1587,0.7975517006766392,540.895496973499
3661.003,0.8032957202739835,665.6591031214907
3661.845,0.8068916827565383,600.4472146327562
3662.6875,0.8074843944853034,588.1909514638071
3663.532,0.8052492868133521,524.0257179452376
3664.3748,0.8013636643202139,541.7599138549479
3665.2197,0.797443182490043,533.3431685644675
3666.063,0.7948662342116106,497.4271977450462
3666.9084,0.7942317671358665,455.911934910467
3667.752,0.7954533691400364,564.2782089091185
3668.5977,0.7981082300982912,619.5241469857406
3669.4417,0.8015617355084944,480.0063318972092
3670.286,0.8047963584568729,585.8317942364348
3671.132,0.8063527156444998,511.19480405060847
3671.9768,0.8049759497937331,350.67345035473693
3672.8235,0.8006396220728099,802.3071769867947
3673.6685,0.7949028716300439,522.5478006305805
3674.5156,0.7899467368845211,578.8894761967133
3675.3608,0.7872141273518909,500.269543189046
3676.2063,0.7865785930586082,820.3312878082232
3677.0542,0.7868491965709898,440.8444112853296
3677.9,0.7868238378252892,811.055802446051
3678.748,0.7860976683758306,529.0077286417393
3679.5945,0.7851363288090336,598.3112624729822
3680.4429,0.7847360524055602,808.4025960495547
3681.2896,0.785356975715154,683.2155861911923
3682.1365,0.7867244908339112,662.8019697931555
3682.9856,0.7879069495472646,438.68814286711387
3683.8328,0.7877868830175959,504.99887413685406
3684.6824,0.7857708123319467,521.6315084296
3685.53,0.7823015387066753,578.7051756344318
3686.38,0.7786433259336086,557.1953675558536
3687.2278,0.7760795224331166,579.7792906419834
3688.0762,0.775050771872396,367.016720612912
3688.9265,0.775181176142543,565.8103531334749
3689.7751,0.7758902361068173,667.9205126811075
3690.626,0.7768881790099456,543.4324501170979
3691.475,0.7780587628854982,505.9414968022484
3692.3264,0.7790658666438056,777.0959669509158
3693.1758,0.7791751684775394,508.73021412314205
3694.0254,0.7776036894119371,566.3710390845503
3694.8772,0.7741190917568253,641.0318527895295
3695.7273,0.7694852514147962,790.5156047322205
3696.5793,0.7651069305533118,578.0834658390177
3697.43,0.7621602300960284,460.94822269125007
3698.2825,0.7607161399606017,559.9681637012798
3699.1333,0.7598774440458641,624.7028920463292
3699.9841,0.7586593456411689,641.8704362015271
3700.8374,0.7568081619953263,717.9890166877078
3701.6887,0.7548400004919574,879.7102956525232
3702.5425,0.7534809810240921,463.0907680486378
3703.3943,0.7532991209794833,491.52877021180075
3704.2483,0.7546051785853395,718.6805045120424
3705.1003,0.7573822629534385,529.5782080834936
3705.9526,0.7611174722466019,579.9459800578115
3706.8074,0.764823298092471,663.6031504088463
3707.66,0.7674548051691022,594.7212658060943
3708.515,0.7685813655371058,731.2362693392593
3709.3682,0.7685376000044472,636.41596430966
3710.2234,0.7680157938914409,758.0976988479862
3711.0771,0.7673652021817395,630.7842642378945
3711.9307,0.7663085622456144,601.4479451565842
3712.7866,0.7643107635396317,426.875682226871
3713.6409,0.7611711678036248,730.0908012718359
3714.4973,0.7571650088029143,508.4177727238788
3715.3518,0.7528382476114877,637.0715923351295
3716.2085,0.7486498224812768,648.9822680760108
3717.0635,0.7450257419808204,633.8722738443195
3717.9185,0.7424175819892391,622.9494229041042
3718.776,0.7413509222377519,513.4686951136298
3719.6313,0.7422210846529048,784.2772770329263
3720.489,0.744968556135126,698.1894116184011
3721.345,0.7488416745850259,670.6215086176536
3722.2031,0.7524823043639317,632.7345453506784
3723.0593,0.7542698110483288,615.7750023383
3723.9158,0.7530773473239317,548.3225407876516
3724.7747,0.7488974354408702,764.4765714230414
3725.6316,0.7430967290543624,559.3832701682612
3726.4905,0.737738058836011,787.3160610657707
3727.348,0.7345604962450221,723.6393550769734
3728.2073,0.7340946032578692,686.9527689378173
3729.065,0.7357592592484191,686.7762351102311
3729.9229,0.7385663818259514,768.947785290548
3730.783,0.741780186628484,796.6998362497333
3731.6414,0.7449627390177297,638.6457691351592
3732.5017,0.7477359547655534,689.7214139050433
3733.3604,0.7496016011262949,624.6193163417925
3734.2214,0.7501956742556203,646.1792863047153
3735.0803,0.7495054376752788,683.6781202931874
3735.9417,0.7478605360511903,626.5400534869905
3736.8013,0.7457109241749469,660.4265300839013
3737.661,0.7433963031912394,682.8180033790162
3738.5227,0.7411016313809357,630.4421711880015
3739.3828,0.738986138969801,536.7058433294604
3740.245,0.7373206486421494,683.5014488494165
3741.1055,0.7365415439341993,465.40889680492984
3741.9683,0.7369108324769614,671.2738106130238
3742.829,0.7380940473998403,906.8402730466917
3743.69,0.7391487813751985,707.0193415226374
3744.5532,0.7391472515939941,498.357288053807
3745.4148,0.7378927560478048,523.1800821315625
3746.2786,0.7359839179828522,702.385481773771
3747.1404,0.7342170701212278,609.5352719561704
3748.0044,0.7329529109161709,613.4180985510988
3748.8667,0.7320933985760589,531.8096249852844
3749.729,0.7313893303601301,566.1730947077156
3750.5938,0.7306891519191527,699.2825275579944
3751.4565,0.7299551081490269,691.0250962689183
3752.3215,0.7292520907807464,530.3404198317937
3753.1848,0.7288463724388714,493.5908791517974
3754.0503,0.7291638895830749,632.1401733776289
3754.9138,0.7305036657642758,578.1836541618376
3755.7776,0.7327249527713819,762.7232207158752
3756.6438,0.7352715677102464,695.0734890739806
3757.508,0.7375189566677833,562.9758192585931
3758.3745,0.7391844848889251,546.1787869992625
3759.239,0.7403412121853108,678.9342896398499
3760.106,0.7412670999320503,578.4727205846403
3760.971,0.7422159770511296,649.3279441357764
3761.8362,0.7432644109836264,625.1424715000188
3762.7036,0.7441700588005876,652.0372000303786
3763.5693,0.7444371198469562,622.2124215980491
3764.437,0.7437115130231577,595.0703049769021
3765.3032,0.7421999628456483,657.644312460632
3766.1714,0.740655684255226,834.5459069612491
3767.0378,0.739871373900304,695.7522736863308
3767.9043,0.7400653522081408,656.3285173309896
3768.7732,0.7407959933480504,577.6884582019275
3769.6401,0.741424032630139,717.9270880244128
3770.5095,0.7417073573159538,581.6509944739099
3771.377,0.7419092782216616,781.8434718233777
3772.2466,0.7423780976111897,646.3657979351308
3773.1145,0.7430499266967039,513.370106434037
3773.9824,0.743413778066836,573.1881521857854
3774.8528,0.742907687257777,708.4903856590706
3775.721,0.7413352277314847,492.4119362872459
3776.5918,0.7389081382801199,682.7131181685413
3777.4604,0.7360574549295226,760.6987244834629
3778.3315,0.7332173065592068,764.9542159410948
3779.201,0.7309222139124512,515.4646134799532
3780.0703,0.7297974192738922,729.393733611913
3780.942,0.7303610329707974,588.5629202568339
3781.8118,0.7326328897343647,843.7185123892879
3782.6838,0.7360056566783847,646.8898990002922
3783.554,0.7394522638997428,796.2215897070447
3784.4265,0.7419639299202778,520.759557161568
3785.297,0.7427363518669945,695.8433571680281
3786.168,0.741324575903555,490.08653196890816
3787.041,0.7376959742367922,729.4242935151527
3787.912,0.7323527697365168,686.4895841525156
3788.7856,0.7262070813996945,562.5236677484091
3789.6572,0.7204437794895986,774.2440068589272
3790.531,0.7160509000108813,666.5459840298288
3791.403,0.7135533012555002,891.768816895481
3792.2754,0.7127411322197617,701.6489192706483
3793.15,0.7128291058227395,781.3478091605169
3794.0225,0.7128299910802508,665.8162083976807
3794.8972,0.7120160629895235,821.2420049371925
3795.7703,0.7102598148782422,678.8853309960081
3796.6455,0.7081317548606759,783.1604976039534
3797.519,0.7067334962470448,602.4859910755955
3798.3926,0.7071318094731147,747.8499160286011
3799.2686,0.7097530019013997,645.4506835864727
3800.1426,0.7140849774749198,549.456407484441
3801.0188,0.7190647399017787,716.8748198934918
3801.8933,0.723616127277731,804.2465611588724
3802.77,0.727087928907776,802.0155756202862
3803.6448,0.7291394545251609,604.9818101018
3804.522,0.7296347583922967,711.9838096757042
3805.3972,0.7286058421610259,878.4552679399704
3806.2727,0.7264503345256599,772.9723273445308
3807.1504,0.7240442136390007,703.6022538144393
3808.0261,0.7225979314117645,717.8776526641648
3808.9043,0.7231214468942362,737.743322424739
3809.7805,0.7258409297255468,701.8844719715169
3810.659,0.7299013867926026,555.5389471972264
3811.5356,0.7335984276630372,566.9053289167229
3812.4126,0.7352250228232294,682.0414914668211
3813.2917,0.7338876601660398,576.6703761469091
3814.169,0.7299430918499156,562.8297873102872
3815.0483,0.7247395204054647,1124.705170689547
3815.926,0.7200486122771593,569.9571744993152
3816.806,0.7173038037894971,778.9866330347
3817.684,0.7171332928207503,549.0972600413912
3818.5623,0.7190848982792167,591.3272141803727
3819.4429,0.7219020218571502,766.6945925361229
3820.3215,0.7241272173288705,754.763695628362
3821.2024,0.7248379205794169,663.540393854104
3822.0815,0.7239100066367982,638.0438803439204
3822.963,0.721793916211297,734.998005581388
3823.8423,0.719003470939263,779.8559489270286
3824.722,0.7156905640350409,733.245012828474
3825.604,0.7116549039345058,639.492746483998
3826.4841,0.7067167596880151,565.9172464734727
3827.3665,0.7009864086742067,757.2688573837831
3828.2468,0.6950123530351129,786.3606255102527
3829.1296,0.6894271817461627,757.2844026377993
3830.0105,0.684714792423835,797.9482298185532
3830.8916,0.6808892107935122,714.8998975453306
3831.7751,0.6775285232074196,800.4005163844374
3832.6565,0.6739649045115829,877.3660877627115
3833.5403,0.6695242112183187,809.6400736372091
3834.4224,0.6639591000401676,746.1735045674118
3835.3064,0.6576448281961865,1033.7817151979739
3836.1887,0.6516907574052972,953.1081331544501
3837.0713,0.6474897775408619,794.0889287621414
3837.956,0.6461731382674383,891.5093566544319
3838.839,0.6481376517811225,1005.5330109650033
3839.7244,0.6529945328767082,671.7717506839739
3840.6077,0.659816352429275,735.9977795465064
3841.4932,0.6675569818093782,796.668512669001
3842.377,0.67523215180747,650.7531246128383
3843.261,0.6823221243982779,871.9692687121054
3844.1472,0.6888968591543541,590.4572614833845
3845.0315,0.6954248847085839,753.6005012010638
3845.9182,0.7024076774801855,842.4230413890865
3846.803,0.7097987382673473,783.8517867219008
3847.69,0.7170742668477309,805.9448180681477
3848.5752,0.7234212591851309,536.0765042830806
3849.4604,0.7282821809296687,655.9603748611278
3850.3481,0.7315982636478956,893.7363204878293
3851.234,0.7338670104504026,515.5368130109271
3852.122,0.7360060158479982,734.8023634798276
3853.0083,0.7388505670804201,724.2062679505377
3853.8967,0.7427104447457235,614.161635275369
3854.7832,0.7471289575021774,656.425662650415
3855.6702,0.7512530259189875,758.0383957450849
3856.559,0.7543899740507329,570.586828468138
3857.4463,0.7564137278337009,622.4845715006081
3858.336,0.757700694119892,926.9347007164645
3859.2234,0.7585782767313248,573.7233420540664
3860.1135,0.7589702276095667,579.2401432713943
3861.0015,0.7585595085260136,641.6309421958707
3861.8896,0.7573387460197919,618.9722822561351
3862.7803,0.7558448456849656,706.7140686659833
3863.6687,0.7548007441214233,573.6818248418788
3864.5598,0.7544773204009918,648.279685558425
3865.4487,0.7544852614374027,476.8017765524934
3866.34,0.7541029603230419,612.8568981824139
3867.2297,0.7528274082680046,604.5213840053863
3868.1213,0.7506326257820499,658.7837880572886
3869.0112,0.7477818709714209,751.7322265008706
3869.9014,0.7443113607492816,670.2739757163994
3870.7937,0.7397259157363103,552.6378058418285
3871.684,0.7332535708979013,554.730998222341
3872.577,0.7243891637481664,686.6106176643237
3873.4678,0.7135657898680341,576.6754041495499
3874.361,0.7019807398314611,730.5568089172898
3875.2524,0.6912502674400034,609.3665097449683
3876.1438,0.6825188505567884,881.3942665928338
3877.0376,0.6761080272547941,853.289194903637
3877.9297,0.6715320863876604,739.1124036683832
3878.8237,0.6677369710457981,696.8659396977945
3879.716,0.6636574751727974,796.4620672177149
3880.6108,0.6584645316140705,752.7873622433206
3881.5037,0.6517275975676519,962.5738844645551
3882.3965,0.6433089523910287,775.9406481317789
3883.2917,0.6334100922910667,854.1396334087777
3884.185,0.6226915504308657,885.6175811179943
3885.0808,0.6119323014350954,980.317922073727
3885.9746,0.6019238693696064,1082.2366469534734
3886.8706,0.5930934858630628,825.1688182205253
3887.765,0.5857697054499439,1372.648838024708
3888.6592,0.5801995628494734,832.0592987505566
3889.556,0.5766301766377058,1264.7650057474402
3890.4507,0.5752070955924745,1362.48794792081
3891.348,0.5758603460078492,1051.7684114608564
3892.243,0.578429740722278,1442.3687264496396
3893.1406,0.5828575403810147,784.1167703469583
3894.0361,0.589202824094566,1338.2880341659047
3894.932,0.5975554534076,1203.0700089707623
3895.83,0.6077135539011485,1327.4109501178452
3896.7263,0.6188900184109509,758.937422021733
3897.625,0.6300573046492666,1002.7549750647819
3898.5215,0.6402637743708192,866.3549992730964
3899.4207,0.6493488912048488,1034.5053328445972
3900.3176,0.6577282998009054,907.7426104376157
3901.2148,0.6660604084629255,687.7579251504031
3902.1145,0.6746548994547138,865.7380704450555
3903.0122,0.683387951391961,684.9750593861621
3903.912,0.6922093951046456,854.2165984253895
3904.8103,0.7011953959221918,784.7271296241304
3905.7107,0.7104896081382251,685.7884404635971
3906.6094,0.7198091079139062,644.4293372966351
3907.508,0.7285604170574925,729.6743707239469
3908.409,0.7361031162815824,630.7978528649855
3909.308,0.7420721588818141,565.6603334143318
3910.2097,0.7466794472308046,553.0195193764954
3911.1091,0.7505420983746555,707.2112772174285
3912.011,0.7544758438866787,742.5065438819303
3912.9111,0.7589878607379028,454.22367639245
3913.8113,0.7640758807711333,629.4874916700594
3914.7136,0.7693098012546369,536.4413518019038
3915.6143,0.7741618075776722,580.902943079461
3916.517,0.7784172885404423,532.385995588825
3917.4182,0.7821734272697024,502.92072259652423
3918.3215,0.7857767279138514,566.7619581635055
3919.223,0.7895520189789125,589.7777239249407
3920.1245,0.7937115218179812,624.3447320169561
3921.0286,0.7982833872114312,497.0222935264749
3921.9307,0.8031093650501884,473.9345187208893
3922.835,0.8079833383273904,447.5315124511712
3923.7373,0.8126046084021636,517.4070267723962
3924.642,0.8166898225636673,637.522469066634
3925.5452,0.8199213887171019,528.0938811780128
3926.448,0.8220544732454141,552.92830097049
3927.3535,0.8229110428012794,557.2809675569057
3928.257,0.8224111352203183,560.8169697142549
3929.1628,0.8206447840493895,548.4076389547115
3930.0667,0.8179364720347695,623.2601416103521
3930.9731,0.8147943258223155,499.54472646353287
3931.8774,0.8118205987755949,656.4947953530193
3932.782,0.8094380070982828,525.203445257132
3933.6887,0.8077434340778791,660.1464796987129
3934.5938,0.8064905661011271,496.8962680274128
3935.501,0.8052031283072357,579.802618998314
3936.4062,0.8034012632603914,491.2404889772596
