wavl,flux,ivar
3566.9744,7.484111536402048,21.617449305896027
3567.795,7.474568055117265,20.641855752717493
3568.6177,7.457942269833192,15.55285153776664
3569.4385,7.4406839770914,24.609714031754066
3570.2617,7.429423988655149,21.25942963591736
3571.083,7.427999465355913,19.565805764077528
3571.9065,7.433707613083075,23.17395377673941
3572.7283,7.437464546933257,19.043615474852444
3573.55,7.429378021807083,23.361797789266454
3574.374,7.405478960492629,25.293647822541786
3575.1963,7.3701988150552165,18.076177555305048
3576.0208,7.332177021329943,21.29818645019041
3576.8435,7.299252400645471,20.136331498931646
3577.6682,7.274638578104677,23.299046903743125
3578.4915,7.257469297705659,21.750863894728248
3579.3145,7.244214485130169,19.356418825130895
3580.14,7.2313965023451345,20.90036793738961
3580.9636,7.218234615970139,18.458607340090442
3581.7893,7.207657433434786,29.39631245538397
3582.6133,7.205099680013777,26.02203483637411
3583.4395,7.214780662158545,18.5436876886507
3584.264,7.236539271184034,26.474111111587685
3585.0884,7.26571370137538,19.630903888138317
3585.915,7.295969009286588,17.86537383514043
3586.74,7.322458501445307,19.86550481638006
3587.5671,7.3439583289119685,21.14039218323734
3588.3923,7.361453573429978,18.150064945708106
3589.22,7.376363321720805,19.638131436325867
3590.0457,7.388546560635926,23.81583540117415
3590.8716,7.396576067522412,16.541504889359732
3591.6995,7.398758258614655,20.85288602589809
3592.526,7.394343967659565,22.606204178330646
3593.3542,7.38373665901026,18.334989340079172
3594.181,7.368003160927707,26.077700151741798
3595.0098,7.348272244282219,20.495137082569613
3595.8367,7.32617760615001,21.38956324112314
3596.6638,7.303753913436067,19.419312643499314
3597.4934,7.283197579312048,26.424832351880575
3598.3208,7.265938673524509,21.98266420245212
3599.1506,7.25087341861026,17.535815445410783
3599.9788,7.233933737256216,21.153789302183835
3600.8088,7.20890195710137,21.876264098121393
3601.6372,7.171910108172147,18.75338119313923
3602.4678,7.12624162280721,19.631760629902367
3603.2964,7.084701153673045,23.29342353378342
3604.1252,7.063551048163694,24.00989678629751
3604.9565,7.073050327378925,28.599186295236343
3605.786,7.1094808766872335,20.822961706356395
3606.6172,7.15628892497554,21.016833288143552
3607.447,7.1931665410061045,19.752190102322185
3608.2788,7.208323101336132,18.902423580234636
3609.109,7.2037583068541675,21.320085831434618
3609.9392,7.19197654243117,20.207950449931268
3610.7717,7.186294266568871,23.72256552578609
3611.6023,7.192447209077259,23.69998550139554
3612.435,7.206327268101092,18.226945545412807
3613.266,7.2182539894251825,20.878284953833557
3614.0994,7.219876523811886,22.815219856193952
3614.9307,7.208515187385598,20.137301938913822
3615.7625,7.187467269741208,19.61790674067179
3616.5962,7.162927910165678,26.201830695188285
3617.4282,7.140123440010876,20.709766020265665
3618.2625,7.120249082084469,23.99736232913862
3619.0947,7.101477847100212,20.508605210467753
3619.9292,7.081945557040902,19.73714834667094
3620.762,7.06326563962505,21.918485805168196
3621.595,7.050221245495693,20.323475668901786
3622.4302,7.0479893935888995,22.05588008353415
3623.2634,7.058705093907569,20.836605126358588
3624.0989,7.080059036817544,24.059558817394908
3624.9326,7.106060223784629,26.559042479564162
3625.7686,7.129529166476128,19.813779438010584
3626.6028,7.1437570833441635,24.012187728921724
3627.437,7.144443746884255,21.193177512852486
3628.2734,7.130507650953853,20.408669669572625
3629.1082,7.104656143511502,23.149423304358496
3629.945,7.072070330305833,24.912563290125398
3630.78,7.038745336216727,24.96395293287955
3631.6174,7.009295243913077,23.06818923806922
3632.453,6.987454416162693,22.855924665983956
3633.2883,6.976013563634858,21.264109753558113
3634.1262,6.9766160008161515,30.383535439456843
3634.9622,6.987698364397717,20.57596570872705
3635.8005,7.0029697777224955,23.31165622403142
3636.637,7.012717105831825,20.816109359022924
3637.4756,7.009102464889538,26.308813579328444
3638.3123,6.9913366126279275,19.368760929744386
3639.1492,6.96632396119587,23.528238664624386
3639.9885,6.943701324695309,25.298300668250114
3640.826,6.929953993925247,28.538519630927162
3641.6653,6.925669031061732,25.454246929716568
3642.5032,6.927682287583719,24.90475787734905
3643.343,6.931805444331098,22.428868607129843
3644.1812,6.93425093845325,31.659495471887556
3645.0195,6.932439087085503,23.530001908262584
3645.86,6.92642021964548,24.90227181990615
3646.699,6.920080774314819,24.673286416448377
3647.5398,6.919123599992527,19.34338112917349
3648.379,6.926043402393216,23.252951462521846
3649.2202,6.936320128866204,26.75297741377246
3650.0596,6.9405638881624485,12.420980230224679
3650.8994,6.931978154396282,21.94867775195087
3651.7412,6.911716357228852,27.710505198082707
3652.5813,6.887390794324764,34.15379164639028
3653.4236,6.8657882880999,26.884685584919385
3654.2642,6.84827589134299,26.99921119360042
3655.1067,6.83156933106125,25.835229930631684
3655.9475,6.812513112850926,22.392318833901886
3656.7886,6.79017196339181,22.052958746211015
3657.6318,6.764984147056716,21.955263631165096
3658.4734,6.737988451999451,24.577674766247323
3659.317,6.711538479976942,27.69465678588949
3660.1587,6.690838595766311,22.21950479328634
3661.003,6.681655024050237,30.206168908790424
3661.845,6.686623171568496,22.955564062050627
3662.6875,6.702706706398954,21.471817188039257
3663.532,6.723093852295754,27.971715234101108
3664.3748,6.741251200757212,25.421476985855374
3665.2197,6.754457047934373,26.354892624148984
3666.063,6.763455872360826,24.384207339602504
3666.9084,6.770470682098144,24.13594537779264
3667.752,6.777262934207047,23.952243218395765
3668.5977,6.785154315200973,22.43957091678538
3669.4417,6.795270559218191,25.176949687056428
3670.286,6.8083453140199435,25.55351311141547
3671.132,6.823748426400442,23.980016101960533
3671.9768,6.838550566839815,22.473202369830275
3672.8235,6.847636246934041,24.890049185704015
3673.6685,6.844826804523796,21.56214002104262
3674.5156,6.826077568798031,24.83411353714741
3675.3608,6.793198254781472,23.8965302380941
3676.2063,6.754621433363987,24.060839053690227
3677.0542,6.722041256735825,24.637077906707045
3677.9,6.704573722739936,23.294703954701884
3678.748,6.703710392411871,24.039585583581022
3679.5945,6.713797034644302,21.86223645366497
3680.4429,6.726008114335297,22.967713522414478
3681.2896,6.7331800267926765,23.871408726911227
3682.1365,6.7326568817036865,26.26340841313486
3682.9856,6.725674654763782,27.89765052953607
3683.8328,6.714930953576143,28.131796974098503
3684.6824,6.701865327373204,22.009587526540127
3685.53,6.686082215856478,22.94963779217772
3686.38,6.666587761491629,20.335461479259518
3687.2278,6.644505967739191,27.595068702139574
3688.0762,6.623685924382822,22.97778639526856
3688.9265,6.609157519160462,26.036522486279488
3689.7751,6.603939276892217,32.012369805354524
3690.626,6.6067695456163635,26.792690860187914
3691.475,6.613096195471398,26.163463685718174
3692.3264,6.618396580178389,20.43760522310568
3693.1758,6.6212816106044174,27.476842857389038
3694.0254,6.624110830402143,21.51723935767853
3694.8772,6.6305850889200455,23.754781359414192
3695.7273,6.642620107096921,24.315305137767925
3696.5793,6.659228233129461,24.1925052659752
3697.43,6.677288860743188,28.83328632057793
3698.2825,6.693103652591137,27.183580532655288
3699.1333,6.7024545182141,25.954217101251253
3699.9841,6.701121254998383,26.723119760153395
3700.8374,6.686395577003846,26.31270644651171
3701.6887,6.659646120140284,29.768668665567496
3702.5425,6.626415979428102,23.641558482017093
3703.3943,6.594454591632848,23.229389011922112
3704.2483,6.5698518339850365,24.258898556342317
3705.1003,6.556015852425109,24.625130457810755
3705.9526,6.553459231297154,23.20526503521372
3706.8074,6.560573415774841,24.495244250772043
3707.66,6.573437185800664,26.74312072559632
3708.515,6.586511415080793,25.72436203547663
3709.3682,6.594447708011965,25.67652167973009
3710.2234,6.594900277878219,31.33731950242466
3711.0771,6.589512788494429,24.503202564414085
3711.9307,6.5824128424706405,26.487933198244953
3712.7866,6.577043982175458,26.776485697739446
3713.6409,6.574009475574539,27.903630754686034
3714.4973,6.571373735452049,23.966293517648722
3715.3518,6.566969972896106,25.677799279487417
3716.2085,6.559846723824572,23.75662676398161
3717.0635,6.549809838778627,26.362109559746127
3717.9185,6.536157068953668,30.857773579896072
3718.776,6.518020816881728,21.603446597847167
3719.6313,6.496251124757914,33.46349231141808
3720.489,6.473883064840694,20.80527411784771
3721.345,6.454933234952909,25.50876939765104
3722.2031,6.441043909386939,34.51197266999132
3723.0593,6.430150716883099,31.853565827401496
3723.9158,6.417799352515559,35.12287361963635
3724.7747,6.400977329609904,29.59032718071301
3725.6316,6.3808495697863785,35.86192697449085
3726.4905,6.361712539472724,26.19932238029617
3727.348,6.348411717167799,33.581053670639236
3728.2073,6.343989998255506,29.49544582860272
3729.065,6.34985278043893,36.48460082231793
3729.9229,6.3662068125856415,32.46669918864919
3730.783,6.391454507864126,24.38909836354697
3731.6414,6.4205607970949465,24.037437235789884
3732.5017,6.445903480500959,28.136829054920323
3733.3604,6.460104942546461,27.092627340300204
3734.2214,6.460521018529789,24.945443218285998
3735.0803,6.45082106225454,23.35049568586431
3735.9417,6.438851989600687,28.79737806184068
3736.8013,6.4318833757449445,24.628169214475793
3737.661,6.43215616778503,28.187013574189898
3738.5227,6.436324369615116,25.71289076871077
3739.3828,6.438514155122305,25.398990943396768
3740.245,6.434462790006799,27.148831728008282
3741.1055,6.423096113143399,35.695620426726485
3741.9683,6.4050508832466635,29.780695169361007
3742.829,6.38126790940228,25.8430486310687
3743.69,6.352744894604102,37.76515950067534
3744.5532,6.3213053026550865,27.57512105327573
3745.4148,6.289927743095732,28.012643221590295
3746.2786,6.261916366937402,26.84044306640877
3747.1404,6.241192385242126,28.34250546366532
3748.0044,6.23077606394916,33.72844185145298
3748.8667,6.231241112715835,36.99494114846456
3749.729,6.239475559195263,22.59460113624524
3750.5938,6.250234145207616,25.49963759792988
3751.4565,6.258960706726811,34.86261591834713
3752.3215,6.264434718990841,28.44369522091416
3753.1848,6.269111831087393,27.191882865330243
3754.0503,6.277584803084654,26.024898646695608
3754.9138,6.293511768683802,36.977615335801524
3755.7776,6.317302203289579,31.243840430960155
3756.6438,6.3457369383882005,24.06839068790176
3757.508,6.373389961909925,25.082701472617043
3758.3745,6.395530450903123,29.10070463062389
3759.239,6.4091763525770595,23.98374624334446
3760.106,6.413697166428996,28.664377014663945
3760.971,6.410047262909,27.686815340795793
3761.8362,6.400304284400358,29.751500970853087
3762.7036,6.386895572969276,25.87354119943251
3763.5693,6.371949165823268,27.435737547629714
3764.437,6.356665908635961,26.772821208196117
3765.3032,6.341840435617693,25.928720536138446
3766.1714,6.327767093548843,30.501157563821685
3767.0378,6.313586154059306,33.045548831447945
3767.9043,6.2962073090341555,26.01383237123708
3768.7732,6.27180283866897,29.2069477206514
3769.6401,6.2399442978965105,30.170426178509604
3770.5095,6.205855000917145,31.355652948970565
3771.377,6.178801966868032,30.355039966278678
3772.2466,6.165581047604455,36.603028173932614
3773.1145,6.166906296317704,28.811628226925137
3773.9824,6.178808680092978,33.08129230776883
3774.8528,6.197903579602973,31.65234215096553
3775.721,6.223674754318685,28.091565677975026
3776.5918,6.256477377272192,37.93363114839407
3777.4604,6.2931628676894436,29.5299162296673
3778.3315,6.327442098164009,29.205962762039587
3779.201,6.352529463996462,29.957119963586255
3780.0703,6.364904916922155,29.93191956431078
3780.942,6.3645064772581605,27.63925813421454
3781.8118,6.353713730212439,28.290595685231757
3782.6838,6.336151294977734,25.420961425894696
3783.554,6.315833434366456,26.726885698936467
3784.4265,6.295846801604142,27.87460953586219
3785.297,6.278311879432713,30.384042473009767
3786.168,6.264385772553135,24.861787908807347
3787.041,6.254468907350607,29.694472153245275
3787.912,6.247215903394223,29.448453605728332
3788.7856,6.238748234731867,31.834792966675806
3789.6572,6.224602446390479,37.56215777706413
3790.531,6.202919701484007,27.020994881762277
3791.403,6.176157952158018,29.412768192681323
3792.2754,6.148009087455453,31.4102973251413
3793.15,6.11899104590413,31.850999737605424
3794.0225,6.085269818928008,24.780179187099307
3794.8972,6.041809582419486,31.676714759653947
3795.7703,5.988615529132569,34.91396836783146
3796.6455,5.932437358529609,32.86417891996816
3797.519,5.884967844184131,30.130981913825767
3798.3926,5.856452608575104,33.721129868341556
3799.2686,5.851876530529871,41.83839612300236
3800.1426,5.869944828024229,37.051747996928725
3801.0188,5.904917453853188,34.011611374964154
3801.8933,5.949028024176814,30.57586279136687
3802.77,5.995387726821247,30.815661124112438
3803.6448,6.039018052798178,35.24006143832593
3804.522,6.078550745032562,27.35339880815446
3805.3972,6.11479230614838,34.38859374935087
3806.2727,6.149374210679361,32.36554265103766
3807.1504,6.18213763822897,29.441244903707453
3808.0261,6.210266605056386,27.33225179921837
3808.9043,6.230583538414022,23.846190463056246
3809.7805,6.242083464152712,23.201680019601163
3810.659,6.24807418028385,30.628114530955557
3811.5356,6.254609216444974,29.44421732872055
3812.4126,6.267015781701096,30.087256129945164
3813.2917,6.286522944836379,31.08791993533933
3814.169,6.309298307721021,26.668107994194507
3815.0483,6.329249757218326,27.11361918920402
3815.926,6.341551905294157,27.46591989904083
3816.806,6.3449033654059885,33.45923819035853
3817.684,6.339853459961995,26.303375831500542
3818.5623,6.326483434551878,33.08210299257239
3819.4429,6.3042306306745175,25.04809750360242
3820.3215,6.27417911306524,29.90437985391481
3821.2024,6.239475369415862,28.71460614738756
3822.0815,6.203965438516587,30.959235593983898
3822.963,6.169055507681058,31.608334772968263
3823.8423,6.133733777383304,31.637632642852076
3824.722,6.095454625364553,31.616167639713403
3825.604,6.052084091543542,28.080340449872374
3826.4841,6.003098585327023,32.44692531916984
3827.3665,5.948958035152474,30.901593923247766
3828.2468,5.891789104179178,34.08432570814922
3829.1296,5.833439579314882,33.213308571354645
3830.0105,5.774908290673839,36.41077043954958
3830.8916,5.714016230168821,36.46584434619626
3831.7751,5.646510978832906,31.56434791822197
3832.6565,5.569913654740836,32.57963838263986
3833.5403,5.486366662253015,35.99158662818871
3834.4224,5.405910351769532,50.48286215343131
3835.3064,5.342310437093336,39.44496989809021
3836.1887,5.308281771276727,44.01987475554139
3837.0713,5.308971481441082,45.84070900541994
3837.956,5.341366180720026,41.11364130738187
3838.839,5.3972718931098145,41.93175818950051
3839.7244,5.469140883408631,38.2594261015197
3840.6077,5.551794874536865,28.302314676438534
3841.4932,5.64256600545339,36.06129391702503
3842.377,5.73734707467667,33.84737643877463
3843.261,5.83100517029419,31.80638794738586
3844.1472,5.9177280177119975,30.04562639761082
3845.0315,5.99234792032537,27.523259513505785
3845.9182,6.053739723733787,21.01847093048031
3846.803,6.10449877613502,33.49886304733927
3847.69,6.150874911457456,30.21126482231954
3848.5752,6.198060984129757,32.35783604469667
3849.4604,6.247392787054472,29.7727975840392
3850.3481,6.295390645492765,28.264183375124286
3851.234,6.335891719481323,27.76561967982253
3852.122,6.364714642180198,25.154235251689474
3853.0083,6.381355627222465,26.852427698862705
3853.8967,6.388868718937394,26.435361981621988
3854.7832,6.390563548696747,27.936672147018545
3855.6702,6.388067109742605,28.877913288395693
3856.559,6.382241622194723,23.834471158391516
3857.4463,6.375995942576661,29.605629369330636
3858.336,6.374703923560288,27.36028863881514
3859.2234,6.38276973669449,27.209002263593945
3860.1135,6.399320648093528,29.191470428634815
3861.0015,6.4177423201545,28.739667805482664
3861.8896,6.43064425916953,26.838075104191752
3862.7803,6.434905851041333,25.718424336671738
3863.6687,6.432359284318908,27.335743870199494
3864.5598,6.425645696513031,26.307832933158085
3865.4487,6.4140083456966375,25.01694969295567
3866.34,6.393392340344565,24.443181860986694
3867.2297,6.360960833059277,27.440767614285985
3868.1213,6.318284314693371,26.377244670786393
3869.0112,6.271016954650946,31.824897825581868
3869.9014,6.224047026457246,28.046686019257578
3870.7937,6.1783637840393775,29.474622882293023
3871.684,6.13182390270133,30.897992322594778
3872.577,6.08160818142908,28.87365301459318
3873.4678,6.027785257233988,28.267488914967156
3874.361,5.972327859948288,37.83236056044277
3875.2524,5.91807956263388,33.3512068778806
3876.1438,5.865463364130482,30.202201720740796
3877.0376,5.81188341743493,30.45083971295328
3877.9297,5.753468621918602,29.25782253060904
3878.8237,5.686997997150145,36.17305390891184
3879.716,5.61276373849893,39.31863926473434
3880.6108,5.532661953263269,34.7046584069119
3881.5037,5.449364293873148,28.431198887518057
3882.3965,5.364019011805363,43.20447733757292
3883.2917,5.277717094247397,41.6717760931832
3884.185,5.193193776089072,42.188110490739945
3885.0808,5.111799332951837,39.20526857248686
3885.9746,5.031391952191664,42.82496573315225
3886.8706,4.943280472854725,43.11108905730735
3887.765,4.839720044942545,58.09110109484063
3888.6592,4.72398335637633,61.25256678184806
3889.556,4.616977865855405,65.44458635799236
3890.4507,4.550323296704101,81.67140140721779
3891.348,4.547114923581396,60.3201720418767
3892.243,4.610000350102785,53.30109470747915
3893.1406,4.722284768707529,50.03310137741156
3894.0361,4.858291663454121,48.45386222122083
3894.932,4.997142679914103,37.40930281503541
3895.83,5.127520476622764,44.04137292978399
3896.7263,5.245397061856535,43.429765803567456
3897.625,5.351720920579665,35.488901813023375
3898.5215,5.446838391284641,35.342138109338244
3899.4207,5.532460954987703,35.95302045034751
3900.3176,5.610612586132791,34.41958576266538
3901.2148,5.68499958645808,36.944071735659556
3902.1145,5.7584565012719535,31.654739377311788
3903.0122,5.831122486106559,25.92667656745018
3903.912,5.901948046733709,29.71331944828379
3904.8103,5.96869526414529,36.11371057622199
3905.7107,6.030437156940459,30.232972650574848
3906.6094,6.087097382534344,26.92748592530687
3907.508,6.140291282018772,35.11693561297794
3908.409,6.191910631112563,36.2501344597379
3909.308,6.242343644980691,27.507328822085295
3910.2097,6.290586421333022,31.521257401152422
3911.1091,6.334086642802427,28.956376477540363
3912.011,6.371427799357937,22.810178762776914
3912.9111,6.402838928268579,26.313195644552426
3913.8113,6.43059759346318,30.431221481183737
3914.7136,6.456790484378967,30.291781115640028
3915.6143,6.481150381863374,26.227091924328636
3916.517,6.501621255990315,28.933800338244765
3917.4182,6.5164057528365,26.572710487456412
3918.3215,6.526445961089048,24.67498730641207
3919.223,6.53468370069226,26.542693120150442
3920.1245,6.543905009771155,24.609422202894276
3921.0286,6.5552060700694295,24.699555083613433
3921.9307,6.568581512112189,24.54483493192114
3922.835,6.584428088730081,25.70681322953068
3923.7373,6.603117842430007,28.78005935011838
3924.642,6.623748967823027,21.765541729516865
3925.5452,6.643070027138321,25.39557203530788
3926.448,6.657299299415217,32.13395272137852
3927.3535,6.664467530813187,27.608304029518813
3928.257,6.665462593781826,24.112995869900093
3929.1628,6.662919336684089,27.957517762234197
3930.0667,6.658824119826361,26.59555024651447
3930.9731,6.652878735502004,27.572469871521267
3931.8774,6.642813010522432,26.74519655746479
3932.782,6.6261719764428,28.470808743055315
3933.6887,6.602540578940513,29.587836867793644
3934.5938,6.574683319206625,27.98081268997671
3935.501,6.5470596963024,25.348277942419518
3936.4062,6.523818216093554,23.50473649129181
3937.3142,6.5062324199421715,25.051896578807888
3938.22,6.492812151410577,26.8021363556276
3939.128,6.4803144230225005,28.338115673146408
