wavl,flux,ivar
3566.9744,0.8024398250344553,323.43791533366687
3567.795,0.7995957017000731,409.32290292093955
3568.6177,0.798095159174834,257.93268011288524
3569.4385,0.7969057345079107,334.0746724452057
3570.2617,0.7951055485729462,251.94905908708893
3571.083,0.7925681551227438,373.9253365864441
3571.9065,0.789989962038547,338.8415257623101
3572.7283,0.7883427489497815,282.690809916974
3573.55,0.7881150667916625,364.50797726610006
3574.374,0.7890699182422485,490.5127489892751
3575.1963,0.7904355872935324,340.6346722021729
3576.0208,0.7913224056395588,321.65732239521617
3576.8435,0.7911148391702313,408.135615285448
3577.6682,0.7898020728943914,344.6505199126998
3578.4915,0.7880010946560462,679.1368288451307
3579.3145,0.7865365489626678,438.98487946253715
3580.14,0.7858955122947122,252.09752736449175
3580.9636,0.7860351980029862,328.1397464729848
3581.7893,0.7866697599611596,375.7372636434147
3582.6133,0.7876533696086537,670.955720223941
3583.4395,0.7889889889175689,411.20871701696404
3584.264,0.7904967983147685,415.06729599189833
3585.0884,0.7917165590429688,252.26099376387316
3585.915,0.7921939166565732,334.03102094904705
3586.74,0.7917773158461816,319.3569644653284
3587.5671,0.790487955583355,381.1351277348108
3588.3923,0.7882252570275994,397.5224197796327
3589.22,0.7848893671704216,354.35093416819427
3590.0457,0.7810082109180572,384.2575008046774
3590.8716,0.7778697809201733,420.15698037477154
3591.6995,0.7768234683827955,436.51849669935757
3592.526,0.7781663816148342,359.27953343564496
3593.3542,0.7807188764676406,468.8708876516027
3594.181,0.782556442442617,312.8408784052608
3595.0098,0.7823608272362528,275.16709064470024
3595.8367,0.7802317903760427,393.7117981903841
3596.6638,0.7773587357982981,579.6333389945573
3597.4934,0.7748672903267466,250.90015720115665
3598.3208,0.7729746836937545,253.76462872699136
3599.1506,0.771108141659039,472.31572713899726
3599.9788,0.7687616203341394,386.4520130805237
3600.8088,0.7658626930345248,713.8323456087445
3601.6372,0.762445585727608,394.8484411160865
3602.4678,0.7581627220472781,447.2615320536666
3603.2964,0.7526624966547267,232.39574648665206
3604.1252,0.746388230814126,720.445427197201
3604.9565,0.7410485603422831,479.9861397289827
3605.786,0.7389837939878344,736.1410285454995
3606.6172,0.7416196300732848,416.30426801953934
3607.447,0.7483617646689473,418.39533561892836
3608.2788,0.7567828165757011,232.4691822003781
3609.109,0.7639543774733081,233.47310223565992
3609.9392,0.7681515406880856,355.1452576930427
3610.7717,0.7693576742758041,343.64016665486776
3611.6023,0.7686963028545725,299.175413868735
3612.435,0.7674476308882852,271.35687037220083
3613.266,0.7663920441806152,312.32436230159686
3614.0994,0.765652864077128,371.5439996175302
3614.9307,0.7648974349813887,401.9666787567234
3615.7625,0.7636161186881892,364.8983485816723
3616.5962,0.761372259571418,367.60080413801404
3617.4282,0.7579793711016349,677.5946787951362
3618.2625,0.7535977180870428,346.9250681362982
3619.0947,0.7489074547292542,427.3987735287784
3619.9292,0.7449338864203602,617.157754218918
3620.762,0.7427181741751216,404.32201173863047
3621.595,0.7427370431414753,430.1858065186531
3622.4302,0.7447049188792979,363.63497347216685
3623.2634,0.7477103040519634,408.7360745124709
3624.0989,0.7506947484516401,633.3097099531785
3624.9326,0.7528256479912299,371.8393144829258
3625.7686,0.7537315359143508,429.0261161441313
3626.6028,0.7533800968208423,326.75764065849773
3627.437,0.7519163988438432,553.2910500822269
3628.2734,0.7496282984090431,354.41192966184826
3629.1082,0.7471480325715402,574.6046856780858
3629.945,0.7454395996331127,248.95271241861457
3630.78,0.7454294935977755,428.94117417588836
3631.6174,0.7474263501255969,396.96282211277554
3632.453,0.7509700931712788,401.17003516111873
3633.2883,0.7552377393334962,390.53979643196885
3634.1262,0.7594895832236503,612.0116678939585
3634.9622,0.7631449386132064,293.5509368636531
3635.8005,0.7657718555789357,335.45183343585626
3636.637,0.7670349552958714,671.2968218914204
3637.4756,0.7669016628157824,358.4196726558857
3638.3123,0.7656863518363309,341.33360631077244
3639.1492,0.7639234379112511,404.93193205567087
3639.9885,0.7621514075866433,547.3527907142691
3640.826,0.7608115050213522,517.4674579995502
3641.6653,0.7601992042074351,264.98969640022904
3642.5032,0.7604346490764505,447.65727872438
3643.343,0.7613080082477403,405.77446488140737
3644.1812,0.762245023114631,297.2094890383119
3645.0195,0.7626318645267712,382.2804993805415
3645.86,0.7622989523110917,502.9835350362887
3646.699,0.7616814401087639,518.9092713746846
3647.5398,0.7614048344236285,435.17540708012694
3648.379,0.7617479549798217,461.2219045529661
3649.2202,0.762520048045081,573.7520704077234
3650.0596,0.763335948911065,445.7874592483779
3650.8994,0.7638360025461012,358.8423218876278
3651.7412,0.7635707296137195,282.7900546623317
3652.5813,0.7618855836339794,422.18103137110944
3653.4236,0.7581751346973061,420.46679558961824
3654.2642,0.7524807030666009,353.8394295585683
3655.1067,0.7456973017311367,535.877731577498
3655.9475,0.7392948430729246,555.1036038424829
3656.7886,0.7345562116539823,318.2837251054522
3657.6318,0.732282056463751,494.71717517850095
3658.4734,0.7328502613489938,433.1592021805089
3659.317,0.7362845190538634,407.6530048744302
3660.1587,0.7420961090218837,287.73490157363557
3661.003,0.7491585227041315,394.6567865934268
3661.845,0.7557735822346746,655.2023973949289
3662.6875,0.7603980421586874,356.0974624297423
3663.532,0.7622422055985371,235.82869854870108
3664.3748,0.7616158380694455,319.96906924465816
3665.2197,0.7596938072914171,332.7377803215955
3666.063,0.7578166258814384,479.79771040841234
3666.9084,0.7567423809983398,355.3970584983291
3667.752,0.7564196264905464,366.0982857616531
3668.5977,0.7563335404559176,567.8170414861893
3669.4417,0.7561365717151167,267.15403257989135
3670.286,0.755955084567667,370.5655425283958
3671.132,0.7561464359939253,404.6929775042673
3671.9768,0.7567652495178291,340.2441764242643
3672.8235,0.7572964650980277,434.47679613744253
3673.6685,0.756948381026819,511.89893781818
3674.5156,0.755223764094544,394.15422002629555
3675.3608,0.7521828562595088,406.15910240507435
3676.2063,0.7481859430115516,521.3501907528954
3677.0542,0.7436025552864229,538.9169263341881
3677.9,0.7388911831129878,496.2441048640767
3678.748,0.7347183812096144,380.9581377544527
3679.5945,0.7320321097243164,325.55137563450813
3680.4429,0.7316168719163093,440.88251725769646
3681.2896,0.7336379254265164,438.9708412017259
3682.1365,0.7373287154441893,297.6686145309098
3682.9856,0.7411585205300254,483.81874436167175
3683.8328,0.7434276998435123,286.51620930145236
3684.6824,0.7431125577272721,298.5120861908072
3685.53,0.74026424111455,616.0179085185749
3686.38,0.7359028433877528,267.4257698718285
3687.2278,0.7316432891420714,378.7390576154222
3688.0762,0.729087158040821,716.8269424243271
3688.9265,0.7292555623601913,526.4953891211081
3689.7751,0.7321166587783041,390.4191753075417
3690.626,0.7366888600582319,429.1692405110855
3691.475,0.7415601432871635,426.3460988823073
3692.3264,0.7454956315004022,392.9026942127787
3693.1758,0.7475538281832508,374.19952947886566
3694.0254,0.7472039944166523,305.3538302398355
3694.8772,0.7444559788110113,275.3683297171646
3695.7273,0.7400969287584047,270.29303167033504
3696.5793,0.7354584639320726,523.9646967939627
3697.43,0.7318392072284063,317.48131449479774
3698.2825,0.7298281975573818,378.4985103723025
3699.1333,0.7293078836566856,368.6173630359383
3699.9841,0.7298818260941008,569.7445579961883
3700.8374,0.7313104880288962,454.7619403515961
3701.6887,0.7334950289680466,450.4579421008474
3702.5425,0.7362813626905875,672.3680981840967
3703.3943,0.7392216361361873,335.69791057443535
3704.2483,0.7415253837763716,353.83071417647005
3705.1003,0.7420991477919081,400.398192010553
3705.9526,0.7400387048337237,475.6272578922973
3706.8074,0.7352447077698638,377.06689123919364
3707.66,0.7287718563778839,619.9907037814177
3708.515,0.7222428135218077,307.82354680188945
3709.3682,0.7170694162510065,514.5923799484274
3710.2234,0.7138064672100565,388.6079253332254
3711.0771,0.7124121146945548,645.0901237720348
3711.9307,0.7126910036305916,467.90682615435196
3712.7866,0.7145950400548507,470.6803505505154
3713.6409,0.7180402418795572,318.96406428930413
3714.4973,0.7226007905586924,454.9578330505276
3715.3518,0.7273090911956106,408.3484699454033
3716.2085,0.7310822103693994,366.0854284815253
3717.0635,0.7333451223044352,417.84970054477196
3717.9185,0.7345004748129303,383.38014199443637
3718.776,0.7354182539776655,353.7003156720085
3719.6313,0.7363682866778092,451.8742577492398
3720.489,0.7364523179274208,289.6840239516499
3721.345,0.7342605530064251,477.03994145623386
3722.2031,0.7292926958891804,427.6084182067334
3723.0593,0.7228618027909657,413.6802406832695
3723.9158,0.7174198155134232,738.4056437738948
3724.7747,0.7149971897980196,528.3820319177896
3725.6316,0.7159432997794338,401.61384349300374
3726.4905,0.718964422942605,346.1012617711838
3727.348,0.7222951991610597,563.8895548961442
3728.2073,0.7248682756876522,398.47335729989976
3729.065,0.7265170283255249,460.6395700251609
3729.9229,0.7274952407596408,739.042313648483
3730.783,0.727897260393981,480.8369411742685
3731.6414,0.7275730850400699,533.644167490376
3732.5017,0.7264330086792083,547.1880711095085
3733.3604,0.7247309361782378,609.1244419452796
3734.2214,0.7229801279009789,370.16263634864265
3735.0803,0.7216162303286905,348.6254950191039
3735.9417,0.7206364923879959,394.6758676382927
3736.8013,0.7196486941854974,404.24804048145313
3737.661,0.7182112292884756,547.5952266896718
3738.5227,0.7161965507872552,401.3441193817657
3739.3828,0.7138376530198529,520.9302912914552
3740.245,0.7114399624419437,441.96408473028725
3741.1055,0.7092519867703433,441.83043454132644
3741.9683,0.7075120368569654,528.5538920819224
3742.829,0.7065728069746965,543.2146845325774
3743.69,0.706688199568914,562.5132117923642
3744.5532,0.7077798330427375,344.14686083180305
3745.4148,0.70940455558798,332.35796776468925
3746.2786,0.7109692748482902,615.8508944184841
3747.1404,0.7118673173959243,338.03962454645705
3748.0044,0.711625663863245,420.1463057880128
3748.8667,0.7101403193404823,451.52268721347923
3749.729,0.7079067759930149,607.6271033204586
3750.5938,0.7058280589436521,612.287877228358
3751.4565,0.7046033556120606,509.3073105473259
3752.3215,0.7041444641268737,398.333637169349
3753.1848,0.7036515484588047,523.1653799918597
3754.0503,0.7021476276990689,468.41963658148666
3754.9138,0.6990693219464268,410.90499807579306
3755.7776,0.6945735413314628,451.39788779572575
3756.6438,0.6896297180529755,378.913562039167
3757.508,0.6858457390934856,480.5566702137404
3758.3745,0.6847184485775063,351.1171454391691
3759.239,0.6868452545704646,455.84127886010714
3760.106,0.6915326688713522,454.256592992961
3760.971,0.6971587585768988,419.0502796691394
3761.8362,0.702018751666336,591.8659132310614
3762.7036,0.7048595554792618,472.8974137419113
3763.5693,0.7051415224715509,435.4257887747352
3764.437,0.7032259005978382,485.5593599603409
3765.3032,0.7003320836553811,408.8535629178455
3766.1714,0.6980465154805392,640.6724981604206
3767.0378,0.6975199295752189,420.82890931959196
3767.9043,0.6988218256856444,429.44928678276693
3768.7732,0.7011165002753654,332.5214664667883
3769.6401,0.7034112924331615,419.5467660779593
3770.5095,0.7053053501832405,341.02045643804433
3771.377,0.7069656943480607,297.1466120691754
3772.2466,0.7085602117498645,466.0671526610028
3773.1145,0.7096589439000464,400.58520571837903
3773.9824,0.7093642956301087,383.247446770121
3774.8528,0.7070418785990429,297.08505614918585
3775.721,0.7030735971449567,481.91237743247285
3776.5918,0.6987787993183194,560.5100435250022
3777.4604,0.6956701109233497,321.0117152641907
3778.3315,0.6944342549820701,412.6267543120684
3779.201,0.6946763744405681,526.4161373638112
3780.0703,0.6954135576542544,335.63304983281944
3780.942,0.6959871014376189,795.3041703826799
3781.8118,0.6965217821825013,588.3609126632152
3782.6838,0.6975714155929744,313.4164022134972
3783.554,0.6993263680596538,567.0123673125164
3784.4265,0.7012911270925614,458.9234544944547
3785.297,0.7026605501437342,404.00420395525873
3786.168,0.7029606360036853,410.5957064520405
3787.041,0.702148095688372,356.08784304394266
3787.912,0.7003081350950995,413.56249734581263
3788.7856,0.6974783473272786,524.9154661842629
3789.6572,0.6939543558987629,429.14557260949664
3790.531,0.6905006092157366,502.5132459824507
3791.403,0.6881954303328424,444.328778444035
3792.2754,0.6877919315685694,557.335224529699
3793.15,0.6892657061846341,413.3429564230406
3794.0225,0.691703175887108,497.10753561415277
3794.8972,0.6936930399066066,446.98940006370344
3795.7703,0.6939714206616846,516.3795001046602
3796.6455,0.6921006143156468,485.826514986082
3797.519,0.6886700538929457,446.38282847295045
3798.3926,0.6848657175168517,489.5348690200989
3799.2686,0.6817965811565354,471.68934761479574
3800.1426,0.6801297143232542,493.4009835336184
3801.0188,0.6801101730949531,370.93210019434446
3801.8933,0.6817757539498323,542.2805314796377
3802.77,0.6848555933258748,551.8387175433389
3803.6448,0.6885067629801337,556.9492091037143
3804.522,0.6915538211569517,399.15513022807994
3805.3972,0.6931927215824112,373.7422368414981
3806.2727,0.6937440176195832,515.276166630716
3807.1504,0.694513250751457,328.91940311440084
3808.0261,0.6969200699520824,374.45455889491
3808.9043,0.7016148421841489,364.0449022880136
3809.7805,0.7081319990840514,505.6122249630872
3810.659,0.715354797582144,480.614865694191
3811.5356,0.7220188277906644,423.82062237176456
3812.4126,0.7271396040154683,370.34869788295913
3813.2917,0.7298355973056728,427.7537762792025
3814.169,0.7292256295993452,110.93910658104802
3815.0483,0.724836101021182,481.34630643783606
3815.926,0.7172516602108461,446.2370719949301
3816.806,0.7082007097861336,464.295660391942
3817.684,0.7000026436276988,567.3711669982578
3818.5623,0.6943634010532779,692.420644162516
3819.4429,0.6916846571030789,574.6750148973545
3820.3215,0.6910621189357663,382.7175140740402
3821.2024,0.6909408790739443,388.9356296947609
3822.0815,0.6900603091641664,510.0671798559128
3822.963,0.6879769385971191,413.5903315490471
3823.8423,0.6849790624751376,424.3187192302542
3824.722,0.6815346664356035,605.3233317544697
3825.604,0.6778454550402112,422.6181323036165
3826.4841,0.673812630800324,469.62942936989356
3827.3665,0.6692295328516897,467.73183130541184
3828.2468,0.6641302114750802,474.52901790688304
3829.1296,0.6587445388184926,529.9129333390326
3830.0105,0.65344426887045,550.4587667489347
3830.8916,0.6484834660675001,497.1713871218748
3831.7751,0.6439568531067705,443.60198548475165
3832.6565,0.6398277697932635,545.5919059250152
3833.5403,0.6359563047377507,501.3814597691321
3834.4224,0.6324125583675586,465.8398009880083
3835.3064,0.6295470136302376,574.7014833028959
3836.1887,0.6278393461220348,798.2733638912583
3837.0713,0.6274245217859203,493.0376823257108
3837.956,0.6280178441011629,488.87233359061827
3838.839,0.6293637993338352,424.2409092027996
3839.7244,0.6317656599047086,629.3887653963161
3840.6077,0.6359737766873448,487.66311181744254
3841.4932,0.6426278012618694,495.9732100901754
3842.377,0.6516462823071337,580.8122028964913
3843.261,0.6622073409624081,473.1860362257281
3844.1472,0.6729287246756945,443.5921176108613
3845.0315,0.68220838619769,409.0538207403329
3845.9182,0.6890045519574048,472.46344839570446
3846.803,0.6931895955860917,407.72092252607655
3847.69,0.6956919856459821,425.7412295801654
3848.5752,0.6978080056603903,461.96416753027995
3849.4604,0.7004831206641522,384.6804885452259
3850.3481,0.7039114820683355,337.75425803577235
3851.234,0.7076549822955517,337.9554129264969
3852.122,0.711163084026864,541.805908986467
3853.0083,0.7141462951774725,398.701870442943
3853.8967,0.7168283828238733,451.0413462512844
3854.7832,0.7197126744225515,537.7213957759556
3855.6702,0.723215893966202,412.59030208669924
3856.559,0.7273122048556895,335.3116927245921
3857.4463,0.7314907079372285,441.9797838550788
3858.336,0.7350911166568317,537.6481287681175
3859.2234,0.7375939390654066,336.9303514791239
3860.1135,0.738898730439505,401.37776819031524
3861.0015,0.73921445921529,369.7608823343189
3861.8896,0.7388710780396284,360.4032901720466
3862.7803,0.738147871424933,361.3857057046103
3863.6687,0.7372793431518622,531.6814816272949
3864.5598,0.7364361936318836,502.8150720593604
3865.4487,0.7356398318530292,437.6578814487498
3866.34,0.7346374826278109,421.51849301364854
3867.2297,0.7329613507713711,423.60494438999353
3868.1213,0.7301258145716999,602.5704331199472
3869.0112,0.7259265812464242,306.811003065408
3869.9014,0.7204952902167658,436.1350154316879
3870.7937,0.7141047533406587,319.45641396568897
3871.684,0.7069286129398221,503.0729418539138
3872.577,0.6989259418540464,592.4591449340876
3873.4678,0.6903565983873645,309.09216007455484
3874.361,0.6819251046478962,468.48927002560015
3875.2524,0.6746526075849236,768.7875036763727
3876.1438,0.6690070742422525,439.4965389547567
3877.0376,0.6645222450544378,451.7814645362807
3877.9297,0.6600686943579918,626.0897305290666
3878.8237,0.65446177647758,711.0197218249501
3879.716,0.6471311944522571,514.5344254987722
3880.6108,0.6382274938759367,530.5075235121475
3881.5037,0.6285987351608315,660.541238000437
3882.3965,0.6192351636087703,556.4511141714613
3883.2917,0.6108378969402223,679.086311128346
3884.185,0.6035588500358932,608.3482326230367
3885.0808,0.5968659045854167,623.3479612585778
3885.9746,0.5900244529822615,668.6082814643298
3886.8706,0.5824394096074196,479.1768903374259
3887.765,0.5741670015372615,588.7619506932277
3888.6592,0.5658737029778397,608.0981851401942
3889.556,0.5586016957096718,678.8015077056416
3890.4507,0.5534305599329655,646.309620832307
3891.348,0.5511370934624077,810.4822154298478
3892.243,0.5522587708756113,557.3362639349399
3893.1406,0.5569800273456252,830.7068437911748
3894.0361,0.5648939320002229,557.1872767069802
3894.932,0.5749890678211972,690.0271208541872
3895.83,0.5859216115608734,683.6920657859348
3896.7263,0.5964794652268665,676.4547320066104
3897.625,0.6062675150936347,530.0018293431466
3898.5215,0.615604667815078,596.1733032458774
3899.4207,0.62534463671108,530.7048301594441
3900.3176,0.6360383155764017,404.6224545424245
3901.2148,0.647679925038727,609.2535135702209
3902.1145,0.6596516077181999,433.54121892486
3903.0122,0.6709954453848781,421.57689106084507
3903.912,0.6810068638930531,375.7297394885866
3904.8103,0.6892811487824917,399.42182995402374
3905.7107,0.6960124260314279,383.5058923979269
3906.6094,0.7018355075617753,595.2094622569533
3907.508,0.7076645346697028,454.3621483055139
3908.409,0.7141874533426886,369.4976326689356
3909.308,0.7215042304748919,431.5857020094119
3910.2097,0.7293166637754569,525.8422860439881
3911.1091,0.737115374809232,305.2579945055279
3912.011,0.744548858339105,477.8126312189596
3912.9111,0.7513047036826549,351.9300470111939
3913.8113,0.7572643723509503,438.57585231555015
3914.7136,0.7625522085790918,459.15992245001337
3915.6143,0.767496531651253,474.4987050591233
3916.517,0.7724430750040848,339.31874596654205
3917.4182,0.7773108559799689,331.78464715315175
3918.3215,0.7816145106794787,303.7243939058504
3919.223,0.7847634486372435,381.10082124524524
3920.1245,0.7866398174875724,355.9015553269157
3921.0286,0.7877237298000772,306.1787632133076
3921.9307,0.788776478289225,376.5243711518447
3922.835,0.7903410227099039,291.6998040042946
3923.7373,0.7924188507334893,347.6495865699249
3924.642,0.7946045775701404,304.8275462250169
3925.5452,0.7963895557050086,318.1624867905368
3926.448,0.7974606988808014,542.8890687187034
3927.3535,0.7977304855512376,261.7735800942347
3928.257,0.7972575265818445,272.77357399167823
3929.1628,0.7961337035035704,383.99556739093583
3930.0667,0.7943526989221776,335.1325945355691
3930.9731,0.7917219515671914,342.1084470706153
3931.8774,0.7880823809776829,334.47068173807975
3932.782,0.7836248927748514,370.6505514626
3933.6887,0.7790593093538921,358.30866714267245
3934.5938,0.7753258423590889,339.20095708897105
