wavl,flux,ivar
3566.9744,1.104717625756345,700.1374496856915
3567.795,1.1058032897869197,719.6477737606034
3568.6177,1.1078903028749374,766.5562786102568
3569.4385,1.1105026696340803,585.4745841398719
3570.2617,1.1131158663079745,579.3562840146114
3571.083,1.1153865484594438,649.0816404556489
3571.9065,1.11732250784953,724.5109149496898
3572.7283,1.1190684881033883,659.9058405148409
3573.55,1.1206630655055674,652.7825457995442
3574.374,1.1219363384728662,557.3990379806592
3575.1963,1.1226882198176231,858.1904379564983
3576.0208,1.1229285873772537,723.7968902074826
3576.8435,1.1228520846519323,837.9190797118974
3577.6682,1.122654066133265,572.507296086513
3578.4915,1.1223911733199017,873.2152941188805
3579.3145,1.1219447123584363,817.8783040143072
3580.14,1.1210106322028106,490.8677287937709
3580.9636,1.1191806578314178,671.6291445014539
3581.7893,1.116139541926627,567.3161122645228
3582.6133,1.1119432764192845,673.6057996692134
3583.4395,1.1070611123809944,745.5106041534145
3584.264,1.1023419545880977,739.3555752442323
3585.0884,1.09859501778166,835.4248603077508
3585.915,1.0961171630994315,750.7580456542576
3586.74,1.0944341712081556,609.7511079370153
3587.5671,1.0926638370382102,771.5679617137606
3588.3923,1.0903951212422922,814.937071214132
3589.22,1.0880930922729541,802.6019964991369
3590.0457,1.0867879043469995,724.7344220753287
3590.8716,1.0873168117100436,646.6160205445707
3591.6995,1.0898768167524946,736.6125451370318
3592.526,1.0938916896428685,881.6195001143387
3593.3542,1.0982548545269863,944.8940334690172
3594.181,1.1017194013396934,599.313813822201
3595.0098,1.1034704666413908,504.91487970109796
3595.8367,1.1033032804230918,655.4347677692907
3596.6638,1.1015042684627299,762.6278969968051
3597.4934,1.0985962403108378,626.1579162391911
3598.3208,1.0954167272036768,623.9128986542662
3599.1506,1.0931745723472648,594.9871821778634
3599.9788,1.0931846042995674,881.1388939221492
3600.8088,1.0960017644467943,734.300800986955
3601.6372,1.100808117266866,1106.8259506227057
3602.4678,1.1058630759041113,632.3927532282481
3603.2964,1.1096840150044152,771.1698667903371
3604.1252,1.1120717142607495,561.9333969483991
3604.9565,1.1137702108315097,676.7147086106967
3605.786,1.115301217032908,657.1805035040053
3606.6172,1.1161304494417534,601.8795529904968
3607.447,1.1148385597500312,595.9120125879608
3608.2788,1.1101413665579711,724.1015777517455
3609.109,1.1019788237410586,544.902553020881
3609.9392,1.0918053997263482,989.7665578834982
3610.7717,1.0819830515350506,921.7375687170078
3611.6023,1.0747012168805787,618.7884528672433
3612.435,1.0709447690877567,855.1597458247415
3613.266,1.0705290873312738,706.1880165644735
3614.0994,1.0725124160690942,638.2890621083538
3614.9307,1.0758065076678858,617.2562808173285
3615.7625,1.0795725753974084,701.875108041383
3616.5962,1.0832603800522844,732.8527162430348
3617.4282,1.0864424085497209,629.9490640718051
3618.2625,1.0887960841620268,792.0592352209102
3619.0947,1.090149265829218,719.9888478030201
3619.9292,1.0906069722054847,787.1879466713256
3620.762,1.0904255197268957,704.834705122169
3621.595,1.0898864238092256,643.1009697328279
3622.4302,1.0893086415169215,634.1873135631686
3623.2634,1.0891449657764354,782.2873632791026
3624.0989,1.0898900496205342,1280.199322834302
3624.9326,1.0917900198603523,624.6121034180994
3625.7686,1.0945746471512845,901.5016853800797
3626.6028,1.0973620296331765,749.7407980094492
3627.437,1.0989768806380185,512.9587348777605
3628.2734,1.09853533358562,900.2689790602869
3629.1082,1.0961109599596601,805.3025897175665
3629.945,1.092869751630016,888.3992850123229
3630.78,1.0904526420119198,783.8949842102053
3631.6174,1.089923574111419,745.674081969711
3632.453,1.0913231649497461,608.8149219767615
3633.2883,1.0940419860637571,538.3166334022359
3634.1262,1.0975334690894103,815.1861991826659
3634.9622,1.101472639980958,626.6853969538437
3635.8005,1.1055287012298347,707.0231916245466
3636.637,1.109118208368782,1043.7467846903864
3637.4756,1.111718521090398,762.8443551721178
3638.3123,1.1130511680526471,713.216863230068
3639.1492,1.113070225117905,676.9148769384943
3639.9885,1.1118117802266574,889.1120821177241
3640.826,1.109576921527616,594.2906142393223
3641.6653,1.1071241605185322,683.4104188646161
3642.5032,1.1055168094767187,853.4751271787271
3643.343,1.1055085801222568,766.1831405579819
3644.1812,1.107109049875795,701.1540599150936
3645.0195,1.1096604733746032,565.4325958196578
3645.86,1.1123376703426824,776.6983948381494
3646.699,1.1146039098565697,625.3612144042407
3647.5398,1.1163900410803032,761.7213012072925
3648.379,1.117764545260365,663.2615180084176
3649.2202,1.118493394032156,521.2861442835633
3650.0596,1.1178499563360855,770.399229552393
3650.8994,1.1150685447869684,750.7447481461626
3651.7412,1.110100299969647,642.9244169593136
3652.5813,1.1040956189862405,689.5296372632275
3653.4236,1.098888738382742,842.7060320282721
3654.2642,1.095938564126992,636.2414235633026
3655.1067,1.095233798519098,850.2241347097846
3655.9475,1.0953917879587387,547.8709699770847
3656.7886,1.0947932900018325,730.6267144941176
3657.6318,1.0927952574742366,574.2443154656432
3658.4734,1.0899194218275223,615.7611960544567
3659.317,1.0870040055050616,602.3026467539831
3660.1587,1.0845606995383426,621.2016790534075
3661.003,1.0829145265713038,701.2833609993658
3661.845,1.0827504497316587,603.5192012508209
3662.6875,1.0848598567666832,736.2025673063306
3663.532,1.089202731741572,897.4998894618217
3664.3748,1.0942941851670773,566.2182336728373
3665.2197,1.0979862119568138,576.610326936673
3666.063,1.098839330280188,726.5248109737722
3666.9084,1.0970349556739525,519.5905597653598
3667.752,1.0940313971537088,556.3755626645808
3668.5977,1.0915313480005504,635.7184952912119
3669.4417,1.0906502539721363,802.4247774519663
3670.286,1.0915809768945182,655.1709171401413
3671.132,1.0938923393947844,616.5215907598545
3671.9768,1.0970122344556164,629.1244173995506
3672.8235,1.1005794017979658,801.1131752453817
3673.6685,1.1042858077294717,596.1566351413088
3674.5156,1.1076415638807726,663.3262353609249
3675.3608,1.1098813497442384,606.8013815642448
3676.2063,1.1103823524051768,938.3474268524997
3677.0542,1.109050996565891,761.241139385083
3677.9,1.1064552051189886,602.024173147823
3678.748,1.103455839690308,946.3752170875043
3679.5945,1.1007388161083909,688.0426043877627
3680.4429,1.0985023547502375,536.0790138472188
3681.2896,1.096661766338148,578.2125526351227
3682.1365,1.0951037714945289,733.3617416071534
3682.9856,1.0937567468344198,562.7354380174728
3683.8328,1.0924537871759996,972.3632003066894
3684.6824,1.0908968667592167,534.543455913213
3685.53,1.088904937573485,812.1082668895922
3686.38,1.086583010585621,647.4482051306754
3687.2278,1.0843268751272384,998.3974686619317
3688.0762,1.0825958672223568,779.4164483525316
3688.9265,1.081795338816071,600.9466187529281
3689.7751,1.0821934390748584,946.9981705910113
3690.626,1.0837869016081594,1224.2414284415836
3691.475,1.0861818044840736,630.1402359695685
3692.3264,1.08876605731202,817.5668186579359
3693.1758,1.0910685476752278,630.3263283683743
3694.0254,1.0930631719197859,682.4992173946229
3694.8772,1.0949693259290578,679.2956313680324
3695.7273,1.0968325245922956,677.2148268179875
3696.5793,1.0984159146906947,699.0000437330393
3697.43,1.0994704534459034,674.7226599802133
3698.2825,1.1000647592506645,730.933764078584
3699.1333,1.1004087832494391,692.9065191372935
3699.9841,1.1004375774058672,649.0292101325165
3700.8374,1.0997421232318867,658.274166587084
3701.6887,1.0980162532538864,625.0949686234021
3702.5425,1.0953759958446851,762.201810971967
3703.3943,1.0921836751059844,762.2890528322673
3704.2483,1.0885784340897915,578.2647197504733
3705.1003,1.0844895232344243,693.6192189662853
3705.9526,1.0799272366336434,931.8165621546731
3706.8074,1.0753100683719865,746.1378268620022
3707.66,1.0714659764068384,740.8908071016047
3708.515,1.0692327073927002,582.4540400101657
3709.3682,1.0691170711706692,665.0277801606964
3710.2234,1.0709002825689162,728.2075428547364
3711.0771,1.073560830915595,760.1353221463957
3711.9307,1.0756726299090749,743.3970883011909
3712.7866,1.0761671172520753,674.578639464925
3713.6409,1.0749880086651318,801.4009557657954
3714.4973,1.073091497029806,870.1858686717269
3715.3518,1.0717398515043186,597.4449744208223
3716.2085,1.0716417307217319,566.7009501982922
3717.0635,1.072676800686275,700.1973329811682
3717.9185,1.0742172902303513,711.6594101352174
3718.776,1.075613693071368,560.1853011233928
3719.6313,1.0763718871576842,672.2148843530275
3720.489,1.0761073568191442,686.8463813576375
3721.345,1.0745023579400297,818.8819009033984
3722.2031,1.0714560542387055,657.2207028829575
3723.0593,1.067313191421216,623.6199426864481
3723.9158,1.0628182834850566,955.1996167818202
3724.7747,1.0588764587154413,864.2684509763272
3725.6316,1.0562286828267287,873.4717245098025
3726.4905,1.055165560219822,733.9779180626102
3727.348,1.0556018561945741,899.8116602533026
3728.2073,1.0572217336187801,735.1267762471745
3729.065,1.059563894199866,728.189536300358
3729.9229,1.0620030509079248,730.1578979812116
3730.783,1.0637583702088618,700.773375383285
3731.6414,1.064116715584228,884.5702727940178
3732.5017,1.062807238270359,685.3335131089891
3733.3604,1.0601984929054253,849.1795776052669
3734.2214,1.0571488167743892,742.165865368518
3735.0803,1.0546352554516507,755.5032618261367
3735.9417,1.0532482866088357,799.0677602570112
3736.8013,1.053050663994715,749.0959484601108
3737.661,1.0536989530062342,865.8652562967811
3738.5227,1.0547591694255747,793.3880937582469
3739.3828,1.055920743377438,654.7797415781108
3740.245,1.0571316965879967,950.4389908637708
3741.1055,1.0585591563203358,889.8034709059616
3741.9683,1.0603948775945502,733.753718811042
3742.829,1.0625068055289824,919.9301202682634
3743.69,1.0643630045194412,661.7800293277118
3744.5532,1.065294032071262,732.3092557737403
3745.4148,1.0649404975647874,761.4244691330425
3746.2786,1.063499870002516,788.3352701726737
3747.1404,1.061558276290543,716.8935822368292
3748.0044,1.0596745836487516,751.9947986055761
3748.8667,1.0581757944229373,701.2650517544432
3749.729,1.0572286170223695,714.8402745552091
3750.5938,1.0570486345734762,697.6249457294281
3751.4565,1.0578124408174336,1104.6378533408486
3752.3215,1.0593390471901136,717.890061626226
3753.1848,1.06098172155668,920.0922527617589
3754.0503,1.0620390091471203,732.8022318422651
3754.9138,1.0622697307689004,718.7879207094409
3755.7776,1.0620413968383497,768.8264685136386
3756.6438,1.0619462805606608,764.4300319700501
3757.508,1.0623830024926313,933.6270533560235
3758.3745,1.063486209175892,784.4282586672285
3759.239,1.065281522997279,740.0852720846416
3760.106,1.0677202334791458,786.2597192048919
3760.971,1.0704442863969237,814.7664481472104
3761.8362,1.0727797658134903,699.6290786060459
3762.7036,1.0740519750193962,897.5838383223434
3763.5693,1.074015997246471,773.1176856998346
3764.437,1.0729480207771562,833.8821700784083
3765.3032,1.0713193198373838,748.8048627278823
3766.1714,1.0694164065374883,900.3171207600508
3767.0378,1.0672130011995264,664.4017660560228
3767.9043,1.0644019054610803,768.7415874256209
3768.7732,1.0606116853589462,635.6973354887435
3769.6401,1.0557737200844273,761.6142828432003
3770.5095,1.0502801274884497,727.6158553219921
3771.377,1.0449590060758946,927.2915158387133
3772.2466,1.040609453382555,744.8295540238114
3773.1145,1.0378644166386628,653.4182055592129
3773.9824,1.0371124976247634,799.2984128864238
3774.8528,1.0384787231487749,1016.6889608947852
3775.721,1.0415657152281896,758.6380709437163
3776.5918,1.045464242435094,816.470893929708
3777.4604,1.049162544812817,672.9278282243861
3778.3315,1.0522493270437934,757.5516111627836
3779.201,1.0550140371144505,780.047437965367
3780.0703,1.0580558255966641,768.4220148518625
3780.942,1.0616373175286296,965.0412754620703
3781.8118,1.065389435572576,740.6228557161598
3782.6838,1.0686254777305229,699.8471478301991
3783.554,1.0707734538284368,800.0200953531714
3784.4265,1.0717138610622186,688.8498669341543
3785.297,1.0716162968670095,779.6642853945272
3786.168,1.0706350215940263,713.7370780404369
3787.041,1.0687152248928362,725.6910567944866
3787.912,1.065745711672522,838.4033461049892
3788.7856,1.0617859078663912,873.7050436897861
3789.6572,1.0572259427007438,660.545633420425
3790.531,1.0525305735937214,883.8728773786088
3791.403,1.0480542369958308,810.311753611713
3792.2754,1.0438813182112314,839.3886848600936
3793.15,1.039945559474447,825.129165804412
3794.0225,1.0361004615799565,842.2051232281547
3794.8972,1.0320179530654159,700.0179800583085
3795.7703,1.0273700805433466,717.5448096645816
3796.6455,1.0221269217607287,834.4351418024362
3797.519,1.0170156327858757,697.1969679454293
3798.3926,1.0133829485577426,880.3073850727912
3799.2686,1.0126427304110475,991.0299476568778
3800.1426,1.015521662929523,771.988875952092
3801.0188,1.021719257602352,798.4063636657826
3801.8933,1.0301350173272064,701.2313380716829
3802.77,1.03953604182158,786.7208664079456
3803.6448,1.048807331517451,770.1426999885408
3804.522,1.0571804553742405,655.4804545273256
3805.3972,1.0639975244309594,710.5621156330564
3806.2727,1.0688822407289453,705.4491788594331
3807.1504,1.0717356181711672,890.7236877076117
3808.0261,1.0727610098221494,639.4929698389219
3808.9043,1.0724283442495322,673.2450137081225
3809.7805,1.0713411811805784,696.3014348376026
3810.659,1.0701546509137518,886.846825804094
3811.5356,1.069530516454832,698.2847139590737
3812.4126,1.0700431098811523,778.8869355732324
3813.2917,1.0720762652935236,696.1096834988144
3814.169,1.0756669057882529,897.3969748549094
3815.0483,1.080464120676333,769.0162890956705
3815.926,1.0856492522795111,764.3229454772652
3816.806,1.0901038779483379,833.1327267181437
3817.684,1.0926327745905011,637.776672137606
3818.5623,1.0925060302313354,774.6183343161209
3819.4429,1.089694762554925,745.8363881078259
3820.3215,1.0847361823210089,713.7756333115545
3821.2024,1.0782524819666783,691.8623846269732
3822.0815,1.0708635825253794,851.7124500882551
3822.963,1.063235200034623,696.0936516211876
3823.8423,1.056236746695564,788.8137087216787
3824.722,1.0504181171497466,653.26366969826
3825.604,1.0455971119403464,801.3700178094597
3826.4841,1.0409546130427385,670.0056189948724
3827.3665,1.0356527672067775,687.4331988342451
3828.2468,1.0295650631795374,994.3192570427933
3829.1296,1.0230125994911192,801.6798606198216
3830.0105,1.0160874274941707,811.5179034770822
3830.8916,1.0080243573724592,694.6898834701772
3831.7751,0.9976047973957879,871.8129474750641
3832.6565,0.9842083766879931,936.2131232909339
3833.5403,0.9683843122817863,1105.307186944056
3834.4224,0.9522392546127092,943.4247909837266
3835.3064,0.9386098078062355,1080.0039924008706
3836.1887,0.9302963907530045,988.9599617357712
3837.0713,0.9287671163423791,1008.9423097385644
3837.956,0.9336840243020595,888.4506804340961
3838.839,0.9431189943444684,1028.6715100401004
3839.7244,0.9547937311995321,862.6975897837386
3840.6077,0.967191233841926,808.5212323745848
3841.4932,0.9802684697746329,885.1272328232099
3842.377,0.9946824303495818,837.9234111781909
3843.261,1.0109088026262456,935.9954751745257
3844.1472,1.028442255987665,705.5220656864788
3845.0315,1.0457651924852218,760.2960959816367
3845.9182,1.0613497776059173,779.0840357446858
3846.803,1.0740849447169514,713.4052437019898
3847.69,1.083896808167577,739.7121917385816
3848.5752,1.0912926906138773,749.4591464919745
3849.4604,1.0970196385356634,744.3308856670723
3850.3481,1.1016331757195739,767.4801635251589
3851.234,1.1055401398165277,825.1983272773581
3852.122,1.1093520121158433,593.2613528345452
3853.0083,1.1137802552879692,666.0073154605466
3853.8967,1.1192166814982496,778.6226917378389
3854.7832,1.1251482322349873,642.8719205996927
3855.6702,1.1304155856322227,656.4862857873266
3856.559,1.13400917246745,680.9823493346282
3857.4463,1.1358235132611372,806.0072670263953
3858.336,1.136675399617468,749.8719743388071
3859.2234,1.1375496988235174,624.0229278627254
3860.1135,1.1388662567599137,815.1946431004283
3861.0015,1.1401529970565556,634.4116601350033
3861.8896,1.1403271875423315,708.3133981563648
3862.7803,1.1383403118020434,630.0939708091696
3863.6687,1.133945716105465,600.7984906153246
3864.5598,1.1279757334831813,683.522134717057
3865.4487,1.1220384534251848,826.5829131696402
3866.34,1.1175184671230676,736.1422159828521
3867.2297,1.114919058156222,810.3115922756206
3868.1213,1.1136464698285649,518.3475989805805
3869.0112,1.1125349668947102,776.4614574463467
3869.9014,1.1104533118051723,680.3126206515478
3870.7937,1.1067242988389423,582.5355599776534
3871.684,1.1013323418701833,774.1391882199327
3872.577,1.0948441172949863,705.9143992875285
3873.4678,1.0882562209588689,713.8440822913306
3874.361,1.0823732426663781,693.8355903126413
3875.2524,1.0774111207081023,760.0044633153693
3876.1438,1.0727093349322019,682.8437645651143
3877.0376,1.067028411923103,794.6879006636876
3877.9297,1.0590945075934097,645.8452624532706
3878.8237,1.0479574265248708,724.3135178957882
3879.716,1.0333934334890662,829.1137312242139
3880.6108,1.0157654053609972,732.6462419656374
3881.5037,0.996138909150626,739.2072190718594
3882.3965,0.975639756911575,983.7254596363621
3883.2917,0.9550735330706085,1058.93504065501
3884.185,0.9347483880877855,880.9891205048658
3885.0808,0.9141361364841458,998.2859461118486
3885.9746,0.8927215942633967,944.6093407484165
3886.8706,0.8702740169679355,1204.9083835550082
3887.765,0.8478789959570289,920.8825699614627
3888.6592,0.8279207827801244,1432.3736625830024
3889.556,0.8139045877766443,1553.7876295742124
3890.4507,0.809339274972979,1630.7480150217423
3891.348,0.8158502581672926,1734.5856664746093
3892.243,0.8322051546188858,989.9342705598089
3893.1406,0.8549304160282372,1124.340240257659
3894.0361,0.8796571549719436,1533.7001798432493
3894.932,0.9031413869465359,782.4033236924157
3895.83,0.9237858632167956,1089.6542693138204
3896.7263,0.9413547377812399,1011.8157200955043
3897.625,0.9567669320515717,959.6196554354033
3898.5215,0.9711778200002116,840.7853664052061
3899.4207,0.9858895104761294,725.7436679818393
3900.3176,1.0017135308569038,900.1272820823455
3901.2148,1.0189591460769727,1066.1580221539987
3902.1145,1.0371426097043839,696.8225750996139
3903.0122,1.055018745401884,756.4103343624622
3903.912,1.0714327367845242,627.8000567225256
3904.8103,1.0855956266649152,668.249489825655
3905.7107,1.097634445145743,674.2674291754398
3906.6094,1.1081949135298503,693.8605867948518
3907.508,1.118229000915273,694.6665590240009
3908.409,1.1284911182171224,692.4462655962957
3909.308,1.1391629621242394,680.4752224312238
3910.2097,1.1498663700794418,632.0713493473993
3911.1091,1.1595273605785537,572.5802149424719
3912.011,1.1669745694743316,720.3827049245734
3912.9111,1.171459314753675,549.1277539942012
3913.8113,1.173355454807829,727.3814210423016
3914.7136,1.173959022217019,568.0934818051048
3915.6143,1.174721484387438,604.7341774664499
3916.517,1.1765277653660815,577.5500122725449
3917.4182,1.1795782847640268,689.2501242124014
3918.3215,1.1838157729640157,661.0709105893766
3919.223,1.1891865041523497,637.4423480098741
3920.1245,1.195610424702273,592.0113060960527
3921.0286,1.202612995019294,534.9421354091286
3921.9307,1.2090991287052852,600.4358997824618
3922.835,1.2138203959686742,562.8577417502353
3923.7373,1.2159986649961483,509.8155581966417
3924.642,1.215911474184304,512.5601964081408
3925.5452,1.2146533527975094,521.6801663420148
3926.448,1.2133995120984868,584.17098553934
3927.3535,1.2127001250464036,594.4522453713103
3928.257,1.2123215881539875,575.4436896879594
3929.1628,1.2116259703502836,533.8420836819498
3930.0667,1.2102037916365391,518.5900422100111
3930.9731,1.2082444481053878,547.5681559761867
3931.8774,1.2064625871702896,538.3491853313234
3932.782,1.205602264400907,502.9325060684672
3933.6887,1.2060180290238876,578.3109292988396
3934.5938,1.2074927416969412,625.4482076846695
3935.501,1.2093405693725228,529.2583985735612
3936.4062,1.2106161260125565,527.1831638953387
3937.3142,1.2104174472716964,579.6413601916329
