wavl,flux,ivar
3566.9744,1.9040307126899951,149.38379984563204
3567.795,1.9002718108797139,139.98977397245082
3568.6177,1.8981350495975202,185.89190969599343
3569.4385,1.8962971975761271,125.77028700639849
3570.2617,1.8934102783424291,188.08834088425237
3571.083,1.8890844283073387,189.65909122595232
3571.9065,1.8838216445434341,158.90129717640085
3572.7283,1.8784828611073703,145.66399699230558
3573.55,1.8737348144994146,147.58081876011676
3574.374,1.8700504892231935,195.7229254870785
3575.1963,1.8678783016227538,154.25519924368714
3576.0208,1.8676071464816697,170.27440885400677
3576.8435,1.8694425575984084,126.29514700284638
3577.6682,1.8731809876022696,149.5137850562882
3578.4915,1.8780155227315385,164.41766977086644
3579.3145,1.8825663190296829,168.08620012420545
3580.14,1.885200096486402,202.57456920359607
3580.9636,1.8847892038702672,138.71370240358624
3581.7893,1.8815569429213042,172.96013947691932
3582.6133,1.8770684482652924,148.8188687975114
3583.4395,1.873065675093727,160.5706230183678
3584.264,1.8701643615826373,165.11673375654152
3585.0884,1.8674366944912633,188.952330405921
3585.915,1.8634064659610783,140.54573012070205
3586.74,1.8573984274642337,156.93166156942047
3587.5671,1.849988707507025,182.15236177132473
3588.3923,1.8426725170817966,162.47334832800001
3589.22,1.8369803186463427,154.66788424182766
3590.0457,1.8341045255228983,157.0756139284833
3590.8716,1.8345351356923325,173.0029032842813
3591.6995,1.8380018648754342,180.83984019796577
3592.526,1.8433954572273323,177.60800776683868
3593.3542,1.8490054895153953,193.0588842054069
3594.181,1.8528788188975651,147.6397342751997
3595.0098,1.8535263544030904,147.84301210498126
3595.8367,1.850463979990343,140.82072445749807
3596.6638,1.84441554286026,132.6992952865201
3597.4934,1.8368733858753095,182.19113316486133
3598.3208,1.8295127575179613,138.3689109101363
3599.1506,1.823574883023903,146.46927234083097
3599.9788,1.81986889083431,175.9989594233246
3600.8088,1.8185766149877498,187.46999648815316
3601.6372,1.8191910829624434,186.36966411550108
3602.4678,1.8205658011146137,199.78669178216524
3603.2964,1.8214633912680434,198.7756232059881
3604.1252,1.8213507967719653,153.62392886630485
3604.9565,1.8206711017024695,208.4525076205666
3605.786,1.8202326992757596,188.9133678118277
3606.6172,1.8201616524216386,142.9571180119074
3607.447,1.8195279938179492,164.93765907919598
3608.2788,1.8170712800869782,148.75121466267126
3609.109,1.8123709172851303,177.04561087851727
3609.9392,1.8062537374794003,188.25018984985056
3610.7717,1.8001920382552785,224.1863815213389
3611.6023,1.7953792848899597,202.41073916976103
3612.435,1.7921237634247023,164.02495423621716
3613.266,1.7901134816840927,160.74012553135552
3614.0994,1.7888552177661334,161.7358411749506
3614.9307,1.7881558192665152,171.3358138928417
3615.7625,1.7882337334119232,160.91347108072043
3616.5962,1.789491720219002,158.71147045102728
3617.4282,1.792019267147561,206.77544808241925
3618.2625,1.7952915248519263,166.93136753793326
3619.0947,1.7982678564676917,172.24883233190607
3619.9292,1.799956092081513,193.01362661453868
3620.762,1.799805056178377,179.99643589473166
3621.595,1.7977961162823217,189.59795670600207
3622.4302,1.79424239792221,182.9189585882327
3623.2634,1.7897842136215627,172.1213404732042
3624.0989,1.7853638494947017,152.17518265438144
3624.9326,1.782019486653548,175.45829201940472
3625.7686,1.7801184918710937,158.39867355671896
3626.6028,1.7789771056109367,194.57003182778385
3627.437,1.7773412452260642,167.01382843128724
3628.2734,1.774587945816551,215.22622668747965
3629.1082,1.7714469917878468,158.2713757310904
3629.945,1.769379267327337,231.79293942558235
3630.78,1.7692858261572595,197.35032625900985
3631.6174,1.7706869078147702,194.54442528678257
3632.453,1.7721746104409961,147.074279609031
3633.2883,1.7725465146567543,207.84524346484739
3634.1262,1.7714744764641528,179.29380925166902
3634.9622,1.769367078494639,197.89120716639408
3635.8005,1.766849198540766,207.00083090445526
3636.637,1.7645055586161174,158.80363958820539
3637.4756,1.76270998846893,183.40907477767962
3638.3123,1.7614948656921017,157.61822762999745
3639.1492,1.7604503388271109,178.68193415459697
3639.9885,1.75901996229801,159.3652499906995
3640.826,1.7569517633239284,173.49647584677962
3641.6653,1.7544210645376883,202.53578740865288
3642.5032,1.7518216069052324,190.41941231291162
3643.343,1.7494560867563027,184.64121390744344
3644.1812,1.7476076783527452,204.41630113381316
3645.0195,1.7467183584478645,182.79566112668326
3645.86,1.7474290284274319,186.40067202300384
3646.699,1.7501886463029708,189.15763986602894
3647.5398,1.7547058238823625,184.91980282731376
3648.379,1.7595983155268848,170.33302976976648
3649.2202,1.762846704118919,162.7791651431661
3650.0596,1.7627952520607435,177.05654279930448
3650.8994,1.7592890490411528,161.9865459056251
3651.7412,1.7538095213881504,177.8606880500013
3652.5813,1.748560146363824,166.5347566110266
3653.4236,1.7449170777060452,215.43270277627963
3654.2642,1.7427050974958955,177.64680329795766
3655.1067,1.7406698395670752,197.99820367887793
3655.9475,1.7379319899696402,162.9590064565669
3656.7886,1.7348110758717719,200.95634774259705
3657.6318,1.732211531325078,206.89882877919388
3658.4734,1.7301901718168677,143.2347159747673
3659.317,1.7272702534837756,189.38757474664493
3660.1587,1.7214778047732577,158.92359553539316
3661.003,1.7120466743440355,197.34853741643343
3661.845,1.700575374287239,171.53983250160903
3662.6875,1.6903003175198703,200.1291371931788
3663.532,1.6844701582330637,207.8592584012108
3664.3748,1.6846495186148742,183.8518068514045
3665.2197,1.6900996068800713,178.06906700348338
3666.063,1.6984770461829,204.90833316743667
3666.9084,1.7070478199683767,183.74979487118767
3667.752,1.7133403356448356,176.8090044114512
3668.5977,1.7157540756445278,153.23019158786835
3669.4417,1.713950965911316,185.03223676243422
3670.286,1.709231595886711,189.910059487338
3671.132,1.704061377220996,190.90682599538897
3671.9768,1.7009161059832438,195.94195332330423
3672.8235,1.7009842968831528,198.55114202849703
3673.6685,1.7037548899917128,195.6620780385339
3674.5156,1.7075135179799672,192.55766006887936
3675.3608,1.710261004562841,166.54687700369678
3676.2063,1.7105965118503483,221.75509336382774
3677.0542,1.708082745465975,194.06446903441264
3677.9,1.7033018130888298,177.02610659099875
3678.748,1.6974765548862452,201.21991289821312
3679.5945,1.692059089921331,203.1014589875285
3680.4429,1.68818724175854,153.33521852240335
3681.2896,1.6864840666140666,234.01842482884615
3682.1365,1.6867915786442669,182.7071104269061
3682.9856,1.6881018273623545,207.32264193567784
3683.8328,1.6887679359208363,204.06293599819597
3684.6824,1.687261872653388,181.79521123934754
3685.53,1.683061550537377,241.75577566918832
3686.38,1.677000346188509,188.6761362224118
3687.2278,1.6709126886882042,206.69887551710002
3688.0762,1.6665954749274234,225.04628006737647
3688.9265,1.6649889962830104,188.41931710859552
3689.7751,1.665790929122439,219.47904889344346
3690.626,1.6677605017519834,209.2348760091714
3691.475,1.6695600139340754,190.74152120850016
3692.3264,1.670655774478482,188.62353949418474
3693.1758,1.6715499328493018,208.32282776771447
3694.0254,1.6731677142393484,196.06661916180587
3694.8772,1.6758280057166672,185.45125556129983
3695.7273,1.6787144944710148,199.4100643203808
3696.5793,1.6803871250779836,191.30591822675757
3697.43,1.679743228508053,224.41504317027926
3698.2825,1.6766721402544567,213.58627582446707
3699.1333,1.6718976731905073,211.78308692184527
3699.9841,1.666334531487079,180.76753174557257
3700.8374,1.6607467658310218,175.85332301007233
3701.6887,1.6559209624221831,195.08044028673123
3702.5425,1.652696695088099,202.47074841765897
3703.3943,1.6517322895538422,199.3649235131571
3704.2483,1.6528103217667898,242.8370399332625
3705.1003,1.6545645902187374,166.0389361703866
3705.9526,1.6550240708729842,189.7525576913765
3706.8074,1.6527693892409974,190.39018348724815
3707.66,1.6479759283292936,202.0395480803909
3708.515,1.642389080275513,227.25545720214413
3709.3682,1.6383432415116592,206.61189628265006
3710.2234,1.6372754811116386,207.8735497831756
3711.0771,1.6390687212991744,216.55375477680278
3711.9307,1.6424317127902264,195.69250638860765
3712.7866,1.6460154722229348,196.52737660544466
3713.6409,1.6492033447581653,192.05328986156718
3714.4973,1.6521248617665618,249.8623067122348
3715.3518,1.6548507304714821,219.53361354833677
3716.2085,1.6568549621750384,194.30640249266972
3717.0635,1.6571528632759103,159.74292587269545
3717.9185,1.6550460872858324,220.8650783942375
3718.776,1.650569806027517,229.4412878855677
3719.6313,1.6444849647631634,188.9898337137937
3720.489,1.6378273873061429,219.77534924293653
3721.345,1.6316614694640499,233.0922076778448
3722.2031,1.6266912935854143,208.8165139412096
3723.0593,1.6231824327200117,220.40038079857757
3723.9158,1.6208886988546007,216.28123197615628
3724.7747,1.619310325178395,210.77213948546526
3725.6316,1.6179228205580236,209.78879481216265
3726.4905,1.6162960938406135,196.77758067527725
3727.348,1.6142859339971722,202.06956376572649
3728.2073,1.6122056889294558,204.97819671375458
3729.065,1.6108020719440956,202.967857100324
3729.9229,1.6106891989721792,210.53978060921804
3730.783,1.6117241978184127,176.12347178979095
3731.6414,1.6129571953639787,226.46045282806745
3732.5017,1.613428690721534,170.77357129372982
3733.3604,1.6130168934028937,179.55522695236866
3734.2214,1.612464025418456,238.30218071162798
3735.0803,1.612546366557454,201.0997099119591
3735.9417,1.6133063163950092,208.0761149164462
3736.8013,1.6140987802458207,225.46067096164168
3737.661,1.6142073425526122,229.2914842056803
3738.5227,1.613268362369464,206.954358029919
3739.3828,1.61129051111909,208.73105023412162
3740.245,1.6085155467165486,225.29212559445645
3741.1055,1.6054256712618877,222.37979431345352
3741.9683,1.6026414886268263,209.88577104452082
3742.829,1.6007362082535697,252.34430967535693
3743.69,1.5998356262721125,228.1889072926232
3744.5532,1.5994723447409416,219.58205444385123
3745.4148,1.5988027020679378,178.98644806841614
3746.2786,1.5971168271445442,214.0298271406602
3747.1404,1.5942636292443182,206.67828732692092
3748.0044,1.5906061411507217,195.44817625799303
3748.8667,1.5867791761772199,193.32883441484606
3749.729,1.5834051363746968,213.4488387964476
3750.5938,1.5810666591641023,206.3540316783419
3751.4565,1.5802643649480232,236.56383678067905
3752.3215,1.581138143090796,239.8699263482009
3753.1848,1.58318672480947,211.68852663869902
3754.0503,1.5853148298930386,219.18348797004074
3754.9138,1.5863572080570432,167.17564016830303
3755.7776,1.5858109467182886,222.03805098064558
3756.6438,1.5840807175353375,229.52550989549053
3757.508,1.5822041771372128,239.76131157644483
3758.3745,1.581257824551847,230.2581794882409
3759.239,1.5818551414425124,218.37787146957663
3760.106,1.5837603646916576,220.01223625654055
3760.971,1.5858353008045543,227.13242110786126
3761.8362,1.586581147101882,193.58929823621006
3762.7036,1.5850105694992007,233.5865835414759
3763.5693,1.5813213752103088,239.31265667543104
3764.437,1.5767462453417482,257.0794625288093
3765.3032,1.5728455393573766,212.0541216412065
3766.1714,1.5706757389700994,206.8297920039301
3767.0378,1.5705082920175408,206.90953105236525
3767.9043,1.5718671977457621,245.58645608144388
3768.7732,1.5737848190069352,208.9252549181207
3769.6401,1.575067533368588,219.6070009180817
3770.5095,1.5747411126544975,208.57630523224898
3771.377,1.5724821831297588,223.70146048446156
3772.2466,1.5687902408213565,224.04681911108227
3773.1145,1.564722758195091,209.7259497804491
3773.9824,1.5612138234255966,202.63481110743368
3774.8528,1.5585865331430129,188.05962390072128
3775.721,1.5565611329286173,203.9459491491317
3776.5918,1.5546485210708625,250.57081428365214
3777.4604,1.5526726488113842,216.30803137618955
3778.3315,1.550850444263301,233.2919442986334
3779.201,1.54962215526554,243.78519011363883
3780.0703,1.5493755582295632,208.94753955744008
3780.942,1.550384084395262,229.10044632724853
3781.8118,1.5527530677206756,186.02907165660326
3782.6838,1.5562528949356367,238.8464697111788
3783.554,1.5600238253490322,214.04557966996254
3784.4265,1.5626788356686607,199.3424076104859
3785.297,1.5627907500428417,224.98947430714048
3786.168,1.5596925675847837,210.4206099982963
3787.041,1.5538273023399558,229.8451404215261
3787.912,1.5465985404429188,225.5445296467039
3788.7856,1.5396298789559775,224.54914400438275
3789.6572,1.5342624674508658,216.26369212970553
3790.531,1.531066256642356,243.67815933843826
3791.403,1.5298534679483453,276.84179596557175
3792.2754,1.5297545733588733,249.24306956779964
3793.15,1.5296050232418748,227.03235506810648
3794.0225,1.5284350718511175,274.4595889725677
3794.8972,1.5258883046438723,234.9034260905476
3795.7703,1.5223798256556846,273.50871644477036
3796.6455,1.5188320835707991,254.17164238455752
3797.519,1.5162765704442867,239.69039287358146
3798.3926,1.5153589832485024,212.10197610970883
3799.2686,1.5161623492581575,212.74395639591165
3800.1426,1.5182671457950974,218.26617032979004
3801.0188,1.5210726905878318,244.77140573436967
3801.8933,1.5241137747741638,267.14708597541903
3802.77,1.5272856209188745,289.7487111148944
3803.6448,1.5306975937086555,216.64861628576764
3804.522,1.5344599204324954,239.0834427071101
3805.3972,1.5383251216590468,227.63719770962066
3806.2727,1.5415940546329816,238.82486690530885
3807.1504,1.543225029498564,198.94403562722502
3808.0261,1.5423851866756972,215.57193567824464
3808.9043,1.5391526587314912,220.311108021711
3809.7805,1.5347324810944327,194.25068829416918
3810.659,1.530771291138456,248.72372161788078
3811.5356,1.5284056244049449,211.4739823446901
3812.4126,1.5276648223075104,237.30657313603857
3813.2917,1.5278067389581507,192.36208879044904
3814.169,1.5279642895816805,245.9089269082804
3815.0483,1.5275412019071362,232.2097593176684
3815.926,1.5262249822098006,247.66987929978012
3816.806,1.5239246049507753,222.16278912653553
3817.684,1.5208876768310506,225.59653541948697
3818.5623,1.517757528335864,251.71419684556375
3819.4429,1.5153957727433844,298.6162292985179
3820.3215,1.5144223578858964,264.4502124981825
3821.2024,1.5147508930177909,231.1883101342215
3822.0815,1.5156094123047807,245.76954920741332
3822.963,1.5159599889413091,251.46281600508763
3823.8423,1.5149906177114456,278.17841069993335
3824.722,1.5124169332300805,253.12998228212282
3825.604,1.5085248492544001,253.2089925850951
3826.4841,1.5040827654495306,273.1681283504277
3827.3665,1.4999373288401618,249.52653742423732
3828.2468,1.496613814391878,242.81031692603514
3829.1296,1.4938742967193654,252.8327501096935
3830.0105,1.4908394330573236,248.6353415745175
3830.8916,1.4865037976587576,282.4771144459751
3831.7751,1.4804824953437279,258.8795420847906
3832.6565,1.4734274443351332,226.9070004709458
3833.5403,1.466596184373851,249.0768546316312
3834.4224,1.4612552131751866,293.7160408717781
3835.3064,1.458002563482102,251.76028304977834
3836.1887,1.4568197491562302,244.07938417257998
3837.0713,1.457347524744331,277.2547058193066
3837.956,1.4592182231514828,278.2592599541101
3838.839,1.462063904635077,261.23101314176034
3839.7244,1.4654018634724473,242.94134059940782
3840.6077,1.4685133511641373,272.23482092607287
3841.4932,1.4707568713409718,225.21106537734445
3842.377,1.4720767431332826,297.96999746239084
3843.261,1.473411229509281,279.83695211423833
3844.1472,1.4763028001491154,293.2648187210716
3845.0315,1.4818090873664127,221.4549729395302
3845.9182,1.4895819707985334,288.9611071520793
3846.803,1.497728238075742,221.00287212844816
3847.69,1.504033299296256,231.65541606406356
3848.5752,1.507279397168561,225.22639440334214
3849.4604,1.5079887925398958,273.24461991806805
3850.3481,1.507723773857427,247.87233177402808
3851.234,1.5079090229764556,214.4065748199062
3852.122,1.5091452386210662,248.391391900774
3853.0083,1.5113328688813235,227.2312163107953
3853.8967,1.5141275035081183,240.2773792951961
3854.7832,1.517172275033805,255.0579136412328
3855.6702,1.52026809957348,230.57828153596776
3856.559,1.5234235802669898,219.07465661442347
3857.4463,1.5267186394319934,246.30181222795412
3858.336,1.5300173208073877,244.32146380460208
3859.2234,1.5327189597910118,220.54921345727706
3860.1135,1.5340952613393906,269.06762670606065
3861.0015,1.5337726737208888,228.15710722699387
3861.8896,1.532022871761501,231.78061857480841
3862.7803,1.5294734286920995,218.9198594960954
3863.6687,1.5266207347822314,250.37899648452475
3864.5598,1.5234320097975578,236.46520717774757
3865.4487,1.519478213649678,240.9006227349551
3866.34,1.5142894081454166,212.64702820612476
3867.2297,1.5079389724282515,222.07508846446146
3868.1213,1.5011624303510784,241.46772830948836
3869.0112,1.4951748541099392,261.7361293589365
3869.9014,1.49092673987229,244.8277942298714
3870.7937,1.4885487254642598,272.87419314608815
3871.684,1.4871741488193673,262.53240606754906
3872.577,1.4852954907993197,236.75193110721222
3873.4678,1.4815432246388653,244.5354714503737
3874.361,1.4752633845439318,276.3246029997454
3875.2524,1.466786251721189,245.73960213360036
3876.1438,1.4570591164712687,212.7121254062406
3877.0376,1.44713396282372,228.71403641229995
3877.9297,1.4377146102187603,298.0838533822346
3878.8237,1.4287601691289238,288.2566450220269
3879.716,1.4199226291941671,257.63014697361655
3880.6108,1.4109562958904605,242.46720271016866
3881.5037,1.4021711597192406,337.85292765214143
3882.3965,1.3940073954564884,274.3539643362533
3883.2917,1.3865748746266329,297.4860800424056
3884.185,1.3794812086082113,255.07208584710412
3885.0808,1.3719774475294992,332.98895978104036
3885.9746,1.3636470552332143,295.3346623423989
3886.8706,1.3546979635521732,317.93349281673324
3887.765,1.346234407636461,310.29561534370407
3888.6592,1.3398417218580572,300.8504306020605
3889.556,1.337009645743574,291.77635635618856
3890.4507,1.3383983696880286,308.49597829883936
3891.348,1.3434855648775064,343.0400921300943
3892.243,1.350954342922745,310.122819731517
3893.1406,1.3595956889461471,305.7726327007493
3894.0361,1.3686587594720359,321.3835056438108
3894.932,1.3778841372462405,248.5419665256564
3895.83,1.3870598856878353,291.3505517217451
3896.7263,1.3958455129862555,280.67904138188936
3897.625,1.4041471750099026,270.1951771008031
3898.5215,1.4121525854800865,282.8011379778093
3899.4207,1.4204329984259996,261.5462776851179
3900.3176,1.429471753770977,270.35506372967563
3901.2148,1.439530148143453,320.3226759027959
3902.1145,1.4504526648990257,238.4439473267205
3903.0122,1.4616093647245922,239.17504705156225
3903.912,1.4721976391856855,253.76058275325917
3904.8103,1.4812435636704662,259.65952276883127
3905.7107,1.4881497426878691,219.11972216194872
3906.6094,1.4930097197948855,223.10354402622568
3907.508,1.4968537780728444,258.9613851933885
3908.409,1.5010237454299915,280.4124601951186
3909.308,1.5061659183188942,231.28599534166315
3910.2097,1.5117412398182377,240.11630378979265
3911.1091,1.5163674529663376,205.84773248487025
3912.011,1.5190284973444779,224.2793934248751
3912.9111,1.5198647044714761,253.86380568110715
3913.8113,1.5201616013845518,213.32579415548068
3914.7136,1.5214309509663064,268.1880852430358
3915.6143,1.5244577165767341,232.2079907024064
3916.517,1.529040536438561,228.93650479984126
3917.4182,1.534361941449088,233.6785720713657
3918.3215,1.5396466423560833,247.4973789926836
3919.223,1.544327323008965,244.12090114273093
3920.1245,1.548039465181572,220.7863797600337
3921.0286,1.5504797428235257,205.50177674824113
3921.9307,1.5514841393562415,199.61339393265882
3922.835,1.5511806182685073,215.1207338270205
3923.7373,1.5499023944601733,217.18969267454418
3924.642,1.5479559139493764,221.63738286384842
3925.5452,1.5454850756253677,214.28474580382155
3926.448,1.5425177404475818,304.5158343362258
3927.3535,1.5391707644862775,212.45252073209096
3928.257,1.5357891498233498,239.16463689180836
3929.1628,1.5327539327786217,248.9757545416665
3930.0667,1.530266770067997,218.58275260501983
3930.9731,1.5281359340259344,246.6270236746578
3931.8774,1.5259918487856003,235.3097213150346
