wavl,flux,ivar
3566.9744,2.262864493776361,277.6261182860811
3567.795,2.270072369200305,259.36390102118503
3568.6177,2.279722059831714,251.36281688456435
3569.4385,2.288852798730685,215.08546106408988
3570.2617,2.2953381940230417,248.28964686543998
3571.083,2.2985238122145297,234.61654667464566
3571.9065,2.2990310448490656,185.66162963857198
3572.7283,2.297705328277438,225.97243356770406
3573.55,2.294895071131698,205.75892390640337
3574.374,2.290439489804353,202.91856210394903
3575.1963,2.284325830196113,213.66768725771948
3576.0208,2.2771511887651985,234.5567923415975
3576.8435,2.2702135263269545,285.6366603363485
3577.6682,2.264930318197359,211.22560014203643
3578.4915,2.2624812169954995,266.14189431101653
3579.3145,2.26339447808545,231.8373945194782
3580.14,2.267329430818709,230.88086238286817
3580.9636,2.272890326695655,225.85239726436455
3581.7893,2.2780386280357257,254.73725165151103
3582.6133,2.280878191471096,204.04498895010929
3583.4395,2.2806423648958623,212.94855811514967
3584.264,2.277982744038317,233.49218735033944
3585.0884,2.2744447415063234,199.15405212727788
3585.915,2.2713931826096623,224.11280319207714
3586.74,2.269220243169198,280.250041499648
3587.5671,2.2672872357943588,216.3751657067823
3588.3923,2.264697075956262,242.62469910540167
3589.22,2.261048826701274,228.32894862120133
3590.0457,2.25676520895738,234.58228242617577
3590.8716,2.2526692474077388,300.0122911428345
3591.6995,2.2494379559731477,261.42355634210185
3592.526,2.2473174302738688,199.74206788431815
3593.3542,2.2461725463918376,225.14756257866364
3594.181,2.245693339740746,221.16526904682172
3595.0098,2.245388169783125,205.89923539121116
3595.8367,2.2446793801064584,252.4549173869994
3596.6638,2.2432960577909085,258.09713155741537
3597.4934,2.2416767022293826,255.35164561169924
3598.3208,2.2407913113534508,242.7312741700936
3599.1506,2.2412808139935327,231.65212222937484
3599.9788,2.2427638635316796,246.06246575801805
3600.8088,2.2440100140385146,212.8183265627914
3601.6372,2.2438146904198404,232.04814931496603
3602.4678,2.241707140910487,244.4289500765145
3603.2964,2.237867735277255,173.67969498881502
3604.1252,2.232597904155595,243.34027561727163
3604.9565,2.226184582677938,244.57083148267355
3605.786,2.2193151551593733,184.72538464108837
3606.6172,2.2131808722219337,268.7101174277204
3607.447,2.2092313073717738,253.0457995103716
3608.2788,2.2083661794057217,266.6424254563175
3609.109,2.210422813572543,291.1903217843318
3609.9392,2.214031193996837,255.682445244411
3610.7717,2.2170356714202657,237.09494349943571
3611.6023,2.2173094897477714,215.91996645868494
3612.435,2.2137540409195307,254.93118415961246
3613.266,2.20686448972091,288.98345597892103
3614.0994,2.198546923788116,281.59718346121423
3614.9307,2.1915279459440153,242.59822634009817
3615.7625,2.1881904851235974,223.908479006024
3616.5962,2.1895866145458673,301.50765667481926
3617.4282,2.194722747340674,299.95617894183675
3618.2625,2.200972389658263,272.64922688216296
3619.0947,2.2053897946137124,226.97709312434296
3619.9292,2.206313112898974,242.81973610312264
3620.762,2.2039086781590598,260.90401560268236
3621.595,2.1996636338558027,236.59279887262068
3622.4302,2.1952016837599335,285.5880742138887
3623.2634,2.1913675006434885,244.0374389379726
3624.0989,2.1879378486125978,229.423170817884
3624.9326,2.184202411150002,312.25741009613347
3625.7686,2.179550672581483,275.80181399895855
3626.6028,2.17383540741721,252.75371038614978
3627.437,2.1672055928352845,233.83983305481243
3628.2734,2.1600103717659476,227.72075352450344
3629.1082,2.152947346236688,288.8502246751967
3629.945,2.1469842097074503,258.6593759128452
3630.78,2.143101418953789,279.4600628527205
3631.6174,2.1415217081429336,228.24172005048166
3632.453,2.1415214797823814,276.69996677551137
3633.2883,2.14190408435719,309.68564407365943
3634.1262,2.1417873995232117,270.58790828501554
3634.9622,2.1408690338129497,285.5984504127954
3635.8005,2.1391684848222456,270.91630576516644
3636.637,2.1367956294394532,271.07240017666084
3637.4756,2.133876051968818,314.7951012713281
3638.3123,2.130537288625355,310.4382675463515
3639.1492,2.1267124297664473,256.2144919143481
3639.9885,2.1221773977351406,263.28786627272586
3640.826,2.1169344923761515,242.47084875643043
3641.6653,2.1115322749495373,286.3538750045844
3642.5032,2.1071718574932907,286.8923323138854
3643.343,2.105083858310146,236.85757528157134
3644.1812,2.1058182229199898,280.7770383291733
3645.0195,2.1087703253322925,263.9390874949253
3645.86,2.1123632152629988,283.99850048411633
3646.699,2.114531111435769,281.19061983248656
3647.5398,2.113428582932083,245.20108439278044
3648.379,2.108098876460486,259.9405173028613
3649.2202,2.0989491840412184,230.21129623213665
3650.0596,2.087784602338085,257.8044216049388
3650.8994,2.0769080607245702,298.019799782743
3651.7412,2.068193362913896,260.7164536173917
3652.5813,2.0624356256009073,308.54776053429316
3653.4236,2.0591815582053217,258.37719976631627
3654.2642,2.057367285107072,295.26230983049845
3655.1067,2.056059364328853,277.66451544341487
3655.9475,2.055068899808158,334.8931961385231
3656.7886,2.054790499103572,271.5793222559779
3657.6318,2.055482181103384,327.35968421261515
3658.4734,2.0566814938579143,314.1534170615283
3659.317,2.0574702969961236,330.9691628129977
3660.1587,2.0572785598719565,271.7012127775186
3661.003,2.056347794128476,287.915536387046
3661.845,2.055376336760574,328.4292711945685
3662.6875,2.0548326407649253,247.79120937138688
3663.532,2.0547230429396715,322.3113266000686
3664.3748,2.0548771251328515,290.12468163140966
3665.2197,2.05524719443414,299.0035827071059
3666.063,2.055792775779192,296.60266134912047
3666.9084,2.0561821795910498,367.92036404354536
3667.752,2.0558509022158904,288.57574093463177
3668.5977,2.0545128782102258,316.6288193025811
3669.4417,2.05250425696471,292.385090940437
3670.286,2.050460451360742,313.9017364836642
3671.132,2.0487643765591868,286.72616818376645
3671.9768,2.04742965877338,341.15951176446765
3672.8235,2.0464021515611375,322.0036227888917
3673.6685,2.0458040282569407,297.0075194723879
3674.5156,2.045773738019897,256.24006021210437
3675.3608,2.0462549076625693,330.78906911737744
3676.2063,2.0469672449835583,321.27752318520385
3677.0542,2.047460355381842,304.582458204269
3677.9,2.047103529350081,328.29422415996356
3678.748,2.0452339555834986,293.024183824845
3679.5945,2.0416663871919756,239.5016911680416
3680.4429,2.0371555739448945,283.7140201203501
3681.2896,2.033282993432447,300.7169583087421
3682.1365,2.031482595895573,327.5331822718365
3682.9856,2.0321952614760708,281.16972917265696
3683.8328,2.0347874384381273,302.42130145972806
3684.6824,2.0383170720454125,314.5976920442096
3685.53,2.042166805637087,311.9784643679795
3686.38,2.045988162462347,255.8531019190997
3687.2278,2.0490270886982307,305.04974302854487
3688.0762,2.0501523157968267,336.8885723862868
3688.9265,2.048679999993834,311.5085767082501
3689.7751,2.04516274042152,333.33282045389313
3690.626,2.040895285457814,314.29031389094257
3691.475,2.036728804514287,291.42837613646776
3692.3264,2.0324593831318554,258.601489441401
3693.1758,2.027592575086404,262.9536351015845
3694.0254,2.0222079232624868,253.76247752209932
3694.8772,2.017109771037755,296.48542871425565
3695.7273,2.013208196516672,311.714782952475
3696.5793,2.010800072764912,308.67581608702505
3697.43,2.009553607071489,300.90767285412124
3698.2825,2.00884645742775,312.63844789421785
3699.1333,2.0081895247743184,309.6726655734652
3699.9841,2.0073047827080255,309.68991941688716
3700.8374,2.005949856189697,322.5574107343819
3701.6887,2.0037844626813137,274.8100012697352
3702.5425,2.0004780676621152,257.21702776648067
3703.3943,1.9961309879887525,362.61850918733774
3704.2483,1.9914539191138658,277.8291364728996
3705.1003,1.9876114557459499,326.9624714777345
3705.9526,1.985487732384546,307.80345315723343
3706.8074,1.9851603357415373,339.3897052006864
3707.66,1.985881184586604,319.1153665999121
3708.515,1.9866360236657317,338.24345966802406
3709.3682,1.9867841761442167,305.75039446218653
3710.2234,1.9863611581377243,340.60192175676735
3711.0771,1.9859775167471485,299.5012832209447
3711.9307,1.9864596912656576,312.4918057545821
3712.7866,1.988311710451646,310.2488299721147
3713.6409,1.991108059536972,294.994718145424
3714.4973,1.9933550621631393,341.3177820636132
3715.3518,1.9930828701234162,343.96767590650063
3716.2085,1.9890438657330252,307.34235049005116
3717.0635,1.9816509260405872,315.66015759484526
3717.9185,1.9729544782975565,294.9650924009832
3718.776,1.9657619828777446,317.7122945429059
3719.6313,1.9624411542557225,346.95374739094035
3720.489,1.9638097968559052,297.24959244338146
3721.345,1.9689127586165727,341.0506740356788
3722.2031,1.9755662075167557,307.52703367093807
3723.0593,1.9813553771183803,306.06569729068707
3723.9158,1.9847675601730874,304.70729962229615
3724.7747,1.9854991520190943,270.04244673693233
3725.6316,1.984070728403238,317.65885221361646
3726.4905,1.981184890335351,300.9900352024728
3727.348,1.977469922961167,326.56199807093765
3728.2073,1.9735555912761737,344.47211317566723
3729.065,1.9701724712732243,322.4794029634286
3729.9229,1.9678740640088854,320.61876838581446
3730.783,1.9668398400957054,310.41095356171184
3731.6414,1.9668633637250819,321.1087086381265
3732.5017,1.9674674507230334,350.378497418167
3733.3604,1.9679852099423418,312.40831204342044
3734.2214,1.9676052345135844,325.6627757045805
3735.0803,1.9655534804725545,347.82970057553365
3735.9417,1.9614365097374076,334.894193120472
3736.8013,1.955567442072869,295.3379069948755
3737.661,1.94879792442314,449.56470532919116
3738.5227,1.9421073965781364,326.86608123516856
3739.3828,1.936351890214124,379.49327919551473
3740.245,1.9321465549655004,361.8173307646732
3741.1055,1.9299829157599924,307.5839101581905
3741.9683,1.9300178565310795,343.5859431524055
3742.829,1.9320433612236028,441.25574418525025
3743.69,1.9356628480693356,316.28083813039905
3744.5532,1.9404888478421385,329.27901581783647
3745.4148,1.9459139178161604,328.18667673840116
3746.2786,1.950914517419181,334.51775926963325
3747.1404,1.9541722092121863,319.1789980687725
3748.0044,1.9548806481168906,314.40784618862125
3748.8667,1.9532263398075493,370.6852116364644
3749.729,1.9502297801825115,343.9577917487559
3750.5938,1.9470808566449287,318.43490693693707
3751.4565,1.944668104269798,313.71149552469205
3752.3215,1.9433679118505298,347.9080011422491
3753.1848,1.943160696312952,341.1301343215452
3754.0503,1.9438049813065486,274.9578753413816
3754.9138,1.9450679161725777,367.2648845954399
3755.7776,1.946766172529771,409.39470104763177
3756.6438,1.9485337690321052,326.23467031105884
3757.508,1.9496318704384275,329.05233010741176
3758.3745,1.9492550697928435,299.9605316604617
3759.239,1.9471375583852446,311.3519306125761
3760.106,1.9438951382702465,289.5690302111456
3760.971,1.9407070111270002,309.6232418128724
3761.8362,1.938443129685745,386.9988596350851
3762.7036,1.9370882726789618,327.68698323286185
3763.5693,1.9358129194023015,308.93494768009464
3764.437,1.933610858157169,292.7308817397892
3765.3032,1.9301149655910135,329.3378848783913
3766.1714,1.925937045411583,361.574185601513
3767.0378,1.9223790603216997,379.6635534897717
3767.9043,1.9205119030986726,297.56397068640877
3768.7732,1.92046651722894,350.58325959314607
3769.6401,1.921321275366135,384.33530018630677
3770.5095,1.9216319858235111,361.67345246242303
3771.377,1.9202153574142595,313.6667942840868
3772.2466,1.9168218406448567,334.35507830423944
3773.1145,1.9124526472188612,332.7300531642131
3773.9824,1.908973298571846,309.31559400059047
3774.8528,1.9082002015658905,350.3089821405962
3775.721,1.9108451640891564,355.36516505383366
3776.5918,1.9160342904859593,341.88390072717965
3777.4604,1.9217124238104848,360.49725132434935
3778.3315,1.9258959095165424,299.58686631280005
3779.201,1.9277295584911889,296.4949280534518
3780.0703,1.927959048070677,366.58441552866134
3780.942,1.9282739323980835,317.7963731537106
3781.8118,1.9301319456729784,321.6705412241769
3782.6838,1.9337791676064913,325.7017701709649
3783.554,1.9379807074878608,290.2912188474582
3784.4265,1.9407325536632785,315.22288263776744
3785.297,1.9403934793635214,365.64941597699544
3786.168,1.936725756275045,339.7324450601479
3787.041,1.930870319333777,356.960290393803
3787.912,1.924447640155313,333.4584197920778
3788.7856,1.918376873963209,339.4154976403768
3789.6572,1.9127383434049354,363.92505518907063
3790.531,1.907186561662392,311.11838937423363
3791.403,1.9015857556965186,339.23732260353665
3792.2754,1.895962648119674,360.9514003733697
3793.15,1.8903530810711242,294.66579469285034
3794.0225,1.8848089737496196,356.27907716233705
3794.8972,1.879466362758766,321.39146137273127
3795.7703,1.87479982427428,348.7633993661948
3796.6455,1.8714878607547818,358.62833415275617
3797.519,1.8701517085703088,347.2530176065968
3798.3926,1.8707964230557736,358.68956556706615
3799.2686,1.8726360721706146,360.9551846182761
3800.1426,1.8744998364444436,322.0925656530702
3801.0188,1.8756924694613308,328.70351738299104
3801.8933,1.8764416227025227,340.17227515039224
3802.77,1.8776062595974161,348.14060679893345
3803.6448,1.879877915606672,365.7073745075109
3804.522,1.8832817939103634,361.20324570096795
3805.3972,1.8872294533053577,362.07979985304524
3806.2727,1.8910718869318497,463.66895907581966
3807.1504,1.894476925512459,303.08017629175833
3808.0261,1.8974609360688826,335.7019950741684
3808.9043,1.90027436866186,425.09767788250804
3809.7805,1.903172125015664,326.2724934951884
3810.659,1.906341466461506,324.38308956318
3811.5356,1.90969107265699,351.7575147093733
3812.4126,1.9128110478899236,332.5431636603616
3813.2917,1.9150881083530031,307.68797440780594
3814.169,1.9159913451049715,346.2348505490186
3815.0483,1.9153017207174543,382.34038595554256
3815.926,1.913127490573233,357.76866985360556
3816.806,1.9099012127351858,318.5641176393251
3817.684,1.9063873367012303,360.0629291385833
3818.5623,1.9033574244661795,367.27734301810835
3819.4429,1.901097610199244,365.2115140651152
3820.3215,1.8991225002124283,353.5392958592294
3821.2024,1.8964346798783576,318.5390141695009
3822.0815,1.8923087001609242,326.24919788237156
3822.963,1.8868006601048628,332.381428621221
3823.8423,1.8807283522891907,324.09125289699864
3824.722,1.8748980125831267,363.6733161090606
3825.604,1.8694612625429563,340.2282238732842
3826.4841,1.8639003926504318,365.6300451514164
3827.3665,1.8575200034445536,338.46662882627044
3828.2468,1.8501300579792068,417.6393231572129
3829.1296,1.841897033767846,365.9065721678351
3830.0105,1.8330403947698335,340.7456447397793
3830.8916,1.8234412242232556,348.4880694269753
3831.7751,1.8129223962443395,343.159986672066
3832.6565,1.8017754223556248,348.7855146501434
3833.5403,1.7907889704739168,365.82701689553875
3834.4224,1.781290698386351,365.03582011159034
3835.3064,1.774499483153966,393.8096734064756
3836.1887,1.7712505230659368,391.83414370273016
3837.0713,1.7717340720200518,384.66238744866183
3837.956,1.7757213522727189,406.19891677109007
3838.839,1.7827524792541949,331.89730833156284
3839.7244,1.792348687201581,407.81252760912395
3840.6077,1.8038428412835936,395.01372572310885
3841.4932,1.8164782133866924,330.0228880115298
3842.377,1.829344033650332,366.50758066908213
3843.261,1.8419041132487124,360.28352789694964
3844.1472,1.8540702897460315,372.01190863992935
3845.0315,1.8657927487604364,366.11711820810484
3845.9182,1.8767277641751154,315.0633260734064
3846.803,1.8859654113713071,398.46358595625094
3847.69,1.8929027922120816,327.17797169452166
3848.5752,1.8978057356949494,363.62569544621545
3849.4604,1.9018863360447595,351.522241315915
3850.3481,1.9064275002530933,333.99911296385534
3851.234,1.9119975659755344,323.2520670326495
3852.122,1.9185300946875001,347.19531816477445
3853.0083,1.9256762530970768,341.0919289217839
3853.8967,1.9331123661488616,346.6550534103292
3854.7832,1.9401654757553493,317.8067979644433
3855.6702,1.9458583246584231,339.52323180861003
3856.559,1.9493439059860005,312.87687179911336
3857.4463,1.9506098532097569,305.20728841354827
3858.336,1.9506487588000077,345.6485969119185
3859.2234,1.9507716686560477,308.5493331621151
3860.1135,1.9517499066019175,339.95111436913817
3861.0015,1.9533926952213208,342.98713087783517
3861.8896,1.9547342459083723,336.90432002319636
3862.7803,1.954504199465464,298.86175695389204
3863.6687,1.9517718666895982,290.85992564186057
3864.5598,1.9465506283481158,315.59613356138624
3865.4487,1.9399776937719424,296.76871485195653
3866.34,1.933443772665171,313.8979914815789
3867.2297,1.9275501376161306,317.98232798882094
3868.1213,1.9215389833455347,301.06760765845513
3869.0112,1.9141178551031586,311.63615192284266
3869.9014,1.9045375081776297,330.00179375170393
3870.7937,1.893192400343917,343.7231280358015
3871.684,1.881396318658939,383.08815557970894
3872.577,1.8703791231159541,361.3912386332417
3873.4678,1.860752915017594,357.2560955891453
3874.361,1.8520145288660443,380.7281629697484
3875.2524,1.8430599272488775,375.6373668034096
3876.1438,1.8327006856396482,369.4974309131928
3877.0376,1.8202357078508422,372.2786664370439
3877.9297,1.8056746474889156,353.42646471024995
3878.8237,1.7893443203988197,370.05860445442727
3879.716,1.7718634830163726,416.372412276572
3880.6108,1.7536576406696203,405.78276822001277
3881.5037,1.7351862684300041,422.99562162376515
3882.3965,1.7166722890291561,381.632053588759
3883.2917,1.6982584345249991,452.62732595182894
3884.185,1.68012095513591,428.51801803841647
3885.0808,1.6621181782962862,462.4172674180965
3885.9746,1.6442697966151427,449.6522467540314
3886.8706,1.626645766925417,449.42452652011815
3887.765,1.6098475949233504,449.2448178155035
3888.6592,1.5947455424536887,531.070322666538
3889.556,1.5826552170116905,499.66462885801474
3890.4507,1.5755513738470621,515.7473200249497
3891.348,1.5756239392562967,464.0664738606243
3892.243,1.584362218937347,1140.6855736585478
3893.1406,1.6013833038084357,383.1911165972745
3894.0361,1.6240784846557725,405.2470294820985
3894.932,1.649067492183543,487.6327490234655
3895.83,1.6735878380282587,439.01644700579004
3896.7263,1.6960164552764772,384.77921110715033
3897.625,1.7161549030693202,403.2442814704268
3898.5215,1.7343693082672997,411.94983509495654
3899.4207,1.751614912153297,424.6003384597287
3900.3176,1.7686761292657343,366.91422814773034
3901.2148,1.7861684563996902,378.540044908243
3902.1145,1.8041559041613002,372.0737415065574
3903.0122,1.8219871352615928,346.80791422893986
3903.912,1.838875118101157,375.14871522891514
3904.8103,1.8541023530877112,338.95908987494704
3905.7107,1.8677555948651212,362.7071585337161
3906.6094,1.8804599378389715,386.12537197636436
3907.508,1.8931268395162961,355.8249133310448
3908.409,1.9063372027324803,375.99375000134654
3909.308,1.9200517044984167,321.52019389064975
3910.2097,1.9340317524763313,288.2376821102922
3911.1091,1.947931377495177,314.4628373946481
3912.011,1.9617728956236915,288.9394742415848
3912.9111,1.9756340877665548,344.5096130520512
3913.8113,1.9896572850119547,280.71059043251563
3914.7136,2.0036497503888575,337.77950794708875
3915.6143,2.0167287685184214,305.1121627082438
3916.517,2.0276225239025383,277.9324514294616
3917.4182,2.035049485911,306.2138063906726
3918.3215,2.038709288103772,293.86710149806265
3919.223,2.0395792255971092,290.529305885774
3920.1245,2.0396084263520553,266.1089882879708
3921.0286,2.0407214053361407,270.7463166371441
3921.9307,2.0439154024745942,316.2348790994107
3922.835,2.0489284135919683,285.1637167521182
3923.7373,2.0544377080481753,302.66979289330715
3924.642,2.058810770893295,299.2558499029667
3925.5452,2.060842904609286,259.2841204062501
3926.448,2.060440938719382,319.5167809167252
3927.3535,2.05856634049857,275.8212681700942
3928.257,2.056594852040461,316.0121988022188
3929.1628,2.055381965053141,295.9352510536196
3930.0667,2.054799697643666,287.35141237867714
3930.9731,2.0539480792861133,304.60967912548045
3931.8774,2.0519055206063026,279.60036277956004
3932.782,2.0483611641284107,288.7622720597126
3933.6887,2.043718672032217,289.85297811977443
3934.5938,2.038752221839072,329.1947334765548
