wavl,flux,ivar
3566.9744,1.4108155098233115,186.4581672450787
3567.795,1.415779206476773,193.65448301069597
3568.6177,1.419999550694026,150.8691182785938
3569.4385,1.422038101514418,166.8773692972893
3570.2617,1.4205349336111706,185.42251341532278
3571.083,1.41497631575402,192.44690888293837
3571.9065,1.4062558530550102,134.68232298187326
3572.7283,1.3965191210398948,230.73373926789108
3573.55,1.3879899415312114,216.7287854816519
3574.374,1.3820439871426102,129.66792836256104
3575.1963,1.3790464255974075,194.20798081896993
3576.0208,1.3787026725659772,201.20829462021752
3576.8435,1.380530246835591,172.49801791509464
3577.6682,1.3838583636698407,227.0896035417133
3578.4915,1.387619134967328,203.38596459764543
3579.3145,1.3903725653872956,164.3714906482409
3580.14,1.3906147680579555,201.4343485818374
3580.9636,1.3874141294267968,167.7203269928306
3581.7893,1.3810473215466585,134.34635130905855
3582.6133,1.373120611674845,164.8281270522561
3583.4395,1.3656151582559417,169.52141928167285
3584.264,1.3597942812705652,209.2856881831486
3585.0884,1.3556228506568202,170.60216491407476
3585.915,1.3525184857176848,232.9519156375432
3586.74,1.3503385263427277,161.11629815610257
3587.5671,1.3495821938257213,205.49460610813207
3588.3923,1.3508737684543428,132.24662024898845
3589.22,1.3542471407827126,163.91708372418924
3590.0457,1.3587921006809356,194.7106966627997
3590.8716,1.3629378853843634,243.95913602097997
3591.6995,1.365115588234227,142.13226007730879
3592.526,1.3645445313924778,197.86980297556798
3593.3542,1.361652011974661,148.14021010056828
3594.181,1.357793088702256,206.67946781294685
3595.0098,1.3543660564574749,331.1631781011715
3595.8367,1.3519435134035993,202.08978166800281
3596.6638,1.3498501866251484,175.76860590503767
3597.4934,1.3467972905414043,184.94068815031397
3598.3208,1.3421443655417005,211.2214431417222
3599.1506,1.3366550812503057,197.29938492602318
3599.9788,1.3321667595219449,223.07732423662756
3600.8088,1.3301122914100258,134.59408983031722
3601.6372,1.3304324342644456,214.75112298863877
3602.4678,1.3315990537750766,160.7759431849375
3603.2964,1.3318051353167035,214.3114673515697
3604.1252,1.3302473371790264,199.50079613905544
3604.9565,1.3274542680816679,176.20148823859253
3605.786,1.3247030385899268,243.69777710646747
3606.6172,1.3231508967738943,311.24957920300307
3607.447,1.3235267670157187,122.02035713116851
3608.2788,1.326135210772614,193.14161705918107
3609.109,1.3307791046554893,190.49849374266856
3609.9392,1.3365518675416095,218.1143630842977
3610.7717,1.341827918459292,221.94810786770148
3611.6023,1.3447525069058721,162.90831274533048
3612.435,1.3441252119666833,202.09585406047714
3613.266,1.3398905795985774,185.26222929596614
3614.0994,1.3331257897076494,207.49594487883599
3614.9307,1.3256964731504144,199.50380377658374
3615.7625,1.3195671957228126,205.43370583277388
3616.5962,1.3162812338330145,240.8626140782806
3617.4282,1.3164259108223495,218.4391756132661
3618.2625,1.3192962910367785,248.21803957839944
3619.0947,1.3231759200346567,183.12862782742604
3619.9292,1.326372897233004,183.35927018156468
3620.762,1.3282604074486388,198.15618824787708
3621.595,1.329507696403999,169.56471330429991
3622.4302,1.3310185222467144,208.1417111918252
3623.2634,1.3326304103534734,239.15535204465436
3624.0989,1.3329184327247996,182.55571343505767
3624.9326,1.3304053690488793,207.807464626145
3625.7686,1.3251572418549442,196.90627439709067
3626.6028,1.31923438016269,235.6231384044133
3627.437,1.3153162016845803,198.86187178139244
3628.2734,1.3148227076376007,163.68572872433464
3629.1082,1.3169323846016854,171.97941575746768
3629.945,1.3191288003381982,211.5056938419628
3630.78,1.3186253869511806,182.65833269454515
3631.6174,1.3137965973838515,185.8433733623307
3632.453,1.3050987920931978,177.03238534000525
3633.2883,1.2950392299595008,198.59894618322863
3634.1262,1.2870917645388138,244.2261135240696
3634.9622,1.2838880471924683,225.59334146518216
3635.8005,1.285596141446578,309.7813462567279
3636.637,1.2900475039893413,187.8122284484498
3637.4756,1.2942636992696117,273.2103748963306
3638.3123,1.2960836631441772,176.41805366635967
3639.1492,1.29490865233489,213.22387036580668
3639.9885,1.2912808586248672,147.97790530290555
3640.826,1.286303015131345,209.54121620588379
3641.6653,1.2811741528740346,233.2168919123526
3642.5032,1.2770207483938816,248.32606776800307
3643.343,1.2744650841498164,270.53236533008254
3644.1812,1.273369207798261,195.46413759438056
3645.0195,1.2729157201673351,268.74633322445504
3645.86,1.272272012308961,201.09470597409629
3646.699,1.2712826011458012,197.3704754412809
3647.5398,1.2706103460539742,237.9274746533961
3648.379,1.271186421970108,243.29805839702112
3649.2202,1.273373350971203,270.8637117329385
3650.0596,1.276540619108178,306.77119903446396
3650.8994,1.279481673079171,194.84365894075572
3651.7412,1.281242319076978,199.1631967288718
3652.5813,1.2816702725956202,195.9339270703645
3653.4236,1.2812183299023765,196.7933711570055
3654.2642,1.2802452620109999,184.92577855320306
3655.1067,1.2786224097235854,238.57603218126638
3655.9475,1.2760533148390127,206.78081068157005
3656.7886,1.2726072406519033,260.8774469346964
3657.6318,1.268783766288584,234.9493722327441
3658.4734,1.2649921198920226,248.82639046117606
3659.317,1.2610213257690457,213.652390895135
3660.1587,1.2563725955065133,230.94824553139105
3661.003,1.2509257676844845,277.5643498043082
3661.845,1.2454597451267537,242.8642715378237
3662.6875,1.241276534255262,163.78788224906253
3663.532,1.239572939464491,186.73045496460995
3664.3748,1.240795165043785,249.6500231118984
3665.2197,1.2444039599738248,243.36924466166144
3666.063,1.249165433699118,255.39866058914185
3666.9084,1.2538286007668702,204.41463989519102
3667.752,1.2574710996429472,218.6347435447091
3668.5977,1.2595219593341926,246.00365930183915
3669.4417,1.2594507009637683,260.5070798753484
3670.286,1.2568500922205643,158.4667303392345
3671.132,1.2517770630802827,180.18681517878372
3671.9768,1.2451277323770966,218.17497665562217
3672.8235,1.238441247466406,273.06599665509066
3673.6685,1.2333564949703444,223.9837037952587
3674.5156,1.2306706477551697,270.584549195859
3675.3608,1.230011738764724,204.07035881733304
3676.2063,1.2302927830109558,246.49926716427515
3677.0542,1.230832685741855,248.04220275062698
3677.9,1.2319522982213102,213.30980216616544
3678.748,1.2345032834922187,242.45730891314773
3679.5945,1.2387991860656675,223.97649316921726
3680.4429,1.2440793374588484,233.93486895450818
3681.2896,1.2486395301427704,190.61222389332184
3682.1365,1.250508542404547,266.7984463483601
3682.9856,1.2480272709451217,202.72310501744175
3683.8328,1.2405321874323827,218.37114491983377
3684.6824,1.228820291168197,244.2046942437074
3685.53,1.2153953025756472,282.9900933515285
3686.38,1.2035798432872131,187.50998895704515
3687.2278,1.1964074610387951,315.7664676691383
3688.0762,1.1950749262146885,194.0442485002077
3688.9265,1.1984669990885268,212.9037294927112
3689.7751,1.203537402829043,203.44154794044334
3690.626,1.2067341850877995,356.07847223200736
3691.475,1.2056324869913937,237.4711123280252
3692.3264,1.2001583057223157,238.29257625006045
3693.1758,1.1925719344096324,348.2053342472788
3694.0254,1.186086259769644,252.26573580053415
3694.8772,1.183220769794897,268.9606367643805
3695.7273,1.1847949489656953,330.02640942595735
3696.5793,1.1899356640429017,210.12178828058066
3697.43,1.1968046812251507,237.1630486141148
3698.2825,1.203598812888687,235.65779224205852
3699.1333,1.2091548664464213,222.66436184482922
3699.9841,1.2131435400064452,343.76600325566113
3700.8374,1.2155447273674458,234.142182360768
3701.6887,1.2162279832273242,184.89858451869995
3702.5425,1.215164890576578,229.48066303955767
3703.3943,1.212870545796729,245.0988044745129
3704.2483,1.210309479084566,221.56439579604617
3705.1003,1.2081422648559323,206.43162318594662
3705.9526,1.206037376183729,275.34382590600404
3706.8074,1.2030441973330739,247.53410799089585
3707.66,1.1987415057431494,236.0926348435373
3708.515,1.193926340862288,285.06842403844934
3709.3682,1.1903224709820799,223.24209355455457
3710.2234,1.1893883907641576,254.80134113965084
3711.0771,1.1914677035693886,253.36194415968978
3711.9307,1.1956203537708037,318.61367424949236
3712.7866,1.200134833545239,251.4117172993487
3713.6409,1.203129074960587,223.061507107576
3714.4973,1.203168474642599,197.04877950330723
3715.3518,1.199637691231343,291.43417413635166
3716.2085,1.1930239077804377,247.5916324546566
3717.0635,1.1849367718046084,225.07870880262917
3717.9185,1.1773492734039483,264.1623083525614
3718.776,1.1715306444711775,288.1601171459594
3719.6313,1.1673997788928194,293.4017255583824
3720.489,1.1638710082980952,283.52518037557877
3721.345,1.1602285504384962,271.76107074361175
3722.2031,1.1569881666542408,288.72133417190196
3723.0593,1.155674688665057,390.1198428111751
3723.9158,1.1575702107824741,325.5170825102422
3724.7747,1.162740070012742,262.4088692498664
3725.6316,1.1698727310046846,288.9488765577583
3726.4905,1.1771338929033812,243.79409901939937
3727.348,1.182968879267657,293.0378985713166
3728.2073,1.1866181903182353,301.0055288207203
3729.065,1.187827358840406,283.55001540690887
3729.9229,1.1865425240556773,279.0606137412791
3730.783,1.1828273377364418,253.39939244641505
3731.6414,1.1771754848082903,252.16305099285373
3732.5017,1.1705628759273963,246.6721676951818
3733.3604,1.1642618253134702,339.07096671371096
3734.2214,1.1592511705926618,323.5194752759638
3735.0803,1.1559142868191643,240.30808017786305
3735.9417,1.153804894664675,233.2242059979117
3736.8013,1.1519859978897922,243.8441545227046
3737.661,1.149572944796278,225.2317408339786
3738.5227,1.1462664895810182,244.78550208482662
3739.3828,1.1424135321923339,260.8536334513935
3740.245,1.1385310546254883,355.1864491456166
3741.1055,1.1349858557252008,270.9452982521354
3741.9683,1.131930542142271,294.24921257562386
3742.829,1.129582263172673,311.0684306438101
3743.69,1.1281618427528535,268.8235518791675
3744.5532,1.1276544407285336,348.6943173213237
3745.4148,1.1276365885233848,236.0563455025262
3746.2786,1.1274860175319992,260.985810959951
3747.1404,1.1268245901372425,292.73252308484683
3748.0044,1.1257822835559834,217.30814021143055
3748.8667,1.1249531372991,229.3594627022409
3749.729,1.1250946755560831,259.25244650175034
3750.5938,1.1267371622965372,335.99965749341584
3751.4565,1.1297533972997094,273.3615666002905
3752.3215,1.1332805345579982,302.84201775111944
3753.1848,1.1361231054177958,238.20288622113577
3754.0503,1.1375694597292463,356.5693284368514
3754.9138,1.1377491143355531,213.98764654523373
3755.7776,1.137375026408926,297.32327051594757
3756.6438,1.1371486164495894,320.59715429152817
3757.508,1.137435924284838,316.60945864345194
3758.3745,1.1382678346792625,276.23706067117536
3759.239,1.1394628337892376,275.95384108133095
3760.106,1.1407581529626227,242.6760713257782
3760.971,1.1418226489654637,307.63568477042446
3761.8362,1.1421994515105724,296.9342195255527
3762.7036,1.1412638307486236,244.83436610544987
3763.5693,1.1384894948997577,237.94311165872043
3764.437,1.133779437603483,281.2266401868911
3765.3032,1.1275247048889574,240.66138076714802
3766.1714,1.1202182799731872,221.11142953995832
3767.0378,1.1124434634358207,277.720824897003
3767.9043,1.1050605449109947,255.82999808592479
3768.7732,1.099358876939422,275.06279139519444
3769.6401,1.0965388503557227,313.5525251404146
3770.5095,1.0968131498945501,263.3705920632755
3771.377,1.099237919021377,312.4079915928364
3772.2466,1.1022593224723125,396.9201845409769
3773.1145,1.1044618159600768,292.5683792130172
3773.9824,1.1051291708224316,308.8570638616084
3774.8528,1.1044158620784537,288.63262084618987
3775.721,1.1032508736871294,339.6052448615648
3776.5918,1.102813629278173,228.30324329297076
3777.4604,1.1038404202725969,297.4842660578801
3778.3315,1.1062611007927283,303.429239884868
3779.201,1.1094547735600746,343.1406676531394
3780.0703,1.112868888938709,263.75011437162533
3780.942,1.1163649883877784,304.8744369641954
3781.8118,1.1200914699473634,334.46026734379774
3782.6838,1.124161226568145,294.4071306364755
3783.554,1.1282345377278533,314.5617057061303
3784.4265,1.1315495125852355,287.9052063753618
3785.297,1.1332108410801565,213.0958156423044
3786.168,1.1328015614291698,237.47407026871872
3787.041,1.13061934920985,347.0604944256085
3787.912,1.1274343579480688,306.5720699512244
3788.7856,1.1238418925053786,311.165344038104
3789.6572,1.1199401070218977,271.71073669478096
3790.531,1.115381969468554,346.99948184768107
3791.403,1.1098253822211248,357.9049348848161
3792.2754,1.1030834435329582,315.42696846342096
3793.15,1.095116121569526,289.483105974257
3794.0225,1.0860295151086665,314.26738719490396
3794.8972,1.0759771180382538,298.58396501528955
3795.7703,1.0654037429531191,320.12448662340006
3796.6455,1.0548873756706387,312.3214220390685
3797.519,1.0453162087614136,324.52455881304695
3798.3926,1.0377154338880754,365.840791237514
3799.2686,1.0331860491968181,358.99200069069786
3800.1426,1.0325372206584695,403.9577894268832
3801.0188,1.0357667049018435,325.94085916381727
3801.8933,1.041934651716289,264.7395886010606
3802.77,1.049564149091098,310.05291342480626
3803.6448,1.057203620582492,283.6559220292259
3804.522,1.064124817259987,221.0251696023639
3805.3972,1.070320232177597,317.70484530262615
3806.2727,1.0762765904891163,297.9250483715848
3807.1504,1.0823939147009323,269.9063286951159
3808.0261,1.0887273823871098,276.1447975057389
3808.9043,1.0952916085222475,281.70542879728725
3809.7805,1.1021320160294197,278.8775305692723
3810.659,1.109240987265838,356.2615603819117
3811.5356,1.1160562721543383,235.46855549783749
3812.4126,1.1216840778435306,231.7340695937929
3813.2917,1.1255250652658906,254.78680271610315
3814.169,1.127753765039344,293.7517983196882
3815.0483,1.1290045917877698,318.45907939185474
3815.926,1.129499923192335,262.4428921805401
3816.806,1.1288137195080394,216.70176853994576
3817.684,1.126423129896834,270.802745112045
3818.5623,1.1222876882695956,316.15784702885065
3819.4429,1.1167783190316332,265.97629804927897
3820.3215,1.1103397598055484,314.26218385283664
3821.2024,1.1032613410336856,319.8509153312812
3822.0815,1.095941688710252,317.5720750085094
3822.963,1.088750091785669,241.93665593816579
3823.8423,1.0818723939962382,370.5647149878937
3824.722,1.075022893542377,347.0040687845351
3825.604,1.0677184926742638,337.2133442055586
3826.4841,1.0597566951828974,339.7871605503158
3827.3665,1.0512731292500983,293.78749796224224
3828.2468,1.0426220386142147,387.3229735603168
3829.1296,1.0337289463017778,292.93771883001517
3830.0105,1.0240466932932577,291.73975575430006
3830.8916,1.0127344607334545,308.7942452261395
3831.7751,0.9993328511074134,338.36893324981503
3832.6565,0.9842624569357015,508.97815301331434
3833.5403,0.9684592072239407,299.9334044761894
3834.4224,0.9533947828560323,403.72080715765503
3835.3064,0.9407383876680562,444.46304668718625
3836.1887,0.9325671034624897,345.7656927781629
3837.0713,0.9305921499361207,418.4199231688736
3837.956,0.9351718527721677,373.20612164245904
3838.839,0.9445200735662969,352.2754387020178
3839.7244,0.955479590131426,354.1728445388104
3840.6077,0.9652388894789253,306.15051568208617
3841.4932,0.9731415927364926,430.18240584575057
3842.377,0.9806801699995243,451.4410051144137
3843.261,0.990329784547375,386.960706168757
3844.1472,1.003810450059053,340.29971600132484
3845.0315,1.0209739099608879,382.2762977312328
3845.9182,1.0401840276572925,387.88754867842965
3846.803,1.058975123571458,281.90224293460767
3847.69,1.0755272193382677,316.5640107986808
3848.5752,1.0889887037916315,246.14571453555814
3849.4604,1.0997249589778013,257.6035425687734
3850.3481,1.1087032212912369,317.9360808049048
3851.234,1.116791486486617,270.40096705083613
3852.122,1.1243883625796847,286.3172139525996
3853.0083,1.1311091133505564,256.977748784502
3853.8967,1.1362902131951658,240.58790085789457
3854.7832,1.1395343284878756,298.4714871206267
3855.6702,1.141256350911237,273.3556378909399
3856.559,1.1424694418607677,253.42802519089753
3857.4463,1.144160563612997,285.13219489235485
3858.336,1.146761170058479,276.69754448678884
3859.2234,1.150009534285517,206.84240503319384
3860.1135,1.1532024430344565,306.4024546224021
3861.0015,1.1553298195280721,275.9260114821622
3861.8896,1.1553474656742908,245.24982304509032
3862.7803,1.1525370465264408,294.39869976151806
3863.6687,1.1470551649427445,280.7141328000447
3864.5598,1.1400210527193029,285.74647375290067
3865.4487,1.133119071607042,272.653132526317
3866.34,1.127541338512746,310.38062704257214
3867.2297,1.123462991239527,248.00001671862432
3868.1213,1.1201031918856361,274.13972683169635
3869.0112,1.1166077902260996,280.93614684151066
3869.9014,1.1126287337334722,338.34498464641143
3870.7937,1.1081958053795495,300.17490345315616
3871.684,1.1030806208123414,300.73690951182095
3872.577,1.0963520101109194,299.9759179025529
3873.4678,1.0869379819950644,135.19639112383933
3874.361,1.0744051538127128,263.96690309440436
3875.2524,1.0596844432274328,292.3731690286498
3876.1438,1.044495616741204,280.86916696893314
3877.0376,1.0304101382003916,344.8108837433803
3877.9297,1.018077701587177,359.538900377087
3878.8237,1.006787830619071,396.0480537991526
3879.716,0.995165405050819,339.307530710823
3880.6108,0.981736650795602,348.94422372447394
3881.5037,0.9657678007367979,352.22282412981065
3882.3965,0.9472351247306126,328.19437835421616
3883.2917,0.9266125336180819,423.9499673197083
3884.185,0.9045338074738007,445.6277620738093
3885.0808,0.8810452013192217,427.0558146228023
3885.9746,0.8561886742116274,402.5589475472304
3886.8706,0.8302174019639061,513.7675761134029
3887.765,0.804772213328375,506.61747762651623
3888.6592,0.7826830407906041,723.960846516446
3889.556,0.7675235681095118,685.3774092308014
3890.4507,0.7624189790834102,746.2328636631366
3891.348,0.7684737675401682,742.265423447144
3892.243,0.7842253069390239,500.9667475054987
3893.1406,0.8063039650040958,516.8334254410734
3894.0361,0.8305617162448624,528.2805075849828
3894.932,0.8539272119536618,465.8605951478471
3895.83,0.8749073585442776,567.5642750407334
3896.7263,0.8931755353674649,408.3140227542675
3897.625,0.9092440932095132,437.7487623258551
3898.5215,0.9236893290884485,374.4818879974305
3899.4207,0.9374174082624409,448.59144147906125
3900.3176,0.9511916561382012,343.9263706541758
3901.2148,0.9655205476875894,508.89501950689174
3902.1145,0.9803322121126021,441.0280046362765
3903.0122,0.9951538211670583,376.92623849487234
3903.912,1.0098966431131804,381.91720502285574
3904.8103,1.0247957694876493,360.2348949308824
3905.7107,1.040324179887802,358.06890249476044
3906.6094,1.0563693126626275,249.31202148339776
3907.508,1.0722810554257831,338.16913005927245
3908.409,1.0872175219213467,294.708568232552
3909.308,1.1006710791078473,389.101057765881
3910.2097,1.1128605425405604,230.14852295168458
3911.1091,1.1240280630086459,278.5414181922945
3912.011,1.1342096200386587,274.3991726524132
3912.9111,1.1430866036131384,237.01658189301347
3913.8113,1.1506012930730525,313.478340406049
3914.7136,1.157049533283015,283.53291991382156
3915.6143,1.1627375192577067,335.0462695567484
3916.517,1.1677330633728105,263.8920525302261
3917.4182,1.1718177774206775,286.58947872309034
3918.3215,1.1749485510521969,243.39257048665948
3919.223,1.177491215341336,238.06510783631083
3920.1245,1.1802012990497273,255.14155705034872
3921.0286,1.1837463620869535,261.2213668392265
3921.9307,1.1881458378934646,256.07391099557947
3922.835,1.1926806321856471,264.0016723694982
3923.7373,1.1962562859357158,229.5245802025159
3924.642,1.1981656085406567,239.92231955510331
3925.5452,1.1983615964784553,296.38884422877425
3926.448,1.1972548298698344,259.28234629226955
3927.3535,1.1952771261548083,266.82559795178554
3928.257,1.1928702529019617,262.67909449680394
3929.1628,1.1907250678892383,260.3321792067637
3930.0667,1.1898133832797253,315.26533520675935
3930.9731,1.190719437066603,261.0805618171704
3931.8774,1.1928695000787828,235.96622365942164
3932.782,1.1945693599645255,253.91671897023664
