wavl,flux,ivar
3566.9744,11.403694209851269,29.516381150102116
3567.795,11.389788080851373,28.20117897946722
3568.6177,11.37472255049359,28.405799075114345
3569.4385,11.362236884000808,28.562047525013906
3570.2617,11.354845259356772,27.07819074249361
3571.083,11.352216188044652,27.50676250973197
3571.9065,11.351410303340584,26.288668619578
3572.7283,11.349036276077475,28.144874744428595
3573.55,11.343215081559649,26.512915326200268
3574.374,11.33419324295604,28.027703354877026
3575.1963,11.323624262776836,30.137954624526287
3576.0208,11.312976713229503,28.291289109439525
3576.8435,11.302732060497872,27.43348076715136
3577.6682,11.292190656398184,30.895971000964355
3578.4915,11.280436287933124,26.26688729939555
3579.3145,11.267134179758894,28.35472484558906
3580.14,11.252956208466365,26.739237998437524
3580.9636,11.239188049586208,32.89546921293505
3581.7893,11.226447185164183,27.64052836818695
3582.6133,11.21436188216878,28.958879481730026
3583.4395,11.201440547720633,28.794372596767676
3584.264,11.185550323467691,27.201236244068173
3585.0884,11.164198728352229,30.96909977327641
3585.915,11.136006087215163,27.69557168980104
3586.74,11.102878611197161,29.185419128445474
3587.5671,11.069839450274616,30.23987376900187
3588.3923,11.043162012587368,29.063004349275715
3589.22,11.026161460889359,29.293182627238146
3590.0457,11.017937327170735,28.26159803881595
3590.8716,11.01444444859927,28.945745321247824
3591.6995,11.011760934914804,29.88432154166885
3592.526,11.007900757661204,31.34944960913529
3593.3542,11.00218202967529,29.33047094990393
3594.181,10.993715605277647,31.21094085411051
3595.0098,10.980933753314037,30.559675041031728
3595.8367,10.963070392495942,29.930368055328554
3596.6638,10.941275123556892,30.86885793233784
3597.4934,10.91839071133857,32.23107312725186
3598.3208,10.897523477014483,31.12212422144888
3599.1506,10.880280918532826,31.468165829601023
3599.9788,10.867313795392363,32.17310235599265
3600.8088,10.858761046522627,29.99840570836262
3601.6372,10.854681773466385,31.227545357449216
3602.4678,10.854469183333864,31.991002482858637
3603.2964,10.856793721139006,30.154443496465053
3604.1252,10.859999608647419,30.855533186045893
3604.9565,10.862426402015021,29.70326830936588
3605.786,10.862270364725248,28.846032209798633
3606.6172,10.85762938333242,29.803600844605945
3607.447,10.847137284336744,31.181648926160534
3608.2788,10.830705120252178,30.607086661712298
3609.109,10.809862623077395,30.70990121402538
3609.9392,10.786765215467186,33.03436496087365
3610.7717,10.763310028807807,33.690772671295
3611.6023,10.741002396203486,30.774974945239826
3612.435,10.72079620288439,31.288498781463584
3613.266,10.70350733612373,32.627367470420445
3614.0994,10.688987867999819,32.483795240576164
3614.9307,10.676517947321202,32.542394679999354
3615.7625,10.665637678120419,31.247240396900928
3616.5962,10.657293042892809,30.964322342884227
3617.4282,10.653256813788444,33.305215325869106
3618.2625,10.654196266355164,32.273245285377875
3619.0947,10.65864105996441,29.432727954399798
3619.9292,10.663808660183621,30.787624609275902
3620.762,10.667294713641903,30.79852141292582
3621.595,10.668008295254403,32.28200523914845
3622.4302,10.665611732790792,33.53521037069048
3623.2634,10.65997624270628,31.59951925461475
3624.0989,10.65152612845449,31.1476406641086
3624.9326,10.64204201660003,32.018634042085544
3625.7686,10.634080532252723,30.64546552504571
3626.6028,10.629595288786442,30.676699656913883
3627.437,10.628742926388997,32.62359280516455
3628.2734,10.630347954665185,28.99855325224882
3629.1082,10.633001421279634,35.273170531951195
3629.945,10.635732232804168,30.36165220754865
3630.78,10.637654598624117,32.77306124711341
3631.6174,10.63734982935422,31.90100276526585
3632.453,10.632777987010943,31.166393104594402
3633.2883,10.622198596520034,34.033122328653796
3634.1262,10.605437335253892,31.74344166706429
3634.9622,10.584817965736203,32.81268136996777
3635.8005,10.564230880885562,30.707655234277585
3636.637,10.547690351780581,34.03759197321967
3637.4756,10.536988743148575,31.35667642514642
3638.3123,10.531290578494508,32.07031791558738
3639.1492,10.527816894400788,35.574618898169135
3639.9885,10.523398081170754,33.3267124691947
3640.826,10.515406196236325,29.307216348035766
3641.6653,10.502295905128339,33.31880420846164
3642.5032,10.484743031048719,32.36936890578727
3643.343,10.466111980980225,33.59766822239738
3644.1812,10.451583956629499,34.83096766559498
3645.0195,10.444952972924836,31.458214030274966
3645.86,10.44627736434965,32.75713264263984
3646.699,10.451842015016865,33.8829735501386
3647.5398,10.456687865394128,32.758152200315834
3648.379,10.457343574043358,32.52606998137633
3649.2202,10.452998833509849,30.720195877469
3650.0596,10.444859445633323,35.05012555803554
3650.8994,10.434941360485997,31.73099010151679
3651.7412,10.425510415072658,31.623162212831566
3652.5813,10.41891269194975,33.84462025938107
3653.4236,10.41670395420089,33.635697966459965
3654.2642,10.418496798567228,34.572053252203894
3655.1067,10.421374196154197,33.00366474809718
3655.9475,10.421113890323399,33.416600615845496
3656.7886,10.414687777835823,31.284746614104467
3657.6318,10.402090332728479,32.30432339673744
3658.4734,10.386324408733485,35.993335720154526
3659.317,10.371066164327745,32.38491379739613
3660.1587,10.35853041755235,32.319352511191724
3661.003,10.348468715180093,30.14122183233436
3661.845,10.339581849927661,31.280292108628753
3662.6875,10.330971848876377,32.97998995747655
3663.532,10.322820253875324,32.12242480594916
3664.3748,10.31574460915417,33.73172756660755
3665.2197,10.309817885771636,35.62785402150419
3666.063,10.304543067430847,32.317220332295626
3666.9084,10.299160623111096,32.53428042591823
3667.752,10.293049824538238,39.77706889072752
3668.5977,10.285573895941393,34.632015394365986
3669.4417,10.276278168838683,33.97443839858045
3670.286,10.265278560803031,35.70588881916713
3671.132,10.253887776719818,32.81873742086163
3671.9768,10.244657745653468,33.90260436474899
3672.8235,10.240163436229363,34.49216904714373
3673.6685,10.241430878240678,34.047334217266375
3674.5156,10.24679183400051,34.587001355355795
3675.3608,10.252513913342879,33.99730369863824
3676.2063,10.254975714184019,34.17520531301454
3677.0542,10.252580724361454,35.17757426226148
3677.9,10.246221967420487,32.93161906398482
3678.748,10.237998242013534,35.92762560596114
3679.5945,10.229681119219457,34.30197573593498
3680.4429,10.221784785181859,33.44327285572109
3681.2896,10.214086373221543,35.09945911272962
3682.1365,10.20643174847618,36.286720519831874
3682.9856,10.199451552471391,34.15260973127396
3683.8328,10.194537423716067,33.5202064380904
3684.6824,10.192874861466935,34.56801697864226
3685.53,10.194295262095897,36.356586832965256
3686.38,10.196627544773747,34.71044798216495
3687.2278,10.196678880096727,35.239075426149796
3688.0762,10.1924804786757,34.199473508010385
3688.9265,10.184725175303383,36.31086787455743
3689.7751,10.175878116314838,37.51867871502294
3690.626,10.167363535535824,37.23750091118144
3691.475,10.15807639023998,35.363378998971804
3692.3264,10.145372567336837,35.73302534001221
3693.1758,10.128039909534431,36.46723222171584
3694.0254,10.10780576621138,36.02801087841196
3694.8772,10.088545019015303,37.568535105378146
3695.7273,10.073642887641634,36.283197858267805
3696.5793,10.063133770668633,37.47664353132313
3697.43,10.053697541040336,34.111679321594714
3698.2825,10.0408804149352,34.19448490202385
3699.1333,10.022518103526059,35.11365831292025
3699.9841,9.99995056604051,37.273537611678925
3700.8374,9.976697090724755,36.089890608835624
3701.6887,9.956218792865965,36.746943533246274
3702.5425,9.940130484547897,38.05297251885118
3703.3943,9.92886118185119,34.40332159205375
3704.2483,9.921990022467199,36.9253798461315
3705.1003,9.918495797537766,36.39254609214585
3705.9526,9.91636911297518,37.47691162445918
3706.8074,9.913135577648573,36.05356353004312
3707.66,9.907174337397594,36.94973132128382
3708.515,9.898752046270747,37.748822802954344
3709.3682,9.889867721150797,37.61262401154742
3710.2234,9.882476445012163,39.04069744002342
3711.0771,9.87709080849952,36.901626812791804
3711.9307,9.872689608995952,36.86841690995651
3712.7866,9.868145947092168,36.639940350592035
3713.6409,9.86343141984812,38.58559132523892
3714.4973,9.85935062062374,38.33772731290907
3715.3518,9.85657511545954,36.993283479855805
3716.2085,9.854939953818366,40.89080043230279
3717.0635,9.853686174664828,36.54368056732213
3717.9185,9.851825462886334,36.240925070898925
3718.776,9.848291358897752,37.12933578237522
3719.6313,9.842039029602685,37.238072150197524
3720.489,9.832119725452847,37.11244156354061
3721.345,9.817957255214441,38.56494983062134
3722.2031,9.799289955231801,37.31797065396216
3723.0593,9.776599773155834,38.08393065521665
3723.9158,9.750912868343292,37.842294995820325
3724.7747,9.723830594064003,37.87744819833891
3725.6316,9.697494451188536,38.90345676570846
3726.4905,9.673555973284584,38.128493437243634
3727.348,9.652867702968031,38.11831305530055
3728.2073,9.634743866295928,39.90019403532085
3729.065,9.618080287261849,39.64415113476483
3729.9229,9.602636534391426,40.387237432305916
3730.783,9.590092758819974,39.323287973624524
3731.6414,9.58330695025665,41.76393964162921
3732.5017,9.584043942735194,39.203748923684024
3733.3604,9.59129876535837,38.25319225046362
3734.2214,9.601266991529332,39.29211535180419
3735.0803,9.609078560135,36.66441455001956
3735.9417,9.611503105835215,39.53965453986917
3736.8013,9.608289191690385,39.80130504548741
3737.661,9.601575592534072,42.37554269428898
3738.5227,9.593647169324916,39.15221477518241
3739.3828,9.585311359214762,39.488802720466936
3740.245,9.576006269752575,37.86163875729027
3741.1055,9.56557285026651,40.5649565787935
3741.9683,9.555169015299246,41.14983154692514
3742.829,9.547031891585727,42.23316096447731
3743.69,9.542972862183621,37.6905299706481
3744.5532,9.543479065835827,39.87645167657756
3745.4148,9.547530373895945,38.452881627706766
3746.2786,9.553165114661068,42.75430662999456
3747.1404,9.55812608215373,40.20884420829953
3748.0044,9.56034898734634,39.32660923306144
3748.8667,9.558084141965812,40.84125736014576
3749.729,9.550395378005595,40.059307165306
3750.5938,9.537823625561433,39.13933321213124
3751.4565,9.52271432884248,39.861035761751126
3752.3215,9.507734304319973,44.06822021496158
3753.1848,9.494076712073001,37.32846459357102
3754.0503,9.480374141905278,38.22131993381011
3754.9138,9.464641284785575,35.62495201379022
3755.7776,9.44679492692468,39.35682288518538
3756.6438,9.429558614357509,40.00490416830943
3757.508,9.416323371726449,42.147669885409336
3758.3745,9.407804618807523,40.606708719101924
3759.239,9.401758299387534,40.22664770344617
3760.106,9.395266123991346,39.63196934640709
3760.971,9.38767548488495,41.90643661965683
3761.8362,9.380936109985418,41.53971687965184
3762.7036,9.377687698739704,40.52612186478808
3763.5693,9.378802738591379,40.22272433446554
3764.437,9.382354771531455,41.13860539609232
3765.3032,9.384751033601166,41.30169501703646
3766.1714,9.383099088176273,39.44462947660545
3767.0378,9.376997820493578,44.336355751658814
3767.9043,9.368498992001607,40.59215525784915
3768.7732,9.360510941057532,42.34662589466217
3769.6401,9.355176970780775,39.87845133556936
3770.5095,9.353025776628634,41.80595933084272
3771.377,9.35338183741077,43.28323907074447
3772.2466,9.355102729982043,42.267369697528345
3773.1145,9.357373367660841,40.38483784939691
3773.9824,9.360050100193304,40.53957125780994
3774.8528,9.363146894724522,39.36524439088367
3775.721,9.365774728458556,42.332999952957735
3776.5918,9.365829937555592,40.68445321014601
3777.4604,9.361142961607117,41.3033477532768
3778.3315,9.351397753862141,41.48462409766031
3779.201,9.338997764938464,42.17729036429155
3780.0703,9.32759941533237,42.85600094152666
3780.942,9.31985607816901,40.38393120168336
3781.8118,9.31602347616745,41.594521481241614
3782.6838,9.313966958407585,40.8121804039398
3783.554,9.310451888825636,41.17131493875632
3784.4265,9.302638934201147,41.717376530470986
3785.297,9.289501902430557,41.14985149649852
3786.168,9.272078803873777,39.95343890264793
3787.041,9.252743605742156,44.477005482128476
3787.912,9.234250919022477,40.485091643087955
3788.7856,9.218676135903843,45.46796084910884
3789.6572,9.207267354097782,43.616156102884226
3790.531,9.199553937215413,43.308840656361205
3791.403,9.193410137102077,38.934381011232595
3792.2754,9.185923863493878,42.14117627706014
3793.15,9.175194606489994,42.69700979572417
3794.0225,9.161494344576125,44.3121060522734
3794.8972,9.146696597821425,41.991171460181086
3795.7703,9.13325709564196,44.93641717951672
3796.6455,9.122819101549098,41.0278509755102
3797.519,9.11580308447286,44.324283914501656
3798.3926,9.111186592365273,43.11300261046086
3799.2686,9.107322425131692,43.722255090026415
3800.1426,9.103318374109799,43.8057983766154
3801.0188,9.099975092774883,43.64952109027561
3801.8933,9.099310277999216,45.35954600680167
3802.77,9.10257472754515,44.26561556953749
3803.6448,9.108617813572996,43.08558086553554
3804.522,9.114169238082223,41.21628054559694
3805.3972,9.115582416204031,46.03906953778957
3806.2727,9.110751764149024,43.21703782324703
3807.1504,9.099587445043964,43.83853809599888
3808.0261,9.083594554591196,44.77381942300652
3808.9043,9.064872882476738,44.40421740067569
3809.7805,9.04602244629421,44.38630432029467
3810.659,9.029635214103513,45.53317600101626
3811.5356,9.018124596551413,43.853690015093285
3812.4126,9.012515637636145,43.358764202395626
3813.2917,9.011812512052066,46.03710794944856
3814.169,9.013096632250967,43.413282186428795
3815.0483,9.012869929110472,45.28945240731991
3815.926,9.008893248786956,43.691140866293985
3816.806,9.001188211378851,45.41174757344173
3817.684,8.991551004008564,45.279306889950696
3818.5623,8.981910840327636,47.32216667060381
3819.4429,8.973322420484784,42.39150871270322
3820.3215,8.966243377898085,43.99855919768101
3821.2024,8.96099075642749,43.59668100757874
3822.0815,8.957676888203773,47.312308338856504
3822.963,8.955346649755903,46.00396572351506
3823.8423,8.952033478309247,43.39035909651719
3824.722,8.945906032762844,46.57219128504713
3825.604,8.936518066718877,44.4074231927633
3826.4841,8.924994827767199,46.17369541797783
3827.3665,8.912825232666368,47.405932921790985
3828.2468,8.900935945298693,44.83935410603166
3829.1296,8.889132679881948,45.96151047219642
3830.0105,8.876881676220156,44.19953504080899
3830.8916,8.86397779743246,44.58343682741332
3831.7751,8.851097660527628,45.78634142776806
3832.6565,8.83958698689958,47.18158628408321
3833.5403,8.83039130480152,46.254984566661776
3834.4224,8.823551850715804,45.76071884345046
3835.3064,8.817915561650732,48.456960390162976
3836.1887,8.811962406536363,44.685788449464205
3837.0713,8.804998667424567,45.698594454283985
3837.956,8.79822301559184,46.11767607858026
3838.839,8.794390938140767,44.63952922353845
3839.7244,8.795685932583641,45.84039916743826
3840.6077,8.801595945874936,47.12635829558651
3841.4932,8.808827538747593,46.013307659949334
3842.377,8.813671194770178,49.26889385579216
3843.261,8.815064960117315,45.224966255652994
3844.1472,8.81527688327639,45.3258070610128
3845.0315,8.817793611189964,47.69169258469469
3845.9182,8.824412740712216,46.56660307261084
3846.803,8.834140400401314,46.260087430358205
3847.69,8.844656343561109,45.126172361531935
3848.5752,8.853993930020868,46.31600475672759
3849.4604,8.86123725155116,45.187573180509446
3850.3481,8.865938919639934,45.480301435572166
3851.234,8.867916349636134,44.56759683587663
3852.122,8.8677729317459,46.5090445827728
3853.0083,8.866886697864743,47.686819463272656
3853.8967,8.866396684049862,46.217537445707336
3854.7832,8.866023622283862,46.037252802480346
3855.6702,8.864046260635229,44.000681721685176
3856.559,8.858555833426271,47.05541794494328
3857.4463,8.848975651032143,44.83279638856745
3858.336,8.83655705584027,46.25858913552238
3859.2234,8.823973370302127,47.58699849211436
3860.1135,8.813773069104016,46.68502243796782
3861.0015,8.807421201065017,44.55732770094099
3861.8896,8.804663465008234,45.52370162910106
3862.7803,8.804029847862072,46.5376529011374
3863.6687,8.803591202030736,46.82152233071065
3864.5598,8.801775773207533,48.98608315203313
3865.4487,8.797936732450662,45.19657196871807
3866.34,8.792215526875653,51.55606899508606
3867.2297,8.784943700657253,45.93300826165181
3868.1213,8.775984548571987,48.43022184798622
3869.0112,8.765036496206559,46.26751993867116
3869.9014,8.752051628459201,48.04819762327149
3870.7937,8.73725978753225,50.463031281215
3871.684,8.720705779616415,47.58259872222218
3872.577,8.70187068391087,44.708234557532066
3873.4678,8.680823964098384,48.007693088042394
3874.361,8.658623168053431,47.482104729688444
3875.2524,8.637248677419741,46.64956550480841
3876.1438,8.61783993872833,48.152674518635315
3877.0376,8.599944746398283,46.65794826349508
3877.9297,8.582013252842245,49.502649517914456
3878.8237,8.562345106713474,48.000120342661454
3879.716,8.540578191178309,50.3436852961433
3880.6108,8.517683748913564,51.3983605302992
3881.5037,8.495582300771916,51.90207118995502
3882.3965,8.47530019336314,51.050296075032186
3883.2917,8.456003151993798,50.88242894089703
3884.185,8.435407431128008,49.943063701466194
3885.0808,8.411302963507572,48.850977133672075
3885.9746,8.38427451554194,52.17524660986375
3886.8706,8.35797876558145,51.60061665503165
3887.765,8.337839866747185,51.260704614733434
3888.6592,8.327634864834208,57.45685994242243
3889.556,8.327906883346843,54.13282029187822
3890.4507,8.336410142927885,49.32578959520153
3891.348,8.350085943533475,50.69232724603235
3892.243,8.366542854259652,51.97362815133856
3893.1406,8.38475573129323,54.39690186784747
3894.0361,8.404289947181367,51.685023550769664
3894.932,8.424975536899897,50.66585595701299
3895.83,8.44623078397951,49.57424677597082
3896.7263,8.466619551157594,53.80850579687306
3897.625,8.48448208953003,50.60271572371683
3898.5215,8.49867110263844,48.61383177887441
3899.4207,8.510318043327972,48.425131983066116
3900.3176,8.52274874070991,51.87264891941263
3901.2148,8.539952631315249,50.52216788518928
3902.1145,8.56389133260334,50.03040106097769
3903.0122,8.592897943659386,46.181825556078934
3903.912,8.623001185478053,47.38501277813061
3904.8103,8.649804952394087,46.20231165781592
3905.7107,8.671078441314007,48.68876274915809
3906.6094,8.686852430985782,46.95446737228981
3907.508,8.698674649685016,48.42525238523034
3908.409,8.707815949915236,49.43125705070382
3909.308,8.714454839308056,46.22482651483471
3910.2097,8.71836659738619,48.7248651296133
3911.1091,8.71991707931275,48.475587487786505
3912.011,8.720560180010578,47.876152906077316
3912.9111,8.72214920405259,47.126674986160694
3913.8113,8.726026898586216,47.75538326599723
3914.7136,8.73261936281479,47.96365439131898
3915.6143,8.74137717169859,48.07554500268053
3916.517,8.750940123101156,47.174125011170226
3917.4182,8.759256707129119,48.81907125401685
3918.3215,8.76452884619174,45.05483979324494
3919.223,8.76606643949566,45.02025170850924
3920.1245,8.764637155874563,48.66263341048619
3921.0286,8.761583443781515,46.32737003130003
3921.9307,8.757737645170396,48.44281433525093
3922.835,8.753036826891917,46.23932043351828
3923.7373,8.747372727208658,48.063995220934636
3924.642,8.741531111934416,45.59479736245442
3925.5452,8.73741148797858,44.73637066169136
3926.448,8.736773763195998,48.96859596367417
3927.3535,8.73964925300736,47.3329542939434
3928.257,8.743504778318414,49.74542043151367
3929.1628,8.744216011512634,47.928326811570976
3930.0667,8.738195774013587,46.557653733106676
3930.9731,8.724195574819145,47.10765515287942
3931.8774,8.703779341812778,45.88520357099657
3932.782,8.680027948779014,48.46210199750077
3933.6887,8.65617588440837,49.193596921736045
3934.5938,8.634788363352948,50.09340359009548
3935.501,8.617018831986549,51.642126581253756
3936.4062,8.602954551761057,48.9511331192715
3937.3142,8.591373741065532,50.14612114690844
3938.22,8.580149834006273,48.516183082271375
3939.128,8.566386960216487,49.30288770380716
3940.0342,8.547602580047153,50.53850911224248
