wavl,flux,ivar
3566.9744,2.702314204111356,142.02913762518696
3567.795,2.7052810512621175,130.50886647312757
3568.6177,2.70813099166759,124.4221040856785
3569.4385,2.7087609130892893,146.45857393208158
3570.2617,2.706389140185947,130.02421716287665
3571.083,2.7011426894628974,130.65658089227816
3571.9065,2.6938725597401634,143.81472189103795
3572.7283,2.6862517882422936,125.92634812716355
3573.55,2.680169238520476,120.96004269782352
3574.374,2.6767875809250032,153.82231649011038
3575.1963,2.6758676497859955,131.96068410311167
3576.0208,2.6760432020748777,109.18253570110025
3576.8435,2.6760073433503924,124.69379824503754
3577.6682,2.6755442516187933,126.83995216359105
3578.4915,2.675623616245356,161.96179925672828
3579.3145,2.677531678368904,130.14766638162348
3580.14,2.6818262872239447,154.19050965211704
3580.9636,2.6877499794083084,93.59156049470388
3581.7893,2.693493149283173,110.95295434224283
3582.6133,2.6967769481792234,132.7611011308722
3583.4395,2.69578106060974,110.14738617659846
3584.264,2.6898578535067665,135.7309775145032
3585.0884,2.6798952339541615,157.76303784004554
3585.915,2.6679810856246378,126.10955761506347
3586.74,2.6566196707730114,150.27389222931217
3587.5671,2.647424940351925,126.81592315806394
3588.3923,2.6406471628665136,128.80939875230342
3589.22,2.6352394244082866,141.88213485000261
3590.0457,2.6299981499756524,139.76520083801086
3590.8716,2.6243703254796023,123.00023448585345
3591.6995,2.6186473453238124,126.32703812554564
3592.526,2.6135126895871754,133.6524877983886
3593.3542,2.6094826700092155,160.03407596202481
3594.181,2.606796665232608,147.04419692765114
3595.0098,2.6052766217536094,132.97657830023437
3595.8367,2.604370316728761,130.43896991901096
3596.6638,2.6033172505189963,142.119725113457
3597.4934,2.6014736920009485,148.01239235093456
3598.3208,2.5985274440797923,111.77299116954306
3599.1506,2.5945350691481863,140.4775645052163
3599.9788,2.590064575147119,155.01958950422252
3600.8088,2.586095369883681,125.54880214276622
3601.6372,2.5837695452779927,135.18373792757433
3602.4678,2.5838232842740703,155.55355984608582
3603.2964,2.5861912393260758,155.84660308699432
3604.1252,2.589813081613596,134.31069810347077
3604.9565,2.592802212030191,129.18817076291805
3605.786,2.593103277079071,176.14618380948576
3606.6172,2.5897052320972254,146.55364207028052
3607.447,2.583580544900804,166.35807249369654
3608.2788,2.577404505864783,145.4819592016844
3609.109,2.574061768570755,136.51512013728046
3609.9392,2.5747617194267054,146.04409683652534
3610.7717,2.578500921470631,150.50764558527158
3611.6023,2.5829208209362213,105.88575820514353
3612.435,2.5858992356064543,126.26189464285468
3613.266,2.586496274874642,126.82786884756956
3614.0994,2.585102805918267,139.47189466573164
3614.9307,2.582844355303131,133.11143070307506
3615.7625,2.580694813774945,133.93537853874528
3616.5962,2.578783788715482,139.13789111082178
3617.4282,2.5762807641811825,156.85709084683847
3618.2625,2.5718979915166384,170.99797863008456
3619.0947,2.5648471156080794,144.89645006365438
3619.9292,2.555479732715243,111.85202785698893
3620.762,2.5454341032673438,143.00039677562273
3621.595,2.5365100014449347,158.18868923146442
3622.4302,2.5293579961127137,125.446557834636
3623.2634,2.5230232808269952,157.887773807866
3624.0989,2.515899709434648,189.24316612132867
3624.9326,2.5076110874107367,149.04479657776764
3625.7686,2.4995930254518077,146.49579809820779
3626.6028,2.4942390818448863,143.61338884275364
3627.437,2.493050721924743,154.9050195992803
3628.2734,2.495831914163118,138.83221446717545
3629.1082,2.5010690013189314,179.03733950937215
3629.945,2.506887526090615,159.48003417962255
3630.78,2.51139099534095,133.31422868061802
3631.6174,2.5128119042779544,135.01456223928835
3632.453,2.5099052046047157,152.38096390097854
3633.2883,2.502913320467932,135.24789252348512
3634.1262,2.4939458996200794,166.5540249425582
3634.9622,2.486316063463689,147.72596383236706
3635.8005,2.482712947265007,150.35748941028245
3636.637,2.483804362103762,131.3585875860281
3637.4756,2.4877526300287323,169.4293442455514
3638.3123,2.4912899905830486,128.75511156330768
3639.1492,2.4917538946507096,131.67147064517263
3639.9885,2.488521931187873,142.70298626799692
3640.826,2.483037728653025,135.52604073975198
3641.6653,2.477569503548243,143.04423829637628
3642.5032,2.474171492443325,161.20978341419715
3643.343,2.474061953360871,152.44026419493585
3644.1812,2.4772636790404268,152.56583585180073
3645.0195,2.482188564157726,142.00397985602723
3645.86,2.4858586925944035,172.19168354635698
3646.699,2.4851054245860986,162.20505404516928
3647.5398,2.478209020526589,130.34227702101992
3648.379,2.4657069011733084,147.11204917616016
3649.2202,2.4497413289629475,159.61332585047444
3650.0596,2.433056381908736,146.58591507689073
3650.8994,2.417751070018923,139.89405487087205
3651.7412,2.4050354699960543,209.2902285555823
3652.5813,2.3952904864080247,137.59593415759176
3653.4236,2.3882020154649224,175.95633768904335
3654.2642,2.383548804913895,159.07542320429027
3655.1067,2.381604551940541,176.10229691724084
3655.9475,2.3830182412858703,175.80229749771746
3656.7886,2.387786197352592,139.34428565017822
3657.6318,2.394455412468295,235.72999093220693
3658.4734,2.4003712474030947,159.41965565938443
3659.317,2.403229785503329,144.12303983575515
3660.1587,2.402406503804758,165.59228184036513
3661.003,2.3992084462546814,129.46524336140828
3661.845,2.3958628072295753,201.31059743113084
3662.6875,2.3942224661868288,137.0793388845252
3663.532,2.395183714080339,171.83996212519003
3664.3748,2.3985687944087983,169.63725635647208
3665.2197,2.4031620286371576,161.93103633274703
3666.063,2.4068433880628852,125.82546328686907
3666.9084,2.4073775966205493,157.34099007213638
3667.752,2.4034382030003423,147.97236013927957
3668.5977,2.395269025319253,159.18620697411012
3669.4417,2.3845921777044183,145.71095709093365
3670.286,2.3737801695986236,147.30943790029815
3671.132,2.365051959844144,148.48148661029256
3671.9768,2.359655878623394,210.73374406382308
3672.8235,2.3570909974664507,163.20010471278542
3673.6685,2.355316594615763,157.26147024853705
3674.5156,2.351928551706828,139.92939674137736
3675.3608,2.345830337506826,155.51873270216254
3676.2063,2.3378063085826715,180.65373860117333
3677.0542,2.3296479237426886,205.15050384680012
3677.9,2.3227789635899776,210.75191858844698
3678.748,2.317405194562088,181.65375750625648
3679.5945,2.3130355856330147,171.78852230214892
3680.4429,2.3090030659525134,152.47545503798145
3681.2896,2.304700977629361,177.43231549535713
3682.1365,2.299434761258546,153.58856058052456
3682.9856,2.292770820930951,192.59973010302397
3683.8328,2.2851981830606474,178.08605757757073
3684.6824,2.2779964672705053,172.63829618406157
3685.53,2.2724587485875536,180.46520654851952
3686.38,2.268880122721055,149.60063568823344
3687.2278,2.2668421596409836,193.56446595046387
3688.0762,2.2660678041193663,159.39346019412466
3688.9265,2.266946047660307,196.73339437966493
3689.7751,2.2700773607671527,200.2217355604604
3690.626,2.275678400167715,194.59830774254033
3691.475,2.2833880655111156,169.31259403269448
3692.3264,2.292467605758428,178.02138027684933
3693.1758,2.301539961149359,167.39402388071764
3694.0254,2.308693874952355,168.9743340368441
3694.8772,2.312026504347969,160.8848758384613
3695.7273,2.3107424965187215,178.9442788567134
3696.5793,2.3057740882203053,218.20552549005484
3697.43,2.2992338349889896,191.50921812816284
3698.2825,2.2931287767399975,181.81511182842053
3699.1333,2.2885569203661014,169.98614364365648
3699.9841,2.2855480883300423,176.0221781249661
3700.8374,2.283503629755812,218.15372952435968
3701.6887,2.2815277735040653,170.64347966427175
3702.5425,2.2786482285831124,152.93018921671492
3703.3943,2.2743064289959194,176.45140154493757
3704.2483,2.26872409326066,179.5289164095094
3705.1003,2.262864532612071,160.57089792832926
3705.9526,2.2575694706934963,164.3884912834254
3706.8074,2.252813920364614,156.05860682825812
3707.66,2.2476764883525115,195.70759897879879
3708.515,2.241008793556874,224.23804643627597
3709.3682,2.2325440095413467,171.54233995552846
3710.2234,2.2232122366436813,205.0158886762891
3711.0771,2.214842335465938,185.567618829749
3711.9307,2.2090912649659957,197.4563889377183
3712.7866,2.206774757230637,169.3744380880415
3713.6409,2.207720228554302,179.53890002009
3714.4973,2.2109280321119953,181.4972656292058
3715.3518,2.2148687136235634,214.57468237455313
3716.2085,2.2180457556646673,143.57961968646498
3717.0635,2.219675624979975,165.46087845626943
3717.9185,2.220194585407582,181.7530685594422
3718.776,2.220836594561991,194.45778225986567
3719.6313,2.2225841794342616,201.4219889733211
3720.489,2.2253852826891607,188.207046334689
3721.345,2.2283002026051166,197.94690145916198
3722.2031,2.2304370082242246,176.78915583271905
3723.0593,2.2315524760843046,235.88111549929553
3723.9158,2.2318842114249358,184.1360533104203
3724.7747,2.2314474254570347,197.67735004116315
3725.6316,2.22977072501637,196.2727027051572
3726.4905,2.2263926367536504,169.0050820258176
3727.348,2.2216530025215384,169.90290474663124
3728.2073,2.2167851103844995,215.86949353186407
3729.065,2.2132756936502793,147.77447386415292
3729.9229,2.211823540753791,199.87266879896845
3730.783,2.2118495781082035,171.2315647031962
3731.6414,2.211653554162952,176.60621933681114
3732.5017,2.2091843667184694,162.91278820609094
3733.3604,2.203069867470249,182.5868124908395
3734.2214,2.1932967928215343,163.6774578509608
3735.0803,2.181479095035463,169.69122489515283
3735.9417,2.1701468994957427,219.35549259733244
3736.8013,2.16189000655926,193.89999296447013
3737.661,2.15784464587618,208.48515620241156
3738.5227,2.1569881856738315,167.71421244215892
3739.3828,2.156591064492171,212.363079578834
3740.245,2.1539060182836,185.36212168552012
3741.1055,2.1479781652341265,240.3501591576335
3741.9683,2.140045042320971,208.67834570063687
3742.829,2.132468252030091,261.5142941310518
3743.69,2.126824584478301,240.17187789520892
3744.5532,2.1231175819642973,197.93603601984572
3745.4148,2.1204422354415615,217.23276045338184
3746.2786,2.11818527523902,214.80816675143882
3747.1404,2.1166191976960995,215.74822043657466
3748.0044,2.1163964295524202,183.93441805211347
3748.8667,2.117931590312653,198.5958468519102
3749.729,2.121197348211862,185.3596412282703
3750.5938,2.1258028913924263,259.79864313957773
3751.4565,2.130962293480689,199.47970261293167
3752.3215,2.135756529235865,206.75349014180455
3753.1848,2.1395181907995857,218.92090983980225
3754.0503,2.142296960155461,198.90214879954468
3754.9138,2.1446496366403283,185.54263182996385
3755.7776,2.1471287956470757,200.49363549530085
3756.6438,2.149748903373167,197.73195496128238
3757.508,2.151849232870179,199.48741998726854
3758.3745,2.1524470110201723,166.29744744802585
3759.239,2.1507276913978357,171.07690907883529
3760.106,2.14645981373557,223.87617978920193
3760.971,2.1401456297251027,194.62130841997896
3761.8362,2.132770261045815,212.91083218264382
3762.7036,2.1254711749904898,206.7207680953144
3763.5693,2.119265060541459,196.63869598994813
3764.437,2.1147329896713414,232.8655176745166
3765.3032,2.1119950632340228,222.52669835216895
3766.1714,2.110539252567621,228.8538719951197
3767.0378,2.109336929019323,213.77332531654832
3767.9043,2.1072058751008393,189.0034323235893
3768.7732,2.103337365672984,182.77400402277513
3769.6401,2.097590168489764,201.88615839226622
3770.5095,2.090277422695386,211.03850544741755
3771.377,2.0820978894618647,189.17508839843504
3772.2466,2.0739811161976696,225.56836648478406
3773.1145,2.067089785999211,232.86767411317294
3773.9824,2.062185167249493,152.5172129198095
3774.8528,2.059203575864821,192.6280697620452
3775.721,2.0573574124975624,250.60109936146574
3776.5918,2.0557439124276065,208.45881879395745
3777.4604,2.0540845513481574,234.5778220963038
3778.3315,2.0528654609883823,242.41112339341726
3779.201,2.052860687307384,210.66904260692579
3780.0703,2.054260080832748,266.54187182394304
3780.942,2.0562894928990887,201.14387582722165
3781.8118,2.0577377925509706,197.30842647268108
3782.6838,2.0579797911762427,196.33336717162695
3783.554,2.057335058460569,209.61048971782816
3784.4265,2.0565668152058767,184.51918707079795
3785.297,2.0562620127453566,209.9824767476432
3786.168,2.0566793332784057,204.12131034984554
3787.041,2.0578299626112884,233.9111485908382
3787.912,2.059332182712633,212.33437402517842
3788.7856,2.060319689381733,213.62534140929847
3789.6572,2.0597268286776704,186.0772200602717
3790.531,2.0568406608951624,241.81313316919022
3791.403,2.0515340693747457,225.35173799826234
3792.2754,2.044003384630052,196.56973168221236
3793.15,2.0345387767247005,226.3028839319062
3794.0225,2.0237061043455764,205.77012737582152
3794.8972,2.0123964439192803,233.00310180806036
3795.7703,2.001999467149479,220.74738167329483
3796.6455,1.9938772488475371,263.17723236944477
3797.519,1.9890369789935953,225.23149979622684
3798.3926,1.9875825776147342,209.73723663997455
3799.2686,1.9887634258121132,235.16209012811274
3800.1426,1.991388622739049,213.99189437222793
3801.0188,1.9945431922724588,209.2608436418285
3801.8933,1.997948311032211,244.52625832155425
3802.77,2.0017800199946247,229.48555857946957
3803.6448,2.006015172003313,227.71014398652756
3804.522,2.0102676610218726,240.0722434365933
3805.3972,2.0141633083192363,214.6553222655203
3806.2727,2.0180037295580093,217.17458582909535
3807.1504,2.0225978957643234,247.69069243836725
3808.0261,2.0283062291473946,203.77300910459942
3808.9043,2.034361585916717,215.48478378349625
3809.7805,2.0390719740019043,207.01482802783823
3810.659,2.0410596559463756,214.86960985912228
3811.5356,2.0400536831330225,250.8269446735734
3812.4126,2.0368749803075845,208.6238157032621
3813.2917,2.0328023949082983,205.06162331454814
3814.169,2.02914446001899,233.57256129328954
3815.0483,2.0269136982580656,223.6297908029138
3815.926,2.026569829160678,226.64900301509152
3816.806,2.027688435760005,231.0950060193805
3817.684,2.0291106162439427,243.39870597385968
3818.5623,2.029575304386235,212.53762274561285
3819.4429,2.028287953184974,228.4507615269163
3820.3215,2.0250361165601074,216.63754451962419
3821.2024,2.0199395563160194,223.11761444031876
3822.0815,2.013353279222154,223.7324662058792
3822.963,2.005655685618368,215.4401021095781
3823.8423,1.9970351976707084,220.9276950145967
3824.722,1.9870689040387088,202.5305569692025
3825.604,1.9750336817569976,215.45119819026664
3826.4841,1.9608096245468882,260.5073132634674
3827.3665,1.9451459009068033,285.36280595220643
3828.2468,1.9294817757557607,224.16528703990625
3829.1296,1.9147591277607787,232.5616266443652
3830.0105,1.9012658778172844,260.2967046968912
3830.8916,1.8886414169696217,240.3668596592516
3831.7751,1.8764916469509811,269.5975453699308
3832.6565,1.8647298498178946,270.8056927931107
3833.5403,1.8534217857865003,291.9591476124311
3834.4224,1.843169821712628,241.86993059341816
3835.3064,1.8350802445849568,312.82147352643267
3836.1887,1.8307261290435668,289.5992553050594
3837.0713,1.8312498712847316,325.3238745399783
3837.956,1.836605539108285,283.19791548715574
3838.839,1.8453571478971174,258.54512177390865
3839.7244,1.8556566421818166,240.23361766683084
3840.6077,1.8663413671248692,243.95313158842947
3841.4932,1.8776526255008736,257.76975680922413
3842.377,1.8903981814002995,263.3046674866434
3843.261,1.9049108336798812,218.91760307883862
3844.1472,1.9203295462332892,259.68791558643534
3845.0315,1.9349380489455545,256.0850709350415
3845.9182,1.9474906718654874,234.1329629975983
3846.803,1.9577003785988591,266.61757366068355
3847.69,1.9664604686621152,235.33623090478542
3848.5752,1.9750273103806963,226.43941756806825
3849.4604,1.9843964367849916,235.77738490998877
3850.3481,1.9947220451436636,244.79656062032433
3851.234,2.0051690882058337,221.81077872179227
3852.122,2.014564310590587,222.43972905702694
3853.0083,2.021917846214933,210.72246409163543
3853.8967,2.0270657222184485,206.52795674388153
3854.7832,2.0304270308288825,240.51339273942096
3855.6702,2.032568506269522,194.43657390012487
3856.559,2.0336729163817613,197.54359893373748
3857.4463,2.0335316721144268,191.33537633431422
3858.336,2.0319890755915377,235.8771877105938
3859.2234,2.029406491737336,221.11420685576508
3860.1135,2.0266218346347977,213.18495482883625
3861.0015,2.0244818028818825,200.62274688291717
3861.8896,2.0232221867639377,230.19629098183097
3862.7803,2.0223231532210457,233.41718378077204
3863.6687,2.0207531639741583,214.27135848959907
3864.5598,2.017338516016227,236.9772371046061
3865.4487,2.011145108112692,212.06277688491014
3866.34,2.0016638405893237,225.01941125645868
3867.2297,1.989177617184311,282.1927389847406
3868.1213,1.9746826070293668,248.12149413214746
3869.0112,1.9597966335736856,213.8372328418141
3869.9014,1.9458495168617076,270.13459052740916
3870.7937,1.9332377941706453,238.0827944178902
3871.684,1.9213359681846287,249.65335592757026
3872.577,1.9089206610830276,273.6951600034237
3873.4678,1.8953285353985647,257.19926953773216
3874.361,1.880615889424196,260.3963977164311
3875.2524,1.865489386932504,277.87720976562906
3876.1438,1.8504429543653023,279.0950207194384
3877.0376,1.8355289235814491,302.96488227355894
3877.9297,1.8205846919664137,240.81152635682986
3878.8237,1.8052811322914328,234.80834774019695
3879.716,1.7895556852998757,303.93250816119365
3880.6108,1.7732960812305398,325.91086929573555
3881.5037,1.756451022757691,288.26699302448446
3882.3965,1.7387038931867926,285.7712051984428
3883.2917,1.7197432552295375,343.4171948539082
3884.185,1.6996536514210796,318.4047757777016
3885.0808,1.6786198045158753,360.1277499715112
3885.9746,1.6572133159611957,332.06556554752655
3886.8706,1.6360019692541474,306.5196115857545
3887.765,1.6161889905122326,421.4651111063997
3888.6592,1.5995436918832242,331.76174738071205
3889.556,1.5883868556404566,374.6437594576961
3890.4507,1.5848277252363523,395.8568322679872
3891.348,1.5894940969489673,373.3023052816293
3892.243,1.6010580213937842,312.64949589639747
3893.1406,1.6168924403624085,347.3521318350214
3894.0361,1.6341220408417845,353.3499732856493
3894.932,1.6509977974251604,290.28129559187676
3895.83,1.6671175036305237,280.76324417848383
3896.7263,1.6829063569301432,313.2932059820554
3897.625,1.699103301503695,310.90463437571657
3898.5215,1.7158175641719737,323.2319393746172
3899.4207,1.7328437864185884,261.06809990843936
3900.3176,1.7498012788347657,347.4112564461976
3901.2148,1.7668951381578462,305.0365932148221
3902.1145,1.7847093562853087,321.69706416118356
3903.0122,1.8036398946282435,333.8773639496873
3903.912,1.823846822968693,271.6163729882343
3904.8103,1.8448776853309015,242.8398899638902
3905.7107,1.866210939876235,291.59719324117805
3906.6094,1.8871010252079148,226.30170556937003
3907.508,1.9070428284132641,239.86410031767448
3908.409,1.925794674719528,223.37909642039
3909.308,1.9434216494275653,248.62902470039612
3910.2097,1.9605672528346285,261.3442037358225
3911.1091,1.9776360557487782,251.07862257608812
3912.011,1.99440161473033,255.4312707095177
3912.9111,2.0094702451134454,195.715011109469
3913.8113,2.0214487361841136,204.99648801846362
3914.7136,2.030179773911214,254.38553561056926
3915.6143,2.03723004479283,203.14242242407977
3916.517,2.045114858942451,240.48898649552152
3917.4182,2.055550636151621,229.60880751416673
3918.3215,2.0685693380129218,231.08386671609065
3919.223,2.0824709200493845,206.95694199141988
3920.1245,2.0949884648165114,224.82069039576086
3921.0286,2.1042292399920868,197.58057776310145
3921.9307,2.109235325137585,196.70338383315445
3922.835,2.1102032126982415,188.99470141711052
3923.7373,2.1080946461690266,200.410844627618
3924.642,2.104182784883087,225.56788294409313
3925.5452,2.0995898105978745,190.8992880624286
3926.448,2.0949438244001866,206.68463106902735
3927.3535,2.090442773559427,208.58902614059653
3928.257,2.0861919283625987,198.95500077006253
3929.1628,2.0823109999184464,191.3796915472196
3930.0667,2.0788886001828355,218.93384578139066
3930.9731,2.0756669303508835,203.79268531803893
3931.8774,2.07212124648741,198.63719906488032
3932.782,2.067736201628391,197.7917654155796
