wavl,flux,ivar
3566.9744,3.149335212322463,79.87963472770073
3567.795,3.1330409992247454,86.08631986156115
3568.6177,3.122757998000326,143.34951542946754
3569.4385,3.117920657265305,81.18339624567744
3570.2617,3.114786308353556,90.00345899797107
3571.083,3.109349060992533,86.09720794975306
3571.9065,3.1001643400664376,78.66139205895519
3572.7283,3.0893961545296498,84.32051020448336
3573.55,3.0811652893476573,89.31361583540922
3574.374,3.0789614887890027,76.8872371348428
3575.1963,3.0835607275629724,97.94190268584858
3576.0208,3.092643002398087,86.78270968204275
3576.8435,3.102166584649088,80.45881351503729
3577.6682,3.108724021884935,90.94875489642536
3578.4915,3.1108829183393225,83.41756918893955
3579.3145,3.109150651556672,81.17478441471444
3580.14,3.1047025393404444,90.63123775585962
3580.9636,3.0984945045622703,70.74597030584519
3581.7893,3.0910528456434507,97.70462223583078
3582.6133,3.08284167447584,86.43424385084164
3583.4395,3.074192885257879,89.66887582292071
3584.264,3.0653237711011294,98.70470031572812
3585.0884,3.0562719491452452,68.62071104599471
3585.915,3.047390360811797,77.926675515003
3586.74,3.039852911175137,107.04440751185416
3587.5671,3.0352356171511983,104.8732701858902
3588.3923,3.034431351416247,109.65786380760846
3589.22,3.0364108163474675,83.73208985244402
3590.0457,3.0385658804028806,78.61837144830879
3590.8716,3.038584244538913,85.98220337952048
3591.6995,3.036084485549787,97.46111568085475
3592.526,3.032545140778392,92.88840622404031
3593.3542,3.0297059284265866,79.66449769626418
3594.181,3.028151458087174,93.69129548781537
3595.0098,3.0269519781013843,79.35905225026502
3595.8367,3.0244272386258,99.94730684125587
3596.6638,3.019208294630183,88.21151525289933
3597.4934,3.0109820447097784,79.78517328892163
3598.3208,3.000679709383649,97.64789486571584
3599.1506,2.989833341047406,91.96719417134038
3599.9788,2.9801370272866423,106.99448358276577
3600.8088,2.9727521820493497,85.98779907609696
3601.6372,2.9682617909892324,79.4807026533221
3602.4678,2.9665904453817684,89.82093662041599
3603.2964,2.967261869682695,101.95430891920938
3604.1252,2.969575370785941,90.28636010149962
3604.9565,2.9728437752952583,89.0791645340996
3605.786,2.9763868886903966,83.12546714379825
3606.6172,2.9793524215108143,100.59992614029784
3607.447,2.980485084256748,80.4575120217563
3608.2788,2.978611333883672,74.30624763103646
3609.109,2.973592287755187,91.08655048957527
3609.9392,2.9669005547426233,85.32614627775745
3610.7717,2.9611427672181327,123.45539382737262
3611.6023,2.9587145982694336,93.17072252670009
3612.435,2.9602329439874544,113.19896194952639
3613.266,2.9639986603557347,88.12943591798461
3614.0994,2.966920423988506,95.39620786619288
3614.9307,2.966436244852942,97.38637799087871
3615.7625,2.9621481334151625,92.67707586587454
3616.5962,2.955799772436868,88.53229888445767
3617.4282,2.9499828281238654,103.4595184038789
3618.2625,2.9464478431001933,84.14109772716785
3619.0947,2.9453778123424605,88.75634272275578
3619.9292,2.9455187001617755,82.86773955526775
3620.762,2.945069184492771,87.36452405925543
3621.595,2.9425735363046885,95.21132758142903
3622.4302,2.9373018390249865,108.36577842519463
3623.2634,2.929176510805857,77.75721476855543
3624.0989,2.9184829870781117,85.62231660433629
3624.9326,2.9061299761915245,92.27729586546704
3625.7686,2.8935335091675225,97.80352247273764
3626.6028,2.8824249389876235,96.81280520759452
3627.437,2.8739422014863503,97.53121580460007
3628.2734,2.8683202865539874,89.92684358146408
3629.1082,2.8650251321074967,91.7231122363201
3629.945,2.863040714188016,96.49179391917203
3630.78,2.8613748091257323,103.51446617646812
3631.6174,2.8594941223402377,98.31990852558808
3632.453,2.8576744922145982,100.77891199108822
3633.2883,2.856653569066829,98.26646645382458
3634.1262,2.856717612381153,112.86095416383276
3634.9622,2.856907629350847,85.8475083807795
3635.8005,2.855179673155909,99.39764171929149
3636.637,2.8495109048814697,104.22521377867147
3637.4756,2.8391166882664227,89.3849534099698
3638.3123,2.825295389704174,100.132546148922
3639.1492,2.810988017917368,96.68036705424502
3639.9885,2.799558647901933,127.56023409289948
3640.826,2.7933148596767983,119.0331664263681
3641.6653,2.7926436894842612,103.53632152462299
3642.5032,2.796634322929875,109.47910707315262
3643.343,2.8037124716140744,122.34160809042787
3644.1812,2.811591740821347,98.98027668320658
3645.0195,2.817317227683179,103.61896209032327
3645.86,2.8181456561655494,123.24074197389571
3646.699,2.813213591907794,100.5636762164616
3647.5398,2.8043429401221958,87.62774171296472
3648.379,2.7951044837303316,108.24843043209259
3649.2202,2.788593609019456,106.13455307360994
3650.0596,2.7860190182894167,98.7300322619646
3650.8994,2.7865834569191468,98.94129878269744
3651.7412,2.788703675648758,86.72099618750265
3652.5813,2.7910442189102063,87.4345591656649
3653.4236,2.7928408275835377,93.7475677064299
3654.2642,2.79360765987924,111.5845287824864
3655.1067,2.79292348545527,98.79918744392468
3655.9475,2.7903491282328265,110.03458536088729
3656.7886,2.7854396045241496,104.35631624589837
3657.6318,2.7779027028014367,101.31439031038995
3658.4734,2.768006173843077,129.9123231509252
3659.317,2.7565998121584374,108.37038015346603
3660.1587,2.7449791425361925,104.75085760591324
3661.003,2.7340923390376517,122.28641160565891
3661.845,2.7242773343690567,113.78795703068974
3662.6875,2.7150879922647913,130.56161574539541
3663.532,2.7061075422530996,97.9039486805461
3664.3748,2.697901827884153,108.72738342103267
3665.2197,2.6920466691357956,115.51928488441584
3666.063,2.690197994063301,117.2150090540165
3666.9084,2.6927187803912975,95.70713394574221
3667.752,2.6985948649002984,85.20285162564117
3668.5977,2.7064383138551884,100.917825218398
3669.4417,2.7150563218653323,111.6909395333526
3670.286,2.723326376861832,93.52391873994048
3671.132,2.729809609669534,110.00775618323925
3671.9768,2.733060791547863,106.80645901934248
3672.8235,2.7323857351665533,101.10868970925006
3673.6685,2.728096369845682,101.20078134434085
3674.5156,2.7211936666721015,104.24008678729265
3675.3608,2.712828902854325,108.02673003208464
3676.2063,2.7037120028320376,111.50758514904263
3677.0542,2.6941272591635204,139.82233799242823
3677.9,2.68445313371629,104.61215943281826
3678.748,2.6754443720001087,115.2289364383628
3679.5945,2.668419959992732,117.27143887971296
3680.4429,2.6644931736047353,113.27302770959025
3681.2896,2.6638656921085513,110.6342287460076
3682.1365,2.6653248306804262,127.19596945904243
3682.9856,2.6666808002486833,101.06202122750632
3683.8328,2.665880266130766,102.9952143826729
3684.6824,2.662169933576654,143.86999371777893
3685.53,2.6563662372878283,97.57899766254681
3686.38,2.6499679874153825,145.5634129526927
3687.2278,2.644271274967351,116.78895307769976
3688.0762,2.6400369673383426,97.47100051045561
3688.9265,2.637876568544272,140.29586220603102
3689.7751,2.638230463854765,112.78115792614962
3690.626,2.640819567670954,130.43722562694555
3691.475,2.6443370136638764,102.54541309029135
3692.3264,2.6469843162329645,110.59569564078579
3693.1758,2.647375477808299,105.32418573695469
3694.0254,2.645224250483968,116.77364756040797
3694.8772,2.641258870483551,136.5243883481792
3695.7273,2.6366649298802463,117.15335964415272
3696.5793,2.632232832276962,115.66375444627587
3697.43,2.6280034776608523,116.40036894281586
3698.2825,2.6234859281900405,116.45696116442166
3699.1333,2.6184780985607503,131.27810635305306
3699.9841,2.613522346716479,106.18689805096056
3700.8374,2.6097610512197584,118.75458045363992
3701.6887,2.6081688472112163,112.40704747733672
3702.5425,2.608575988581295,109.40599858597304
3703.3943,2.6094002985391254,104.7415673608353
3704.2483,2.6084049963446985,112.48200616546211
3705.1003,2.6041246052887015,109.0407465064527
3705.9526,2.5968179725351903,115.81717840626727
3706.8074,2.5882492147984726,122.5642068788077
3707.66,2.5807607986336345,145.2191429528679
3708.515,2.576176992096526,114.08743021734708
3709.3682,2.5755662150370324,147.63541866507785
3710.2234,2.5791021337733757,133.47877797391027
3711.0771,2.5859537607485175,124.31309194105664
3711.9307,2.594198574492138,102.00257208334725
3712.7866,2.601226539366472,116.97960861554306
3713.6409,2.604703638835876,124.4570478121269
3714.4973,2.603749148982554,114.09721818935485
3715.3518,2.5990877871060696,138.00257408584417
3716.2085,2.5921958179336486,107.93375798086122
3717.0635,2.584233497474018,141.09597195539465
3717.9185,2.5754352392704134,123.91281464442835
3718.776,2.565539834141655,114.70198843723033
3719.6313,2.5547413283450324,129.67953565186568
3720.489,2.5440177881342616,112.12230876639943
3721.345,2.53497810031875,120.31642388250634
3722.2031,2.528681651955646,138.5257220680001
3723.0593,2.5250290418022088,126.09125523426974
3723.9158,2.522901029241082,107.80190363899894
3724.7747,2.521279096799951,137.19811747861587
3725.6316,2.519991880029208,115.71298463793823
3726.4905,2.519363482565206,128.56843783583744
3727.348,2.5193121896298964,124.43072377008976
3728.2073,2.5189541351020375,140.84383838888814
3729.065,2.5172451110647627,123.49311189455143
3729.9229,2.5139937065003615,139.90007426337297
3730.783,2.5102206634210633,131.78785137150385
3731.6414,2.5074753736009003,142.35344666141094
3732.5017,2.5065397818189794,112.67728170698236
3733.3604,2.5067882496146763,137.00390766212448
3734.2214,2.506611666595739,151.7188662974459
3735.0803,2.5045133357967146,89.1123527976005
3735.9417,2.499831069390093,132.4128432101272
3736.8013,2.492743412853881,131.10367131996318
3737.661,2.483784499813016,124.61246698460047
3738.5227,2.4735680723556155,140.9826395699565
3739.3828,2.462802986294604,134.33719203697623
3740.245,2.4521103614797917,126.3758904820742
3741.1055,2.4422889167785486,119.61041433400139
3741.9683,2.4342239706797724,134.4760339649015
3742.829,2.4288744519555325,139.1169884131054
3743.69,2.4265331203746996,117.375679252551
3744.5532,2.4265006100753252,126.2714209555681
3745.4148,2.427365283891485,121.0683739211676
3746.2786,2.427775336559391,139.287674244469
3747.1404,2.4269301744687617,137.8628719664777
3748.0044,2.424612295723521,157.84691466768234
3748.8667,2.421261895531284,131.65632648904753
3749.729,2.41813411669587,132.02973695155313
3750.5938,2.416954215324896,146.42238263019402
3751.4565,2.4186626643594598,134.07344584239783
3752.3215,2.4222354062057314,142.42238872271955
3753.1848,2.4251019757960104,157.89856277531027
3754.0503,2.4252888595110322,144.9457319231326
3754.9138,2.423225534504527,153.9159891898325
3755.7776,2.4213735444238527,154.6278430883022
3756.6438,2.4219350967213944,132.9737965749419
3757.508,2.42492287557288,140.37533247464023
3758.3745,2.4283435694322892,160.48828957838293
3759.239,2.4299100114921632,144.37979421499904
3760.106,2.428599263574863,149.37835833999685
3760.971,2.424823543822371,133.16781274556718
3761.8362,2.4195698139654187,128.03931346059835
3762.7036,2.413454488404103,158.73403921167315
3763.5693,2.4065106661727826,139.56565135495887
3764.437,2.398595796354799,129.44592765058874
3765.3032,2.3902108251052043,145.9778462809021
3766.1714,2.3825137490139885,142.41454447528517
3767.0378,2.3768371338652785,144.52494261007462
3767.9043,2.373793017196959,150.50600730012047
3768.7732,2.3730425743304178,140.24642567334485
3769.6401,2.3736023711471783,129.14992601973248
3770.5095,2.3743853227772083,164.18508122978378
3771.377,2.3745218338972705,143.89429493278377
3772.2466,2.373391039457938,138.49171365524958
3773.1145,2.3706510369795057,133.7193733939008
3773.9824,2.3663965529794475,146.28304543592677
3774.8528,2.3612015839986453,184.60781331347334
3775.721,2.355948821423098,141.9988570468012
3776.5918,2.351486792179023,162.96661552093943
3777.4604,2.3487034949705614,129.74276132243884
3778.3315,2.3483392062298174,160.96864155871825
3779.201,2.3505788128246827,150.80218852577866
3780.0703,2.354581957296502,140.74356165033976
3780.942,2.3587350427094256,157.67575814400223
3781.8118,2.3614802973861475,124.75472668972172
3782.6838,2.3621415608342646,146.96048530013323
3783.554,2.3609534279385738,138.57128936533738
3784.4265,2.3585639497362645,146.20728756164624
3785.297,2.3554530250540022,151.96412412960564
3786.168,2.351614892421881,130.58088368981916
3787.041,2.3467570070599,137.87424504928927
3787.912,2.3408194299513636,148.59699368716034
3788.7856,2.3341438858938055,142.20916014944285
3789.6572,2.327245958883859,161.49183596363423
3790.531,2.3200710171815517,127.04701002999025
3791.403,2.312047905082957,124.35983476426443
3792.2754,2.302676288127392,146.0639227457025
3793.15,2.2922420800558116,172.04896139365627
3794.0225,2.281747842095126,161.3813172388162
3794.8972,2.272069621890878,153.44397243222326
3795.7703,2.2638736314466983,136.10421943359296
3796.6455,2.257705115910326,145.80980409020523
3797.519,2.2541982821776307,161.09222180064594
3798.3926,2.253586345166015,184.40831855539037
3799.2686,2.2555452615470752,155.88197125500784
3800.1426,2.2594755160154194,186.24683131694258
3801.0188,2.2649013577617327,175.9878146575155
3801.8933,2.2712028160403026,159.53422008901234
3802.77,2.277273361520222,167.7371757932481
3803.6448,2.2815761536056898,167.65432641374332
3804.522,2.283104727070572,143.8604711324023
3805.3972,2.282060904455796,144.30125105737943
3806.2727,2.2797940371446037,138.07856757321264
3807.1504,2.277968464590516,147.67271484433056
3808.0261,2.277770069292387,160.78528659297143
3808.9043,2.279532970981,157.2101587687441
3809.7805,2.2828558440106494,167.7620767449721
3810.659,2.2869707333853717,149.7122643494307
3811.5356,2.291011215225054,159.39420788167058
3812.4126,2.294252955941223,127.82317285316567
3813.2917,2.296123823057702,136.4757210452747
3814.169,2.2961940510357373,144.92555707419447
3815.0483,2.2942618551538936,155.86098854018599
3815.926,2.2905366100504447,156.56718117622546
3816.806,2.2857265850614494,141.91370761529254
3817.684,2.2808500865181043,163.87422706403441
3818.5623,2.2765743759139108,161.26461947162406
3819.4429,2.272815654979382,146.47886141813404
3820.3215,2.268959743090538,163.82667315854775
3821.2024,2.2644007116289337,156.89909938310817
3822.0815,2.2590158779613567,146.69595230319686
3822.963,2.252991647522257,150.15966123094026
3823.8423,2.2465901624718363,172.0887053458066
3824.722,2.2398144576281833,173.06113775543992
3825.604,2.2324445714125942,168.14268924112767
3826.4841,2.224286590970156,162.16325217042976
3827.3665,2.2151445944717807,170.07381892394437
3828.2468,2.204747407087237,159.48585598064216
3829.1296,2.1922772302704634,174.39341705752588
3830.0105,2.176851769473501,173.41253060237972
3830.8916,2.1582367145939063,172.15072720284005
3831.7751,2.1376897541881092,163.72806652625485
3832.6565,2.117919577003845,162.24948391570427
3833.5403,2.101518536777543,194.27270680304585
3834.4224,2.0901163960912292,203.33142219218934
3835.3064,2.08370727266107,214.40300771228664
3836.1887,2.0814049480351273,187.95790270954205
3837.0713,2.082202058690664,198.7049499332965
3837.956,2.0856402066287423,178.98439057435667
3838.839,2.0918419545654667,186.7021062949394
3839.7244,2.1012023058708107,152.05078152714532
3840.6077,2.1136477156207136,204.55417116797474
3841.4932,2.1283570142095196,194.34303563708806
3842.377,2.1437033956690565,173.6808769383958
3843.261,2.1582460365259397,166.05782710610717
3844.1472,2.1713844075877144,179.5272933286709
3845.0315,2.1833666220073114,155.71183769184444
3845.9182,2.1949626559379043,168.37274495360197
3846.803,2.2066276710763137,156.48772454714717
3847.69,2.218492508709886,142.9038512078236
3848.5752,2.23019611064085,154.87361751560243
3849.4604,2.2412123767550027,188.27430980004615
3850.3481,2.250959517762296,142.60660735678024
3851.234,2.25893543932832,146.87297291594464
3852.122,2.265017368269496,183.70690418396106
3853.0083,2.2693110461225947,176.56791713441
3853.8967,2.272240514339257,182.02564978338347
3854.7832,2.27443983069894,137.46377640049926
3855.6702,2.276665648291021,147.35728768986826
3856.559,2.2794147322074103,135.86838747020778
3857.4463,2.282551457219665,155.3533309180215
3858.336,2.285362129563305,135.5314578732138
3859.2234,2.2870234043731035,153.59480121961715
3860.1135,2.2873178542775223,159.5491497000876
3861.0015,2.2867893449598493,150.91487344017187
3861.8896,2.286198971250556,171.25508011605
3862.7803,2.285715678391554,161.06673525573902
3863.6687,2.284657583893759,149.43449438075984
3864.5598,2.2819318280412664,152.75765260261915
3865.4487,2.2767185745362477,157.73061152352454
3866.34,2.2687259263285857,148.0763187030306
3867.2297,2.25823149760592,151.77435790925003
3868.1213,2.2456913355158057,164.04621675155227
3869.0112,2.2316995806046083,188.84199812543304
3869.9014,2.216779233226293,181.6744831785661
3870.7937,2.2014689025637404,155.28540422720613
3871.684,2.1862600066310853,174.43575372449538
3872.577,2.171024660862252,175.00740776139466
3873.4678,2.1552287337387326,194.35985511356895
3874.361,2.1379593898281937,152.56432775567438
3875.2524,2.118739283650916,199.28713908931675
3876.1438,2.097555760597601,164.1025078811317
3877.0376,2.0749763369373326,188.85326061549858
3877.9297,2.052103540423277,239.44002660357245
3878.8237,2.029774572112804,176.04373043971196
3879.716,2.008502547411076,204.1000068411936
3880.6108,1.9879086471596261,181.74595018657848
3881.5037,1.9672706988582846,208.78317939964455
3882.3965,1.9456303547688043,184.95849271842746
3883.2917,1.9224696745312797,213.43606518219252
3884.185,1.8982055460896023,253.49895263338658
3885.0808,1.8735505273245394,238.7480625651483
3885.9746,1.8494293593326672,215.43512182908836
3886.8706,1.8262774646416302,254.93109687697176
3887.765,1.8049373764403527,281.83045117011153
3888.6592,1.786998444745474,232.94783356697727
3889.556,1.7750349075663132,308.4219099981124
3890.4507,1.7716848446325244,281.76530474246823
3891.348,1.7779883027337027,273.61552189620403
3892.243,1.7926006476011573,237.6547445173917
3893.1406,1.8125078992163777,246.62597946017215
3894.0361,1.8344243658569002,245.6790925804451
3894.932,1.8566762876894207,219.67195367760777
3895.83,1.8793374765374098,250.5110106144038
3896.7263,1.9030793316646049,251.64443387092544
3897.625,1.9283059019786803,213.2487145804343
3898.5215,1.9541548380051192,222.8132685261849
3899.4207,1.9794180121284866,190.48809186530008
3900.3176,2.0027586810581535,203.4026622738965
3901.2148,2.023639459872487,193.93823640967562
3902.1145,2.0420792714721405,187.28121529800995
3903.0122,2.0584466731635582,180.15316463712907
3903.912,2.0738101516011844,184.98490465589276
3904.8103,2.0895685745121644,213.48742773800552
3905.7107,2.1072547929522902,168.99211061963777
3906.6094,2.1275533991396145,175.586517154359
3907.508,2.1501965984698885,161.36515059742771
3908.409,2.1740462321120715,184.50249554566406
3909.308,2.1973015757636896,173.65059624596952
3910.2097,2.218337356755061,149.30317310295342
3911.1091,2.2358761079620835,154.57449098986146
3912.011,2.24988028681493,159.9767241598488
3912.9111,2.2610738111302986,156.3323610908515
3913.8113,2.2704069059842644,149.6379523396427
3914.7136,2.2782497096797654,161.6539596365693
3915.6143,2.2844761195683985,174.95227081685545
3916.517,2.289306317939974,158.63954907581643
3917.4182,2.293624442648174,137.46806126808204
3918.3215,2.298660216202509,130.91109209230407
3919.223,2.3050260398135953,150.79523864172788
3920.1245,2.312287242799849,160.97046211509038
3921.0286,2.3192625148229418,135.8011086497411
3921.9307,2.3248670777044933,169.01629796156575
3922.835,2.3289557978908224,167.4366965328606
3923.7373,2.332242705434704,148.18609612866075
3924.642,2.3357686635578503,161.8419903112038
3925.5452,2.340083253840101,153.87529090221426
3926.448,2.344925442465908,147.82784491265897
3927.3535,2.349402608869774,129.4868190214059
3928.257,2.3524417161753712,129.4335301501696
3929.1628,2.3532168450210644,128.27324393434196
3930.0667,2.3511425222740057,147.1252440628331
3930.9731,2.3458926732574574,142.4804929112104
3931.8774,2.3376623130197522,140.98637453506274
3932.782,2.327251443089745,151.01772131809497
3933.6887,2.3158726244158165,155.50735137597684
3934.5938,2.3047244224962453,190.197852354244
