wavl,flux,ivar
3566.9744,6.14612485678378,11.473431636550531
3567.795,6.146694337097006,11.937013307546238
3568.6177,6.163572373033175,8.62716484908539
3569.4385,6.191780827407479,9.946827973640456
3570.2617,6.21698014404043,9.898249049468053
3571.083,6.223187273675735,2.3912584474715475
3571.9065,6.20294738496859,11.471716727665894
3572.7283,6.160698620937186,12.13668965526495
3573.55,6.107650487469873,10.310109451981912
3574.374,6.054476631593868,7.558627246112947
3575.1963,6.008361536942561,10.318598138768532
3576.0208,5.9722499049217985,11.300469438781299
3576.8435,5.945892243667232,8.976966398634259
3577.6682,5.924811112216988,11.558644224735266
3578.4915,5.902227828066853,8.53802522193192
3579.3145,5.872825844355639,13.116782221102234
3580.14,5.837264256813793,13.177527071323391
3580.9636,5.803883740151655,9.417144140306142
3581.7893,5.784317787995941,11.964621325422629
3582.6133,5.786986952256713,10.76302081750746
3583.4395,5.811926229244545,7.713138034997881
3584.264,5.851521574965962,11.344701313349248
3585.0884,5.895215102809292,11.198090441395003
3585.915,5.932501686110249,10.943740206407227
3586.74,5.953199800649961,12.050688075295852
3587.5671,5.949612984486491,11.550452467418053
3588.3923,5.920725817713815,9.0876019814537
3589.22,5.875607448431352,9.426000864475917
3590.0457,5.831029537872965,21.878049197178655
3590.8716,5.801759612104734,10.18640341137984
3591.6995,5.792854598306343,12.420379980116428
3592.526,5.7984057973453025,13.393374909408557
3593.3542,5.807149002165675,12.863978534826098
3594.181,5.809891025807131,11.346867272441868
3595.0098,5.803949031140189,13.418484979828396
3595.8367,5.792881812799152,16.38613131859356
3596.6638,5.782756469175964,10.001723207906126
3597.4934,5.777680618375208,9.500402516463703
3598.3208,5.7769312327060005,12.17061355200541
3599.1506,5.775103185142029,9.548923828934832
3599.9788,5.765670734606931,12.722543764111123
3600.8088,5.745726899623158,9.443482211380042
3601.6372,5.718867737677512,12.114001973454789
3602.4678,5.692906749988277,14.46234216380336
3603.2964,5.674858365537312,13.675177393216371
3604.1252,5.665935747531985,9.37046398799348
3604.9565,5.661922244619954,11.0783651165614
3605.786,5.657485723934069,11.256537682021616
3606.6172,5.650557048019894,10.638135183767442
3607.447,5.643185281860004,15.199118878611655
3608.2788,5.638808768793182,12.077096566140332
3609.109,5.639527468117652,15.127497160701246
3609.9392,5.645118237822431,20.363356914714647
3610.7717,5.65369673272232,9.029732978975886
3611.6023,5.662510520487659,12.073028465200641
3612.435,5.668776983235067,15.413295489295315
3613.266,5.670050012485807,12.17403041235594
3614.0994,5.6648811335950295,12.978650303990893
3614.9307,5.653388870493957,9.379702193682686
3615.7625,5.637102331778408,12.921070298919613
3616.5962,5.617828320945364,11.664309324610901
3617.4282,5.596573768398598,10.315233039288579
3618.2625,5.573371593060546,10.416576180927377
3619.0947,5.549027395373662,14.179773281703374
3619.9292,5.525467373135904,15.644843535534507
3620.762,5.505459120775721,14.950344228353812
3621.595,5.490900905352654,14.883297147781139
3622.4302,5.482356115567284,13.99687520857227
3623.2634,5.478901104175061,13.850719173142155
3624.0989,5.477915469854244,15.124110180264775
3624.9326,5.475845235382475,12.93652530335181
3625.7686,5.4701996249593385,11.345931350264957
3626.6028,5.461633159203547,20.052443640513616
3627.437,5.45352566083554,11.776517999361886
3628.2734,5.449256234347478,15.150940222804632
3629.1082,5.449611881165418,11.491533844326444
3629.945,5.452497682672488,15.91750519687892
3630.78,5.454942346687907,12.918324758219974
3631.6174,5.455407648115146,12.383793847580266
3632.453,5.454562040760271,17.010546490528533
3633.2883,5.4542263590754905,14.616531672317585
3634.1262,5.455382929498031,9.863727722113708
3634.9622,5.456678553433407,15.644362475918733
3635.8005,5.454498916014109,14.536504539005643
3636.637,5.444930917971073,13.672232095129022
3637.4756,5.426724307837195,10.978751789340562
3638.3123,5.403357860302604,15.45987913901259
3639.1492,5.381198503165362,15.407633127138217
3639.9885,5.3651269004902735,11.48935306470281
3640.826,5.354764658593674,19.858606549463563
3641.6653,5.344514619768834,15.901207216174837
3642.5032,5.3283934915507585,14.22386025786264
3643.343,5.304862386427156,14.32618210378649
3644.1812,5.278417588407732,15.346224043707464
3645.0195,5.256122597847824,16.78116326923589
3645.86,5.243513466639278,15.60622013526728
3646.699,5.242540815284422,14.454188277813492
3647.5398,5.251673791371039,13.33088833588386
3648.379,5.266849596292216,13.48854119941031
3649.2202,5.282562632873331,12.111740884901263
3650.0596,5.293453444562531,14.654069512499564
3650.8994,5.297016369677106,18.164249166281518
3651.7412,5.294581018795299,12.425305410029823
3652.5813,5.289927870182432,13.989679529648985
3653.4236,5.2860971235806735,13.638650253560373
3654.2642,5.2829877082749,15.2319916382988
3655.1067,5.277091908981778,14.092027188862241
3655.9475,5.263794940271358,13.17324802696015
3656.7886,5.240755710848093,10.298152100687862
3657.6318,5.2103666973207705,15.89093549819433
3658.4734,5.1794763453157735,16.306024986654574
3659.317,5.155323595334833,12.58372509557376
3660.1587,5.141935761178937,15.90724554098544
3661.003,5.137934504714256,18.21811592602974
3661.845,5.138058695203222,13.881644459645761
3662.6875,5.136474662607554,17.380149846629312
3663.532,5.130615680536943,11.306069053921036
3664.3748,5.123180425112741,16.243057122004384
3665.2197,5.120216754732602,16.755304700554337
3666.063,5.126036653434872,28.155729852424404
3666.9084,5.138698588293194,16.099592427068046
3667.752,5.150611769022153,14.656207044493232
3668.5977,5.154575590643832,12.851257432640383
3669.4417,5.149239881425342,14.636437046620184
3670.286,5.139365363329622,15.156366325640965
3671.132,5.130775083955484,13.871334766416394
3671.9768,5.1253698743697775,14.055199133902018
3672.8235,5.120214937979397,12.935496080113515
3673.6685,5.110988053740177,15.375851879622061
3674.5156,5.0955156390412695,16.51137831216893
3675.3608,5.074735579866111,17.005313477905748
3676.2063,5.050505156211009,14.417562569154999
3677.0542,5.023800358038624,16.201209752364694
3677.9,4.995374600595473,11.001697837751461
3678.748,4.967247020462994,14.235538462869302
3679.5945,4.944049999249743,16.546605064332677
3680.4429,4.93027837166963,17.949035839387435
3681.2896,4.92716864962275,18.866060574599462
3682.1365,4.931281593815917,13.50342307877968
3682.9856,4.9371266426535625,13.240115792188305
3683.8328,4.9407753802776035,17.718180680933607
3684.6824,4.941547684653794,15.484183577114244
3685.53,4.940621955466081,14.410590530920285
3686.38,4.93891972207083,12.877149240163549
3687.2278,4.936406325809646,15.160746028895673
3688.0762,4.932770771953204,20.189112954022995
3688.9265,4.927947029719267,16.49969455842309
3689.7751,4.921932935373578,13.08111492161416
3690.626,4.91491071226377,14.524239966428375
3691.475,4.908374969504046,12.942781126886153
3692.3264,4.905091928062467,18.72093346983025
3693.1758,4.90704271271981,18.2486722814578
3694.0254,4.91307354213479,15.121093649334588
3694.8772,4.919654477539107,12.352009387451869
3695.7273,4.924054377863225,19.616117794713787
3696.5793,4.926490015956611,17.789829817145108
3697.43,4.928834695143103,16.020838486838038
3698.2825,4.932253226071213,18.080481697784876
3699.1333,4.93625046196146,20.834581396979033
3699.9841,4.93936248423192,14.937691903568636
3700.8374,4.939913408268218,14.33317658588247
3701.6887,4.936558342133688,14.150205418205942
3702.5425,4.928777856582175,14.150726148235446
3703.3943,4.917060342742227,20.568292088607137
3704.2483,4.902160377449717,17.788199484169688
3705.1003,4.884642732086761,15.944628341064377
3705.9526,4.864644563264048,16.802369180085226
3706.8074,4.842598398971813,14.80830155811366
3707.66,4.820028216362872,13.59241818235285
3708.515,4.799032259828275,14.43598377626793
3709.3682,4.781970096343327,16.26019699572497
3710.2234,4.770358953190269,15.210083676330349
3711.0771,4.764984984379808,15.75254545329154
3711.9307,4.765636422556149,15.289139049022
3712.7866,4.770818992255324,16.579249055710388
3713.6409,4.777552467466585,14.046854725089501
3714.4973,4.782446531174529,17.54111951288204
3715.3518,4.783174292122932,21.174371466613557
3716.2085,4.779356195686737,14.287565134148322
3717.0635,4.772190927581354,14.007962746762558
3717.9185,4.763407831095313,17.871078328109803
3718.776,4.7540119406799635,20.934319360210452
3719.6313,4.743434197374602,14.342801320078635
3720.489,4.7298621362584035,16.34946740474976
3721.345,4.712779109637304,17.694456858357327
3722.2031,4.694725620474971,15.943990232331199
3723.0593,4.680486294127468,16.887257443258704
3723.9158,4.672920838596844,20.301139474199804
3724.7747,4.67047074548636,16.57164432049781
3725.6316,4.668696807822631,18.501766684362362
3726.4905,4.66449625440385,19.954321811780844
3727.348,4.658629679959732,27.00707185247512
3728.2073,4.654124710876857,20.969355087140354
3729.065,4.652951802100303,22.388541025505393
3729.9229,4.654268944366703,18.74485709163355
3730.783,4.655627580788646,15.83142876841282
3731.6414,4.6552099841914805,17.565225515702785
3732.5017,4.653077469281642,16.81601894177743
3733.3604,4.650808862314938,17.303007227502206
3734.2214,4.650223908966161,19.321613768659912
3735.0803,4.6519904381886,18.065505790768125
3735.9417,4.654558131488795,21.834606090971224
3736.8013,4.654239286843386,20.578504786091194
3737.661,4.647201275459663,16.731769495413058
3738.5227,4.632437577596034,18.39795127349627
3739.3828,4.613746777470703,19.91751008609917
3740.245,4.598035042337938,21.41321373048556
3741.1055,4.5913551925380185,16.067665153835083
3741.9683,4.5946804485252715,16.47554860131447
3742.829,4.6033238731992245,18.90836419230796
3743.69,4.609976151184351,25.402163284279162
3744.5532,4.608982048719182,18.558069628098764
3745.4148,4.598825016391181,12.5196403394811
3746.2786,4.5815182965122085,21.438675743034494
3747.1404,4.5605673846343,16.97247251301096
3748.0044,4.539092607447774,18.56275536483114
3748.8667,4.520036317721092,19.639479965480277
3749.729,4.5059926272112705,15.98806670650894
3750.5938,4.498718667482294,19.19068143681151
3751.4565,4.498010924010204,24.34024185607886
3752.3215,4.501367769341951,20.125669347646774
3753.1848,4.505450935742475,14.746593300157256
3754.0503,4.508074892496836,21.56938674781897
3754.9138,4.508744334274795,19.65513215755788
3755.7776,4.5075381100178395,20.691585157266513
3756.6438,4.50389329706488,13.904203287092313
3757.508,4.496875232621191,19.393764472305214
3758.3745,4.486041527663933,18.762793945703226
3759.239,4.471999067979745,17.927932342285853
3760.106,4.456015602204388,17.802614876261813
3760.971,4.440021781149953,19.46187692042506
3761.8362,4.426018504775172,19.394131515429596
3762.7036,4.41570422596813,17.510552092541896
3763.5693,4.4099643337100805,17.383938041161645
3764.437,4.408292238268843,16.177818774999295
3765.3032,4.408691452797394,22.127609239185396
3766.1714,4.408073438528075,22.09127680287466
3767.0378,4.403684153700496,19.211597755482128
3767.9043,4.394833578079679,20.720308477203304
3768.7732,4.383613251579546,20.194950115278026
3769.6401,4.374081538779506,18.019578422411566
3770.5095,4.3699807111315945,23.499194326552594
3771.377,4.372966414403196,20.688150416879473
3772.2466,4.381880424878505,20.502725506816816
3773.1145,4.393458894323244,18.561818923154487
3773.9824,4.403915482287056,20.057042187189868
3774.8528,4.410240831755172,19.213927588316622
3775.721,4.410939326206568,26.0934623662205
3776.5918,4.406342916350668,20.04862853137543
3777.4604,4.398441550897406,20.06664052751073
3778.3315,4.390305568243787,16.07941904692119
3779.201,4.385244190367817,22.240279829799697
3780.0703,4.385293617415672,20.326706028090825
3780.942,4.390061777737087,20.01468371059383
3781.8118,4.396368783626657,19.662452811393607
3782.6838,4.3994375538894905,16.066238120114782
3783.554,4.394944852264769,20.07279624965166
3784.4265,4.381147913467268,21.945614821486693
3785.297,4.360115299968399,19.710734125286653
3786.168,4.336937162577139,18.521930694048123
3787.041,4.31740982224381,22.463871545037595
3787.912,4.3050192918668815,21.673264495083274
3788.7856,4.298805971644818,19.469998218423214
3789.6572,4.294716427267431,20.175351298053616
3790.531,4.288658480007379,18.917487893089753
3791.403,4.2790635245023605,21.85982606974408
3792.2754,4.266569335912979,18.737654795887803
3793.15,4.2522105206554315,22.863870406326868
3794.0225,4.236307835927222,20.44173899780306
3794.8972,4.218299535487948,19.755343701640957
3795.7703,4.197844454578844,18.249460588683103
3796.6455,4.175395149649789,25.66384620144388
3797.519,4.153026325237454,21.560823427536697
3798.3926,4.1335319726678765,24.870994275353112
3799.2686,4.119099317006515,22.188895810524848
3800.1426,4.1103050580835765,26.706126177997245
3801.0188,4.106494891356431,25.986578412397773
3801.8933,4.1078985043174985,20.578561932277808
3802.77,4.1164742709164095,26.921211026426523
3803.6448,4.133888856688767,25.611344861003616
3804.522,4.158317190630677,26.956701852917206
3805.3972,4.1832507315139065,27.626816031539462
3806.2727,4.201363486452036,20.84872855878418
3807.1504,4.209151700347783,25.537873965378715
3808.0261,4.208616211073334,20.73545852980522
3808.9043,4.204501604453888,20.23992080028278
3809.7805,4.200117895484726,18.244877678041195
3810.659,4.195892409414291,29.38636994060935
3811.5356,4.191418032819893,17.813845016392143
3812.4126,4.18766323805377,26.222671316191917
3813.2917,4.186626264008725,20.82536385572227
3814.169,4.188890758224559,19.880822894387684
3815.0483,4.192393528795542,19.6403012447149
3815.926,4.194179859516842,22.474105687410518
3816.806,4.1933180562302335,19.240132731054857
3817.684,4.191635901024881,21.17099338704094
3818.5623,4.191556456179801,23.162935566690837
3819.4429,4.193307776069861,22.786922001656897
3820.3215,4.194054196371143,19.04914898472913
3821.2024,4.189477894489718,21.256798820302496
3822.0815,4.176323511367311,19.5721716290064
3822.963,4.154104178504876,32.19620588209679
3823.8423,4.1255150434071615,23.929893317014162
3824.722,4.094493835060743,19.90240249518536
3825.604,4.063918236090763,24.697739334350107
3826.4841,4.034330441155793,24.12573791376541
3827.3665,4.003984892584844,23.985890420122278
3828.2468,3.971644810476455,24.227874743764964
3829.1296,3.937907067448751,28.697152469918137
3830.0105,3.905630585802286,26.583940806754345
3830.8916,3.8771881996523403,26.772654932110754
3831.7751,3.852896546553304,20.893813733117213
3832.6565,3.8316131861142018,24.853352141223134
3833.5403,3.8124339330697605,25.016451363063858
3834.4224,3.7964992448261223,26.924805059683003
3835.3064,3.78583271932445,22.836270687898907
3836.1887,3.7816294982070224,27.474614730553053
3837.0713,3.7830278423060695,24.34962490275664
3837.956,3.7880485246708804,26.26191260349301
3838.839,3.7951470406255563,33.387153205732396
3839.7244,3.804018521890186,30.684991201220267
3840.6077,3.81484444713121,26.05732048845
3841.4932,3.8277100655634975,28.519253241175665
3842.377,3.842637007379934,32.42523639915454
3843.261,3.8604754488274424,25.317414545612316
3844.1472,3.8826095945297476,26.671968073708893
3845.0315,3.9092703536221958,23.26471633600739
3845.9182,3.9386157323790814,18.14118816411151
3846.803,3.9667023857270625,26.277153855277206
3847.69,3.9901121475307537,23.353849731295103
3848.5752,4.007411987294005,21.48399687381089
3849.4604,4.019904819445077,21.562863491467752
3850.3481,4.030254757259263,25.003296468450554
3851.234,4.040729526449372,22.528529389503003
3852.122,4.052147748499921,27.69821060049961
3853.0083,4.063321112968889,22.06977059254107
3853.8967,4.0717645644491505,22.928495257316868
3854.7832,4.074604118672637,24.590404104872086
3855.6702,4.070159277487987,26.822515143502475
3856.559,4.0591981954928915,21.247849431165562
3857.4463,4.0456033033954615,22.046535492409827
3858.336,4.034964869236569,20.669652021688545
3859.2234,4.0318631096199775,23.71314111247316
3860.1135,4.036977228073102,23.625658377128012
3861.0015,4.0469251121963135,22.90008929711104
3861.8896,4.0568849121289885,21.479835325782368
3862.7803,4.063598792811373,23.35925897880994
3863.6687,4.066463712112127,19.99932554227453
3864.5598,4.066637701045424,21.93798325620895
3865.4487,4.065141737162303,25.63789816880347
3866.34,4.061494504810096,29.070047657670372
3867.2297,4.053649030148222,26.213464642525945
3868.1213,4.0393071701055,19.94181845122865
3869.0112,4.017818039959073,26.346964297414516
3869.9014,3.990344192147369,26.16922682038677
3870.7937,3.958717430055372,22.64306649845479
3871.684,3.9247092696918027,22.878641850539058
3872.577,3.889683702600985,25.254931343508627
3873.4678,3.8556084978923515,27.553335769842743
3874.361,3.8238114956931546,22.961771876050136
3875.2524,3.794724558934248,24.52581378997018
3876.1438,3.7673049159969114,27.887596294835298
3877.0376,3.7401565143589033,26.176710277837554
3877.9297,3.7125214112548344,27.080712902196616
3878.8237,3.683820536858127,31.565088497623176
3879.716,3.6535789427971164,28.795822297355453
3880.6108,3.6206071615149584,28.55248488169059
3881.5037,3.5837850671496323,23.26482546994706
3882.3965,3.5419619701522334,42.3767339064388
3883.2917,3.494459869757592,29.388070466621468
3884.185,3.441960735428581,34.122361627036405
3885.0808,3.3863397376699487,29.535414882598502
3885.9746,3.3319808884219695,43.63827522525206
3886.8706,3.2838655726918597,36.13933462455539
3887.765,3.2466758459229004,38.784418967116075
3888.6592,3.2225792061889025,45.377139779678316
3889.556,3.2116711504698703,34.01770757505386
3890.4507,3.212976944356761,44.1638532381912
3891.348,3.2250380685054796,37.73459750157579
3892.243,3.2459093396528784,40.16312761762605
3893.1406,3.273497651187332,34.876246532573845
3894.0361,3.3058066639329176,35.535665990518574
3894.932,3.341958999952032,30.13322789155649
3895.83,3.3816107430271423,38.66355621898551
3896.7263,3.423589910230692,34.007452432149684
3897.625,3.466042646937142,34.66188028454345
3898.5215,3.506263203095078,28.606515073837357
3899.4207,3.542945394847474,29.672814860811872
3900.3176,3.5763489919341414,24.15533834988662
3901.2148,3.6086909495222574,32.633993739735324
3902.1145,3.6422675265235513,30.129176455433214
3903.0122,3.67764148631146,26.00609836281079
3903.912,3.7138459002807007,29.787871227425775
3904.8103,3.7487571472028574,26.512670955450098
3905.7107,3.781099269741474,23.668838667220356
3906.6094,3.8105441827734925,24.674138095574552
3907.508,3.8380286767986838,23.93124536278013
3908.409,3.865070072777284,23.636518635755753
3909.308,3.89320275706674,20.785554001652773
3910.2097,3.9238903527190163,37.455196641427264
3911.1091,3.957061303511845,25.809610367524993
3912.011,3.9909721067465163,31.026783214385343
3912.9111,4.021996830605838,26.158983693692896
3913.8113,4.04690096997312,24.280483376020598
3914.7136,4.064356520809895,22.3608257746955
3915.6143,4.075346197613032,23.80844427577868
3916.517,4.0825169759170565,21.81067621718988
3917.4182,4.088523474905162,30.856489087975973
3918.3215,4.094951626317338,26.426505771630097
3919.223,4.101623592688079,22.902991230558396
3920.1245,4.1070461871175,23.046451727247877
3921.0286,4.10942304776239,24.598659216853253
3921.9307,4.107742329136497,21.200706380137273
3922.835,4.102344321544151,21.723652087792367
3923.7373,4.094888611701496,23.56259521640119
3924.642,4.087651019076005,22.253782185825614
3925.5452,4.082501283363785,22.12491732520044
3926.448,4.079742340238196,21.932854980664946
3927.3535,4.078191901405214,21.700383443093582
3928.257,4.076329090873127,26.226975009815018
3929.1628,4.073314922022614,23.995815896198696
3930.0667,4.068898491185097,23.626667534039555
3930.9731,4.062466640063957,26.840254163975626
3931.8774,4.05293958955526,23.37369427195847
3932.782,4.039733078502205,27.468721153318377
3933.6887,4.024036328594275,21.18214997852816
3934.5938,4.008817572965351,28.02079158591092
3935.501,3.9969924108601096,19.21100320301424
3936.4062,3.9901467161600848,19.21353841488621
3937.3142,3.9881865157745064,21.51793482030808
