wavl,flux,ivar
3566.9744,1.3207888047943126,449.13523368983385
3567.795,1.3191863975094524,524.9181742729555
3568.6177,1.3162800715351235,490.6565564698573
3569.4385,1.3129676584176446,485.1154604865006
3570.2617,1.3098599108663425,421.7173899784837
3571.083,1.3067332347636642,404.30003535533734
3571.9065,1.3028293728502638,401.77156307663574
3572.7283,1.2979050295014678,419.0269729824625
3573.55,1.2926766745032132,471.4415624819162
3574.374,1.288335670421407,583.7342824045847
3575.1963,1.2856468832879298,463.0982642639723
3576.0208,1.2844367168909963,528.7177244090836
3576.8435,1.2839465212441628,495.8529921660394
3577.6682,1.2833829939540249,486.3784473362754
3578.4915,1.2823293016444728,540.3316120214967
3579.3145,1.2808304168862719,450.693910681489
3580.14,1.2792134422970907,607.9374425285121
3580.9636,1.277751181905032,437.29326762532605
3581.7893,1.276390826271046,467.3751355655627
3582.6133,1.2749401812039158,534.4149581293218
3583.4395,1.2734445625825175,499.7839226514834
3584.264,1.2723516099184364,566.5855904408511
3585.0884,1.272135656007142,555.5125180602565
3585.915,1.2728326995483996,536.4680484454497
3586.74,1.273928892482385,563.4488320919542
3587.5671,1.2747596318742562,622.4731844361056
3588.3923,1.27498799458328,529.1198223998801
3589.22,1.2747652192587648,449.11215696447994
3590.0457,1.2744581745221333,443.55134752409595
3590.8716,1.2743016770989866,561.7053799658095
3591.6995,1.2743190828182147,490.23206424046094
3592.526,1.2744750049971367,515.270976417881
3593.3542,1.2747541567586438,488.9059266967078
3594.181,1.2750435939382092,516.2312978773843
3595.0098,1.2750979407647076,474.8326018900358
3595.8367,1.274774646071022,473.14151946848995
3596.6638,1.2742350196796217,534.5286690863243
3597.4934,1.2736620090781319,574.2427958616096
3598.3208,1.2726913816659498,532.7463393684604
3599.1506,1.2702561948917495,531.6051073055969
3599.9788,1.2652904597030752,486.29477452666646
3600.8088,1.2576555877853857,474.0495001942213
3601.6372,1.2486500196568096,631.6308281529416
3602.4678,1.2403578345972854,484.3604799970743
3603.2964,1.2346660934036782,528.2940110177515
3604.1252,1.2321235618934543,650.9670927890571
3604.9565,1.2318107180562716,611.3322347527237
3605.786,1.2320315003082285,521.3267529246132
3606.6172,1.2315383623612313,524.4767937076532
3607.447,1.2303860589360236,506.9897034864156
3608.2788,1.2296912123302062,682.833797390946
3609.109,1.2304907616851382,581.3038144124074
3609.9392,1.2326715754060948,587.1501873328116
3610.7717,1.2349745939368675,541.7032653743751
3611.6023,1.2359793126419392,552.3735362481349
3612.435,1.2351995107613365,608.1041839474203
3613.266,1.2332899510199915,532.9164940980895
3614.0994,1.2314232217525858,508.451969498059
3614.9307,1.230531497329698,462.16434955437626
3615.7625,1.2308872715984447,495.7952373787616
3616.5962,1.232201987432362,520.5549984025109
3617.4282,1.2339056062149858,566.690062395002
3618.2625,1.235461233180314,507.5918386836852
3619.0947,1.2365208687018543,491.2328456381143
3619.9292,1.237010622474238,642.1187967337603
3620.762,1.237031039928091,593.690101546694
3621.595,1.2366601626883884,599.5115535440501
3622.4302,1.2357455594211477,535.2603899969552
3623.2634,1.233946413206376,533.8048546291328
3624.0989,1.2310340110714841,524.6977889475617
3624.9326,1.227285920337324,475.8569244124889
3625.7686,1.223443790195785,560.8783676241663
3626.6028,1.220340044295548,590.4534697846868
3627.437,1.2183091523147775,538.3103657166796
3628.2734,1.2170415546158941,690.9713382584723
3629.1082,1.2158393098603963,543.7492061410348
3629.945,1.2140417920869395,617.0626129940289
3630.78,1.21146572761583,668.2507547754657
3631.6174,1.2085873765970827,490.1402512790054
3632.453,1.2064549732593415,612.6465362574165
3633.2883,1.206099408379316,592.3051325654404
3634.1262,1.2079266969939761,640.8618425489205
3634.9622,1.2113843539087166,576.3267298080822
3635.8005,1.2152477543358993,503.6584348431079
3636.637,1.2181797565558268,528.3657795174191
3637.4756,1.2194096000751935,574.5919696029057
3638.3123,1.218954461850015,587.6643132886263
3639.1492,1.217433364563732,548.510627518487
3639.9885,1.215511958244086,545.5980144118578
3640.826,1.2134875389123678,497.18667784737283
3641.6653,1.2112238294233812,662.1865194124624
3642.5032,1.2084959007965637,485.24830851794906
3643.343,1.2052303770574744,459.6736050395366
3644.1812,1.201593014884404,682.869253631907
3645.0195,1.1978689337086394,543.9493539308168
3645.86,1.1944825030180946,559.6106299342202
3646.699,1.1920184318440423,557.2641519441256
3647.5398,1.1909583860181556,649.7458074160324
3648.379,1.191332727734094,606.9840184803021
3649.2202,1.19251258298719,528.5937408365805
3650.0596,1.1935151182928556,638.0357022644918
3650.8994,1.1936599734162843,454.4545186115291
3651.7412,1.1930120257840686,712.4831870383213
3652.5813,1.1922866070550096,522.958327785412
3653.4236,1.192265151113171,652.9260933318711
3654.2642,1.193213829999304,493.13246271989664
3655.1067,1.1946807395074848,518.2534657647899
3655.9475,1.1957370258343878,707.4678998821507
3656.7886,1.1955421186997803,480.42354524169536
3657.6318,1.1938989501088326,682.5670776689514
3658.4734,1.1915587771787879,591.6014701277686
3659.317,1.1898966337164174,630.5688754904337
3660.1587,1.1901350495043608,580.5290915848128
3661.003,1.1925917759727058,625.6841562648992
3661.845,1.196611237338592,638.7379673766004
3662.6875,1.201199175855694,755.7015863989252
3663.532,1.205575103300886,563.0439349356966
3664.3748,1.2092001732069382,617.0686580292733
3665.2197,1.2115850146661304,630.6045173736912
3666.063,1.2121640925117936,564.3036674250948
3666.9084,1.2105764980422142,556.8976681502511
3667.752,1.2069501796331616,579.0883831868141
3668.5977,1.2019917933873958,606.2885871452704
3669.4417,1.1969537030387818,671.8449537200428
3670.286,1.1932384897252812,614.7483030519982
3671.132,1.1919295224926265,581.7795276574658
3671.9768,1.1932988911684121,510.1417224539548
3672.8235,1.1966596762628818,565.5893849290024
3673.6685,1.2006747234790605,579.0603426717191
3674.5156,1.204010346796567,622.7464164937508
3675.3608,1.2058314592512243,537.2324604469327
3676.2063,1.2060782234596692,502.40882566383397
3677.0542,1.2052070507156052,546.2352916476667
3677.9,1.203778955225194,561.2850452534313
3678.748,1.202201807293542,622.6749454750034
3679.5945,1.2008444009449293,682.1581170369949
3680.4429,1.2000737237376646,748.8434036901581
3681.2896,1.2000063305082402,594.5760868749859
3682.1365,1.2001519496747586,698.8164570638095
3682.9856,1.1995303891485913,567.8711151350336
3683.8328,1.1973132101670472,528.6483833883817
3684.6824,1.1934143410597888,806.8560542472787
3685.53,1.1885552981235326,670.9590694527906
3686.38,1.1836671249732056,572.7764393807571
3687.2278,1.1794528805780975,592.7791407328048
3688.0762,1.1761840012026346,703.450084982725
3688.9265,1.1739264530022782,640.1443982934142
3689.7751,1.1726899485741624,613.9710677300502
3690.626,1.1723813172788884,940.9236531945511
3691.475,1.172744206691818,687.5552998332022
3692.3264,1.1734024688116405,520.6369384045616
3693.1758,1.1741087214312949,549.3504155173464
3694.0254,1.1749904038591013,624.8603143821925
3694.8772,1.1764450452360855,617.9322249216725
3695.7273,1.178677586741266,541.662447816705
3696.5793,1.1813616944555136,493.3260222785053
3697.43,1.1837249953296007,574.0904936036858
3698.2825,1.1850546351163045,527.5765323180269
3699.1333,1.1850187184856118,723.0040999542807
3699.9841,1.1837260784278045,503.28647983306985
3700.8374,1.1816103407812502,634.2480813500432
3701.6887,1.1793701295385346,707.0064590888061
3702.5425,1.1777246084934787,649.9054441829015
3703.3943,1.1770964513748932,637.4601950178543
3704.2483,1.1773384060236727,626.1933947255607
3705.1003,1.1778291286468037,521.4825270646426
3705.9526,1.1777741694248058,625.2779490533309
3706.8074,1.1765199162724942,693.8161558423278
3707.66,1.173843004968851,606.6227351859471
3708.515,1.170062181766702,675.0191645477822
3709.3682,1.1659505397297931,648.1931300919252
3710.2234,1.1622682395715365,670.0864734875561
3711.0771,1.1594706165231699,596.7671106571962
3711.9307,1.1576347466923789,598.6684104269852
3712.7866,1.1567150495182452,667.5742457275129
3713.6409,1.1566700347353664,506.8705404867048
3714.4973,1.1572756192914757,632.1059725883538
3715.3518,1.1578983546320338,647.7015174071415
3716.2085,1.1576249927621882,661.8041010791596
3717.0635,1.155784441445197,558.1055340865136
3717.9185,1.1524041853524125,656.8941579081531
3718.776,1.148127355508232,668.4901585048067
3719.6313,1.1438030686565153,608.1903233680056
3720.489,1.1400626798984108,640.2095191007148
3721.345,1.1373666907050355,694.9081135955009
3722.2031,1.1359607272953647,613.5669243242171
3723.0593,1.1357968511905372,601.4947302266512
3723.9158,1.136447368780001,670.0807352727226
3724.7747,1.1373649228406328,599.3195272993537
3725.6316,1.1382275217380202,681.9849662027992
3726.4905,1.139057376693912,671.285431442076
3727.348,1.139972306184402,652.344273745104
3728.2073,1.1409267402307421,662.850465846482
3729.065,1.1416793340163185,647.9537074182628
3729.9229,1.1420539296739467,700.6058425799541
3730.783,1.142205700734438,593.4591864438385
3731.6414,1.1426560736155882,655.1258505323524
3732.5017,1.1439832405856087,685.758189190781
3733.3604,1.1463244175861655,642.1452010099401
3734.2214,1.1491532693556261,653.0983780713242
3735.0803,1.1515367449087852,617.6162233720614
3735.9417,1.1528424911821413,627.0425473401484
3736.8013,1.1530669138450547,627.8462251962053
3737.661,1.1525535858185296,507.6072829268345
3738.5227,1.1513864069335402,578.8162270856587
3739.3828,1.1493017233728382,613.2356701254809
3740.245,1.146172307728946,609.7036378555318
3741.1055,1.1424964891642944,639.2300303123633
3741.9683,1.1391877248983309,584.3814118685063
3742.829,1.1371341995895563,573.0403409249021
3743.69,1.136834431289763,592.2508427132235
3744.5532,1.1384081789197729,658.0914906696306
3745.4148,1.1414977679318314,602.3384464672275
3746.2786,1.1451602938286642,622.4612275224796
3747.1404,1.1479512417810591,613.3721252009295
3748.0044,1.1485245794786774,569.748160781073
3748.8667,1.1462340907692101,568.7162021275678
3749.729,1.1414588367051155,717.4694687288281
3750.5938,1.1354104153997948,642.9443407881141
3751.4565,1.1297297942299926,696.7953559706292
3752.3215,1.1257815669433056,723.8199005222991
3753.1848,1.124211849877585,991.7526938330462
3754.0503,1.124678625368736,715.5996204786318
3754.9138,1.1262073282432257,622.1960659963648
3755.7776,1.127836198144348,781.5520014839558
3756.6438,1.1290837134988405,779.5173152879399
3757.508,1.1299324719853767,637.2013417730292
3758.3745,1.1305444286648751,623.347220542942
3759.239,1.130987119544763,610.596658668232
3760.106,1.1311968411313866,620.085446123308
3760.971,1.1310498820526083,598.8149223155764
3761.8362,1.1304620089668185,550.9699690319951
3762.7036,1.1294634909260621,721.7827806051436
3763.5693,1.128282108193899,624.0399776272468
3764.437,1.1273220504590358,678.8437897804173
3765.3032,1.1269902467103246,631.4435949027519
3766.1714,1.1273490292859107,671.898702444754
3767.0378,1.1279018890212975,586.8229598557201
3767.9043,1.127747354622345,606.9714761973254
3768.7732,1.1260361928582026,730.5790979036404
3769.6401,1.1224764189435483,669.6126298652601
3770.5095,1.1175293849212442,617.95799017701
3771.377,1.112347867164854,687.8420051932737
3772.2466,1.1082029751912723,736.0970865121953
3773.1145,1.1059318353397374,693.9450055831139
3773.9824,1.1054922880076332,687.7369073722939
3774.8528,1.1061863330594588,696.4557876401066
3775.721,1.1072015169658613,686.7729978628508
3776.5918,1.1080862386666637,799.7686761475452
3777.4604,1.1088013325721415,701.3749561542606
3778.3315,1.1095433615941852,545.8599387306821
3779.201,1.110554985923844,694.514168867102
3780.0703,1.1120734652531508,627.0435178364551
3780.942,1.1142386459840978,695.0001577162728
3781.8118,1.116888005832982,731.1252029542732
3782.6838,1.1195108797629894,678.7087748779526
3783.554,1.12141995206882,627.3618766096018
3784.4265,1.1221437200197635,634.3396701075828
3785.297,1.1215508663683698,647.1627221702632
3786.168,1.1198086559026563,675.5796287126599
3787.041,1.1173268557619955,605.6038508446186
3787.912,1.1147596333779346,604.806818245611
3788.7856,1.1126947324685925,765.1056382787991
3789.6572,1.111263752118592,697.6632196188415
3790.531,1.109999679956268,607.7416162006357
3791.403,1.108321139463417,703.3112109693185
3792.2754,1.1060720156347725,824.8598181659586
3793.15,1.1036370906931394,659.3831497084916
3794.0225,1.1015785009857597,724.4380309062734
3794.8972,1.1001257123603279,722.2096919284663
3795.7703,1.0990613670367304,775.6493393695409
3796.6455,1.0979733443847457,558.9774103967508
3797.519,1.0967298084338537,681.3324853243554
3798.3926,1.0956403339015968,631.906094670427
3799.2686,1.0951651409329974,810.9316373053141
3800.1426,1.0954371621469643,716.9396400892699
3801.0188,1.0960975500177956,670.455909939463
3801.8933,1.0966176507273835,619.9942037348615
3802.77,1.0967515987651875,679.8675038992639
3803.6448,1.0966475815261412,642.087383418623
3804.522,1.096595805018023,636.1445693675818
3805.3972,1.0967610139253046,776.6868324137768
3806.2727,1.0972078914794876,691.6348489890638
3807.1504,1.098119766718403,824.3229112507805
3808.0261,1.0998286782664124,642.9442904427236
3808.9043,1.1025272728184108,606.0929707979157
3809.7805,1.1058420164398222,737.3942975057844
3810.659,1.1088622603655223,700.6547200578436
3811.5356,1.1105686615187116,760.9996346907973
3812.4126,1.110480992253919,710.9057088954431
3813.2917,1.1088356917906947,697.7279358908226
3814.169,1.1063155747764668,753.8080789425453
3815.0483,1.1035332625235386,672.0975721791235
3815.926,1.1008230514786432,661.9189336461284
3816.806,1.0982945944848028,681.840734021851
3817.684,1.096066292411383,749.1478665584922
3818.5623,1.094227423972286,583.4953492673365
3819.4429,1.092754687960879,695.4064228303959
3820.3215,1.0915674367670396,654.8772779517059
3821.2024,1.0906607545748623,686.4486561673949
3822.0815,1.0901017256846668,738.741624885963
3822.963,1.0897399221624866,746.3574105730968
3823.8423,1.0890516972142916,725.4728452263221
3824.722,1.0873957476016929,683.4664009856037
3825.604,1.0845222916413095,765.7530161798005
3826.4841,1.0808511119516861,712.771549959571
3827.3665,1.077113566040514,634.3061836405948
3828.2468,1.073828285822759,681.6601857031292
3829.1296,1.070878703649675,772.3793522137395
3830.0105,1.0676636210082961,683.9558366663575
3830.8916,1.063395885279492,578.3264386133346
3831.7751,1.0574985084180442,834.0528639820792
3832.6565,1.0500127692126324,739.8960878385388
3833.5403,1.0417229096099272,796.7854426454173
3834.4224,1.0341919440080831,882.3592231249157
3835.3064,1.0290042767126433,866.6940823021312
3836.1887,1.02705196941336,865.0806504452595
3837.0713,1.02805621878278,822.8755973398368
3837.956,1.0310275001373224,680.8234626580261
3838.839,1.0350834422412567,770.1760248612333
3839.7244,1.0400633847913647,778.4387267767879
3840.6077,1.0462415568746704,722.076679394273
3841.4932,1.0536884892312508,828.003348883875
3842.377,1.0616605938193067,728.9028739934196
3843.261,1.0689854836774337,681.8206318550488
3844.1472,1.074820767834082,651.1404503698914
3845.0315,1.0791764051949524,849.5042413757617
3845.9182,1.082788374365528,816.0206179555615
3846.803,1.0863606555063985,719.0672708275836
3847.69,1.0902549280243679,716.7115579642798
3848.5752,1.094552076434637,675.0156623933465
3849.4604,1.0993634533415313,636.5986665058676
3850.3481,1.1048019947955563,680.5662172211196
3851.234,1.1107513090958556,699.7634463177251
3852.122,1.116928860005932,708.5748378610851
3853.0083,1.1229401481435426,681.9508373118019
3853.8967,1.128560478964405,633.098176147249
3854.7832,1.133630292374373,604.0241509879606
3855.6702,1.1380583281643766,690.9714767894371
3856.559,1.1417086374699879,613.6473557170299
3857.4463,1.1443890606379667,639.1784283231484
3858.336,1.1458934728547758,687.1525710151795
3859.2234,1.1459722277081126,624.5151000411518
3860.1135,1.144509494552169,593.8478465991212
3861.0015,1.1417959231449426,690.0165707994727
3861.8896,1.138613857653164,555.6915294999052
3862.7803,1.1359214037464207,705.6135022787986
3863.6687,1.134292663366823,615.4644128922648
3864.5598,1.133512313787784,807.113560290997
3865.4487,1.1327741322328413,674.5205563093588
3866.34,1.13115110297356,612.2139413670042
3867.2297,1.1280146622013993,648.5714189135896
3868.1213,1.1230743797897142,674.883725196331
3869.0112,1.1163676453021527,637.6662648393043
3869.9014,1.1082374689939425,617.484388743355
3870.7937,1.0993898047144075,626.3013534563671
3871.684,1.0907031881508333,780.3837967341833
3872.577,1.082575812124925,721.5980353919659
3873.4678,1.074831175691735,676.4448706861068
3874.361,1.066869017008771,715.6138571600743
3875.2524,1.058417313594449,785.7928471748602
3876.1438,1.0496915884284888,709.7794531091006
3877.0376,1.041209944030419,921.3414361906956
3877.9297,1.0333768127403344,764.3811828676769
3878.8237,1.0260332347544474,748.0166199216326
3879.716,1.018666888716807,879.1371788109028
3880.6108,1.010675451375463,806.5890264735226
3881.5037,1.0019100947690216,839.2923868270857
3882.3965,0.9925999871902771,917.1637527073731
3883.2917,0.9830495193434847,859.5146616248517
3884.185,0.9733481120656982,822.490529878645
3885.0808,0.9632268649470377,835.5784430744014
3885.9746,0.9526582179296778,886.0249153960423
3886.8706,0.9420357171089332,1011.4945263906897
3887.765,0.9323709807306214,1018.6697326984219
3888.6592,0.9247810081414838,807.2926827947487
3889.556,0.9201307229276303,1115.6489129505273
3890.4507,0.9188035376777328,953.375965946081
3891.348,0.9206905705093212,895.5938474457056
3892.243,0.9254724237900417,1017.7520015038773
3893.1406,0.932865439345758,930.7417326943747
3894.0361,0.9425230212704713,950.7592568607612
3894.932,0.9540205501171887,918.4479715468154
3895.83,0.9666878993365529,900.6209938239255
3896.7263,0.9795241585212474,968.7100823595832
3897.625,0.9916780866536757,781.5932771619366
3898.5215,1.0026221706206184,807.1541840424535
3899.4207,1.0126471681043223,935.9210338951784
3900.3176,1.0224119801227125,805.22675083708
3901.2148,1.0326031746077822,808.3615497004707
3902.1145,1.0434639234516612,832.1181706713535
3903.0122,1.0547407855800066,664.4697043814136
3903.912,1.0661139438710125,658.8098751360636
3904.8103,1.0771419557776556,783.2964725502922
3905.7107,1.087493054019012,796.2360989023083
3906.6094,1.0968589250254446,689.6939080182786
3907.508,1.1052715070726047,682.9131423572503
3908.409,1.1130382392345917,598.5117808833312
3909.308,1.1205016198355016,614.9221820881672
3910.2097,1.1279866087456092,613.2348695966557
3911.1091,1.1356270583269736,668.170098561223
3912.011,1.1435059561064946,592.5032104549382
3912.9111,1.1514150545940927,630.0873517107199
3913.8113,1.15895440278034,560.950577300927
3914.7136,1.165642518242371,583.625001211372
3915.6143,1.1711218801498295,585.9376639520938
3916.517,1.1754139601633582,583.8310950867352
3917.4182,1.1788275969445612,646.3973511475652
3918.3215,1.181917665411893,631.0475754938659
3919.223,1.1852098416084513,574.276971272246
3920.1245,1.1890292697878013,611.9836389878737
3921.0286,1.1933915514607067,530.7041848462306
3921.9307,1.1980797557851335,613.4009053535802
3922.835,1.2029164751245291,637.6961349799742
3923.7373,1.2077624669855975,551.3075341188216
3924.642,1.2125237474456012,540.7053995169007
3925.5452,1.216922852967636,475.6715842237754
3926.448,1.2204894944758629,565.8860435904335
3927.3535,1.222556129044226,593.3108539968011
3928.257,1.222460412587661,513.0301389621911
3929.1628,1.2199769331729016,576.0091990137842
3930.0667,1.215641863663133,622.0700380964608
3930.9731,1.2105844818823468,544.1695954028594
3931.8774,1.20597785213799,646.5555612543576
3932.782,1.202266353087889,523.7896538246072
3933.6887,1.1990360043200083,579.3280941591735
3934.5938,1.19547205797563,569.5878218289705
3935.501,1.1909620229094648,563.2043035736064
3936.4062,1.1854933987395893,528.8724339610324
3937.3142,1.1794161263502425,562.9901992831611
3938.22,1.1732001428785301,573.669778941543
