wavl,flux,ivar
3566.9744,0.3503398358997899,2096.085572825413
3567.795,0.3505390593422736,1771.9106615172786
3568.6177,0.3513488425014775,846.4673259950218
3569.4385,0.3519493484683075,743.6459030329925
3570.2617,0.3516742700087307,2159.6208141079455
3571.083,0.3503732214879177,714.7799627687878
3571.9065,0.3482686970934945,823.1376377675998
3572.7283,0.3456889295036773,1047.9468023296206
3573.55,0.3429562428992644,895.5442773896651
3574.374,0.34051693678694944,2676.1726247593924
3575.1963,0.33899626907605107,1165.5094713741796
3576.0208,0.33892085265716876,901.6224749579094
3576.8435,0.3403624249379175,1854.1580364846786
3577.6682,0.3427677687631331,1172.6643913758353
3578.4915,0.34519119234046425,545.110669945159
3579.3145,0.34682910620130836,1006.5772216747825
3580.14,0.3473894170457973,3370.0909287477043
3580.9636,0.34711551971548377,1015.1303198910607
3581.7893,0.34651898037086815,1514.7186913301794
3582.6133,0.3460171309509062,2366.41239355852
3583.4395,0.34569768454767313,991.8233952008176
3584.264,0.3453513759761937,884.311501201803
3585.0884,0.34469502976142646,815.0502270486368
3585.915,0.34359247149285016,1046.4708423625834
3586.74,0.3421083755141926,1763.6492356827962
3587.5671,0.3404160536203699,1009.2570682239015
3588.3923,0.33881628489849086,683.3613861820063
3589.22,0.3377584576656784,1058.2040181617292
3590.0457,0.33777141417200657,843.9984011168868
3590.8716,0.3391253282174267,1536.8635827763705
3591.6995,0.34156970225848204,609.1657877478538
3592.526,0.34436096711873526,663.2275492712491
3593.3542,0.3466910527975182,1451.2132575500787
3594.181,0.3480657543040535,1036.851527503484
3595.0098,0.3484814023740107,921.7613131563719
3595.8367,0.3482401270065789,1042.8804752502342
3596.6638,0.34772965586887034,802.3033431327618
3597.4934,0.34733177843736185,798.6119790699711
3598.3208,0.3474510356313809,2525.1350901669707
3599.1506,0.3484073866342999,4998.002120851361
3599.9788,0.35012066362137373,1297.5604032491656
3600.8088,0.3518965573791024,1047.3190573371528
3601.6372,0.35263126674837536,844.3057851298888
3602.4678,0.3514983141306167,820.5121613352112
3603.2964,0.3485385409785097,944.5286737165447
3604.1252,0.3446403031276872,1431.3813735031547
3604.9565,0.34092996452980245,998.9744162454689
3605.786,0.33812286821542403,1433.0592154293515
3606.6172,0.33622046548515394,2632.5951810219285
3607.447,0.33482190907923604,564.6037211256368
3608.2788,0.3334513829129877,1042.6826175437777
3609.109,0.33171764480857774,1586.8374387070062
3609.9392,0.32927293100321403,1151.5361479169783
3610.7717,0.3259582790265635,1541.3972261843412
3611.6023,0.32215471191194633,1452.243774897176
3612.435,0.3188210524095364,4415.647523728147
3613.266,0.3171663717093625,1238.8196267341434
3614.0994,0.31800176924835216,1150.6312980622424
3614.9307,0.32141016318804305,1588.6705010286464
3615.7625,0.3267486504485439,3837.892449184101
3616.5962,0.33284705970882145,1738.9368998280736
3617.4282,0.3383144445786894,897.3793536051445
3618.2625,0.342125748776862,929.9828877832942
3619.0947,0.34389600736909043,1352.8776565945266
3619.9292,0.34390477085427074,1436.633127613864
3620.762,0.3427101037038035,1216.1106407537643
3621.595,0.34088455137894913,615.9484632364858
3622.4302,0.33895551129233,1326.3937307303102
3623.2634,0.33742515870452205,892.4514555199911
3624.0989,0.3366569980213213,1108.8369756062853
3624.9326,0.33681272070690366,832.6879457173404
3625.7686,0.3378152918887934,874.3238375993008
3626.6028,0.3393418629416863,1178.4568936377225
3627.437,0.34085612340474436,1392.3637439185732
3628.2734,0.34175522933372804,2232.8429329762816
3629.1082,0.34162615308229277,825.963825271757
3629.945,0.34040493922738146,1269.0065742163931
3630.78,0.33824087887254894,1073.483206182224
3631.6174,0.3351884592411714,1255.5710294150692
3632.453,0.33119272249913656,1638.4246794595026
3633.2883,0.32638230169740956,1037.191526458708
3634.1262,0.32149838935070496,1004.8027138473445
3634.9622,0.3178457234798671,1585.782754252629
3635.8005,0.31645040960970705,1213.1160284978278
3636.637,0.31733769101998,1722.2032138188958
3637.4756,0.3194758834360728,1002.5461049845237
3638.3123,0.3215382911739634,1147.7245133661788
3639.1492,0.32272559604368717,2636.8771966526983
3639.9885,0.3229053858003484,1301.4556550964471
3640.826,0.32226440960462915,963.6551277256654
3641.6653,0.32100439322686614,1282.9155858224622
3642.5032,0.3193680477145167,1466.7839434161829
3643.343,0.3177361120416772,953.9807765887742
3644.1812,0.3165921778442095,1246.67762145996
3645.0195,0.31629495049569706,2966.1121484459
3645.86,0.31692223988474033,1108.4104968464048
3646.699,0.3181882200584227,1729.234374261483
3647.5398,0.31950834008315215,909.2309191358604
3648.379,0.32021460938220764,1169.222931700469
3649.2202,0.31995085038392496,1202.2060050561065
3650.0596,0.31896260348866184,1068.9853109892438
3650.8994,0.3180419709838134,1282.933480581591
3651.7412,0.3180965437592404,1504.8842528050452
3652.5813,0.31960241634230324,1177.9353806914253
3653.4236,0.32232942248867247,810.588775469647
3654.2642,0.32545330635477715,1609.6993333837886
3655.1067,0.32801270170582103,708.1414841609272
3655.9475,0.32927535131472313,3386.967336840568
3656.7886,0.3289830393347531,1073.4912714640534
3657.6318,0.32727177955202724,889.0354624356451
3658.4734,0.32448286037911306,1236.8086168839523
3659.317,0.32093797890516956,1254.324799447854
3660.1587,0.3169815875909803,1389.193150333039
3661.003,0.3130695251543906,900.8361486902742
3661.845,0.3099092326397115,1512.4240158892192
3662.6875,0.30820652723481007,2318.2121331504695
3663.532,0.30840213656288806,1736.045038941916
3664.3748,0.31044629997683965,1143.1427259459672
3665.2197,0.3138182836376222,1600.0830570194034
3666.063,0.3176243080016882,5163.95934238743
3666.9084,0.3208481795444043,912.8059134820414
3667.752,0.32261608607303216,1059.1100953595665
3668.5977,0.32267401260506184,1253.2191533019359
3669.4417,0.321591998819112,1574.5399705081154
3670.286,0.32049452089351493,1375.2016229471503
3671.132,0.3203002430909734,979.857707860918
3671.9768,0.32101258045059944,1073.849455399682
3672.8235,0.32167117037598414,962.5622901615429
3673.6685,0.321081646026172,1301.4982830343874
3674.5156,0.31874707299378374,1456.6320837761302
3675.3608,0.3152646482158295,1504.3255505907907
3676.2063,0.31189222267859845,2381.6498810386747
3677.0542,0.309804533643241,1478.5028188754807
3677.9,0.3095375737998074,1490.7066656891052
3678.748,0.310853431577103,1119.4227467557412
3679.5945,0.313045103600401,943.5972068694238
3680.4429,0.31537800774207736,1102.153356650603
3681.2896,0.31733791483990903,2246.073077488043
3682.1365,0.3187106072998585,1135.5057532023902
3682.9856,0.3195092347376609,935.6260813048982
3683.8328,0.31991105765375216,1329.2182368419803
3684.6824,0.32011255423948426,1005.6299027200605
3685.53,0.3200570133364311,814.4994594558261
3686.38,0.31930390507833833,1872.323838065469
3687.2278,0.3172728794379285,681.6014252571114
3688.0762,0.31375422876888587,861.6226191322172
3688.9265,0.3092933133498996,1447.0711455031367
3689.7751,0.3050811173198493,636.7627242065307
3690.626,0.30222346350041696,1075.5835998312211
3691.475,0.3011381782598993,2587.581387000774
3692.3264,0.30141768393638574,2953.6011332039056
3693.1758,0.30237627280645185,2680.2835762624836
3694.0254,0.30363615243154274,1571.8455134971375
3694.8772,0.3052603704291594,1752.2556491060852
3695.7273,0.3074126201841619,1238.7969095369576
3696.5793,0.30999688193888647,2710.2710619575732
3697.43,0.3125194695186098,1303.2515962678542
3698.2825,0.31436009299448125,1316.8604555002528
3699.1333,0.3150923101914721,1057.423261391086
3699.9841,0.31471769047572024,1362.89985603282
3700.8374,0.3135866190909984,823.6695008493188
3701.6887,0.3121972451467578,1425.02527239025
3702.5425,0.31096262136188213,993.3914039783936
3703.3943,0.31012043077858253,1517.1619973444708
3704.2483,0.30968141838515734,1659.629881354404
3705.1003,0.3094760288663891,1724.1616720957693
3705.9526,0.3092341973573995,1477.8720496236338
3706.8074,0.3087220410076993,1770.2733569933737
3707.66,0.30787112555146706,1777.6745182747013
3708.515,0.3068226783491706,860.6878896455919
3709.3682,0.30588689561375326,1772.5471007446984
3710.2234,0.3053541590641914,1544.313436521964
3711.0771,0.3053080298692241,975.1888121668065
3711.9307,0.3055324334420233,1327.3675290639098
3712.7866,0.3056197496539573,973.8109407078133
3713.6409,0.3051894198721541,2296.320046249886
3714.4973,0.30411725375240567,1400.0908984339897
3715.3518,0.30267264399705623,1422.4742735444077
3716.2085,0.3014096512459775,1031.933213488856
3717.0635,0.30087670191002985,3112.7653089914456
3717.9185,0.3012843404062407,1217.6207627531658
3718.776,0.3024666655149265,1431.3690668922916
3719.6313,0.30406175015552017,1290.2734734058695
3720.489,0.3057736221304464,2419.9738254125773
3721.345,0.30746773189089954,1162.4094722272778
3722.2031,0.3091876453466725,2614.7002320720007
3723.0593,0.3110007990858999,2063.6932894383776
3723.9158,0.31286585759385394,1196.4330074794163
3724.7747,0.3145546016542335,2833.677741420718
3725.6316,0.31574732842282854,1082.1469771190598
3726.4905,0.3162455015078541,956.5522273042717
3727.348,0.3160465932675129,967.4630468582419
3728.2073,0.31531102570426095,974.0675327694421
3729.065,0.31426618424430997,1363.2641759091275
3729.9229,0.3131216273423955,1415.8890270211116
3730.783,0.31203019405596905,1630.7602667078615
3731.6414,0.3110764126398136,1064.5264216674743
3732.5017,0.31026237828869624,1674.9860661802759
3733.3604,0.3095511493666324,1269.3998093161194
3734.2214,0.3089004718823637,1928.1827985156633
3735.0803,0.30833029043823307,1487.0295022964542
3735.9417,0.3079190356499333,1177.5948049759265
3736.8013,0.30773940463763405,1209.370951669368
3737.661,0.3077525365569187,1258.6839576370432
3738.5227,0.30783151329680347,1347.6443168470732
3739.3828,0.3078954288520884,1384.4537093770255
3740.245,0.30794872353780417,886.9012707860641
3741.1055,0.30789548006622236,2323.4361213906423
3741.9683,0.30739222827461415,807.407498044687
3742.829,0.3060817575709307,1493.1847101361323
3743.69,0.3040325893384641,1220.542365159782
3744.5532,0.30184754014537024,12310.473123317002
3745.4148,0.30027092087381047,1705.1953419617485
3746.2786,0.29964707319556283,1512.1864965846255
3747.1404,0.29984077166114753,1176.9525260529547
3748.0044,0.3005091665507622,1753.9935227396759
3748.8667,0.30140923907042555,1345.5448015331335
3749.729,0.30246304007116587,1600.0486867350162
3750.5938,0.30356842664022243,1599.4505762274503
3751.4565,0.3043949825556328,1585.154238962012
3752.3215,0.30451045265562177,1095.5452086016558
3753.1848,0.3038057362557666,1373.7204211055314
3754.0503,0.30283805893769894,2958.4800364794937
3754.9138,0.3026249288895758,1641.6889850693544
3755.7776,0.3039424209114189,2192.0860008950917
3756.6438,0.3067787479949251,1445.7520553897086
3757.508,0.3103242560107105,1132.6034306170432
3758.3745,0.3135570235180096,1661.011213784191
3759.239,0.3157431652227137,917.9919770794961
3760.106,0.31670213003245085,1002.5894708675683
3760.971,0.3166351694222029,1332.4352390901045
3761.8362,0.31589179242412724,1189.5991769646487
3762.7036,0.3147552232239279,1428.5257498840974
3763.5693,0.31338606122490675,1346.369485830325
3764.437,0.31184517064506384,1488.577759655773
3765.3032,0.3102066960316648,1693.1478403331876
3766.1714,0.3086028154642992,1383.0139056721378
3767.0378,0.30723560503416925,1460.662566545992
3767.9043,0.3062236817736124,1063.76366517016
3768.7732,0.3054312281240774,2269.512125324605
3769.6401,0.304434457539995,1850.9372648311596
3770.5095,0.30276210019875155,1654.2947145960043
3771.377,0.3003300867465159,1216.0215698477766
3772.2466,0.2975957182115478,2615.592620573213
3773.1145,0.2953568851204466,1730.7135738538502
3773.9824,0.2942341094743595,2574.7637596156783
3774.8528,0.2943639677964971,1156.7161872345318
3775.721,0.2953807344666457,1015.8437425158037
3776.5918,0.29666014529678747,1082.1863489779175
3777.4604,0.2976343181249272,1677.110085256557
3778.3315,0.29811358460713994,2635.413728704659
3779.201,0.2983826189316347,1190.3121826756976
3780.0703,0.2989969603740208,1192.7217870367328
3780.942,0.30033268456173107,1296.0967756123146
3781.8118,0.3022655896740213,2283.1526273816658
3782.6838,0.30433350091996153,2427.9745146690593
3783.554,0.3061524685165418,1010.9711842260331
3784.4265,0.30773778832520454,1357.6292417035588
3785.297,0.3092949335479603,2702.5203457347243
3786.168,0.3107975105124163,1153.3144626960197
3787.041,0.31171290473482904,1614.9237588404035
3787.912,0.31124637193459287,1845.7909385199785
3788.7856,0.30895640625710125,1274.7303387769373
3789.6572,0.30522940002515025,1117.0153877040566
3790.531,0.30111154745241836,1870.9280780395247
3791.403,0.2977150861727182,1331.6231693815585
3792.2754,0.29551772527225734,2068.9880192355786
3793.15,0.2942890354655998,1214.9289689128962
3794.0225,0.2934982573042581,1960.8561630364316
3794.8972,0.29277826930787143,1612.4868930667524
3795.7703,0.2921232767083398,1891.144388943517
3796.6455,0.2917453866027058,1885.8355073878547
3797.519,0.29184253471155497,1813.3985043938617
3798.3926,0.29242229080802384,1959.5560777917653
3799.2686,0.2933363233848988,1145.1994338542506
3800.1426,0.2944833889835773,2015.809968107631
3801.0188,0.2960143448718336,1336.4468229704523
3801.8933,0.29821272603795984,2110.6000399159047
3802.77,0.30116263087304584,908.9279101923969
3803.6448,0.3044147431003994,1721.1019938086347
3804.522,0.30712846474701666,1397.9417386033722
3805.3972,0.30847446961022207,1925.6924231264097
3806.2727,0.3081853648189075,920.184088640276
3807.1504,0.3067135361634492,1079.3036606854016
3808.0261,0.30501025135498344,1347.769891412214
3808.9043,0.303970530597549,1727.5464760536347
3809.7805,0.3039846034899839,1528.6946967676704
3810.659,0.30480265090673525,1290.0528705346467
3811.5356,0.3058368831562227,2093.4686255479337
3812.4126,0.30665802633998523,1385.5860360311312
3813.2917,0.3072838696160352,1066.6350824050592
3814.169,0.3080171299028253,1318.3646021341524
3815.0483,0.30900583190817094,1506.1122776217765
3815.926,0.30998311901006287,863.1219596937524
3816.806,0.3105235594358781,1272.9086974273177
3817.684,0.3104491824495972,1261.202558185821
3818.5623,0.3099361098367673,1103.759180361297
3819.4429,0.3092404052197159,1141.0460703251683
3820.3215,0.30848955321315846,1310.6131021656486
3821.2024,0.3077356385367252,1478.7075947630938
3822.0815,0.3071022827320126,1433.4973907655271
3822.963,0.3067031618854701,1131.7148781291646
3823.8423,0.30645583337793386,1426.8491950715438
3824.722,0.30601737848820865,1391.6378925524289
3825.604,0.30495553720565144,1060.3425261273649
3826.4841,0.30301763818979816,1487.368965379184
3827.3665,0.30027243365294476,1417.4268326373845
3828.2468,0.29712140248700675,2127.1668708948982
3829.1296,0.29404831660250497,1696.7723599346991
3830.0105,0.29141004013425453,2419.0373256854427
3830.8916,0.28923245864004576,1333.847216619851
3831.7751,0.2873228712646111,1445.592738071859
3832.6565,0.28554099426623386,1607.4794450731442
3833.5403,0.28397750205028327,1233.2671798869299
3834.4224,0.28296040421486207,1326.6125787580759
3835.3064,0.28277906406567743,1703.021851531044
3836.1887,0.283441271435161,2662.5792787826217
3837.0713,0.2845968639709806,1601.670116306554
3837.956,0.2856988150521585,1915.2272221019666
3838.839,0.28626988321661473,1757.588030198826
3839.7244,0.2861683976800968,1266.3881766535692
3840.6077,0.28567653255363307,1265.1489662538165
3841.4932,0.28538253967457233,1746.5263091626296
3842.377,0.28587454342125096,1043.8422527581
3843.261,0.28736677865347077,1380.4357482676057
3844.1472,0.289510791079276,1549.1890797058272
3845.0315,0.2915378791722088,1187.089959683493
3845.9182,0.2927606420382096,1368.1719941092583
3846.803,0.2929704251374773,2911.148225958936
3847.69,0.2925507801172891,1137.8313000931992
3848.5752,0.2922273301213401,1047.4265200393086
3849.4604,0.29270855086873926,3215.0509853606136
3850.3481,0.29440384792653745,1475.7805358910537
3851.234,0.297274834711724,1500.6129060837764
3852.122,0.300958233672915,1286.2300471511423
3853.0083,0.3049641323298677,1842.7930459336521
3853.8967,0.3089632643518832,1290.5623641795748
3854.7832,0.312732519971076,1269.4504219022594
3855.6702,0.3160791103570998,1223.677062552512
3856.559,0.3187077776474737,1340.6158972887035
3857.4463,0.3202958152470519,1351.7851613596224
3858.336,0.3207034504377873,1367.7926103848822
3859.2234,0.32005246421480493,1203.917612931784
3860.1135,0.31867868852497033,1181.1553055235622
3861.0015,0.31698619300052494,1338.942339077779
3861.8896,0.31528767107062866,1480.3793090560116
3862.7803,0.31375855941913605,1360.1280917740082
3863.6687,0.3124423948543535,1781.056437902378
3864.5598,0.31124064698524845,1364.4585102890221
3865.4487,0.31002721441968706,1541.6013414415293
3866.34,0.3087883428712894,1016.0615327565629
3867.2297,0.3077601331968421,1066.8201086416575
3868.1213,0.3072905887663971,1261.8285187559418
3869.0112,0.3075373448611464,1791.3858019476147
3869.9014,0.30821221534518967,1432.3534137796041
3870.7937,0.3086623890997422,1305.4112977104262
3871.684,0.3082418324873194,1040.0976108222437
3872.577,0.30668580951567026,1809.9925553233807
3873.4678,0.3041681624035215,1342.8676809352326
3874.361,0.30098142771696856,1216.8932207289215
3875.2524,0.2972858711214349,1726.8223513942023
3876.1438,0.2930644825285817,1571.5610221930856
3877.0376,0.2883842666531865,1812.9016659465428
3877.9297,0.28361280346734985,1118.1820344278078
3878.8237,0.27925040923452266,1210.4378018657785
3879.716,0.2757329267157008,1579.8253933926078
3880.6108,0.2731511783601471,1376.7388158274418
3881.5037,0.2713232311773555,1198.0288250584526
3882.3965,0.26993233787277,2678.101350457313
3883.2917,0.2687200372129888,1483.9202402967142
3884.185,0.26752071027511026,1646.605335443676
3885.0808,0.26618825528841467,1986.461354269615
3885.9746,0.26461587419360827,1606.8366684850594
3886.8706,0.26277409350505654,2188.5584449570647
3887.765,0.2607804468973979,1766.6265066120632
3888.6592,0.25881225754234194,3216.4812929946042
3889.556,0.25700618500456546,2943.6901017076207
3890.4507,0.25544497005329597,1909.7381536816208
3891.348,0.254242674966394,2244.6712199426365
3892.243,0.25372864802529604,2732.915431243725
3893.1406,0.2544265888376275,2903.449414130722
3894.0361,0.25679878087293057,2861.1536000744422
3894.932,0.260850307672047,2620.15932526877
3895.83,0.26590131887126117,1386.9789039157556
3896.7263,0.27073758826416205,1737.7593735646742
3897.625,0.27431102488260933,1610.557454733553
3898.5215,0.27632580851484123,1704.9804823344039
3899.4207,0.27765052816580493,1544.8052362665858
3900.3176,0.28019728174942193,2211.8101328055573
3901.2148,0.2865374999532649,1601.145507021259
3902.1145,0.2990548832884272,1594.820460154539
3903.0122,0.31829898788891936,2501.9697757913627
3903.912,0.34161715359279,1167.3341145658728
3904.8103,0.36274481362625594,1503.4973941811174
3905.7107,0.374819937399707,504.72986272453034
3906.6094,0.37429705744842934,1392.4048034671546
3907.508,0.36347926251329266,1049.635907708403
3908.409,0.34858687536952176,1571.3453787345165
3909.308,0.33579162952403313,1736.636734518209
3910.2097,0.32802013146894404,1368.5936981251298
3911.1091,0.32505640476211267,1661.700901610989
3912.011,0.3250210793595256,1155.9363992176334
3912.9111,0.32597652551835415,1339.1242296458238
3913.8113,0.3266184428087406,1472.2442922702753
3914.7136,0.32644569705187454,1060.1882115889073
3915.6143,0.3256578774679988,2001.1733443382984
3916.517,0.3248252153055151,1159.4613196040148
3917.4182,0.32444962497347823,1650.3040704790267
3918.3215,0.3246566587899614,1407.272814926175
3919.223,0.3252495589181441,1272.7755771671402
3920.1245,0.32601351398700135,1011.9144378399691
3921.0286,0.3269801071152127,1121.9288724179687
3921.9307,0.3284228905067232,1053.3396165064894
3922.835,0.33063559823923205,915.1007349361032
3923.7373,0.3335949016157412,1022.3444959201414
3924.642,0.3368364860544115,1931.2306360312218
3925.5452,0.3395200212771694,1176.1923318835766
3926.448,0.3408613523774672,1258.9939235649924
