wavl,flux,ivar
3566.9744,7.588470707912191,18.66766545125547
3567.795,7.565683619670973,14.955660286503765
3568.6177,7.542868672631081,15.76030392036209
3569.4385,7.516755025827948,24.03870019813261
3570.2617,7.484639671675583,18.160948175407025
3571.083,7.449099662789737,20.129622182070243
3571.9065,7.4185055768917705,17.537043419200316
3572.7283,7.404398455453954,24.78892758156936
3573.55,7.41371644454713,19.36511688227018
3574.374,7.4416671738072715,21.576587203256345
3575.1963,7.469537598862635,20.926133331138608
3576.0208,7.472286355540898,15.187889261222752
3576.8435,7.430946740333796,15.428649713606701
3577.6682,7.343664611617507,27.574363550447124
3578.4915,7.230751709017687,17.52014321044268
3579.3145,7.12849790050725,18.02742240870555
3580.14,7.074416551994192,18.182779552880177
3580.9636,7.088705579594712,18.095215302181252
3581.7893,7.162931777852,18.608876509935815
3582.6133,7.266843526781465,21.360058860929968
3583.4395,7.368371306660659,18.795913191222045
3584.264,7.448188663870377,16.660022736881107
3585.0884,7.504777792834919,25.256625368617314
3585.915,7.545677676913531,22.359193051584683
3586.74,7.576712753623086,18.69644213379462
3587.5671,7.597015594914453,18.8610915655484
3588.3923,7.600427651095947,17.50348556403195
3589.22,7.582503912927245,18.56463990523173
3590.0457,7.546388950179685,19.86573267070892
3590.8716,7.503325517235842,18.6458432480152
3591.6995,7.468046716633465,17.302680227840526
3592.526,7.452821808107121,24.1771693275245
3593.3542,7.463435903861289,18.589148225349604
3594.181,7.498350806699365,27.04430457219188
3595.0098,7.547918789508693,25.243082422426962
3595.8367,7.593728851943185,15.637142018157215
3596.6638,7.614646970286109,14.367259783666501
3597.4934,7.5967453492918695,15.351105848574955
3598.3208,7.5415030277627935,21.472631903846306
3599.1506,7.462429690363678,27.457020497288315
3599.9788,7.375325393994563,20.29134456164672
3600.8088,7.289086527544911,23.05973169969927
3601.6372,7.20933939794581,21.89337709357674
3602.4678,7.144679820071606,14.060075557139292
3603.2964,7.110349887386009,19.16693703199606
3604.1252,7.11898446108796,26.261163326371484
3604.9565,7.170640235051485,20.424024498423577
3605.786,7.249759545579454,19.138809826911583
3606.6172,7.334991178089214,18.56368641629176
3607.447,7.408902177798743,15.7326990074185
3608.2788,7.463499494969529,17.779841018796915
3609.109,7.496539272637286,19.029640908679088
3609.9392,7.508609394902567,16.58960347864272
3610.7717,7.501306463661409,20.429595394718
3611.6023,7.478339610476988,15.771485532125258
3612.435,7.445659442855617,15.932132906913477
3613.266,7.410395342979422,16.95884515010116
3614.0994,7.378037931765683,16.655038523791028
3614.9307,7.3516913904753185,15.787215114887873
3615.7625,7.33176308363134,16.572356727595785
3616.5962,7.317445574439068,38.69877378452405
3617.4282,7.3077263456368655,18.830815315064957
3618.2625,7.301580436835755,18.745469661830043
3619.0947,7.297913287780411,19.97737190505903
3619.9292,7.295156796305986,21.362486146758663
3620.762,7.291708633750881,19.715271530445673
3621.595,7.286354445837553,23.105546915011523
3622.4302,7.277578016217773,16.241582738902295
3623.2634,7.262160222599106,16.487337804979617
3624.0989,7.235329374385257,19.259964965962833
3624.9326,7.194784428848937,25.580266244927742
3625.7686,7.1444924976658015,19.432507815312135
3626.6028,7.095613828895738,18.149782907225873
3627.437,7.060064052365054,30.940453958699432
3628.2734,7.04320980205066,18.473927949923734
3629.1082,7.040779704154385,16.63885083111007
3629.945,7.04365436692753,20.87123893288919
3630.78,7.0473231436171515,17.133187059708078
3631.6174,7.056730127763655,21.33286288802538
3632.453,7.081315672091387,24.036659034969905
3633.2883,7.124903538147771,19.351870568470133
3634.1262,7.179993197934523,21.4973732177014
3634.9622,7.231277521003921,12.519041921746071
3635.8005,7.266779052655389,20.667963055835262
3636.637,7.283467416172531,24.753559622062348
3637.4756,7.285528620695916,22.873155072282497
3638.3123,7.276901895858215,24.28315826594222
3639.1492,7.258409423813598,21.147789020004954
3639.9885,7.231077632500614,32.95065008852875
3640.826,7.200202742211758,15.959444935963594
3641.6653,7.173057167489028,19.76519609692391
3642.5032,7.154107418660251,18.247552944011648
3643.343,7.142232765640431,24.405225964015777
3644.1812,7.133779255824813,19.363201915418674
3645.0195,7.126291337117014,20.875334019923496
3645.86,7.119363105231779,17.554224772013274
3646.699,7.11230097940176,19.56448344642659
3647.5398,7.1022053079971945,18.246521685759685
3648.379,7.085708785737124,21.88923376351474
3649.2202,7.062451221716619,17.199730480554564
3650.0596,7.037028148418855,26.285742612365524
3650.8994,7.015654003650335,23.09640794828172
3651.7412,7.001261944560114,22.40214776085086
3652.5813,6.991601208173862,16.49849185190416
3653.4236,6.982817942054344,23.94420977964597
3654.2642,6.975124215161577,24.799645562293403
3655.1067,6.973402871815883,29.166985811687034
3655.9475,6.982227640095899,22.390790921722957
3656.7886,7.000461149791112,23.36077322971108
3657.6318,7.021306058697043,20.376097165494425
3658.4734,7.03714849503883,19.6444975336082
3659.317,7.045085692726836,21.763576790868427
3660.1587,7.047724797219598,16.273284788280694
3661.003,7.0502955272388546,24.525570909361505
3661.845,7.057163444919953,30.56902828415232
3662.6875,7.07114734175579,26.64604652592987
3663.532,7.0941515462303535,35.80882673602228
3664.3748,7.125657185397827,17.01315483195662
3665.2197,7.16034657923835,24.48074945461481
3666.063,7.187737318614034,15.018031210990182
3666.9084,7.1978698488199555,16.68331885273386
3667.752,7.187209423712243,23.35707613639781
3668.5977,7.160596271827182,18.0728872000076
3669.4417,7.127409372108037,22.366904217187216
3670.286,7.0951732285086155,20.41142646346396
3671.132,7.066216666291545,21.729901325491618
3671.9768,7.038700596185589,19.892905190747108
3672.8235,7.009902202425836,18.955839324290018
3673.6685,6.979900895428649,24.900002724174744
3674.5156,6.951258180742258,20.46527003699611
3675.3608,6.927226566612031,24.248754253478644
3676.2063,6.909369558765298,23.986552080152368
3677.0542,6.897970531587597,19.015694842527196
3677.9,6.89265237081191,22.063601301971396
3678.748,6.8915648153325755,24.527753460082863
3679.5945,6.890724333177464,24.42285090302897
3680.4429,6.8850464249110415,18.35698206967773
3681.2896,6.8711534910794505,23.253579693127218
3682.1365,6.8494834655075305,25.742889781349188
3682.9856,6.824550786476911,16.269458166107444
3683.8328,6.8037250946692485,27.89917319587989
3684.6824,6.794165167957253,28.40358462867788
3685.53,6.7999766464807285,24.718258058781633
3686.38,6.81982556979904,28.49807134557772
3687.2278,6.847181462940469,23.59699637962346
3688.0762,6.873666181485008,18.00667058939457
3688.9265,6.892827830758456,26.088640694216767
3689.7751,6.902558032944175,18.762564673888484
3690.626,6.905561507404018,16.543296542933607
3691.475,6.907778433408303,17.52640317498149
3692.3264,6.915959809756046,19.21504177152616
3693.1758,6.933941561906693,22.02335690553935
3694.0254,6.959557598689782,22.143929720932125
3694.8772,6.984536987545408,22.120317272012944
3695.7273,6.998516372812026,12.465524576539897
3696.5793,6.995447920480842,19.09585703679652
3697.43,6.9766180753525,24.946740620666436
3698.2825,6.948619922137443,18.800487066900704
3699.1333,6.918573485339939,24.00384167741326
3699.9841,6.890055386934991,24.505949661971894
3700.8374,6.863238198515584,23.291429027452786
3701.6887,6.837776284277363,22.971172263724895
3702.5425,6.8147148781259075,28.755472302066966
3703.3943,6.796681133416509,21.87182899648441
3704.2483,6.783931912021918,28.222637775032872
3705.1003,6.7689527561029275,39.03827987326401
3705.9526,6.728867604553651,19.612330614699903
3706.8074,6.617441755800488,18.18431716039083
3707.66,6.366054076518767,22.190567123422085
3708.515,5.90531968481601,20.1804889286496
3709.3682,5.231957641285195,21.448254399607585
3710.2234,4.467344945930207,24.5497955708468
3711.0771,3.863163166409429,23.919365556559942
3711.9307,3.6679982914162506,552.3384987978811
3712.7866,3.967581983628467,21.076723027419867
3713.6409,4.617864790362265,25.75233165581026
3714.4973,5.355642242221529,33.29574482908668
3715.3518,5.959230961606219,28.70541776607714
3716.2085,6.350594740836841,24.480979516244446
3717.0635,6.55813030352978,26.721239995814074
3717.9185,6.65065239158357,19.94509631958709
3718.776,6.684259963426748,26.077791306365008
3719.6313,6.691999468383819,26.06188359786567
3720.489,6.6907135911378575,20.341054629688625
3721.345,6.687560976206098,24.040283958309978
3722.2031,6.6849420702881055,14.914106992810277
3723.0593,6.684799459021947,20.90107447465793
3723.9158,6.690219915701528,26.039634878055747
3724.7747,6.702866614782404,24.09482400969641
3725.6316,6.719479935319212,23.345958414103833
3726.4905,6.733197014043384,17.799934216412268
3727.348,6.738350091440325,34.59551494584274
3728.2073,6.733962746262071,28.672966461782135
3729.065,6.722246421474893,22.861259750171108
3729.9229,6.705437514953926,29.635297334340567
3730.783,6.685133598713771,21.615601592222106
3731.6414,6.664069739746885,20.103582369783393
3732.5017,6.6462162941873,25.218165701470447
3733.3604,6.634985757295682,33.97892154957838
3734.2214,6.6306560080288515,20.100190961266854
3735.0803,6.630694939308397,20.768457175280727
3735.9417,6.631765135966666,23.267530807108326
3736.8013,6.6317200363101145,20.002450627888287
3737.661,6.630952308117004,20.256816506517435
3738.5227,6.634237391489559,23.49572429581923
3739.3828,6.652371944659015,22.51677872092369
3740.245,6.700246641791353,30.72410577346103
3741.1055,6.787846088639372,20.513857980412027
3741.9683,6.909643513724356,33.476986174404445
3742.829,7.0372080830234705,24.997497915001258
3743.69,7.1293877201736935,8.479188863520626
3744.5532,7.151264156953003,24.950034763136998
3745.4148,7.093779960584741,7.198234474963121
3746.2786,6.979036671475333,20.78039621143706
3747.1404,6.848060776969411,21.39527364416857
3748.0044,6.7369334346559215,20.849066089257292
3748.8667,6.66274090963151,31.07488188027807
3749.729,6.620297009301206,18.699514439681824
3750.5938,6.594013280443765,24.912799701737953
3751.4565,6.571259891704968,28.654160117115175
3752.3215,6.548676853704255,24.922605174370776
3753.1848,6.530107788124523,34.19211808278552
3754.0503,6.51907437778509,22.953211460218157
3754.9138,6.514686460759906,25.974991987420776
3755.7776,6.512907896800755,21.73762376502723
3756.6438,6.510674217883395,23.027499501370567
3757.508,6.5074300473092785,29.017918165084474
3758.3745,6.503257738017093,22.75396037406841
3759.239,6.497023153902325,29.117525497434457
3760.106,6.4871445219228745,19.035142715698882
3760.971,6.474389206566608,19.087253608866018
3761.8362,6.462813231320302,24.099934925015727
3762.7036,6.457649570577683,26.84885466521983
3763.5693,6.461431474986432,26.412152004094942
3764.437,6.471635510027973,28.31970417376006
3765.3032,6.481816296145831,26.287504594456323
3766.1714,6.485221246179964,19.05821064131805
3767.0378,6.477601758875173,24.806842468887524
3767.9043,6.457873281364876,25.7834248984467
3768.7732,6.427164699336692,21.322686131854685
3769.6401,6.388790960824148,27.106927181794827
3770.5095,6.347862116163269,24.737087394621952
3771.377,6.3115864391359375,22.576348449157923
3772.2466,6.286865754228146,29.303182457417147
3773.1145,6.278603847504439,38.096064555930326
3773.9824,6.287396497355252,21.926080995272603
3774.8528,6.309394724231361,29.021019257777105
3775.721,6.3373990829452,23.61637712191113
3776.5918,6.3646841794528415,27.265215272763747
3777.4604,6.388390128435912,21.030643937145637
3778.3315,6.411451648708617,26.225557353822875
3779.201,6.43849041437048,31.70917438861699
3780.0703,6.470180133113114,20.48293659077876
3780.942,6.5008932491648315,19.15208481752949
3781.8118,6.52290000860593,27.722027909686993
3782.6838,6.533482630167704,18.86729591332468
3783.554,6.536418973170403,21.50070471048064
3784.4265,6.5373285144908895,31.79813351421175
3785.297,6.53706275227226,25.85259139174342
3786.168,6.53045939794736,22.656624474602285
3787.041,6.511623006843693,21.077377915507697
3787.912,6.4802245203429765,27.04987853654993
3788.7856,6.4410766932979975,27.85499144871547
3789.6572,6.3989970103646705,30.55330311928315
3790.531,6.354026894179642,23.851895522000962
3791.403,6.304542088715234,25.39756653692505
3792.2754,6.251509527897922,32.41833715089097
3793.15,6.199770942554076,28.456557044495558
3794.0225,6.1546813296005505,25.469464115266742
3794.8972,6.117921097757538,30.950690755511484
3795.7703,6.089152067817837,27.434539220641298
3796.6455,6.06856356107515,34.6241661450262
3797.519,6.058839477799013,29.035357310474293
3798.3926,6.062991607865135,27.580253479953903
3799.2686,6.081507530264972,40.34847518863692
3800.1426,6.110401956837831,24.036576136111815
3801.0188,6.142842555651542,28.98678837664523
3801.8933,6.172196546815232,26.57898137860762
3802.77,6.195749006798712,30.657635450841425
3803.6448,6.214736560528035,25.818243717515532
3804.522,6.23274024929888,35.298737845411765
3805.3972,6.252706880072268,23.961527534759874
3806.2727,6.275981091057257,28.60530708170618
3807.1504,6.3023805909079575,31.006156437333356
3808.0261,6.330899480926423,22.83718513488263
3808.9043,6.3609208680674305,27.089021342063184
3809.7805,6.391585330367792,30.308934860989446
3810.659,6.421437871761531,33.17669301089644
3811.5356,6.447146062098311,22.23984123648816
3812.4126,6.464845392117185,27.656213009523114
3813.2917,6.4721482453173085,26.79038613364763
3814.169,6.469896806852578,29.42378475453005
3815.0483,6.461835302869091,20.79649981139997
3815.926,6.452735583015025,26.050539536587856
3816.806,6.44662802223856,28.61442485570613
3817.684,6.445773316346042,24.73074112259314
3818.5623,6.449214305075512,24.153566553856468
3819.4429,6.451875550247892,25.856967365026748
3820.3215,6.445844175586225,21.92185365977729
3821.2024,6.4244169638800575,26.511569529230716
3822.0815,6.386280202555296,28.625023819475945
3822.963,6.335711609134315,30.466454939951593
3823.8423,6.279971647517312,23.85927875007103
3824.722,6.22431314188849,24.982772333609606
3825.604,6.170379409760814,28.021764752541852
3826.4841,6.117674105877996,28.4849835726343
3827.3665,6.064857274710069,28.14478697530524
3828.2468,6.01178198093375,32.86360384226434
3829.1296,5.95767040116262,36.48081935508041
3830.0105,5.901037829505487,25.544545067721725
3830.8916,5.839140985259372,33.24370823680676
3831.7751,5.7703807955663,33.219579374379165
3832.6565,5.697039438763871,44.06977739765273
3833.5403,5.624523349998608,38.32378587864812
3834.4224,5.561114340858815,31.869299381188004
3835.3064,5.513658393316021,30.805570358176954
3836.1887,5.486117243789443,38.80192114481107
3837.0713,5.478682846934151,41.469166911137165
3837.956,5.490605318477564,36.30372774142196
3838.839,5.52240554927496,30.504022579290215
3839.7244,5.5760143943832,28.408141133968435
3840.6077,5.651125340412213,41.636943951896214
3841.4932,5.743197241505638,29.282141220306602
3842.377,5.842333936345963,26.589939972359176
3843.261,5.938236472027116,27.012061398103693
3844.1472,6.02386247196472,30.832681574712357
3845.0315,6.096905736844511,31.90321748198969
3845.9182,6.159942260646064,22.078584497913464
3846.803,6.215745107187909,33.67670171487681
3847.69,6.265601490400555,27.620261860493954
3848.5752,6.307684476261399,20.021924893388064
3849.4604,6.340071869181782,25.981274821030112
3850.3481,6.363421134337194,27.672560623453005
3851.234,6.382038304903707,23.71485171340962
3852.122,6.402420819882936,24.6527504173854
3853.0083,6.4292939452410485,25.074118386889037
3853.8967,6.463713258315027,24.207189866605738
3854.7832,6.503024836226244,27.803472429794223
3855.6702,6.543583999252805,25.894826336352185
3856.559,6.582069467822414,22.578743424048916
3857.4463,6.615662700986611,28.54761488849738
3858.336,6.642646821840048,23.08961941622863
3859.2234,6.6620231854905,22.655601489756723
3860.1135,6.673919193812044,22.98375433759514
3861.0015,6.678530993908251,18.84468409992184
3861.8896,6.6755725805188355,23.82428375981449
3862.7803,6.663418643920943,21.896523511960886
3863.6687,6.639403860846067,23.183237219824257
3864.5598,6.6010778145142845,23.842478305400274
3865.4487,6.54926001658806,26.782227431321765
3866.34,6.488681333327862,25.758538584134236
3867.2297,6.427885157360581,27.63987616220898
3868.1213,6.375154268730248,28.615360854573705
3869.0112,6.336388090307803,31.304437601013902
3869.9014,6.312729152240743,26.856920892340938
3870.7937,6.301030285269891,30.422109110634246
3871.684,6.294725830007405,22.84980980958519
3872.577,6.285199922882874,26.238456069278822
3873.4678,6.264320036909468,26.77748483136925
3874.361,6.2268970406616635,29.926822435140853
3875.2524,6.172755045996138,24.24240656771378
3876.1438,6.105281050499854,23.63997597866064
3877.0376,6.028709730236478,35.06229241517421
3877.9297,5.946719851839565,35.254882638966905
3878.8237,5.861461335439023,33.14784156763349
3879.716,5.776175468330003,30.96183577733742
3880.6108,5.693163177619373,34.71293112722624
3881.5037,5.612726611722309,28.725853793355554
3882.3965,5.5304186255560985,30.847820839764893
3883.2917,5.439633376130453,39.92073276414717
3884.185,5.336202087766334,32.17151228498996
3885.0808,5.219097739654029,52.99767926886573
3885.9746,5.092183702413157,36.69906244292538
3886.8706,4.96068691787173,41.21182179890113
3887.765,4.83323277519487,42.755527900553645
3888.6592,4.720654011936421,56.53760420020945
3889.556,4.636464890103224,44.509158027137374
3890.4507,4.593835764256235,56.23177623510723
3891.348,4.59883821432918,58.40866816723779
3892.243,4.647839149270018,64.55187043341589
3893.1406,4.729443042821643,54.79597902126166
3894.0361,4.829373203596933,43.78597434133959
3894.932,4.937248234564721,34.62272220727332
3895.83,5.047696949792947,54.976658629731396
3896.7263,5.157595996221927,40.765347093110194
3897.625,5.265487761735621,30.809394647618028
3898.5215,5.368883596021256,35.94980896947451
3899.4207,5.467752054760131,29.456227665633655
3900.3176,5.563325668346725,34.32599232682343
3901.2148,5.659153614330646,32.56126004591267
3902.1145,5.758100089301305,33.5637131440157
3903.0122,5.860242309972776,28.592869300416368
3903.912,5.965058229896083,30.915142118431703
3904.8103,6.0707837537344345,29.689460586414043
3905.7107,6.176328019437715,24.57791646673975
3906.6094,6.278491051585733,26.27809769386921
3907.508,6.3733618230035605,29.884340360170498
3908.409,6.457029708890312,24.72429123632628
3909.308,6.526692493162147,31.90886576498877
3910.2097,6.582445438875538,29.80535959928709
3911.1091,6.625789029776315,19.659586478559287
3912.011,6.660617645869319,25.84186179719347
3912.9111,6.691777091247853,22.227365338661038
3913.8113,6.724077830945741,21.31911253647755
3914.7136,6.760383087178249,26.92393239305804
3915.6143,6.801286780040676,23.02793324250868
3916.517,6.846866575686808,25.24387715651131
3917.4182,6.896037826502052,19.96222657260575
3918.3215,6.945487085672399,22.008342468408344
3919.223,6.987671454367198,19.03790536845676
3920.1245,7.014249622434927,21.531456420395383
3921.0286,7.021324823689085,20.95821411107092
3921.9307,7.013613172065677,19.572866347903076
3922.835,7.002789814183698,22.38484390702437
3923.7373,7.000951939966136,25.073430927173263
3924.642,7.014025750605124,23.913814192664347
3925.5452,7.039208223301058,18.183367434636274
3926.448,7.067442666263236,18.581917549622215
3927.3535,7.089010525766974,21.493489486616923
3928.257,7.098709748163955,19.58300516932042
3929.1628,7.097764427465332,22.909197574423295
3930.0667,7.090369594662235,19.570702483403462
3930.9731,7.079061949562171,18.678594981487194
3931.8774,7.063159393607933,20.26626812217474
3932.782,7.040631238672012,23.52307865732109
3933.6887,7.01111788885618,23.999085835945863
3934.5938,6.977304905066697,24.17003135623216
3935.501,6.943275622178378,28.52021188989937
3936.4062,6.9127633052906905,19.419854526512324
3937.3142,6.886699932560171,23.49320195528728
3938.22,6.863496860410476,24.279275299609274
3939.128,6.839816706597963,25.198990560994172
