wavl,flux,ivar
3566.9744,1.8318544871610722,535.7752958692435
3567.795,1.8286132269185063,606.6249190422684
3568.6177,1.8250495711769208,597.5788892859437
3569.4385,1.8217175073785952,585.7482254258409
3570.2617,1.8190357435428217,554.4971000903854
3571.083,1.8172953881528027,557.4152753932372
3571.9065,1.8165925184920941,717.1507318920892
3572.7283,1.8167748673583908,667.0832433167401
3573.55,1.8173226333476673,556.8286924419324
3574.374,1.8174583172067935,557.3217516295305
3575.1963,1.8165796584613474,519.3243219181645
3576.0208,1.8147938091720273,619.0134072530412
3576.8435,1.8130849291989977,714.7261091919402
3577.6682,1.8128248095283206,573.3806717159821
3578.4915,1.8149538285112063,581.8800776333533
3579.3145,1.8192475985302834,648.8246862690052
3580.14,1.8241922851427654,700.1005711551029
3580.9636,1.827539413486929,561.3558608608517
3581.7893,1.8274988999241715,545.1423779816871
3582.6133,1.8235937780949487,548.9103277096707
3583.4395,1.816750612588091,583.6552520415628
3584.264,1.8087578465058618,559.3374995681014
3585.0884,1.8014059696116247,637.4104724190589
3585.915,1.7960093137167257,575.5635267846434
3586.74,1.7932036016538875,748.4278974535749
3587.5671,1.7928887612094737,664.3998664559301
3588.3923,1.794601596047473,550.6004002798617
3589.22,1.7979427606166745,568.1061460991136
3590.0457,1.8026987070013096,532.878656741833
3590.8716,1.8086245965497074,638.9481306805624
3591.6995,1.8150773875068322,588.7340617387958
3592.526,1.8209465644532736,560.8600224837054
3593.3542,1.8250824481049164,475.45322636943683
3594.181,1.826675713537076,607.283864004488
3595.0098,1.8257041416810826,576.1665458901723
3595.8367,1.8230260468765238,603.1563242165038
3596.6638,1.8200216242222462,561.3417577953136
3597.4934,1.8178013163606492,630.0075406876134
3598.3208,1.8165493055846051,628.4134709205747
3599.1506,1.8156461540472646,540.2772726023555
3599.9788,1.8146987584616137,569.8971174368511
3600.8088,1.8142979390691092,534.5429616356195
3601.6372,1.8155702722465326,579.5054028602864
3602.4678,1.8188298810430974,633.7307240704566
3603.2964,1.8227742549015427,615.8308988467172
3604.1252,1.8251801813594433,572.5861572889987
3604.9565,1.8242043532943912,650.1961291740305
3605.786,1.8191878639453807,561.7882620769511
3606.6172,1.8105248520389474,527.8456965525992
3607.447,1.79943049325324,618.0358049931684
3608.2788,1.7877682788590072,638.9926733649282
3609.109,1.7780819438286686,630.9385951227565
3609.9392,1.7726336982813204,628.9620195969311
3610.7717,1.7723556574292678,727.2792916347155
3611.6023,1.7762739886822125,548.4034115452755
3612.435,1.7822062756116872,638.3997310766055
3613.266,1.7879898719712697,556.5109084750676
3614.0994,1.7923979396504874,627.1799980561957
3614.9307,1.7951302635192314,612.4192597141962
3615.7625,1.7966798554547692,630.1628453495742
3616.5962,1.7980595023021901,620.7062802151322
3617.4282,1.8004207895846478,623.8114925200214
3618.2625,1.8045120346113734,587.6620552660364
3619.0947,1.8102191010288913,575.007549882727
3619.9292,1.8166895444091484,597.7200252802523
3620.762,1.8226197361772907,612.720230504203
3621.595,1.8268282721950335,591.5711176534286
3622.4302,1.8286240832064022,574.5451484117813
3623.2634,1.8281130092968756,555.6962814906391
3624.0989,1.8261948069843623,555.7381733249329
3624.9326,1.8240989466957314,687.6519279440884
3625.7686,1.822698038590473,624.4913566157595
3626.6028,1.8221335613618166,547.8435991288767
3627.437,1.8218716143630118,724.8446541564334
3628.2734,1.821094695777254,605.9775493848292
3629.1082,1.8191003395663314,527.8238025910371
3629.945,1.8156098050429113,535.3237123690822
3630.78,1.811028300224608,523.9648716792863
3631.6174,1.8062739028275854,580.3107473739435
3632.453,1.802307648174967,614.4831463569218
3633.2883,1.7994056808292942,611.1270099028362
3634.1262,1.7970668811927666,540.4898587529137
3634.9622,1.7945219344639947,554.2794719542695
3635.8005,1.791333984427308,676.6439000053986
3636.637,1.7877325334950929,594.771759635244
3637.4756,1.7843441618546136,659.3068413131974
3638.3123,1.7817893979415955,677.2338568583059
3639.1492,1.780234417931129,561.3352750882812
3639.9885,1.779396018727413,653.4215578516942
3640.826,1.778856675390867,561.9862458647832
3641.6653,1.7784148247946432,633.991794756473
3642.5032,1.7782397782787098,574.4462458299643
3643.343,1.7787553097391073,621.6730354000421
3644.1812,1.7803697602307007,602.226082190499
3645.0195,1.7831970607583552,578.8765266010386
3645.86,1.7869467491451838,616.8942998330705
3646.699,1.7909998251317063,599.3636614684625
3647.5398,1.7946700725577995,593.4497327270863
3648.379,1.797268261998285,595.1346827401994
3649.2202,1.7982449877633073,570.5824163175289
3650.0596,1.7973100232848815,650.6033923565064
3650.8994,1.794668942238494,549.6330697175292
3651.7412,1.7910740038739503,596.4610357073308
3652.5813,1.7875650755406987,647.8612392945971
3653.4236,1.7847995020855008,650.8478765248243
3654.2642,1.782642589891113,568.8471919648342
3655.1067,1.780301200394227,552.9386316230334
3655.9475,1.777120235771292,630.7088889190784
3656.7886,1.773179908700047,530.7427265809702
3657.6318,1.769291997917699,642.8685589092514
3658.4734,1.7664660653819333,725.1905520251676
3659.317,1.7652136107521803,632.2466372715733
3660.1587,1.7652979602529304,547.8278809496256
3661.003,1.7659146291599173,580.0951137446191
3661.845,1.7662344949732243,607.1683332933745
3662.6875,1.765880982023777,560.0869342781508
3663.532,1.765005010151735,634.719022276698
3664.3748,1.7640865799378955,690.2262339469611
3665.2197,1.7637129681658885,735.9988793584844
3666.063,1.7644334199869196,565.8292494384515
3666.9084,1.7664691293357846,652.8592810957191
3667.752,1.769335950463567,682.0558813802967
3668.5977,1.771891261926917,566.9082846637224
3669.4417,1.7729410141875699,640.0820695134969
3670.286,1.7721514508702496,606.0472763026426
3671.132,1.7703159513256312,550.1854049240872
3671.9768,1.7688149513305267,695.3639323480315
3672.8235,1.7686752485002555,608.9398857185564
3673.6685,1.7700554295212898,595.7975132023846
3674.5156,1.7723414673778446,652.1301779339342
3675.3608,1.7745485453563847,647.6543468802183
3676.2063,1.7757597954973525,602.8649262597405
3677.0542,1.775373936767403,626.2864365810733
3677.9,1.7733117038212358,580.3379347878798
3678.748,1.7701014892340263,575.4547531952404
3679.5945,1.7668106683630402,705.2349581332486
3680.4429,1.764593726184402,686.4925825053717
3681.2896,1.764209955789956,580.6827440164274
3682.1365,1.7657228912468468,634.0908450938065
3682.9856,1.7687583146619275,621.0101871983962
3683.8328,1.7729450803264748,700.2545123999337
3684.6824,1.7781953285303986,679.2793921790524
3685.53,1.7843197104235682,606.6854136059757
3686.38,1.7906186302587725,662.0210797424369
3687.2278,1.795621284600041,539.5673073233934
3688.0762,1.7976830068860128,627.0855021606372
3688.9265,1.795762056301436,616.098157386558
3689.7751,1.790140512440856,592.9959129696869
3690.626,1.7824147258523837,594.3573282636747
3691.475,1.7748979911874965,493.7363215574621
3692.3264,1.7694756947739634,675.1160336745563
3693.1758,1.7669826361089738,620.9724989962378
3694.0254,1.7670234645616598,636.8769871549604
3694.8772,1.768424559638346,591.5847163450034
3695.7273,1.769642314613594,528.9403457074991
3696.5793,1.7691720067725967,606.897342337209
3697.43,1.766059020389731,635.7674032759129
3698.2825,1.7605049313763859,673.643925487315
3699.1333,1.7541213668354798,642.9686909841622
3699.9841,1.749166056856591,705.9280515729625
3700.8374,1.7472797411620646,675.1901454062636
3701.6887,1.7485349709562064,617.252160516646
3702.5425,1.7515362799573382,603.5341175320904
3703.3943,1.754417536516906,589.9332119376004
3704.2483,1.7559570082675882,572.9609157037663
3705.1003,1.7560657941046773,508.329762246064
3705.9526,1.755730058935935,612.8229827975772
3706.8074,1.756419919028596,617.3747402271058
3707.66,1.7592014102347704,596.190648194786
3708.515,1.7640020259762343,563.9814766935922
3709.3682,1.7695112360314313,628.7900448252009
3710.2234,1.7740341171579228,679.3573189962383
3711.0771,1.776364738173433,664.4208039610003
3711.9307,1.776208114911653,579.7887948007169
3712.7866,1.7738301877965568,585.4433014215973
3713.6409,1.769743048848721,594.8630010875561
3714.4973,1.76467834599092,694.4404676137838
3715.3518,1.759786160575129,584.5307970742311
3716.2085,1.756283531356485,625.7245293134878
3717.0635,1.7548752428409735,627.2681217557108
3717.9185,1.7552253286815784,553.8339469804628
3718.776,1.7562188812845851,613.6142794830064
3719.6313,1.7566814315540271,613.435300455995
3720.489,1.7560375450360393,606.9881597787866
3721.345,1.7544393403089191,621.3724356504764
3722.2031,1.7524555900746552,758.6845819677204
3723.0593,1.7506989492327079,597.6618222560661
3723.9158,1.7495424339112609,600.0480351407741
3724.7747,1.749055892745947,684.5248551599844
3725.6316,1.7490004401233683,649.1648127036157
3726.4905,1.7488803665963724,585.3763692961572
3727.348,1.7481537203714166,583.5829483887214
3728.2073,1.746566313482578,664.8460212434389
3729.065,1.744434225067744,669.8994286733686
3729.9229,1.742574146198218,607.6687785437471
3730.783,1.7419225470542277,665.2679875121353
3731.6414,1.7430081057436402,655.6015570941477
3732.5017,1.7456204664163524,629.8221541489878
3733.3604,1.7489024095806027,666.0473340941481
3734.2214,1.7518634104005963,648.405408915922
3735.0803,1.7538352721913106,622.1346769591912
3735.9417,1.7547467262645304,684.4444394128988
3736.8013,1.7549329972973848,681.286867086556
3737.661,1.7548159374296262,633.7163628884354
3738.5227,1.754632114389797,701.0183612749354
3739.3828,1.7543910168661656,606.7337601772757
3740.245,1.7539519379299804,708.8798683344972
3741.1055,1.7531402135294865,585.2844044796489
3741.9683,1.7519116211966916,611.1331390968993
3742.829,1.7505731430637455,587.6161180640576
3743.69,1.7497305037537048,602.7466313664884
3744.5532,1.7498494695439957,617.383416477528
3745.4148,1.7506744269328425,600.0279229991171
3746.2786,1.7511036012202477,620.6090903865734
3747.1404,1.7497302155021237,624.6597131681963
3748.0044,1.745656445674563,614.6910617231729
3748.8667,1.7390660197681427,612.1145199550667
3749.729,1.7312096280912146,695.4721147130232
3750.5938,1.7240231554749677,697.0032587436621
3751.4565,1.7195259711117816,690.3532550298831
3752.3215,1.7189199058031377,673.84686707263
3753.1848,1.7221158759275719,645.3247264820141
3754.0503,1.7277777097377012,576.8048920313126
3754.9138,1.733966033956425,677.9943382032144
3755.7776,1.739103991619525,624.4077525058128
3756.6438,1.7424969678812354,658.8078989306042
3757.508,1.744405050543419,652.3433299401489
3758.3745,1.7457666569682428,649.1416984185195
3759.239,1.7475113593085865,715.1629943564044
3760.106,1.7499172111944914,681.2964803502372
3760.971,1.7523297132410698,682.8413254555647
3761.8362,1.7536580899632541,614.3696838847236
3762.7036,1.7531505394007478,626.6078866877617
3763.5693,1.7508843939213319,647.9547007154972
3764.437,1.7475940739976734,661.7715848113653
3765.3032,1.7441963024864695,648.0510883859546
3766.1714,1.7413088835385238,640.3379244639261
3767.0378,1.7390648528888772,650.7534057212938
3767.9043,1.7370622713422124,651.4122038855161
3768.7732,1.7347171078780805,601.4446492655918
3769.6401,1.731886933993492,689.1896030236703
3770.5095,1.7292289518839166,722.1049413026611
3771.377,1.7279959605635022,636.4602205454902
3772.2466,1.7292196697771807,595.7236884719077
3773.1145,1.7330217128049288,714.0059498533406
3773.9824,1.7384775077811223,689.1714173829713
3774.8528,1.7440979229801616,610.3393311098732
3775.721,1.748528760351144,659.0234502146469
3776.5918,1.751254594817747,778.3682801394638
3777.4604,1.7526126673598839,614.0767326677679
3778.3315,1.7534573603924417,633.0517989967996
3779.201,1.7545350779671003,622.5476103058099
3780.0703,1.7561072818326784,646.4664419291978
3780.942,1.7578802949699317,643.4948392636246
3781.8118,1.7591635947018778,613.8528452065548
3782.6838,1.7591974324072697,576.4042637523924
3783.554,1.757493395830175,627.7884356124673
3784.4265,1.7540849380319643,615.5560646712806
3785.297,1.7495384211286407,596.469433074787
3786.168,1.7446135693286517,669.648064657486
3787.041,1.739982993488205,638.3704117866297
3787.912,1.7361400676151844,641.2973002585164
3788.7856,1.7333063819748715,714.2578758998479
3789.6572,1.7314784214098256,601.0813735833917
3790.531,1.7303631070347378,612.4735837015097
3791.403,1.7294670313147218,671.8301371914968
3792.2754,1.7281372033188926,668.9318843591961
3793.15,1.7256477244897617,642.7219002503987
3794.0225,1.721429925520515,693.926604815638
3794.8972,1.7153566620798613,684.5906165242047
3795.7703,1.7080913936845508,602.7544704983919
3796.6455,1.7009385430775583,642.4626499716321
3797.519,1.6955095983084412,680.7433256515003
3798.3926,1.6929956847852503,674.1656101628395
3799.2686,1.6938779035322782,746.8731057110723
3800.1426,1.6980146462678736,713.6648233950898
3801.0188,1.7050561255208798,702.9390952867717
3801.8933,1.71459342091669,675.1375303073671
3802.77,1.7261369439047005,671.364142973885
3803.6448,1.7386665569917694,713.1077365967599
3804.522,1.750814736725939,588.9798807542737
3805.3972,1.7610214718764121,656.8022695955938
3806.2727,1.768327426962255,577.7836912650766
3807.1504,1.7726426795944874,654.512521428018
3808.0261,1.7747294719431312,614.5441597238315
3808.9043,1.7758950085946965,525.3644174841086
3809.7805,1.7774137072610143,625.5820058817837
3810.659,1.7800626017885435,637.7805328365629
3811.5356,1.7837887973271047,554.9049566079084
3812.4126,1.787814788798952,595.0407108045378
3813.2917,1.7910510524820622,642.1535379448976
3814.169,1.7926255696758915,642.3617664936694
3815.0483,1.7922840794017594,626.9355420722859
3815.926,1.7903255016925705,553.0537893528102
3816.806,1.7872444783133796,604.9108835213954
3817.684,1.7834191107245008,587.7617831418852
3818.5623,1.7790686464317547,643.2264471418403
3819.4429,1.7745535321374541,616.7297673465894
3820.3215,1.7705595157136231,667.1069655107003
3821.2024,1.767679580344675,620.1900917656699
3822.0815,1.7658869540757212,603.1628361585645
3822.963,1.7642400054895726,646.8510516351947
3823.8423,1.7613833594590804,596.9461943024295
3824.722,1.7563512465602387,645.972040090436
3825.604,1.749066480462806,603.2258707774499
3826.4841,1.7402247328192253,584.472568052855
3827.3665,1.7305357689082932,586.8297860517812
3828.2468,1.7203657743368497,618.2575133393916
3829.1296,1.7094385189993058,763.1131573246561
3830.0105,1.697260831278517,660.8685323144354
3830.8916,1.6833027569132264,701.0702805152168
3831.7751,1.6673924283602226,670.072273027258
3832.6565,1.6500581676080477,771.0495347413864
3833.5403,1.6323118109631651,761.0693033429968
3834.4224,1.6159788667696635,852.642352240942
3835.3064,1.603178484096203,665.8940363310948
3836.1887,1.59605168717526,776.498486318416
3837.0713,1.5958171000834573,900.0107043158821
3837.956,1.602392209813103,813.5427567728669
3838.839,1.6143830652675917,786.9952143680698
3839.7244,1.629915088257513,712.0677772479801
3840.6077,1.6472393187560872,721.0581567933385
3841.4932,1.6653644593903845,719.03534530555
3842.377,1.6835813684972651,664.6905433714848
3843.261,1.7014163792104902,663.1054006929667
3844.1472,1.718348035876446,592.2925896307219
3845.0315,1.7336827066997862,712.436212241494
3845.9182,1.7468703564226777,661.9128720641717
3846.803,1.7574318506811009,661.3911697631962
3847.69,1.7656318506386237,582.290873222197
3848.5752,1.7724866621760185,649.4567660056085
3849.4604,1.7794512688640143,606.9949045391637
3850.3481,1.7874360087069954,655.0123064404357
3851.234,1.7961328572883957,625.1003857691111
3852.122,1.8044571420699484,624.8809744028578
3853.0083,1.8113089606896404,579.1614476376824
3853.8967,1.8164587395418426,622.7492276568793
3854.7832,1.8204835225425158,547.088245960909
3855.6702,1.8244191018085771,598.9607379829467
3856.559,1.8291760117796645,586.2970928622153
3857.4463,1.8351069287130486,596.6148570334207
3858.336,1.8418756980169713,577.2442908347576
3859.2234,1.8484366232405594,492.7875807172229
3860.1135,1.8535963334535952,586.0731520235407
3861.0015,1.8564958173163109,524.5974315309234
3861.8896,1.8571401093883206,595.919371196814
3862.7803,1.8562841536459862,569.1067597920811
3863.6687,1.854969350247393,609.4688871941029
3864.5598,1.8538941474343091,572.8211775283595
3865.4487,1.8530907701628194,574.6650280472176
3866.34,1.851974029424941,582.6889176762039
3867.2297,1.8497150002604148,532.9158841486676
3868.1213,1.8456160560651564,651.3613207182663
3869.0112,1.8394602234975796,530.7274373589355
3869.9014,1.8315845819986292,664.4146233803134
3870.7937,1.8227636354152001,600.1085477769674
3871.684,1.8138966973812078,630.3773627400853
3872.577,1.8053955255170204,598.8127713780818
3873.4678,1.7971098396010954,610.5987099344826
3874.361,1.7883145421128832,604.7286543444225
3875.2524,1.7783209638273187,555.2879496265292
3876.1438,1.7667441093519651,626.3660723851682
3877.0376,1.7536688544021897,664.9852827263593
3877.9297,1.739567296021598,620.2019717437553
3878.8237,1.7247398785607828,717.6481941999814
3879.716,1.7093101645807371,598.5592876274433
3880.6108,1.692976549806069,767.1912887221733
3881.5037,1.6754539700167468,646.5545004824766
3882.3965,1.6563190229986964,651.6052219619181
3883.2917,1.6351077296068626,730.5067329556111
3884.185,1.611543256208283,751.3934387078208
3885.0808,1.5853227821621934,750.0152375664119
3885.9746,1.5568570302081681,732.593995831846
3886.8706,1.5270947943618935,787.7236787871335
3887.765,1.4983444333309137,826.9663707301436
3888.6592,1.473868866744046,964.1437536550147
3889.556,1.4575220338982635,964.317965101031
3890.4507,1.4525808544830172,1090.0292460339256
3891.348,1.4601305322410223,1054.856057732774
3892.243,1.4785661713197396,853.4886168768378
3893.1406,1.5044882720666952,858.7972008395242
3894.0361,1.5339276450345067,809.1840267611718
3894.932,1.564135964854101,749.2560755322252
3895.83,1.5937639550289153,691.0247516065161
3896.7263,1.6221519621107585,792.7636887585398
3897.625,1.6491397884811279,683.7333852493718
3898.5215,1.6741849773803132,658.718518696411
3899.4207,1.697042852678431,651.8517725311494
3900.3176,1.717479071352416,618.7964281137846
3901.2148,1.7357274439029353,632.3616447985671
3902.1145,1.7520240005428127,599.9879656271262
3903.0122,1.7663148044540267,601.6540161204006
3903.912,1.7786270706987342,583.2400756521196
3904.8103,1.7891200506997962,576.1218807083325
3905.7107,1.798444350529351,563.9021438267198
3906.6094,1.8072895916047786,607.0521438869234
3907.508,1.816106760158215,566.2393774552085
3908.409,1.8249159229214913,554.9560776545408
3909.308,1.833523101353475,651.8474810284264
3910.2097,1.8420162602015269,551.1721285263968
3911.1091,1.850619767305201,548.6449599579564
3912.011,1.8595147024689462,548.7652489654275
3912.9111,1.8683427849131558,588.9732739860505
3913.8113,1.8764282423771668,558.8576240890361
3914.7136,1.8831265360429876,587.6848184257856
3915.6143,1.8881152670552934,528.6956724264076
3916.517,1.891518804065899,535.6904538640596
3917.4182,1.8937192681060895,520.8857431545601
3918.3215,1.895404768859847,538.9156837700159
3919.223,1.8974655255227295,519.1504453181417
3920.1245,1.9006693565510335,569.6724569293947
3921.0286,1.9051284297480553,552.5147135349855
3921.9307,1.9100064261860095,516.9657140219435
3922.835,1.9139337929067535,455.34959415803934
3923.7373,1.915695781170067,519.9449821473519
3924.642,1.9149922608767007,503.894433868082
3925.5452,1.9126191151431955,486.4468311570859
3926.448,1.9100671722931066,541.4543640581003
3927.3535,1.9087280396654058,547.0600017778696
3928.257,1.9092222404099661,579.147707044028
3929.1628,1.9112345322169435,525.7126602089189
3930.0667,1.9139192550629252,490.0793655222404
3930.9731,1.9164551573274728,555.6983382199244
3931.8774,1.9182569758867323,473.132926150501
3932.782,1.9190490642460152,514.7232651959085
3933.6887,1.9188311416127695,519.2366678383343
3934.5938,1.917841412036257,525.2651474124517
3935.501,1.9163412397930089,524.5131815907247
3936.4062,1.9143653278241175,531.7138954160283
3937.3142,1.9116300605760423,510.68053574243254
