wavl,flux,ivar
3566.9744,1.626206948642054,403.91451305728623
3567.795,1.6264084673248975,365.18478711099453
3568.6177,1.6274689592095688,417.24098186877745
3569.4385,1.6290969197391234,375.1594595831109
3570.2617,1.630584724904222,452.47799870254175
3571.083,1.6310421502891144,378.4888897050944
3571.9065,1.6299952136548865,404.00494232552
3572.7283,1.6277684699816897,361.63860194956317
3573.55,1.6252664292610421,461.84391488914173
3574.374,1.6233301436980758,466.3345320830231
3575.1963,1.6222570780326244,427.9445510815951
3576.0208,1.621807232612975,348.27611136999485
3576.8435,1.6215965103117789,453.48803557096755
3577.6682,1.6213334352565574,368.63023474084
3578.4915,1.6208190749767755,387.46242926917375
3579.3145,1.6198703750621852,443.80369086568885
3580.14,1.618283268860675,430.13767921209916
3580.9636,1.6158480081541922,422.97392064758503
3581.7893,1.6124474241558995,376.7860878262067
3582.6133,1.6084047238028503,330.3226576474762
3583.4395,1.6045658875586897,455.056511073162
3584.264,1.6019674619551243,448.421108422852
3585.0884,1.601057098325438,495.41500184317846
3585.915,1.601405136593103,387.54296974894174
3586.74,1.6020847271937064,462.2593194040991
3587.5671,1.6024161219812871,411.0149702224763
3588.3923,1.602412379340228,374.5031025339411
3589.22,1.602631904751404,398.67781227576353
3590.0457,1.6035371939182126,430.9481142154683
3590.8716,1.6048570683258476,423.2304283683823
3591.6995,1.6055310865901005,424.0644689698663
3592.526,1.60443647974052,410.8132516556326
3593.3542,1.601363052013136,460.8621571440215
3594.181,1.597356106107787,503.2064136524664
3595.0098,1.5939927525767004,485.15216231645036
3595.8367,1.5923253082379907,354.07206849687475
3596.6638,1.5921754801976487,472.5766512630494
3597.4934,1.5924146510153507,434.8218133561714
3598.3208,1.5917654821190816,404.2077602262035
3599.1506,1.589536179829346,447.0367207971099
3599.9788,1.585856958108753,467.2506337546023
3600.8088,1.5813735117325631,430.635839261558
3601.6372,1.576880186925592,422.8808753649845
3602.4678,1.572913569648987,413.7887381575472
3603.2964,1.5696756415672248,472.340731543892
3604.1252,1.567024934629917,401.3068358747221
3604.9565,1.5647643740686958,397.8877006660563
3605.786,1.562935315942857,549.1302374646275
3606.6172,1.5619272423451442,506.6345235635846
3607.447,1.5624783312871087,358.072724871701
3608.2788,1.5654276262422968,417.9617193079262
3609.109,1.5711602340377513,379.77726948686467
3609.9392,1.57894831731377,485.56777554892125
3610.7717,1.5867176983929838,345.30854084794606
3611.6023,1.5917658095582417,412.9694760908298
3612.435,1.5922848667251202,480.11087728347064
3613.266,1.5881310776000255,467.7567543358863
3614.0994,1.580574823193545,497.5084696714875
3614.9307,1.5715733265722394,422.57777704269006
3615.7625,1.5630421598988529,560.332622796477
3616.5962,1.556538580985096,484.11822745226686
3617.4282,1.5528983811492367,532.2154421726892
3618.2625,1.5519484038445173,444.36116152562494
3619.0947,1.5528573526828062,464.69046794031556
3619.9292,1.5547546849918459,435.6112127212737
3620.762,1.5572009802153526,466.73443749718587
3621.595,1.5601585053615283,561.7895662691459
3622.4302,1.5635416637731927,460.606877626348
3623.2634,1.566819394899945,416.0035886727696
3624.0989,1.5691456900663616,369.8066961324937
3624.9326,1.5697962829293721,393.0940692119641
3625.7686,1.568698205691938,421.5517469508465
3626.6028,1.5664585952608827,456.8021126753873
3627.437,1.5639139863770573,372.1484018169388
3628.2734,1.561633710286496,383.3449288191511
3629.1082,1.5597956080105597,464.86490306342733
3629.945,1.5583593353968237,442.81512008730124
3630.78,1.557412073043638,431.23944155613214
3631.6174,1.5572991530282252,497.865093043328
3632.453,1.5584693102564127,624.9286723148376
3633.2883,1.5610193975718325,434.1995502752005
3634.1262,1.5643870109826437,486.0188093287007
3634.9622,1.5675071259079967,386.24134407810686
3635.8005,1.5694428316900162,418.127410289826
3636.637,1.5697114037066469,460.51910374541063
3637.4756,1.5682684442178785,385.13707399572456
3638.3123,1.5653248735746086,521.9138044925187
3639.1492,1.5613160232068186,521.3376157152364
3639.9885,1.556906657058945,477.37504182417166
3640.826,1.5528261520700064,431.1814814473031
3641.6653,1.549485730870369,426.59681212493797
3642.5032,1.5469666538347775,443.3209909958648
3643.343,1.5451335797777008,490.7341549546728
3644.1812,1.543824129066392,535.2040724041447
3645.0195,1.5428262430971575,418.90482158232265
3645.86,1.541952579590178,428.4253239817793
3646.699,1.541202208817499,418.45506828230987
3647.5398,1.5407017522006847,488.66068681059534
3648.379,1.5403187682880168,444.7376609236283
3649.2202,1.5393089658407486,403.7310971843279
3650.0596,1.5365267382245258,383.4296116778838
3650.8994,1.5310114529980694,447.0474666015014
3651.7412,1.522462153237849,500.4877424874528
3652.5813,1.511519030388083,448.8323587663961
3653.4236,1.499778919081199,512.7215090912147
3654.2642,1.4899968248696365,550.9736268826272
3655.1067,1.485158245540225,1597.2270983535614
3655.9475,1.4870530330697929,412.2324884039917
3656.7886,1.4949241149230899,461.37780908270463
3657.6318,1.5058418351914151,474.3184473404377
3658.4734,1.5162475661874621,479.0973910064948
3659.317,1.5238171109570762,436.69787841832584
3660.1587,1.5279940825260898,438.6733620252478
3661.003,1.5297986916081259,466.3713884791264
3661.845,1.53087261841805,433.7514451661546
3662.6875,1.5325196603303386,438.5815350280446
3663.532,1.5349952768096935,462.5601444358659
3664.3748,1.5375126004587314,410.75891963319407
3665.2197,1.5389991310170188,493.61205481272174
3666.063,1.5389047213396811,489.0278077641922
3666.9084,1.5375167159557526,462.43869708670695
3667.752,1.5355571058106203,432.19810654707055
3668.5977,1.533531164249094,456.1753441024405
3669.4417,1.5314710427875087,465.2880091153355
3670.286,1.5290950395844567,411.2066438502394
3671.132,1.526202837984998,493.2368228887254
3671.9768,1.5229387594489625,510.30851876514134
3672.8235,1.519746011648605,468.74606180016013
3673.6685,1.5172330971086814,481.88203001816436
3674.5156,1.5158638554454038,458.2466307193716
3675.3608,1.515774636722267,448.28450393483723
3676.2063,1.5167179768077086,427.43142208223674
3677.0542,1.5182874012286594,554.4372295726308
3677.9,1.520121243294973,455.0608874693495
3678.748,1.521946381115263,462.5794511486011
3679.5945,1.5233703290137945,461.81957193224474
3680.4429,1.5237787287295192,555.9741521071305
3681.2896,1.522344354930168,469.4251842975359
3682.1365,1.5182802045345118,374.60740060506845
3682.9856,1.5113323245197017,524.4807866678586
3683.8328,1.5024360393351701,522.5324692985231
3684.6824,1.4936030619238494,521.2774378029469
3685.53,1.4871418469700024,533.955131734539
3686.38,1.484174606960578,538.6737616416797
3687.2278,1.4841842686881177,514.7374242746652
3688.0762,1.4856150719847607,441.98650283172213
3688.9265,1.4871175088013966,430.1668432328603
3689.7751,1.4881982457443932,524.4661645134436
3690.626,1.4890094681231283,475.5656875734151
3691.475,1.4897117394171093,427.1234349779976
3692.3264,1.4902017855640675,478.140465648558
3693.1758,1.4903162022292238,488.4474270175829
3694.0254,1.490169506578518,579.8728635759039
3694.8772,1.4901617214776017,424.0052945644491
3695.7273,1.4906612322342667,539.4714496653588
3696.5793,1.4917027216368524,483.5413179437996
3697.43,1.4929849008700544,471.4830740263748
3698.2825,1.4941457505895301,514.8023574046658
3699.1333,1.494985675293973,472.75244455363867
3699.9841,1.4955132962598836,518.3419720279537
3700.8374,1.4957743422016458,499.93974565517
3701.6887,1.495690601351094,520.0675599130165
3702.5425,1.495129196240043,469.4382882680172
3703.3943,1.4941996535139814,526.3576365823329
3704.2483,1.4933984333835468,470.7483465615902
3705.1003,1.493322087004674,550.635012875168
3705.9526,1.4941527035644948,606.8343429802103
3706.8074,1.4955041786271808,422.68423202524866
3707.66,1.4966448326403692,485.4094475763731
3708.515,1.4967989897555771,523.7975879343068
3709.3682,1.4952987536984408,475.4822362911484
3710.2234,1.4918594830779581,434.8151886653131
3711.0771,1.48701473313226,473.5228193242579
3711.9307,1.4822187334976904,559.127623820304
3712.7866,1.4793352244090279,564.9978738783196
3713.6409,1.4795735673539772,552.849071733448
3714.4973,1.482476764864709,438.97286208392745
3715.3518,1.4859582189573206,391.3257562668888
3716.2085,1.4875975728716488,494.7278315306127
3717.0635,1.4861963199867694,461.33970910231494
3717.9185,1.4825137951517564,530.2294838067963
3718.776,1.4786149454626472,546.8046015564739
3719.6313,1.476589588918175,577.7769444780291
3720.489,1.477380292755153,473.32270576580777
3721.345,1.4804699677049447,484.38330389669375
3722.2031,1.4842876540424472,501.7423133205235
3723.0593,1.4869201925902622,375.76685468506844
3723.9158,1.4869007922997532,449.1927380983459
3724.7747,1.483665695750761,488.0587560770777
3725.6316,1.4777958355033645,483.3750422778502
3726.4905,1.4706939452742502,582.3862862048084
3727.348,1.4640015182134027,513.2617491874715
3728.2073,1.458811773651377,558.2797973393759
3729.065,1.4555351456204222,490.57154070801084
3729.9229,1.454088646068755,550.5026264788155
3730.783,1.454291922953434,504.02579524592284
3731.6414,1.4558875071227166,551.3501981744072
3732.5017,1.4583376242806634,479.78195666872335
3733.3604,1.4606771571377517,459.56860063597577
3734.2214,1.46178549964541,558.5698010347472
3735.0803,1.4609369045490186,479.5522074049569
3735.9417,1.4583621676498668,553.7194236019837
3736.8013,1.4552579340931073,522.5236766242782
3737.661,1.4530301939584107,541.6259630244812
3738.5227,1.452363367136772,506.79556036443495
3739.3828,1.452801434034355,515.1117896516103
3740.245,1.4531742907676255,491.7822454285341
3741.1055,1.4525306007396623,510.25614253820225
3741.9683,1.450888236549203,501.4107537600518
3742.829,1.4492965224280625,583.8786891147347
3743.69,1.4490518772057164,540.8160872313197
3744.5532,1.4506247094840998,498.8352756055544
3745.4148,1.4530552205339045,492.00258138822
3746.2786,1.454481404113709,474.9376418259451
3747.1404,1.4534099045746334,406.859236890885
3748.0044,1.4498135763702604,544.9272845422732
3748.8667,1.4451643218779018,540.2613850869157
3749.729,1.4413465401786278,582.1918298982343
3750.5938,1.439466726447778,569.8635861220981
3751.4565,1.439473607128131,535.4206908288702
3752.3215,1.440763594427159,488.05520173284043
3753.1848,1.4430782440158274,486.59936580672576
3754.0503,1.4467353092846924,499.8576263647454
3754.9138,1.4519782114931274,531.24467807713
3755.7776,1.4583268278097952,429.05423197486056
3756.6438,1.4644866206135487,568.2651810188769
3757.508,1.468892540958632,550.4783081877881
3758.3745,1.4705382084146663,552.6534992344015
3759.239,1.4692559936050782,441.96765012841934
3760.106,1.4656597825145614,561.1689098031261
3760.971,1.4608548190677295,531.2044953937511
3761.8362,1.4560266256286978,431.1358231801598
3762.7036,1.4521017023805443,560.965963515589
3763.5693,1.4494667334176223,489.9961472506366
3764.437,1.4478310665513952,552.2325436096875
3765.3032,1.4465372823297546,532.0303507444758
3766.1714,1.4449928043416271,510.78087249360647
3767.0378,1.4430164535921524,499.38378555656357
3767.9043,1.440759261185053,515.2458216642106
3768.7732,1.4383784884408302,581.7742654507618
3769.6401,1.43580398563576,558.5001458520028
3770.5095,1.432777637760795,546.7839797228503
3771.377,1.4292513921256387,495.76936925720776
3772.2466,1.4255682388548878,535.2380731858564
3773.1145,1.4224211315552417,636.5842761056878
3773.9824,1.4204784061401303,473.05668115612804
3774.8528,1.4201850712482504,613.4325230169153
3775.721,1.4216853916504264,498.27834379603974
3776.5918,1.4247868826815975,608.8554515544064
3777.4604,1.428874747255426,668.8799816922697
3778.3315,1.4330841919167343,491.2391388251079
3779.201,1.4366064805929606,475.8072350554337
3780.0703,1.43916538245472,523.510016106655
3780.942,1.4410235057728131,562.6284749477536
3781.8118,1.442562154360334,496.8567414740828
3782.6838,1.4438146371491467,551.7643675411631
3783.554,1.4443482778441123,504.27781412896195
3784.4265,1.4437011283199122,483.87668129086984
3785.297,1.4418641878354073,488.1920808153587
3786.168,1.4392827714468253,518.7569836449045
3787.041,1.4363455527160365,457.9885965223254
3787.912,1.4329543439119306,578.0064605932063
3788.7856,1.4285935472287148,549.142487425946
3789.6572,1.4230113189409306,549.9689096085184
3790.531,1.4166002859454705,579.2391940374191
3791.403,1.4103279010018768,471.45104364331803
3792.2754,1.4049709434309747,530.622258063784
3793.15,1.400645015497422,497.0935698040009
3794.0225,1.396921912165769,479.0374648150346
3794.8972,1.393300563546054,580.292396580128
3795.7703,1.38970982189949,570.7051519562523
3796.6455,1.3864227050010918,568.2301113938387
3797.519,1.3837766717247026,621.3611317378604
3798.3926,1.3818245526043598,548.7562520785019
3799.2686,1.3803791222782706,508.59484571737886
3800.1426,1.3793279072567366,539.1291042709408
3801.0188,1.3789119066763513,594.6657244194106
3801.8933,1.3797292372259036,637.3081006301522
3802.77,1.3823714433095915,539.5057658296457
3803.6448,1.386989013360432,564.6679059366095
3804.522,1.3932366281757185,525.390658018612
3805.3972,1.4004544699185437,556.3455516366544
3806.2727,1.4081380864479014,559.9180261822835
3807.1504,1.416030521800089,492.8064896627354
3808.0261,1.4239059226334692,542.991647358819
3808.9043,1.4314801098638774,506.51671363785385
3809.7805,1.4382280036801582,494.595017197011
3810.659,1.4437364650265323,503.92379768363145
3811.5356,1.4478561198558744,478.3087982265046
3812.4126,1.450905995026121,525.2316597264296
3813.2917,1.453454379561845,491.48930968093015
3814.169,1.4559446964125264,531.7117538010164
3815.0483,1.4584059903067992,495.5080480325737
3815.926,1.4603253726137775,466.1357548002175
3816.806,1.4609141877613292,510.1903402881843
3817.684,1.4594930522390188,471.7870432556926
3818.5623,1.4558814693147535,404.5208483413425
3819.4429,1.4505085308300987,580.5118805689912
3820.3215,1.4443049016869318,521.9996664445606
3821.2024,1.4381998149441617,544.4137681289371
3822.0815,1.4328118771893636,620.4631390585577
3822.963,1.4281608052309807,524.3549781212871
3823.8423,1.4238706790123856,558.2684237310671
3824.722,1.419313177553856,531.6865817402075
3825.604,1.4137660400761136,538.4757585230234
3826.4841,1.4065050640189463,566.8176217562655
3827.3665,1.3968579570806008,621.6821817379223
3828.2468,1.3846921777137757,544.1971289114923
3829.1296,1.3705118061067,528.7536431179323
3830.0105,1.3555556169025211,541.1163689074964
3830.8916,1.3409445162040332,684.4600474869177
3831.7751,1.3271385309456916,676.7334416589913
3832.6565,1.313972832301459,645.1870739802556
3833.5403,1.301061656593189,617.8316871991462
3834.4224,1.2888864410906458,679.8030544121779
3835.3064,1.2787897073267385,684.8583223665537
3836.1887,1.272606342589714,802.9273364075376
3837.0713,1.2715956848983834,834.9891499948434
3837.956,1.2759332722578485,753.3732601229191
3838.839,1.2846231339275236,824.8178657792864
3839.7244,1.2961148629047756,668.499263668283
3840.6077,1.3089357710295306,614.0844611188073
3841.4932,1.3225297807937557,674.687429179564
3842.377,1.3371538480617227,566.0658635865865
3843.261,1.3535482961802072,555.0911701183746
3844.1472,1.3719784797442987,547.040356457758
3845.0315,1.3915218688282576,607.8740215105004
3845.9182,1.4105916827379432,550.5460343183278
3846.803,1.427392688122413,531.2414880013697
3847.69,1.4410596179560506,548.4912083881693
3848.5752,1.451603671526149,568.5699717983588
3849.4604,1.4598842121960118,549.1023324685323
3850.3481,1.4670168116538267,517.2925844104882
3851.234,1.47387580550331,526.9567643645073
3852.122,1.4809931515571022,520.8326659013215
3853.0083,1.4884971597546537,505.42730798250835
3853.8967,1.4964651382591254,481.29382137683353
3854.7832,1.504835039326413,524.8332034660938
3855.6702,1.513397507844352,457.7655823509075
3856.559,1.5216539874520636,456.8359646179267
3857.4463,1.5289473706188794,445.12283071259975
3858.336,1.534840442759574,527.8342898014299
3859.2234,1.5390962550471263,461.23549544496785
3860.1135,1.5417045530930524,451.12711429047107
3861.0015,1.5426443689450748,444.0639099991565
3861.8896,1.5418690704918703,491.85307366605707
3862.7803,1.5392922865645877,479.25957652144933
3863.6687,1.5349183211066686,512.4801204530283
3864.5598,1.5288644667235,404.5304648036006
3865.4487,1.5214940877176613,475.7338874898743
3866.34,1.513272666915602,455.63855449035543
3867.2297,1.5047990124793735,492.8790192466415
3868.1213,1.4964462167856318,491.5090286747188
3869.0112,1.4883243780797146,494.08905873413465
3869.9014,1.480190698912537,544.2644090358444
3870.7937,1.4717082294433124,478.68328319303896
3871.684,1.462665764762439,470.203674974543
3872.577,1.4528059814592593,602.785184940113
3873.4678,1.4418795171344232,523.7351503270045
3874.361,1.429433837961053,518.0156546983444
3875.2524,1.4152273417138461,512.7285651242074
3876.1438,1.399300752499993,539.930703590354
3877.0376,1.382125166011447,544.4580808635752
3877.9297,1.3645251371863554,675.851033443042
3878.8237,1.3470389748561602,577.1872456283991
3879.716,1.3299998572985037,640.3650620592222
3880.6108,1.3132344838539687,622.001222900655
3881.5037,1.2964037041372913,645.9383411669835
3882.3965,1.2787368838380069,616.4933671285037
3883.2917,1.2592760764300843,702.0576516728081
3884.185,1.2374088935185985,714.3830335963131
3885.0808,1.212968627705524,647.9793878114136
3885.9746,1.1869530144903357,718.341753355059
3886.8706,1.1610262029859884,796.9658925875951
3887.765,1.1376393935041729,744.6613603907645
3888.6592,1.1191250496639338,1059.5750503376853
3889.556,1.107373372386873,965.7623835099697
3890.4507,1.1034938918844135,1044.35440427844
3891.348,1.1074990634838013,846.3411428499485
3892.243,1.1185282606688645,945.019000287122
3893.1406,1.135313530788564,832.6728931788617
3894.0361,1.1563522410863567,680.2851448195134
3894.932,1.1803874593847,840.4210957176667
3895.83,1.2062777281576906,736.4730208552263
3896.7263,1.2327160459547684,773.2933700366127
3897.625,1.2587625038635784,688.9657045579778
3898.5215,1.2835253012896797,592.098912700843
3899.4207,1.3067837075860331,651.2150698493216
3900.3176,1.328350296965353,650.4870456665587
3901.2148,1.3483069128199685,461.72232660156936
3902.1145,1.3666631382520498,540.8300291560454
3903.0122,1.383338335220465,574.3706722004782
3903.912,1.3987254855730311,484.5249687223358
3904.8103,1.4135611206747045,580.4598072375569
3905.7107,1.4290319386988692,527.8801369693872
3906.6094,1.4459823983570457,554.222045380971
3907.508,1.4646433959975544,557.6539884756885
3908.409,1.4844662789779877,438.5507518209008
3909.308,1.5042993398863282,478.3054859021667
3910.2097,1.5231703740378901,427.6757145823552
3911.1091,1.5402603995938213,404.16230850299223
3912.011,1.5553670727180804,458.1197969748433
3912.9111,1.5684656378210118,421.9893146646048
3913.8113,1.5798018342983347,438.65643944148513
3914.7136,1.589661612035551,392.23349371553815
3915.6143,1.598281887429015,488.34123026923237
3916.517,1.6060105989942415,397.12387485370925
3917.4182,1.6131941463420043,417.8109752248659
3918.3215,1.6204110357901296,408.7498519284435
3919.223,1.62839906894806,409.81617868109106
3920.1245,1.637944846285005,399.5222745323247
3921.0286,1.6492684259872699,403.8176351870668
3921.9307,1.66140652920403,424.96288449906166
3922.835,1.672579661856659,368.6291037966675
3923.7373,1.6810003186479678,362.66921781396707
3924.642,1.6862112724763616,387.50337578586635
3925.5452,1.68918414781503,377.51948076726177
3926.448,1.6914337664700403,405.8030795928714
3927.3535,1.6936016565850265,379.9523138965393
3928.257,1.6949867631736726,358.59972936888624
3929.1628,1.69442728496488,374.94233544498223
3930.0667,1.6914921174710276,417.17436907995057
3930.9731,1.6868489503207036,380.51568829738596
3931.8774,1.6817108993629433,382.1512509419527
3932.782,1.6768836455283858,359.4638095111892
3933.6887,1.6723696609442875,362.3217420202118
3934.5938,1.6676022644397699,401.61554120682774
3935.501,1.661985391394499,369.93729507243404
3936.4062,1.6554926860814796,443.45800897496616
