wavl,flux,ivar
3566.9744,2.1855310665349235,4.0743267438441775
3567.795,2.1981487828976602,6.095097396209853
3568.6177,2.194618253173548,5.021943782993103
3569.4385,2.1803255471120173,15.747089718232743
3570.2617,2.164094684047437,6.93755290812879
3571.083,2.15421285365036,6.157600959175521
3571.9065,2.155011614686181,11.187376864479406
3572.7283,2.1656197105890977,7.447582558871073
3573.55,2.180402021297918,7.378627062165026
3574.374,2.19129142515023,7.9646562030586825
3575.1963,2.190856606910519,12.940866448223156
3576.0208,2.174981639322657,13.07540843881912
3576.8435,2.144204855573087,12.465455840608392
3577.6682,2.1038884071125117,4.6994046153138065
3578.4915,2.0640421870793677,6.8700107419378345
3579.3145,2.035774220754361,11.142140020351835
3580.14,2.026444239992314,3.691057775752463
3580.9636,2.035728750045418,11.040168595731444
3581.7893,2.0561784379880015,5.32153866281207
3582.6133,2.078516115833996,4.675512764376122
3583.4395,2.0977265805876484,10.637251121770479
3584.264,2.114258038325636,14.491981753482442
3585.0884,2.1308028925640063,7.5826863681652785
3585.915,2.1471810066165498,6.009123705228056
3586.74,2.1585621725612434,5.165771828092099
3587.5671,2.1590441810039267,8.264367048454405
3588.3923,2.146861288946258,6.108372111000642
3589.22,2.1266821608392066,7.76452307956426
3590.0457,2.1067631548705146,4.530546019180131
3590.8716,2.0929084570752683,5.396758453490537
3591.6995,2.085324189429504,9.382224696255944
3592.526,2.080077441148151,5.953987222484086
3593.3542,2.0733150994524636,5.731570645352224
3594.181,2.0645819345524496,5.657527209542787
3595.0098,2.056516386053369,3.517573653496355
3595.8367,2.052416533877085,10.122103035667438
3596.6638,2.0536701710062086,62.68607378419718
3597.4934,2.0591462662840074,5.950261728679983
3598.3208,2.0658261534644806,7.189000398707082
3599.1506,2.0700152666244884,10.678883135190182
3599.9788,2.0680558312250166,6.755295019370882
3600.8088,2.056989956419201,4.546891385599496
3601.6372,2.0354000621483657,3.8861484012977656
3602.4678,2.0042767604552547,3.610250471559802
3603.2964,1.968332175049908,4.799628477993894
3604.1252,1.9352933307573263,15.355266814596886
3604.9565,1.9142418493655864,6.397078480092067
3605.786,1.9123853088464766,8.706557321209889
3606.6172,1.9312604953465284,8.337972335162599
3607.447,1.965224175171358,10.73236001128358
3608.2788,2.0038373376172705,5.381201639060125
3609.109,2.036645417616776,10.098862642126086
3609.9392,2.058600593988618,7.761346468059527
3610.7717,2.0707384818671213,6.053223868015672
3611.6023,2.077154703258812,5.383182893939878
3612.435,2.0809264703046417,18.20508142845551
3613.266,2.0819435406593136,15.425961653323832
3614.0994,2.0783930500640375,5.758259853234698
3614.9307,2.0693397513166865,12.334368564357893
3615.7625,2.0554021371644113,4.53038568196584
3616.5962,2.037673781532763,7.273519033424633
3617.4282,2.017576928832216,6.693479718731368
3618.2625,1.9979051782664154,7.890113949055886
3619.0947,1.983800279464178,13.530437017807312
3619.9292,1.9802684356177784,7.956650327414915
3620.762,1.9887397895477268,11.769513061371795
3621.595,2.0051657129431444,6.411778421436897
3622.4302,2.022198813596914,9.36665816982374
3623.2634,2.0335040706528233,4.992684548221384
3624.0989,2.0372756651196227,9.989133085214377
3624.9326,2.0354762110262294,6.344295871973573
3625.7686,2.0304702629962272,8.70154752888895
3626.6028,2.022078042014294,5.484114062333192
3627.437,2.007723698096352,6.8155598464789025
3628.2734,1.9853988175289816,7.100371428417832
3629.1082,1.956924038510845,4.5090296318630845
3629.945,1.9278519281346456,9.010000277736946
3630.78,1.9048930430423436,6.634982202622352
3631.6174,1.8912202555404924,10.324345693396175
3632.453,1.884940983454793,7.2082169308600585
3633.2883,1.8808274535722176,12.651048878275684
3634.1262,1.8748604816576153,8.374332199896967
3634.9622,1.867184590724435,9.934398395910112
3635.8005,1.8607147296371658,7.389967941727302
3636.637,1.8571212588112054,11.909847266928749
3637.4756,1.8541953981185466,7.410695647413008
3638.3123,1.8478441964402283,14.771682263166934
3639.1492,1.8362711751810872,17.344854134650955
3639.9885,1.8222539696594398,9.041451893710212
3640.826,1.8116766813868501,12.604188850143904
3641.6653,1.8092486654709266,11.642408172447972
3642.5032,1.8152478551797335,12.334972476147788
3643.343,1.8252004785996763,15.230681816607467
3644.1812,1.8330357758427596,9.640145079757435
3645.0195,1.835482007385818,7.127224201542113
3645.86,1.8336802362346731,8.135270026932709
3646.699,1.8309882260375703,17.844871638901676
3647.5398,1.8290858463469561,4.90594858113447
3648.379,1.826467541902166,16.048609183369244
3649.2202,1.8204212206321981,8.437155126319277
3650.0596,1.8099856388141367,13.86452566164205
3650.8994,1.7964407884712954,7.612229264484974
3651.7412,1.7818103143478707,11.005348784768369
3652.5813,1.7678733888864178,9.953599198277296
3653.4236,1.756486216251867,5.310139203749099
3654.2642,1.7504436152542384,10.632473983305438
3655.1067,1.752213547826241,6.371539682567451
3655.9475,1.7619910048042804,399.4266795850009
3656.7886,1.7771913923293503,6.678535082309333
3657.6318,1.7941989431519139,15.418803342206223
3658.4734,1.809874684086852,14.236983976877076
3659.317,1.8217273530661677,29.322979941204476
3660.1587,1.8273239937838128,4.2210101529812905
3661.003,1.825757269866717,17.21312369598414
3661.845,1.8189101713759668,8.935911773500097
3662.6875,1.810136608134044,16.417793609161144
3663.532,1.8013055891362335,12.158653686283593
3664.3748,1.792157398478722,11.199012363366732
3665.2197,1.7826611053173864,13.10377049550688
3666.063,1.7751135888807048,21.522855990754927
3666.9084,1.772050017125625,69.51858615257797
3667.752,1.772670191208761,5.478424150668743
3668.5977,1.7722948063810877,12.61076810589838
3669.4417,1.766264502611188,9.524857771409936
3670.286,1.7540807667520808,5.297654424942253
3671.132,1.739833894658548,10.285953721860716
3671.9768,1.7293423195869582,8.299555064507691
3672.8235,1.726267607514276,7.888306237585808
3673.6685,1.7301018058317292,26.202290705611645
3674.5156,1.7366996040378235,10.417394269137818
3675.3608,1.7415740867213938,9.755133491982376
3676.2063,1.743829856364586,7.559136678033605
3677.0542,1.7467958866487605,7.720071482873528
3677.9,1.7543948837182988,14.399472491715901
3678.748,1.7666801829026493,9.947085195431026
3679.5945,1.7787678327333134,11.306040971376834
3680.4429,1.78443054430639,8.915145902052512
3681.2896,1.7802397145066327,15.235433902947038
3682.1365,1.767520731858993,8.429280924289797
3682.9856,1.7512239835843395,11.663200700300058
3683.8328,1.7374910541326514,10.62422971065295
3684.6824,1.7304405061930708,6.254919478657521
3685.53,1.7303174421443333,10.296014345160705
3686.38,1.7333840587956701,18.78009048407599
3687.2278,1.7343828631477383,9.187862335844352
3688.0762,1.7298578939880485,7.55426669365107
3688.9265,1.7198610736005207,9.360462109191706
3689.7751,1.7071718512973555,14.578126354358808
3690.626,1.6948667804252568,4.838276676854795
3691.475,1.685011603387989,5.183026823342426
3692.3264,1.6783106222572073,13.295985380612164
3693.1758,1.6747352011218117,11.253273440823083
3694.0254,1.6740544789482419,5.807139079367853
3694.8772,1.6766674566770807,8.653998497133328
3695.7273,1.6836151197011224,6.312663763162535
3696.5793,1.6953752361730412,11.286654535709626
3697.43,1.7100279818065156,14.96691384922844
3698.2825,1.7231443747884974,11.574009052745188
3699.1333,1.7297034772736881,10.579850753772442
3699.9841,1.7276177317804686,6.863526090821436
3700.8374,1.71940939944116,9.41646481473747
3701.6887,1.710679536421478,14.936035847952224
3702.5425,1.705768797481753,7.668095031227992
3703.3943,1.704646509152926,11.151403453268278
3704.2483,1.7031611973602263,13.939211465735708
3705.1003,1.6963570996842279,12.147484635378504
3705.9526,1.681919835980999,9.873210676687673
3706.8074,1.6618221168245926,7.957549083394098
3707.66,1.6417771047516008,16.98495167996431
3708.515,1.6277131080635885,9.313173063122674
3709.3682,1.6222300285149516,35.723086274646356
3710.2234,1.6227781693645407,11.952897331983772
3711.0771,1.6243415753251924,7.278161829368909
3711.9307,1.6238542036123584,18.063911940990355
3712.7866,1.6223519950003675,18.369743008801123
3713.6409,1.6233896140422286,14.464997745822398
3714.4973,1.629800787859265,9.091028484229923
3715.3518,1.6414497138203001,48.85857745022109
3716.2085,1.6552135611245582,14.888246585953931
3717.0635,1.6665035180772854,10.326485375029012
3717.9185,1.6720784099499724,8.837190203343251
3718.776,1.6718146639958391,17.0094505783087
3719.6313,1.6687148428553997,6.883797926134844
3720.489,1.6670972708091947,9.328809108185142
3721.345,1.670155193646717,9.04924009062879
3722.2031,1.6780548820611285,14.995757662249334
3723.0593,1.6875213091297805,13.271713120348863
3723.9158,1.693577176072359,9.366124527947909
3724.7747,1.6922911417681157,7.134754530331163
3725.6316,1.683220021734604,8.298614254262432
3726.4905,1.6697952141984909,13.4632656266579
3727.348,1.6573759386759392,9.304721643770101
3728.2073,1.6495246598147526,21.797390024210035
3729.065,1.6456189398215288,29.63248341234686
3729.9229,1.6416534620707661,9.285443763621066
3730.783,1.63432490711595,12.171025719007618
3731.6414,1.6244964109123674,14.616542202926215
3732.5017,1.6163636562317019,17.698663634566465
3733.3604,1.6134909182237753,8.809783608221895
3734.2214,1.6154888909572822,11.54671082768665
3735.0803,1.6186752408309055,5.973885787953934
3735.9417,1.619324104495151,13.415666106091438
3736.8013,1.6161101529903412,12.433954659293988
3737.661,1.6099707842290585,10.028856957340372
3738.5227,1.602338407182291,10.909685754213076
3739.3828,1.5941993104551535,29.927103382184058
3740.245,1.5865038066891612,10.271579753585149
3741.1055,1.5810974004092275,5.399072910410584
3741.9683,1.5799656200244268,19.89643981232838
3742.829,1.5833336532329518,43.04285439731045
3743.69,1.5881333538614568,20.856918286076144
3744.5532,1.5888481464010002,15.919751681639926
3745.4148,1.5806010314725167,13.4681714353054
3746.2786,1.5623505778629823,12.46804823319186
3747.1404,1.5378935536215559,18.27969259151233
3748.0044,1.5135529212356102,15.399154872845653
3748.8667,1.4954896759165472,12.700468566565526
3749.729,1.486908013904377,17.200656374342383
3750.5938,1.4872732816457863,22.939192053739397
3751.4565,1.492928182659017,11.339895566686472
3752.3215,1.4995034699745644,11.77447916398364
3753.1848,1.5047137411976073,9.0309829615414
3754.0503,1.5096799120622886,31.214980184084258
3754.9138,1.517343816780027,10.251535188261007
3755.7776,1.5294016533699095,9.010205468854686
3756.6438,1.5438919535912297,16.888745932300942
3757.508,1.5554392007408595,11.382040027638764
3758.3745,1.5588703104809105,10.146985379842858
3759.239,1.5530871618021083,11.689955201800576
3760.106,1.5424223073685615,10.362531560873764
3760.971,1.5338784882993175,10.316067904315222
3761.8362,1.532279604911913,21.6867077392191
3762.7036,1.537741408797908,9.478617747724401
3763.5693,1.5466792662171218,37.8393449677379
3764.437,1.5550655865630294,14.470376947079245
3765.3032,1.5606196177049638,21.298931174430596
3766.1714,1.5631055661310151,9.801817527182394
3767.0378,1.5631507221671268,8.884844153803993
3767.9043,1.561228661985764,14.135543191407542
3768.7732,1.5572694337377007,19.7632543738805
3769.6401,1.5511590466254555,9.438022459973764
3770.5095,1.5434202094007603,11.54563429302563
3771.377,1.535424535762945,21.304438596413465
3772.2466,1.5281398487871765,8.25942882050656
3773.1145,1.5208863964491772,18.391752308173395
3773.9824,1.5112793297156188,32.391659402634076
3774.8528,1.497136662014559,8.480527202087504
3775.721,1.478661635957834,22.10241066255615
3776.5918,1.4584316469833696,21.970510609393266
3777.4604,1.4403708629094767,40.959812196257296
3778.3315,1.4276962744584085,16.585768369006768
3779.201,1.4220928916377507,13.892329229046098
3780.0703,1.4226539557816678,14.416935129741082
3780.942,1.4261907970181338,8.221499551919301
3781.8118,1.4292067957505483,16.283682270180314
3782.6838,1.430806949617637,10.555212521648357
3783.554,1.4334222062986104,21.708157237373417
3784.4265,1.4402880681494856,12.826727748536022
3785.297,1.4518111591865137,21.584005731135406
3786.168,1.464621793876566,11.916977947992496
3787.041,1.473796169992651,21.000815234626845
3787.912,1.4761099943062248,13.221701015582486
3788.7856,1.4718925975600146,19.84848549214785
3789.6572,1.464372032932784,21.028940526562987
3790.531,1.4576035572361168,15.369768449627355
3791.403,1.4544463293733751,14.712389635987526
3792.2754,1.4552711586036475,10.43973271148392
3793.15,1.4583293811724245,13.702415406022467
3794.0225,1.4611688315105995,15.610100228728328
3794.8972,1.462260687083765,18.429827483734805
3795.7703,1.4616160698356726,18.05778097340354
3796.6455,1.4603931068085225,13.171834252709717
3797.519,1.4600552745939341,13.764562994719608
3798.3926,1.4617045910020872,13.688154903266716
3799.2686,1.4656763483504163,10.025487062304448
3800.1426,1.4710912324231245,24.014357424519986
3801.0188,1.4758604987338595,11.807536006725238
3801.8933,1.477393272411816,12.47106383517058
3802.77,1.473992974183606,10.754229714912505
3803.6448,1.4655441207784907,15.104136107307536
3804.522,1.452927049028989,58.441476364670805
3805.3972,1.437451092913508,9.04118341335977
3806.2727,1.4208705292844532,22.274423788008374
3807.1504,1.4060271841645773,17.3017821262208
3808.0261,1.3961943403174626,16.594641920688478
3808.9043,1.3927008241523482,14.118732938355695
3809.7805,1.393671355707006,16.02029679483619
3810.659,1.3951283434672974,16.090542462220455
3811.5356,1.3941605699099684,18.374202320491037
3812.4126,1.3912683249990556,27.89004402066663
3813.2917,1.3897180713559774,18.98631969041974
3814.169,1.392568444861599,17.61420193492088
3815.0483,1.400110736491104,27.65886535881357
3815.926,1.4098861856864486,7.953822513319401
3816.806,1.418957538768855,12.50182899008854
3817.684,1.4257288304146118,13.418212805583712
3818.5623,1.4303819511839846,17.505455734241185
3819.4429,1.4338105639874574,8.78930641119646
3820.3215,1.4364734995834818,15.862855630475812
3821.2024,1.437828480801987,18.559810458389666
3822.0815,1.4362843410904953,16.058820585157267
3822.963,1.429896315085986,16.854494541775153
3823.8423,1.4178154878329574,22.67215591885425
3824.722,1.401668223704235,9.49932186554181
3825.604,1.3857320502820525,21.590598832291697
3826.4841,1.3751166339274234,10.933740506033512
3827.3665,1.372565293715131,14.724332484121962
3828.2468,1.3771644197556634,17.778673905945706
3829.1296,1.385414210485583,26.62521667053987
3830.0105,1.3933753276419312,20.210516479606643
3830.8916,1.3980216924306004,17.71109198242953
3831.7751,1.39734855111571,17.03402422710768
3832.6565,1.3908931574554808,14.303304829286425
3833.5403,1.3805969749045004,21.612755156550286
3834.4224,1.3707391638683701,36.46987071551189
3835.3064,1.3656954366723362,18.899491730163817
3836.1887,1.3674156792660768,17.70275491186287
3837.0713,1.3742603024692346,29.277167733198826
3837.956,1.3821215172528656,15.77046960857375
3838.839,1.386332860649146,15.756453930322273
3839.7244,1.3835387796680425,20.662812470802983
3840.6077,1.3729389677816741,14.023151278422088
3841.4932,1.3570728027710033,19.712237987647878
3842.377,1.3418457447701904,17.3174984998425
3843.261,1.3344255136111747,13.91963432377343
3844.1472,1.3400914354253306,15.569768280541911
3845.0315,1.3590946519027343,19.66656788473092
3845.9182,1.3861193915243686,36.20605792333574
3846.803,1.4121794754691654,12.323612022939361
3847.69,1.4289605056010881,10.54940083831351
3848.5752,1.4318578807049525,19.36531701738533
3849.4604,1.421670151415458,29.09601857438492
3850.3481,1.4034360238373993,8.682270498540214
3851.234,1.3842783697195695,18.087028148648386
3852.122,1.3702627817130792,19.004552645781974
3853.0083,1.3643086640516218,23.90521156830345
3853.8967,1.3647848524578312,12.620798102348592
3854.7832,1.3664844311307696,13.887480984172376
3855.6702,1.3634331182321895,14.906911650826537
3856.559,1.3523184549862757,19.713512969637414
3857.4463,1.334619660014599,16.27022866943308
3858.336,1.31561153911465,19.176114462556015
3859.2234,1.3014098352177654,24.556938373570162
3860.1135,1.2950733417738156,39.13782462225563
3861.0015,1.2955103773175602,13.61386498197152
3861.8896,1.299107204625258,50.21095169165168
3862.7803,1.3029638958104928,20.079793931072146
3863.6687,1.3064359479056755,18.189032440094373
3864.5598,1.3102257625666662,30.32875361458268
3865.4487,1.3143137259707538,32.83802506328268
3866.34,1.3172100750494289,34.51887592376303
3867.2297,1.3167822517869132,19.639816824587534
3868.1213,1.3118451083734401,15.855371363499579
3869.0112,1.3030300934117063,22.609449728162183
3869.9014,1.2923726186814528,33.39952364435605
3870.7937,1.2822910648137804,19.440488372679
3871.684,1.2748472072576387,14.876367985757366
3872.577,1.2713262949764002,16.193435280412448
3873.4678,1.2722118818152914,30.627495331697837
3874.361,1.2767114157410409,14.682042099266134
3875.2524,1.2825170864608921,25.971718696790372
3876.1438,1.2865410167635867,17.248209622714242
3877.0376,1.2864271754757644,24.251706795531263
3877.9297,1.2819671425050694,20.16635339576461
3878.8237,1.2751564187119713,18.242881079241446
3879.716,1.268638991676079,15.194881599851588
3880.6108,1.2634084939693242,50.82014587099386
3881.5037,1.258071008321464,22.890278565733595
3882.3965,1.2503453252239751,15.115797562448472
3883.2917,1.2397257295979585,30.23369882703954
3884.185,1.2285793361150714,31.554611978475727
3885.0808,1.2203087069398701,33.766779064629716
3885.9746,1.2170720534398427,16.312219771995423
3886.8706,1.2187177458247778,37.161820813995824
3887.765,1.2237006225363367,14.086528778185944
3888.6592,1.2302013064978687,21.531674027543097
3889.556,1.2364691194395223,19.742746745868544
3890.4507,1.2407115694151223,20.9988480669438
3891.348,1.241595804303517,20.21939344812006
3892.243,1.2388727281253205,19.16929720510493
3893.1406,1.233518552127022,23.595093872202842
3894.0361,1.22722141169341,24.272591804783723
3894.932,1.221760915098942,72.76400047431942
3895.83,1.2187934155877116,20.212981037533687
3896.7263,1.2193130632199527,19.01368432848939
3897.625,1.222669269038061,12.422279351059485
3898.5215,1.226144304381434,25.868372025190553
3899.4207,1.226059681846669,13.107661321115915
3900.3176,1.2201082363343496,57.389371681961244
3901.2148,1.2095353785947802,23.30351631865531
3902.1145,1.199105594366618,15.831643612634615
3903.0122,1.194447740883681,97.81511135139331
3903.912,1.1983412398618134,26.633583738557554
3904.8103,1.2095223411019975,9.777183742678046
3905.7107,1.224615811620657,15.369735378802856
3906.6094,1.2407337024103282,13.99145777407543
3907.508,1.256686658378167,18.454618081017852
3908.409,1.271812581289866,33.976659050138736
3909.308,1.2844877157890155,13.277111766410371
3910.2097,1.2925570655477674,16.769884110691628
3911.1091,1.294971798069352,19.40841626098701
3912.011,1.293486011638109,24.373394746552208
3912.9111,1.2919242729488196,21.73162646471721
3913.8113,1.2935784965266144,15.360819219063355
3914.7136,1.298875649450513,18.204030627090976
3915.6143,1.3051413165269772,16.99556952704626
3916.517,1.3086678136394596,23.77351524167205
3917.4182,1.3071088278575658,17.278734910993087
3918.3215,1.300598306033303,22.571956265830565
3919.223,1.2909924466452438,29.001953383072706
3920.1245,1.2802534913797026,17.499160886473813
3921.0286,1.2696632504083525,17.32938322842378
3921.9307,1.2602271470291608,24.640030859382072
3922.835,1.2531792057730073,20.852012260555387
3923.7373,1.2501915946311968,17.865588359913083
3924.642,1.2524013973480104,19.887075736910685
3925.5452,1.2593339565424415,24.792055190726888
3926.448,1.2685521335638323,27.411286893571884
3927.3535,1.2765682239189475,14.768768037233048
3928.257,1.2802801595898978,32.29268506005236
3929.1628,1.2781861751491195,15.167006323152735
3930.0667,1.2704388304696843,14.159161138924809
3930.9731,1.2583702562126369,31.45242725048508
3931.8774,1.2443046902837318,18.223252577827616
3932.782,1.231117711576544,353.8219828761677
3933.6887,1.221674305376117,16.30567037436901
