wavl,flux,ivar
3566.9744,9.51293657247518,7.362416645835198
3567.795,9.468173988397595,8.002856918862204
3568.6177,9.421177280607651,7.017930159947545
3569.4385,9.387217929464274,8.801933534461188
3570.2617,9.37429552134702,7.426574926520605
3571.083,9.380013905494048,6.790689037651732
3571.9065,9.392998342871035,9.161297688882609
3572.7283,9.39935116035791,6.102334849443411
3573.55,9.390206148237077,5.890365360004223
3574.374,9.365425832342638,7.799126239514683
3575.1963,9.332393625218845,7.4131634130410555
3576.0208,9.30029769708335,7.613590322046407
3576.8435,9.27529495111544,7.983615351374247
3577.6682,9.25764602512419,7.189502855385086
3578.4915,9.243775776448294,6.432322308005593
3579.3145,9.229863893587135,7.744248076163766
3580.14,9.215165700488976,7.833743756516971
3580.9636,9.20269259317902,7.660437149122651
3581.7893,9.197058083389846,8.078397665205951
3582.6133,9.20227543853521,7.49198725318557
3583.4395,9.220503834620068,9.468241354400195
3584.264,9.251470278224893,6.5432259588892245
3585.0884,9.291547761053032,8.787381636981912
3585.915,9.332379140416785,6.885804418413045
3586.74,9.361669083541782,6.998678892482618
3587.5671,9.368878350820221,6.29342502897564
3588.3923,9.350637227567221,7.565922628902376
3589.22,9.312659340115582,8.197572474708544
3590.0457,9.266536871283453,7.875887117633518
3590.8716,9.223075989005569,6.941542107261255
3591.6995,9.187774281252143,8.21924122681732
3592.526,9.159744935948082,7.0739830206004
3593.3542,9.134167093647548,7.438784188038273
3594.181,9.108119565323026,7.282012536865454
3595.0098,9.08356451885712,8.28454394046389
3595.8367,9.066069558538999,7.737581328277036
3596.6638,9.058954979855484,10.148289509008395
3597.4934,9.059662326282634,6.8839688617908825
3598.3208,9.06035220952926,7.844251942713596
3599.1506,9.05156307506424,7.001543319733916
3599.9788,9.025928738136082,8.076177326385226
3600.8088,8.98119074742136,5.722889296524503
3601.6372,8.924077483306647,5.859529799049219
3602.4678,8.870530174645335,7.5445982913211385
3603.2964,8.840842339172097,11.375660235800437
3604.1252,8.847386456030794,10.404199891422225
3604.9565,8.887044309385484,8.212136174569128
3605.786,8.942824650578777,7.631426195932987
3606.6172,8.995412820786441,7.440562566784529
3607.447,9.032233122316756,8.417497183573524
3608.2788,9.050703128554598,8.003655161414652
3609.109,9.054075301865952,8.201614053896495
3609.9392,9.047247402901135,7.70169882810079
3610.7717,9.034230948876703,7.614715608840479
3611.6023,9.018067361631365,6.623154943868925
3612.435,9.000832857993457,7.37083129767214
3613.266,8.984184496038884,6.52721205070482
3614.0994,8.969321283405533,8.854125444248023
3614.9307,8.957030124271961,8.36884054366848
3615.7625,8.946314545411717,8.459195459182297
3616.5962,8.93377101925471,9.745154528920809
3617.4282,8.914763524496768,7.431382499447496
3618.2625,8.885669647232355,8.431494250148704
3619.0947,8.845899542247375,9.513646512843565
3619.9292,8.796954020357079,7.158213026187657
3620.762,8.742062596619794,10.733547535218143
3621.595,8.685125235120696,7.491878942728121
3622.4302,8.631333364202408,8.426498532916083
3623.2634,8.586899875562779,7.231673902953111
3624.0989,8.555958587866547,9.603048194888194
3624.9326,8.539321834537889,8.509388129966133
3625.7686,8.534187188776093,9.09628179245285
3626.6028,8.536845251874208,8.44431761186686
3627.437,8.544455497824584,7.300759759067899
3628.2734,8.555380255003366,8.476376153614938
3629.1082,8.568824875501553,7.297950428957229
3629.945,8.585232000113606,8.844091562975024
3630.78,8.605381186986685,35.31178140818816
3631.6174,8.628627754993337,7.8746223236322095
3632.453,8.651319720407015,8.352827832711029
3633.2883,8.66927719446594,7.165126339142741
3634.1262,8.680913521554698,9.735904041065245
3634.9622,8.687495928660164,9.234952174171957
3635.8005,8.690209787577713,9.433384919858659
3636.637,8.687798723426802,8.276479581122516
3637.4756,8.67828005349083,7.1300787495669535
3638.3123,8.661895122426262,10.925677748926848
3639.1492,8.641138035085538,9.304306093239541
3639.9885,8.618744290675487,8.499854323164756
3640.826,8.596855312933414,8.850038012564987
3641.6653,8.576962112769193,10.075411421997732
3642.5032,8.560074375686247,8.948200295654797
3643.343,8.545743044611216,9.414637378670259
3644.1812,8.53322799309734,8.465611042428476
3645.0195,8.523037498219042,11.357290499718301
3645.86,8.51675603901013,8.421226408107707
3646.699,8.514582868947961,9.283299496864036
3647.5398,8.514024253693181,7.674010252666203
3648.379,8.511661023933122,8.028505662972508
3649.2202,8.505137794643376,9.760470794519811
3650.0596,8.49313173837836,8.571795824766308
3650.8994,8.474364042387668,8.981652435284229
3651.7412,8.448510951900612,7.425224278841206
3652.5813,8.418512648001048,8.832719576349715
3653.4236,8.390178989235292,9.06651700859577
3654.2642,8.369212381243798,11.082936930582726
3655.1067,8.356621715458077,7.714951354931965
3655.9475,8.348493173852198,8.616280404523192
3656.7886,8.339323317004403,8.42278232589789
3657.6318,8.326402998605895,9.095552267675231
3658.4734,8.311626276058616,10.859776157895187
3659.317,8.300203076560459,7.059970158820089
3660.1587,8.298408899975492,8.740870654335966
3661.003,8.310441868560702,8.905990692873273
3661.845,8.33564039262612,7.925614541052807
3662.6875,8.368165303974735,9.692809513068138
3663.532,8.399876101652833,8.86905403715755
3664.3748,8.424623513162087,10.140905624213543
3665.2197,8.441164144899506,8.941444433763511
3666.063,8.451397035639731,11.77380863746156
3666.9084,8.45728923428645,10.349990589758166
3667.752,8.458347540951298,8.115030348448158
3668.5977,8.452111544449055,9.70524730161432
3669.4417,8.436397369725922,8.653754471227362
3670.286,8.411312469279547,10.049583567228355
3671.132,8.379745668623217,10.334215806348094
3671.9768,8.346582957452123,8.993139083556967
3672.8235,8.316461478451902,9.048505413599282
3673.6685,8.29289380199934,8.05571969427971
3674.5156,8.277614968742535,9.244130494573461
3675.3608,8.271428932811594,10.05176192248254
3676.2063,8.273529114614297,9.32143685481898
3677.0542,8.280532267642593,8.655087676112823
3677.9,8.286654788913415,8.3624852152838
3678.748,8.286968333419493,10.082495973784665
3679.5945,8.280941412345763,10.004404510888708
3680.4429,8.272871237560937,8.850400205089814
3681.2896,8.26824224067679,8.977240045985118
3682.1365,8.268569787682708,9.619435428373105
3682.9856,8.268987083977725,7.513524956155188
3683.8328,8.260647576203127,7.737736007817183
3684.6824,8.23680643872278,7.315210568774931
3685.53,8.198303694181016,10.484240228498605
3686.38,8.153332052696102,9.458091347033978
3687.2278,8.113898433759223,10.455681698922143
3688.0762,8.090083042785464,8.900069646181528
3688.9265,8.087018060793088,10.00724335578512
3689.7751,8.102839175688423,10.205087113327895
3690.626,8.129187408927184,8.350794359709067
3691.475,8.15469149218234,10.418611133708318
3692.3264,8.17087035054088,9.336263590604899
3693.1758,8.175513120163783,12.376943649158092
3694.0254,8.172581080992085,9.341541578462273
3694.8772,8.168502162708396,7.884077035099709
3695.7273,8.16824488794146,7.927566600369941
3696.5793,8.17257130386489,8.014619458795643
3697.43,8.17766275852541,10.430939980286443
3698.2825,8.177488052796397,8.58196355492698
3699.1333,8.16765536125019,10.954665339961927
3699.9841,8.147964534443535,10.752800874579936
3700.8374,8.121488635957022,9.923536072656137
3701.6887,8.091870489346018,10.529327218241594
3702.5425,8.06066088162546,9.029009376023765
3703.3943,8.028273868488,10.093214316317995
3704.2483,7.995107699702689,9.682993960968886
3705.1003,7.96306173943254,10.255853124718536
3705.9526,7.934270528748303,12.008444459431038
3706.8074,7.910361537540533,9.867796043148633
3707.66,7.892422877222949,11.53866278683134
3708.515,7.88078468388109,10.446914460038691
3709.3682,7.875022562144767,10.008285977515335
3710.2234,7.872963652771247,13.811003426460285
3711.0771,7.8706489034517855,10.478963146809646
3711.9307,7.863100387367862,10.026323283795728
3712.7866,7.846079752357398,9.576969257324507
3713.6409,7.818983835056601,10.561193981861374
3714.4973,7.78664626822189,9.208921179559905
3715.3518,7.7584621953942285,9.758541562593127
3716.2085,7.742379961338328,10.955566800685094
3717.0635,7.739899299346176,11.614667545747425
3717.9185,7.745666691254618,8.879302938543184
3718.776,7.753016906566184,10.00976412448076
3719.6313,7.758904369164046,11.854649528264044
3720.489,7.764095177536101,13.41015834599697
3721.345,7.769540881172646,8.767794136375477
3722.2031,7.774188813197826,10.932852608581754
3723.0593,7.775785560692672,11.07662073075053
3723.9158,7.7730127183799,9.373117543993875
3724.7747,7.766327197795927,10.153681392603502
3725.6316,7.7576193537384,8.494704338149916
3726.4905,7.748984830156512,10.261550378030893
3727.348,7.7415368803579065,10.38871328896126
3728.2073,7.734492383353106,10.803597541615892
3729.065,7.725991425457156,9.11252643369903
3729.9229,7.714760822999969,10.846663418655183
3730.783,7.70116323810018,8.622026684607885
3731.6414,7.68658794098066,10.466755017951156
3732.5017,7.671847026951294,10.23264453548758
3733.3604,7.657018463138155,12.069485997098965
3734.2214,7.641948649676607,11.190604603429275
3735.0803,7.627305612685434,10.32455715222865
3735.9417,7.6140724556856325,10.890568518452941
3736.8013,7.602842313295304,11.441464722691041
3737.661,7.592932041464261,12.842614895718391
3738.5227,7.583312532564314,10.417352975254298
3739.3828,7.5745490802639015,8.31015665733351
3740.245,7.569248599793366,10.454880950272532
3741.1055,7.569731639720612,11.57609597420716
3741.9683,7.57418909802114,10.206939182940902
3742.829,7.575809359450937,8.47846590488392
3743.69,7.566825656864326,13.339718665089572
3744.5532,7.54445664992591,10.36438488028611
3745.4148,7.514192702473557,11.867097477701124
3746.2786,7.486366772337473,13.452771632053485
3747.1404,7.469520136470822,11.809471971654395
3748.0044,7.4648965961465,12.118227244231548
3748.8667,7.468233376402507,12.929146398948305
3749.729,7.475670416016042,11.90193930603983
3750.5938,7.487938615905868,9.319760457993771
3751.4565,7.5082248417817254,12.009154325165932
3752.3215,7.536757532105059,13.66080656841786
3753.1848,7.566962256361553,10.494047147067706
3754.0503,7.588119907667892,9.20881999939285
3754.9138,7.591050159576416,8.95909832960643
3755.7776,7.573743252414582,10.595209496026932
3756.6438,7.541945972871424,12.538386130453212
3757.508,7.506280243424809,12.471617970978615
3758.3745,7.476445810038196,10.80050295100835
3759.239,7.457382705235893,12.214940528662657
3760.106,7.44715035690117,12.585886108904512
3760.971,7.439654964727572,11.827962553029947
3761.8362,7.429748672527996,11.154604385185252
3762.7036,7.417790868445421,8.788925692958383
3763.5693,7.409058790942133,13.719222931128918
3764.437,7.407870039217949,11.597748027513656
3765.3032,7.412623990924367,9.96110830067712
3766.1714,7.41667444932425,9.90786040777629
3767.0378,7.413895981644293,9.737597303589324
3767.9043,7.40285818496914,11.817008239252178
3768.7732,7.3858621468797745,12.33837605367647
3769.6401,7.365649147723358,10.891026154068234
3770.5095,7.343026468060707,10.589248455650907
3771.377,7.31790634345,13.943618374092942
3772.2466,7.290596364969163,11.65614211869404
3773.1145,7.26337038305875,13.227328286453067
3773.9824,7.23999190636794,13.619702414245983
3774.8528,7.224951389950417,11.502551056615964
3775.721,7.222099561044403,11.937864916299285
3776.5918,7.23310196035844,11.174152186208008
3777.4604,7.256942691456489,11.015955999165216
3778.3315,7.290547118811782,12.115811122047722
3779.201,7.329086109842286,10.119417656926146
3780.0703,7.367057634169417,13.091716948049298
3780.942,7.398656435740475,11.655714668276817
3781.8118,7.41841114042469,11.08877761138424
3782.6838,7.422761282821183,10.570170529484372
3783.554,7.410735437702625,11.251186747825082
3784.4265,7.384358290909771,11.47785508784879
3785.297,7.348371920464065,10.20244637185255
3786.168,7.3085788762254875,12.276981006855243
3787.041,7.27024237209206,11.841719094921917
3787.912,7.236728979158357,12.075069799475894
3788.7856,7.20829694338659,12.090517519291325
3789.6572,7.183839888497822,12.13057198742856
3790.531,7.162253959078051,12.487872200481892
3791.403,7.143858847581099,11.871337379000666
3792.2754,7.129079551987317,10.049007131699794
3793.15,7.117031765665979,14.949918871725066
3794.0225,7.105437838783205,14.532059188330116
3794.8972,7.0923596760694245,11.975498607629799
3795.7703,7.078650988580663,13.6359828859127
3796.6455,7.067735287424903,13.5597559603052
3797.519,7.0631400931067,13.091462906328104
3798.3926,7.065334408409602,12.844885272281552
3799.2686,7.071347300462943,10.357689043302065
3800.1426,7.076893279553618,12.678769010394102
3801.0188,7.079248415121588,13.813925523887217
3801.8933,7.078267351047007,11.864497914963799
3802.77,7.075465342697281,11.7042066959722
3803.6448,7.072382267128053,11.715827368603236
3804.522,7.069706309981982,10.447726518522671
3805.3972,7.067356144019088,13.26824997121579
3806.2727,7.0643636027375285,14.227240674071966
3807.1504,7.058661079705552,11.637909469744075
3808.0261,7.048015234395225,11.171379438471218
3808.9043,7.032232144280206,14.945080657152111
3809.7805,7.015156411640997,10.620620697322027
3810.659,7.003309724573007,14.03137118253742
3811.5356,7.002394928010586,11.40871192377553
3812.4126,7.013353582473292,13.326340557942173
3813.2917,7.031482581006241,13.025234274060272
3814.169,7.04859816204125,13.738024980512453
3815.0483,7.057843057954663,15.096920567558307
3815.926,7.0573054802278286,12.948204219664133
3816.806,7.05062234026348,14.620214965594851
3817.684,7.043468282554203,12.102010306430419
3818.5623,7.038767334262638,12.099873080244334
3819.4429,7.034640611564106,13.723946564940082
3820.3215,7.026359404867293,12.303260452860744
3821.2024,7.009970614395205,10.441318452930565
3822.0815,6.984661562430919,12.365327523973942
3822.963,6.952038607699212,13.126511429880045
3823.8423,6.915199156586627,13.433977089004197
3824.722,6.877600344790322,10.816252380188589
3825.604,6.843135414389781,15.43353835038625
3826.4841,6.815540317858544,12.858716093833761
3827.3665,6.796342886008725,14.129265389501988
3828.2468,6.784581558739411,13.451382100386633
3829.1296,6.777049457595787,15.433196367388332
3830.0105,6.769828087830909,11.852119680842005
3830.8916,6.759100614158965,12.815414688089016
3831.7751,6.741867476388852,12.929123417941202
3832.6565,6.716914527544335,14.509912652033508
3833.5403,6.685112711391665,12.99668368245854
3834.4224,6.649822084569664,14.712542728668181
3835.3064,6.615227672508175,13.835862826635493
3836.1887,6.585069609900294,16.077825242891475
3837.0713,6.560800323034405,15.280584392952408
3837.956,6.542651230859414,12.741511040611226
3838.839,6.5324454613689165,15.010536346643836
3839.7244,6.534893762168858,15.889761578266935
3840.6077,6.555081079875091,16.11480005706261
3841.4932,6.593475617704733,13.104666352115645
3842.377,6.643228594761355,15.284633634560594
3843.261,6.693688757075054,12.645297611494799
3844.1472,6.735545805797066,14.018384055877442
3845.0315,6.763841035853281,12.911989094738964
3845.9182,6.778722657374009,10.09641683142348
3846.803,6.783685824866023,12.562734193701147
3847.69,6.784328508628353,16.78081942904403
3848.5752,6.785959345401993,13.839794525168049
3849.4604,6.7915113440159915,11.309298446051564
3850.3481,6.801163919522853,13.919447266553897
3851.234,6.8134672058012065,14.18145975809718
3852.122,6.8264683477943375,11.882902746371517
3853.0083,6.8373075870264675,14.419851752596506
3853.8967,6.842510308791338,10.6922830346584
3854.7832,6.839365000712184,15.02708402734924
3855.6702,6.828081177089553,14.06799754787875
3856.559,6.812310832072726,13.099549091986791
3857.4463,6.797819722370975,12.474146259106016
3858.336,6.789525990504587,12.485197929645999
3859.2234,6.789142227666549,14.79575487521609
3860.1135,6.7940976070858214,11.18658973127791
3861.0015,6.799087134482889,12.582682488350194
3861.8896,6.799108913512101,12.897484739942932
3862.7803,6.791487052727075,12.864601535944583
3863.6687,6.776103479124383,13.62320500897491
3864.5598,6.754448490881055,15.394064478141804
3865.4487,6.729561303007983,13.697565086804818
3866.34,6.705034824240993,15.527655626334841
3867.2297,6.683716764196172,14.53828165657135
3868.1213,6.665259874339936,15.145501034318787
3869.0112,6.646559815483306,12.407448197790671
3869.9014,6.624173259403287,13.376926846127112
3870.7937,6.597293898574008,16.00545430684786
3871.684,6.568311548711156,15.613229917376584
3872.577,6.540122594306257,13.997666402417126
3873.4678,6.5142644730892245,14.557762670578219
3874.361,6.489871470265956,13.241101178459258
3875.2524,6.465337364849364,15.568900608556966
3876.1438,6.439045882940758,14.630175394840052
3877.0376,6.409933683876119,14.654279877475222
3877.9297,6.378086500789122,13.501543919118651
3878.8237,6.3447656249383195,17.29884094258745
3879.716,6.312339174740536,17.47802111124443
3880.6108,6.281355002161075,17.292369728695977
3881.5037,6.248849881057808,15.986791090602932
3882.3965,6.208590756907433,19.092927394786145
3883.2917,6.155278759628317,16.692209902712637
3884.185,6.089283986416483,18.149632230285203
3885.0808,6.016431553245128,20.14892876639991
3885.9746,5.9459349675179025,17.359846383134872
3886.8706,5.884573546512888,17.699232370596814
3887.765,5.83571050500806,21.126301465237162
3888.6592,5.7994800610892305,18.736363211335114
3889.556,5.77589994165154,22.239416388814448
3890.4507,5.766248340741112,17.24110966102941
3891.348,5.771813110293857,20.45872585430434
3892.243,5.792530542870031,18.262372284906434
3893.1406,5.826862699516208,18.8630983229344
3894.0361,5.872311785758055,17.279222067823866
3894.932,5.926591695367382,21.133567735753292
3895.83,5.986988835635675,16.362532816286972
3896.7263,6.049170424682418,19.46990246417735
3897.625,6.108414918976207,16.86177932331494
3898.5215,6.159649109780501,17.48123477088733
3899.4207,6.200247578819869,13.339215232940655
3900.3176,6.230248651034648,16.450071915895887
3901.2148,6.253402703833531,16.63388377613021
3902.1145,6.275606742912274,14.104218899848025
3903.0122,6.302694719847266,14.648043578779674
3903.912,6.3385550192055975,18.53137548613188
3904.8103,6.383118883211937,18.340486756776215
3905.7107,6.433046455870628,13.864903935382937
3906.6094,6.482676268899342,14.488726622534461
3907.508,6.527256201401799,14.335440796951866
3908.409,6.564787273442105,15.70689414079468
3909.308,6.596751176439291,15.084701159386423
3910.2097,6.627775071223027,13.434731527016682
3911.1091,6.662035079304922,13.042218192097238
3912.011,6.700421613698462,13.478871745431874
3912.9111,6.738711298636208,13.101430404607017
3913.8113,6.770718242058519,12.36907769669776
3914.7136,6.792007932507601,15.07680530214768
3915.6143,6.801811237117349,15.19434127591633
3916.517,6.802586610060837,13.517485708955464
3917.4182,6.798042143936976,14.777864053609667
3918.3215,6.791527948111984,13.525883886013677
3919.223,6.784662668807553,15.548572381991004
3920.1245,6.776769429544432,12.534767977708249
3921.0286,6.766447759502557,11.39233235452091
3921.9307,6.754422749802322,12.747418085463295
3922.835,6.744612288495217,13.578579648711873
3923.7373,6.742257579348073,14.71661428627211
3924.642,6.7498995012908285,13.174143312267718
3925.5452,6.764982608412895,16.158072562759926
3926.448,6.781035570974173,13.578939670282592
3927.3535,6.791371819705498,12.799987675580486
3928.257,6.792499458744708,13.86709584859088
3929.1628,6.785319600856233,13.58201416674273
3930.0667,6.773148296647724,15.183577973665184
3930.9731,6.758300251261417,15.699692501626773
3931.8774,6.740442347625003,12.727867215228382
3932.782,6.717653854349301,11.708592581233543
3933.6887,6.689607506609441,16.30530502670112
3934.5938,6.65922947054094,17.228010419969223
3935.501,6.630552818332285,13.167117608654882
3936.4062,6.6064893268276235,14.697636611988381
3937.3142,6.587450679341452,13.60942600409745
3938.22,6.5726930432507995,12.520745878435513
3939.128,6.5604688467587575,15.077353209701432
3940.0342,6.548057488512902,13.614304038560212
3940.9407,6.532005441890518,14.649816127464595
