wavl,flux,ivar
3566.9744,1.8073519377072387,169.03222872063702
3567.795,1.80735445263018,168.90355472132256
3568.6177,1.8072852895887208,181.4258631171786
3569.4385,1.8062206995187233,201.57193257471528
3570.2617,1.803555417768574,170.90310770237028
3571.083,1.7995450869347567,156.48564571562042
3571.9065,1.795116700058528,203.82792531429516
3572.7283,1.7911308931650516,174.38372189621072
3573.55,1.7875220932300844,166.37379578602872
3574.374,1.7833690043177406,178.87307064288416
3575.1963,1.7778800820763965,142.63947808852603
3576.0208,1.7713616819993538,187.11180076553524
3576.8435,1.7655103788308124,171.30007067006588
3577.6682,1.7624965014946061,182.99369154736152
3578.4915,1.763840547828577,173.61721939592968
3579.3145,1.7694170785605876,184.32701030599583
3580.14,1.7772868801946469,193.51527196220601
3580.9636,1.7843079031675522,164.3124818604687
3581.7893,1.7877486406602237,199.90927898303724
3582.6133,1.7865411640415212,150.0999944036129
3583.4395,1.7815875350869725,191.669959669193
3584.264,1.7748585423826924,153.81568969996073
3585.0884,1.768090661203697,178.79685807832578
3585.915,1.762139963790427,173.2371140508976
3586.74,1.757163718197474,196.08068839965543
3587.5671,1.7530182471725626,165.69595812976536
3588.3923,1.7496270302686194,191.77206857750699
3589.22,1.7467745882471937,202.28918361523245
3590.0457,1.7440402136180615,147.30068961610485
3590.8716,1.7410076284492562,170.4163414138189
3591.6995,1.7378042672105403,200.61800787672135
3592.526,1.7352592886645675,168.8678132303714
3593.3542,1.734309111633022,192.31828368859078
3594.181,1.7352580333673167,180.70547925529542
3595.0098,1.7375564340940945,185.96415327252106
3595.8367,1.7403478622198647,181.93741488674706
3596.6638,1.7432377928030793,172.67012054419345
3597.4934,1.7464303882422691,177.52648000073606
3598.3208,1.7501255550828485,188.39304002834697
3599.1506,1.753869957377548,172.81853036595078
3599.9788,1.7563641977717623,196.56847050545468
3600.8088,1.7562262560904682,170.08617872990163
3601.6372,1.7529794794360105,159.60004904751045
3602.4678,1.7475406584042457,200.30624000887693
3603.2964,1.7417538163413033,193.76104950385454
3604.1252,1.7371242725898253,198.4379443811101
3604.9565,1.734007663003232,231.89291040104365
3605.786,1.7317734226840362,199.96174922737086
3606.6172,1.7296530806121233,180.64308171068978
3607.447,1.7275112190942332,182.24499585177793
3608.2788,1.725713810175717,192.49442965685637
3609.109,1.7245226889961847,187.09293240398475
3609.9392,1.7236319279177033,171.3570276252456
3610.7717,1.722300933503517,178.73337964631983
3611.6023,1.719793325709024,202.48716141300076
3612.435,1.715778979913334,194.22996403764498
3613.266,1.7107056908544316,185.83049878744913
3614.0994,1.705700028884522,217.17041438343108
3614.9307,1.7020050102365643,219.98326157701086
3615.7625,1.7000040511678527,191.02463809529652
3616.5962,1.6990793503487116,167.18217555340894
3617.4282,1.698374503042377,172.16345556592555
3618.2625,1.6976098997410196,210.79430159952696
3619.0947,1.6970456105730458,186.82420734089277
3619.9292,1.6968421938046494,216.9531023135812
3620.762,1.6968293499771243,193.69052823751525
3621.595,1.6968336912051243,170.50931385516603
3622.4302,1.6969115609621945,198.35720241974522
3623.2634,1.697092336725475,204.71255095205282
3624.0989,1.6970932619297907,213.7702110910309
3624.9326,1.6965371120501902,197.61745762811918
3625.7686,1.695466405721566,165.51971131059656
3626.6028,1.6945020688409635,227.80851668885495
3627.437,1.6943994896864367,181.745875709917
3628.2734,1.6955422764777393,218.31091623803277
3629.1082,1.6977719148229726,206.3498572029735
3629.945,1.7005226019272786,203.24880628492835
3630.78,1.702884030043414,181.20370748146755
3631.6174,1.7037613626351156,184.17897918397165
3632.453,1.7021426726540572,196.23859580286933
3633.2883,1.6975763842070704,195.50653401167736
3634.1262,1.6905096020952823,178.86143465201732
3634.9622,1.6824496394782218,190.89553144329807
3635.8005,1.675401799052425,203.85746506982952
3636.637,1.6711255780532914,243.37876428741708
3637.4756,1.6701510136287574,226.7698648116109
3638.3123,1.671661671583782,208.1983425046156
3639.1492,1.6740634666753424,201.69385663160733
3639.9885,1.6758962616719812,210.68403231994276
3640.826,1.6763465351104325,237.51978625426585
3641.6653,1.675252306872715,230.27442752517754
3642.5032,1.6728465795750336,173.64828694179783
3643.343,1.6696624540273344,202.44257603465664
3644.1812,1.6665914865527265,209.20323869726374
3645.0195,1.6646301864517832,208.73417116636952
3645.86,1.6644254511621408,197.48709784540435
3646.699,1.665864510574684,213.8176620186092
3647.5398,1.6680819962075841,174.98439170685697
3648.379,1.6698116435436046,181.23248325761983
3649.2202,1.6699183331453098,200.4531375662675
3650.0596,1.6678705016437307,187.68035653416547
3650.8994,1.664074604148207,175.60093684276418
3651.7412,1.6597623499151841,186.2792140559137
3652.5813,1.6563634150085318,193.85884480256559
3653.4236,1.6545799971925597,194.78237876086962
3654.2642,1.6540766359692414,222.94666089365361
3655.1067,1.653905279279638,212.4805069268691
3655.9475,1.6533741710727992,191.68569962665183
3656.7886,1.652502649578122,189.71093400413304
3657.6318,1.651722855273724,213.53831602689658
3658.4734,1.6511904448939716,199.36724623873803
3659.317,1.6504063947562326,207.78586782167122
3660.1587,1.6485868086228386,209.47156651002712
3661.003,1.6453579912869054,233.63309976592313
3661.845,1.6411599087178315,249.92353913365116
3662.6875,1.6368798356635121,207.12184278492816
3663.532,1.6332902998859555,251.77914811145672
3664.3748,1.6308019042642452,261.1346659269815
3665.2197,1.6296837518260807,169.58654411416225
3666.063,1.630479737438994,215.80812161406752
3666.9084,1.6338779111694797,218.6840135668797
3667.752,1.639997615567825,166.90198327726193
3668.5977,1.6477972422154452,166.21111535386018
3669.4417,1.6550526394298934,193.66015679655214
3670.286,1.6594281400088162,205.78259982865433
3671.132,1.6596222307768596,190.8350812103254
3671.9768,1.6560212912989094,181.32902012115642
3672.8235,1.6502587569591916,209.14461288486046
3673.6685,1.6441520366420126,201.47200282440113
3674.5156,1.6387498050950033,217.75308831800487
3675.3608,1.6343907951105539,173.90661080705954
3676.2063,1.6311013422940634,218.95296462294704
3677.0542,1.6289342407331449,228.45899472469728
3677.9,1.6277341433041173,223.89143576058558
3678.748,1.6267748956425216,201.3035323885967
3679.5945,1.6250547947067755,214.14938158211748
3680.4429,1.6221411418784875,170.44870487867226
3681.2896,1.6188271974532729,259.5569581723619
3682.1365,1.6166186958160478,213.85712378413024
3682.9856,1.6164703809009646,194.98782879550888
3683.8328,1.6178789293781772,206.77662018820354
3684.6824,1.6192349713604886,201.90954896899734
3685.53,1.619058411212466,201.5129084113595
3686.38,1.617105392602859,186.09864213532384
3687.2278,1.614511089663969,200.20855594449552
3688.0762,1.6129058667129113,195.96125966495453
3688.9265,1.6132727056703144,198.18890810901036
3689.7751,1.6153286991195792,229.4793561833452
3690.626,1.6178559949517406,235.15960674908078
3691.475,1.6195289053713962,231.19510464275172
3692.3264,1.6196833469066312,205.8991862326634
3693.1758,1.6185215182610164,220.42810450097812
3694.0254,1.6168626471121044,244.6032634888953
3694.8772,1.6156542416347972,223.49481603856012
3695.7273,1.6154987501082319,234.8305794234287
3696.5793,1.6162706439430259,229.85338327076036
3697.43,1.6170787215617173,210.5049945330184
3698.2825,1.6167610143205229,174.11155031526621
3699.1333,1.6146886857094667,226.5989028444524
3699.9841,1.6112385745067783,210.78116903298692
3700.8374,1.607535338701774,211.20981207914372
3701.6887,1.6048125122423502,237.846057400202
3702.5425,1.6037607548178276,224.09403891848552
3703.3943,1.604359938037569,215.80340689960656
3704.2483,1.6060001541443276,201.71526791863158
3705.1003,1.607822076781169,240.4985499352548
3705.9526,1.6090530997681172,230.55402441008206
3706.8074,1.609104516988895,185.86060825967772
3707.66,1.6075368374655237,217.96281535438666
3708.515,1.6040421530522715,198.1501652218427
3709.3682,1.5986408948200936,232.92803122581367
3710.2234,1.5918913986466858,221.23830542798999
3711.0771,1.5850927171253935,222.51478471495517
3711.9307,1.5798600720993166,234.36961221463582
3712.7866,1.5773452777525296,236.41726942851102
3713.6409,1.5774024268437248,229.47405238177677
3714.4973,1.578348662961405,269.82895008219486
3715.3518,1.5778088618078778,194.45773474268864
3716.2085,1.5741668457738298,225.37088537234317
3717.0635,1.5676825664932164,262.7971881833043
3717.9185,1.5603415225988102,245.116141186039
3718.776,1.5546181285067784,257.51001939218713
3719.6313,1.5520780545880817,252.74566281430373
3720.489,1.5525994198854516,224.48678362818967
3721.345,1.5547718704851512,222.87976228288943
3722.2031,1.5567944854917297,256.2600287312163
3723.0593,1.5573196670406422,232.7657721733227
3723.9158,1.5559942970999674,197.75145794921667
3724.7747,1.5534709300656842,241.44991435786739
3725.6316,1.550992871542736,260.8680983471584
3726.4905,1.5496250783485357,213.15122851397064
3727.348,1.5497577973569898,221.70910586880763
3728.2073,1.5510459714402427,244.07559273123707
3729.065,1.5527164929216306,207.78998956877797
3729.9229,1.55390744610519,249.19950350453038
3730.783,1.553871404204023,210.9342870332498
3731.6414,1.5521837885288492,201.38865893526022
3732.5017,1.5489753164028142,222.89225761511202
3733.3604,1.545084381583166,249.41515884859544
3734.2214,1.5418189272527922,243.02691954661788
3735.0803,1.5404869006981186,218.34203151176
3735.9417,1.5416932952826456,245.36764239822924
3736.8013,1.5449841955070192,235.79979373481072
3737.661,1.5490593553264864,202.3012652950719
3738.5227,1.5525264861231796,238.74421962161915
3739.3828,1.5546065699885254,244.8091048885002
3740.245,1.5552819694802487,231.0033074080748
3741.1055,1.5546892676564488,239.32600130406706
3741.9683,1.5525850881674288,285.78929043922165
3742.829,1.548492075605232,235.22932674565004
3743.69,1.5423316674626453,215.51554692793673
3744.5532,1.53486853445914,254.36373465723923
3745.4148,1.5275897915359387,214.73595001297485
3746.2786,1.5219404199999107,219.40002712315146
3747.1404,1.5188513957404888,220.01509976326903
3748.0044,1.5183994062736677,266.5135148031874
3748.8667,1.5200088487639247,239.2298678718576
3749.729,1.5228266584808554,223.28761726818402
3750.5938,1.5260879676988433,281.8601060273525
3751.4565,1.5291011189357746,257.5289522228127
3752.3215,1.531146855575617,260.6329676851747
3753.1848,1.5315419903485903,240.2581919694561
3754.0503,1.5301581457938895,230.93118569148328
3754.9138,1.5277432483957043,226.9470772834659
3755.7776,1.5255600926410897,234.5567845931562
3756.6438,1.5245932670879347,252.9731909952347
3757.508,1.524997144581549,231.3369964690905
3758.3745,1.5261754456507386,231.17513594564073
3759.239,1.5272926539465295,231.53647968802014
3760.106,1.527762112266552,233.47512381922547
3760.971,1.5274451330188707,230.3143317951874
3761.8362,1.5266466425916236,222.83258138884526
3762.7036,1.525916647958742,235.51642915921238
3763.5693,1.5257149768064016,235.69777743796416
3764.437,1.5260243185977511,246.85068864696822
3765.3032,1.5262357898876724,248.93698824203875
3766.1714,1.5255137335562199,202.70164532697652
3767.0378,1.5234607914501432,236.86962763409423
3767.9043,1.5204876940501726,234.43560469989882
3768.7732,1.517519337606304,235.4022445731824
3769.6401,1.5153551265124399,235.51255026519488
3770.5095,1.5142045339901469,231.41902435986228
3771.377,1.5138333945955238,232.79261182570156
3772.2466,1.5138407214975376,244.4743929462569
3773.1145,1.5138023958217663,258.70646679215304
3773.9824,1.5132758877400136,246.0995139562878
3774.8528,1.5119266756766716,251.38089190099637
3775.721,1.5097899710949059,248.3259812024699
3776.5918,1.5073185732698327,247.52421496479607
3777.4604,1.5051764126330718,263.55689310767065
3778.3315,1.5038218409274193,262.27254522942616
3779.201,1.5033914791165706,266.70816653455927
3780.0703,1.503804536847585,237.2716553961566
3780.942,1.5049885558649452,231.9043530419206
3781.8118,1.506918475401354,273.9032666646431
3782.6838,1.5095043743506473,257.2528392403601
3783.554,1.512348787938869,249.06893325070303
3784.4265,1.5147030171646678,232.74703746010348
3785.297,1.5156164027704409,259.11167626634926
3786.168,1.5144142346032015,307.70436372685583
3787.041,1.5110354999740685,214.61902292534225
3787.912,1.5061287701981194,259.0243066128842
3788.7856,1.5007118759109122,238.62455783138643
3789.6572,1.4958490815568568,253.87261076015008
3790.531,1.4921947357704646,271.7783402649108
3791.403,1.489895640481087,249.79225120127086
3792.2754,1.4885822624771552,240.67798209923774
3793.15,1.4876573999584395,251.0013351969196
3794.0225,1.4865932499638137,259.33696885028274
3794.8972,1.4850964630039976,267.28689437827035
3795.7703,1.4831651690733356,242.63308587589881
3796.6455,1.4810261576349903,266.13503538024975
3797.519,1.4790806850548042,281.93631070189184
3798.3926,1.4776859519419967,288.17692856888306
3799.2686,1.4769508228401673,239.66726506030903
3800.1426,1.4766846855677678,274.55649267232474
3801.0188,1.4765923461470531,236.88134677436219
3801.8933,1.4765591319363185,219.36612698641684
3802.77,1.4767240417366136,311.4764610281519
3803.6448,1.4773120862633577,242.9546869450406
3804.522,1.478415694279906,224.4282596775588
3805.3972,1.479864786521027,260.0557837855056
3806.2727,1.4812680936082632,263.4111150955067
3807.1504,1.4821638337077723,230.12148338467662
3808.0261,1.4822577757314825,230.7795080374305
3808.9043,1.4815826890850332,257.90671701197004
3809.7805,1.4803976819472096,246.22511319507743
3810.659,1.478943226743429,257.93238389438324
3811.5356,1.4773489086617493,244.53286924420428
3812.4126,1.475687249781169,273.34538356430136
3813.2917,1.4740790756476012,240.11254054246976
3814.169,1.472707470763627,259.6116900938567
3815.0483,1.4717407591769713,257.0490166229034
3815.926,1.4712798351532235,271.98600552985863
3816.806,1.4712149853432508,225.40777626788454
3817.684,1.4711473546657496,234.89287630261177
3818.5623,1.4705250605818834,244.5836574754902
3819.4429,1.4690021197402665,253.7910792030981
3820.3215,1.4667354199323137,267.7111472195497
3821.2024,1.464243681640032,258.4566064921687
3822.0815,1.4619828757833773,255.31037159911935
3822.963,1.4598755942735708,272.2425832084564
3823.8423,1.457328093463303,265.91856991246857
3824.722,1.4536297597250922,255.3968097013452
3825.604,1.4485397522422847,289.7335838814809
3826.4841,1.4426315070151967,287.0753553050994
3827.3665,1.4369562762915293,264.78161681455174
3828.2468,1.4324846328376954,261.06518766973056
3829.1296,1.4293972717319936,250.5880972617503
3830.0105,1.4270613870257016,284.3506459452237
3830.8916,1.42445132754886,281.25410087236685
3831.7751,1.420876091248511,261.5228342852166
3832.6565,1.4164328461240965,278.837722653053
3833.5403,1.411811421516871,276.7022242706509
3834.4224,1.407849801906966,273.49168866961304
3835.3064,1.4049440203458194,277.52905057034366
3836.1887,1.402990203329495,248.25489511787185
3837.0713,1.4016552724526488,232.3685382364402
3837.956,1.4008616615103733,275.3999495724246
3838.839,1.400994885236487,286.2160027154464
3839.7244,1.402709393540805,273.0904080921241
3840.6077,1.4065296465617019,271.9301385984795
3841.4932,1.4125846233676664,284.35652610937296
3842.377,1.42043646498261,282.92716484577846
3843.261,1.429266192656347,282.2358743094757
3844.1472,1.4381325659249766,257.00240388182016
3845.0315,1.44624147889395,276.5908581614844
3845.9182,1.4532335339580893,258.1091194683887
3846.803,1.4589065781577548,257.10199684182544
3847.69,1.4632067954320456,243.38975854464033
3848.5752,1.4661908414918003,236.56293835140445
3849.4604,1.4682483207711323,282.64505835295705
3850.3481,1.469997173970763,259.20651812814435
3851.234,1.4719922762895132,272.3798175955517
3852.122,1.474543681426187,259.2443649659349
3853.0083,1.4776733580172146,239.65958766375
3853.8967,1.481268797977952,264.9304679758958
3854.7832,1.485132118159597,231.22094507668552
3855.6702,1.4891249364608763,255.51331903261297
3856.559,1.493126913473418,258.1169681803188
3857.4463,1.4968511195156178,248.6088591142331
3858.336,1.499742571879143,223.00201356890682
3859.2234,1.501018375425985,242.1124724546406
3860.1135,1.5000921799932445,274.16130641598517
3861.0015,1.49693549070723,255.37534147806252
3861.8896,1.4921700117220438,273.0354119672334
3862.7803,1.486792856722523,237.56292780798958
3863.6687,1.4817714434265155,244.17478309757806
3864.5598,1.4775681989559117,248.39407876911167
3865.4487,1.4741713282993,240.33703087384689
3866.34,1.4712309272131499,262.48499869454974
3867.2297,1.4684389211932292,242.93983440644968
3868.1213,1.465616684543619,256.8322738423689
3869.0112,1.462704538202989,252.0848621306235
3869.9014,1.4596011949917147,289.95011037212834
3870.7937,1.456148790381031,274.0660350672861
3871.684,1.4522157014873067,231.76921740189874
3872.577,1.4476871029327059,262.9511097651599
3873.4678,1.4425419413332403,248.76483668015481
3874.361,1.4367488978471645,268.05578113466254
3875.2524,1.4303745160286077,237.8159192267951
3876.1438,1.4234813536573387,296.3333324898291
3877.0376,1.4160763813978479,291.7864949330946
3877.9297,1.408045917548738,241.49138409534575
3878.8237,1.399019978146564,256.5907430072239
3879.716,1.3887329738108378,299.00509233410077
3880.6108,1.3771714573738791,280.8950776469744
3881.5037,1.3648159445033012,261.2335848603364
3882.3965,1.3521435648096334,326.5596351695818
3883.2917,1.3393310496272641,289.213236245756
3884.185,1.3263265498976895,319.28432444760267
3885.0808,1.3129267224467127,337.04779650942123
3885.9746,1.2993330381254435,348.2552315754593
3886.8706,1.2859450079430235,337.95119946655655
3887.765,1.2735239641592266,336.2491133940651
3888.6592,1.2629722678515052,335.5748423310612
3889.556,1.2554298195236757,348.1132808654941
3890.4507,1.2521109055837059,365.30011276913626
3891.348,1.2537596282068977,336.3325073787527
3892.243,1.2603351883041527,311.12028405391936
3893.1406,1.2710047519311969,380.77726660779746
3894.0361,1.284283166359733,329.5237762146008
3894.932,1.2986685359398493,257.2066406840383
3895.83,1.3130424030964445,257.68744109527086
3896.7263,1.3268252675581835,334.0198356383252
3897.625,1.3400701401825814,283.7284983083257
3898.5215,1.3526981200123165,343.335210541161
3899.4207,1.3644297052214924,266.7267641757062
3900.3176,1.374763824175076,273.3031915078868
3901.2148,1.3838197760083402,295.98030292052664
3902.1145,1.3924727038058904,311.85241330402687
3903.0122,1.401791648520139,279.38309216215345
3903.912,1.412347259894984,288.19959004781754
3904.8103,1.4236084442123893,242.05490734207496
3905.7107,1.4344261939019138,265.9961511986238
3906.6094,1.4436107448003554,263.92406357395373
3907.508,1.4507851043205975,262.3952448174971
3908.409,1.4564812012027362,275.0335198511871
3909.308,1.461717912875239,326.3417247923427
3910.2097,1.4674926285188088,252.10665916488026
3911.1091,1.4743071161340537,256.71554434628575
3912.011,1.4822317067243302,275.1868508349644
3912.9111,1.490816276737556,247.36330191357206
3913.8113,1.499326285549241,241.93855503686518
3914.7136,1.5070151310368696,226.45147144086343
3915.6143,1.5134947674799335,228.49769665891654
3916.517,1.518987195558313,241.5682856132766
3917.4182,1.5238737046580997,247.50008633017356
3918.3215,1.5283254029020559,227.37740979652864
3919.223,1.5321027651448442,268.842443136737
3920.1245,1.5349342642613966,212.6645113791087
3921.0286,1.5368181604504825,239.75053723232259
3921.9307,1.538034919496151,249.55471257425657
3922.835,1.538891936802013,231.62613961398327
3923.7373,1.5394585943141939,247.31946420540422
3924.642,1.539665522059406,216.60349420158906
3925.5452,1.5395797108186142,232.3986875043643
3926.448,1.5395042519188653,226.38974554373524
3927.3535,1.5396882268924716,246.9230996460997
3928.257,1.539943594492528,229.16253614361042
3929.1628,1.5396458564491162,199.4469641550125
3930.0667,1.5382133461461278,226.45107383125003
3930.9731,1.53559293236643,221.37760091051442
3931.8774,1.5322950670926898,249.29891100376165
