wavl,flux,ivar
3566.9744,6.952941680264876,8.885177043577475
3567.795,6.9242666469786025,11.045170583693931
3568.6177,6.879879115088256,12.832229124277369
3569.4385,6.839455048189973,13.474134520801348
3570.2617,6.816434186073128,11.362692527464649
3571.083,6.8125622675987625,10.153803667652184
3571.9065,6.818499905324467,10.199979186423676
3572.7283,6.821120589317947,12.073008485989002
3573.55,6.811527693249551,9.649814812271877
3574.374,6.788781237280916,11.345351808090685
3575.1963,6.758669508633467,10.667032418438923
3576.0208,6.7289170571447166,11.373327958664968
3576.8435,6.705700093903103,11.876482214137468
3577.6682,6.691366507367685,10.26124689553884
3578.4915,6.685192154475633,9.657680630646166
3579.3145,6.684527023689626,11.622442302926945
3580.14,6.686243051826688,17.075951954348593
3580.9636,6.687636211839937,10.44971167815333
3581.7893,6.687683332456498,10.125637260982305
3582.6133,6.68851596535267,8.846193299547723
3583.4395,6.6955675624902495,11.129730903689403
3584.264,6.71450249665116,13.049630954993066
3585.0884,6.74607234873288,11.811951827707901
3585.915,6.782991366494228,9.094138288804743
3586.74,6.812373520316689,10.032212833572123
3587.5671,6.824125010514992,13.699821599831777
3588.3923,6.8167662360423655,11.765457848622825
3589.22,6.7965278277794665,13.242837737791577
3590.0457,6.770435616113067,12.402126269302238
3590.8716,6.7403948985282005,10.592125580804046
3591.6995,6.704173075869077,12.563379933695746
3592.526,6.660995897282306,10.495045448631256
3593.3542,6.614943325013995,11.603345896295002
3594.181,6.5747152991878455,12.972078839698497
3595.0098,6.548206344261757,11.047848421758871
3595.8367,6.5382331206499105,13.841142952702961
3596.6638,6.540085831614405,13.069167533595468
3597.4934,6.544277086112462,11.857255551009693
3598.3208,6.5419226864135105,13.267017166382225
3599.1506,6.52992444258396,12.74032057317417
3599.9788,6.512321144218009,13.230489034550043
3600.8088,6.496865804937106,14.317359952700055
3601.6372,6.490274857826154,16.262214605050758
3602.4678,6.494952489344164,12.87502251538888
3603.2964,6.509179328226331,9.13030644609503
3604.1252,6.528718489755737,14.642735119942042
3604.9565,6.547977884549807,13.828755206113218
3605.786,6.560746306483346,11.90056987493239
3606.6172,6.562510988005017,12.763153028052374
3607.447,6.552950684785383,14.274785727558106
3608.2788,6.53701725837286,14.25090824620001
3609.109,6.522528718409833,14.16825938841452
3609.9392,6.514960251635457,10.840894839467358
3610.7717,6.513846659881064,12.914195657930522
3611.6023,6.513176764752206,8.638423206549316
3612.435,6.505444105521139,12.956772256337617
3613.266,6.4861288969832165,11.365168190810067
3614.0994,6.455499062805219,13.109675160173145
3614.9307,6.418311214986219,11.906410848486525
3615.7625,6.381161051650779,15.335656353302713
3616.5962,6.3502825576954365,10.4236698639077
3617.4282,6.32975697857425,13.267272865638079
3618.2625,6.320601310950546,13.367768642478097
3619.0947,6.322099655708205,15.08850273366975
3619.9292,6.3326163140651754,15.65222265656776
3620.762,6.349100269543185,15.258210955866737
3621.595,6.366024408716246,13.1479707059562
3622.4302,6.375911796823828,16.143717152656915
3623.2634,6.372334518189542,13.646695806582112
3624.0989,6.353283565496397,15.264782073022191
3624.9326,6.322285284090303,14.727753934850119
3625.7686,6.286543072037788,10.806336413606463
3626.6028,6.254472198846358,14.0421115884523
3627.437,6.2319751279693705,13.625559431391657
3628.2734,6.220496284180426,11.420051600294329
3629.1082,6.216726975350362,13.153281535163327
3629.945,6.214398543014604,12.616591662202326
3630.78,6.2076493576186875,12.54046554965648
3631.6174,6.19345034451069,13.45713242943243
3632.453,6.172419849544479,20.181203713020828
3633.2883,6.147750171999256,14.057814837936855
3634.1262,6.1238159476626155,18.558748193198802
3634.9622,6.104608170386908,14.910932764508155
3635.8005,6.091474908105556,14.725685810727404
3636.637,6.082929654641757,14.581638347260357
3637.4756,6.075961085415355,17.528710614123593
3638.3123,6.068840792910564,13.644934038415393
3639.1492,6.062005814205507,13.20488637411206
3639.9885,6.056401060075971,16.137895566354754
3640.826,6.050976701640234,12.932905121156614
3641.6653,6.042341652414095,15.403533713778124
3642.5032,6.02754338015341,13.756976933724548
3643.343,6.006501284005148,12.416624237260875
3644.1812,5.981870886583889,18.554449170799945
3645.0195,5.956018175943779,11.613279965184143
3645.86,5.929335179790201,20.55241784550256
3646.699,5.901457491339494,16.186389118422863
3647.5398,5.873336867237774,14.589402291508755
3648.379,5.849037801561549,17.52462588363502
3649.2202,5.834077971583366,15.772716717462634
3650.0596,5.832902518050936,16.62093596321329
3650.8994,5.846009517686886,15.884575725551406
3651.7412,5.869582967681333,12.549566568340794
3652.5813,5.896862458927777,12.846120762651598
3653.4236,5.921190813960066,13.363220532959021
3654.2642,5.93748419574736,14.766453569423213
3655.1067,5.9430196034079135,10.669358739944949
3655.9475,5.936950859515363,16.130095329543064
3656.7886,5.920845591658135,12.402809936463997
3657.6318,5.899038279507623,12.445830171690469
3658.4734,5.877754078619594,13.506556551902566
3659.317,5.8623027370534055,16.6973547076074
3660.1587,5.855947593375416,13.721152659320852
3661.003,5.8599336137826565,17.25806252672644
3661.845,5.873274305654224,16.120833027793257
3662.6875,5.891140279894761,16.407415714114208
3663.532,5.905218410200775,14.811150076077812
3664.3748,5.908588845872056,14.594034023198555
3665.2197,5.901545007632691,14.411848651517733
3666.063,5.890949522911418,17.341803998885325
3666.9084,5.882801374276723,19.87935327134124
3667.752,5.87591272260852,17.676850634120118
3668.5977,5.8632587339099755,12.503250678411616
3669.4417,5.839894049163495,13.669000825205655
3670.286,5.8085122331143175,12.443022708903221
3671.132,5.777854560535311,17.10107269851884
3671.9768,5.756299764059572,17.60014469821811
3672.8235,5.746273965138737,19.174149200413225
3673.6685,5.744771093753419,11.216562942290583
3674.5156,5.747040818505949,16.933713007959398
3675.3608,5.749705767901354,18.204098756782738
3676.2063,5.750705695828664,15.576259101437829
3677.0542,5.747823671684842,16.301681305437437
3677.9,5.738816569049386,16.684299362783523
3678.748,5.7231879912030985,13.338012239370833
3679.5945,5.703657683328708,18.928157642591458
3680.4429,5.684726701708449,18.097509415958154
3681.2896,5.670089096450733,22.300580348494908
3682.1365,5.660132385418117,17.84951042929452
3682.9856,5.652240595867246,19.692180560707133
3683.8328,5.643126910969935,13.362146794221403
3684.6824,5.631490285308449,15.949182031244234
3685.53,5.61961752828861,27.11261921201149
3686.38,5.612199962921291,16.712959656854256
3687.2278,5.613576653471127,16.492418089392118
3688.0762,5.624320571346039,12.257183962132501
3688.9265,5.639972060668225,15.006351988547221
3689.7751,5.652717795863737,18.078417625904173
3690.626,5.655803194231753,16.088106495824327
3691.475,5.6470133005825645,15.701404307244111
3692.3264,5.629295949380256,19.38266493037844
3693.1758,5.608476553907912,15.967468067637748
3694.0254,5.589802341309705,15.506033393896248
3694.8772,5.576359325063272,17.32017269484342
3695.7273,5.569313831084022,20.31318454818431
3696.5793,5.568646792346544,20.130376296138802
3697.43,5.57354702122954,15.55145345446179
3698.2825,5.581875079055658,17.869326236743483
3699.1333,5.5901172064220015,18.721146830120755
3699.9841,5.5948258350212585,19.022820940215354
3700.8374,5.59397365502252,19.619028835027542
3701.6887,5.586919276580912,17.880725264365925
3702.5425,5.573375752938118,14.546780135121681
3703.3943,5.553684779412142,14.182721667439601
3704.2483,5.530087966041003,15.652264749521713
3705.1003,5.5078764099838615,23.388651985006756
3705.9526,5.493086553287433,17.703616910550227
3706.8074,5.488888901775431,18.915534262935896
3707.66,5.492825152268657,18.584660655331376
3708.515,5.497804758588527,14.651773012020323
3709.3682,5.4963483030438915,20.759158507682034
3710.2234,5.484605544643496,17.46110712269149
3711.0771,5.463279972297653,16.765716303440474
3711.9307,5.4356480531125,20.45784504829805
3712.7866,5.405340407595149,33.35093534153404
3713.6409,5.375793761127399,17.13694687063459
3714.4973,5.349919849325864,15.644400070797081
3715.3518,5.3308521398228415,14.917836032083748
3716.2085,5.320889699695167,21.986820220968514
3717.0635,5.320626461267627,18.918330333062272
3717.9185,5.328258913127029,20.243866989102195
3718.776,5.340928736167042,20.316734999371793
3719.6313,5.356296892368229,21.171082286303132
3720.489,5.373032582359378,20.374226340038955
3721.345,5.388980284803338,23.037986146490773
3722.2031,5.400237388366004,19.29172607686789
3723.0593,5.40210749538248,19.989146508627172
3723.9158,5.392244995288795,20.69557330604094
3724.7747,5.372352564972623,18.485788923689316
3725.6316,5.347587209658893,19.945321379050817
3726.4905,5.323506702636659,18.705440197399945
3727.348,5.304135561467811,19.063097971419275
3728.2073,5.290807965244382,21.242350330507442
3729.065,5.282737203317741,15.787175331042254
3729.9229,5.277392164155573,19.181854537951356
3730.783,5.271591797931914,15.57708988661874
3731.6414,5.263325017202356,21.700344010540373
3732.5017,5.2534825878606695,18.3929528560299
3733.3604,5.245786649580493,23.11250394871731
3734.2214,5.243659993589218,18.93746701494377
3735.0803,5.246970721205776,18.16553406287658
3735.9417,5.2517331815066735,19.886872432031538
3736.8013,5.253277760419503,22.251344253439786
3737.661,5.24960908118265,21.83136849527049
3738.5227,5.241645972742071,21.83330594131151
3739.3828,5.231184198217554,17.36433851265518
3740.245,5.218898078059792,23.513079483540807
3741.1055,5.204606593930405,18.742139946226246
3741.9683,5.188454305952375,15.783045129320017
3742.829,5.172209928403444,16.983872766385613
3743.69,5.158310319950461,25.23633417368937
3744.5532,5.148016951643542,20.142818284415302
3745.4148,5.1401333270466525,15.856607988447387
3746.2786,5.131639542074193,19.032329445722798
3747.1404,5.12039813297674,21.016000997945547
3748.0044,5.1072639711766,19.179184119762215
3748.8667,5.096436067923037,19.202934776915374
3749.729,5.092708583177522,23.05249220272577
3750.5938,5.098054924976148,21.146473228984863
3751.4565,5.109975510713478,24.606511879008554
3752.3215,5.1234075005566915,25.926946776863126
3753.1848,5.1337648707992605,19.104429979549874
3754.0503,5.139012047782456,19.112437743398868
3754.9138,5.139518408131293,24.69915608267423
3755.7776,5.137302165484169,20.090192395240845
3756.6438,5.134656074088716,19.559585082957227
3757.508,5.132688723060051,19.651234552096543
3758.3745,5.130746283225722,16.256736162477672
3759.239,5.127661096342934,20.36526047043471
3760.106,5.123233896934956,22.98703590498417
3760.971,5.118197315648722,21.260422869588446
3761.8362,5.112765705626702,21.814037416802886
3762.7036,5.106122405872329,19.869337372729362
3763.5693,5.097487993810443,24.02807635373658
3764.437,5.087066188921057,26.063803116325587
3765.3032,5.075923350931684,19.22675116234125
3766.1714,5.064749215102874,21.699629933205614
3767.0378,5.053404331277968,24.489029342461983
3767.9043,5.0410420278155055,17.40235828354666
3768.7732,5.026931860397741,20.117711110903635
3769.6401,5.011342934633758,20.57588244275284
3770.5095,4.995716687611704,21.23468674747136
3771.377,4.982915365551224,19.79570232506392
3772.2466,4.976225603567229,23.489155340757407
3773.1145,4.978005773704446,21.157437525688277
3773.9824,4.987541196677527,25.42838090003614
3774.8528,5.00020322766241,21.907004408422758
3775.721,5.008912424185247,26.247691970312715
3776.5918,5.008280211974444,23.44437046500018
3777.4604,4.997923223923142,20.92367503049731
3778.3315,4.982348166539012,18.57078988855151
3779.201,4.967350242200008,26.72748366885489
3780.0703,4.955739429710527,27.41655395716982
3780.942,4.946633032281994,21.003863429902708
3781.8118,4.938111839612888,16.4476161782218
3782.6838,4.930116402511948,21.723586585042302
3783.554,4.925110509959827,25.056075798364525
3784.4265,4.925610329470623,20.12342797551132
3785.297,4.9313042179291235,41.723086551875966
3786.168,4.938299336223261,24.326523839506898
3787.041,4.9416260178255955,22.16812431126691
3787.912,4.938933247484778,20.91182381243796
3788.7856,4.931977002281431,24.023974137019202
3789.6572,4.924406472907313,22.89490730671354
3790.531,4.91800322214864,22.529071186451567
3791.403,4.911256498545097,19.33867048618145
3792.2754,4.900829345000403,25.045097899079312
3793.15,4.884291990290726,22.734698930793506
3794.0225,4.861809394859537,24.482130940134866
3794.8972,4.835483703883176,21.289136097982873
3795.7703,4.808397738817759,17.95864918404714
3796.6455,4.783071908342797,17.9210804079279
3797.519,4.76168230814126,23.718133662055187
3798.3926,4.746062961482892,27.257023251961826
3799.2686,4.738208788580961,33.626567289966715
3800.1426,4.739686001777791,24.685264704309553
3801.0188,4.75007317789404,25.01090294939493
3801.8933,4.766065379413934,26.09377853025007
3802.77,4.782784394983352,25.83817087345635
3803.6448,4.796100438405904,26.17375978567826
3804.522,4.804649606991512,24.297174508133295
3805.3972,4.809454510827383,22.202244846585256
3806.2727,4.812920629577172,27.61853469415287
3807.1504,4.817372802639459,28.457204356395778
3808.0261,4.823588981534645,29.97490848448828
3808.9043,4.830095485637289,21.118297090449296
3809.7805,4.834034005841095,22.346151576464166
3810.659,4.833453238310161,22.65582236806837
3811.5356,4.8285479206150255,36.355079032639225
3812.4126,4.82101046644303,18.451540422826167
3813.2917,4.812464901253562,24.144818755627796
3814.169,4.803734587194693,23.997090993544784
3815.0483,4.795136821030419,18.415248945817556
3815.926,4.787663602196698,27.525491548760662
3816.806,4.783213956367858,25.288397202857542
3817.684,4.783637129561861,28.48082020996278
3818.5623,4.788733664924534,22.14623577316173
3819.4429,4.795335515399095,21.61834297291668
3820.3215,4.7983749692999,22.895977885325674
3821.2024,4.793621387849501,20.44250044277162
3822.0815,4.779717788335485,18.297185491455796
3822.963,4.758126228594302,26.082497424504197
3823.8423,4.731891184847268,24.153911615178032
3824.722,4.7038557572737885,21.927916758234648
3825.604,4.676113992375559,24.1963399025951
3826.4841,4.64998964856461,25.032828479857336
3827.3665,4.6253405946376205,32.82679676173207
3828.2468,4.6009790839003095,26.329236680249082
3829.1296,4.5745186687163555,27.28981731812792
3830.0105,4.543679444052818,29.615201002154414
3830.8916,4.506928933877729,26.79948089275227
3831.7751,4.464603169304594,29.935485895459784
3832.6565,4.419691250892176,24.49737858334355
3833.5403,4.376628892094585,23.43615026992109
3834.4224,4.341046683253923,37.050514170924124
3835.3064,4.317591775375694,30.89897494136259
3836.1887,4.309243721392211,26.138153795159614
3837.0713,4.316063026237545,25.922670032211446
3837.956,4.3351717156133684,34.48825731690875
3838.839,4.361250933248292,28.40157131195481
3839.7244,4.389155538665621,27.875281788927968
3840.6077,4.4161869574311305,24.74757324353771
3841.4932,4.443283300977741,30.420071419280987
3842.377,4.472373147277744,26.793244558446098
3843.261,4.5039653186499855,33.46465082894723
3844.1472,4.536066681932309,25.048630833998825
3845.0315,4.565164933369235,27.37829329926069
3845.9182,4.58859073141648,25.932929505232213
3846.803,4.60545300136151,24.713660729064177
3847.69,4.6178413506538485,25.41926575323448
3848.5752,4.629905425781886,25.658737913505483
3849.4604,4.645938787922022,30.210744829556443
3850.3481,4.667831725533539,22.915258903829294
3851.234,4.69378482256225,26.4711128577955
3852.122,4.719806471794099,24.25180175928021
3853.0083,4.741723320935498,20.908545777768808
3853.8967,4.75781900929069,22.720554894827647
3854.7832,4.768728148607837,22.38111725176404
3855.6702,4.775940161874898,21.85328596141244
3856.559,4.77951164571753,25.9059611213795
3857.4463,4.7778789364004695,22.178116520774292
3858.336,4.769770331956827,24.554283157846815
3859.2234,4.756157861543009,23.821957869110648
3860.1135,4.740063172377991,25.74168368725597
3861.0015,4.7252390416528165,23.86609495703433
3861.8896,4.714274009440673,33.4887428399801
3862.7803,4.707720535875801,26.32992702731768
3863.6687,4.703537617134133,19.399790198997017
3864.5598,4.697483161004145,23.389890793468908
3865.4487,4.685402047090924,25.693045203319155
3866.34,4.665777559078733,30.11085971095693
3867.2297,4.641137291609945,21.20880205984879
3868.1213,4.616330098068544,31.789051268910203
3869.0112,4.595905074266502,24.327066709663885
3869.9014,4.5810757774568565,25.110033775386196
3870.7937,4.569136098313213,20.961710122482284
3871.684,4.555117194489824,22.82855255062654
3872.577,4.534382685398391,27.474033568578193
3873.4678,4.504897559771951,28.78149854676975
3874.361,4.467122094542727,27.962404529061512
3875.2524,4.4241772859093205,24.991950260258527
3876.1438,4.380578009757113,21.55893604286585
3877.0376,4.340796118763992,27.975471633447714
3877.9297,4.307113145760225,32.245590167882426
3878.8237,4.277731117943097,25.166364822723224
3879.716,4.248615465732459,32.39205062067101
3880.6108,4.215300216137298,40.42641922892775
3881.5037,4.174907823731953,44.316609674060956
3882.3965,4.126233408254437,30.30882201718919
3883.2917,4.070583616476845,26.420456814013267
3884.185,4.012430446150749,35.440924336734525
3885.0808,3.956544706644643,35.74222539597075
3885.9746,3.9060080983087047,35.53963163120359
3886.8706,3.8599394764334947,36.75666687044915
3887.765,3.816632134713673,34.501460849237155
3888.6592,3.7762427169862796,39.30090792523906
3889.556,3.742278732224333,47.21265100674208
3890.4507,3.719957914886287,43.12640425244843
3891.348,3.712931680799766,37.32565969491386
3892.243,3.7223563669532767,38.538613049631074
3893.1406,3.7469980743177804,42.10111008095866
3894.0361,3.783622644705084,42.01375924546053
3894.932,3.827846187346403,40.40330250014776
3895.83,3.8749146898739495,40.27505728739796
3896.7263,3.920816163542196,31.465394864619743
3897.625,3.964400987527767,31.647872687531947
3898.5215,4.006482713918825,38.549992298544225
3899.4207,4.049353413841451,29.46840793709057
3900.3176,4.0942426492598525,33.69345005314057
3901.2148,4.141483608742625,26.759664091904916
3902.1145,4.19062133559669,33.53662545872619
3903.0122,4.240861099762509,31.639521511597557
3903.912,4.292400922138643,21.05581142993564
3904.8103,4.345366234490166,26.115846195639072
3905.7107,4.399971261533198,20.188010998221877
3906.6094,4.454661766842493,21.98981107816466
3907.508,4.50659437505174,27.060340583996204
3908.409,4.55223691469328,23.73030132051313
3909.308,4.589031320239267,25.547641675321216
3910.2097,4.617630415604275,24.188602634034858
3911.1091,4.640854436467756,27.539407126539963
3912.011,4.662151239029925,22.898945914799864
3912.9111,4.6830439502351835,20.42418051058369
3913.8113,4.703065931339964,25.19343840998392
3914.7136,4.720701819418755,23.95824260414917
3915.6143,4.7348485385749495,26.571085004669087
3916.517,4.746108705065495,24.689694159211484
3917.4182,4.756244241251541,24.45914223996532
3918.3215,4.7668667783153245,25.15444680852914
3919.223,4.777868796898358,22.289192468636426
3920.1245,4.787739300567201,23.934053260439065
3921.0286,4.794982425172057,20.599226033557066
3921.9307,4.799570030999215,23.681822632461525
3922.835,4.8033814083269375,20.278048016713782
3923.7373,4.808941095298604,23.558913318604073
3924.642,4.81736707184771,27.20244530101188
3925.5452,4.8265716215461305,20.137397599397882
3926.448,4.832045193613129,21.730197324274588
3927.3535,4.829862950983724,21.11493909824596
3928.257,4.819540426416943,26.403890320934746
3929.1628,4.803825360208035,21.260372126505356
3930.0667,4.786315093045732,23.14134742509198
3930.9731,4.769037350244855,20.709689436257204
3931.8774,4.752407502639602,26.223954805439917
3932.782,4.735668143275166,23.278328006001075
3933.6887,4.718085248441496,24.641692919891828
3934.5938,4.699920359639265,30.14143588062158
3935.501,4.6821962097597725,22.410334836762907
3936.4062,4.66599116564386,23.74177437000792
3937.3142,4.651065378436025,30.594481876983956
