wavl,flux,ivar
3566.9744,12.74364070554196,3.7175756482639595
3567.795,12.69726356227276,3.6826171554304916
3568.6177,12.641689845309596,3.8648166449717505
3569.4385,12.596604481755476,4.293417527336258
3570.2617,12.573073321244657,4.569930967003074
3571.083,12.56904946079074,4.1191944757597385
3571.9065,12.57049844568224,4.8087862039513025
3572.7283,12.561022153711518,4.487905642083138
3573.55,12.533576279794953,3.792554286852971
3574.374,12.495302975766501,3.7200637047903022
3575.1963,12.461548303496867,4.2166753799810275
3576.0208,12.442843745242923,4.743110598974532
3576.8435,12.437784310805823,5.389578767130868
3577.6682,12.435557142482134,4.190289528435771
3578.4915,12.425711514911265,3.9149007615971834
3579.3145,12.405709638220458,3.49825729357449
3580.14,12.381214799470582,4.223355980996835
3580.9636,12.361336901113583,4.072252742485357
3581.7893,12.353199401962568,4.205998730742168
3582.6133,12.360541323226819,5.144922455028277
3583.4395,12.38449148179972,3.4980230666159304
3584.264,12.424122127744582,4.130989973961125
3585.0884,12.475312652737305,4.332551781250708
3585.915,12.52796884719162,4.866670778885529
3586.74,12.565797154181107,3.4898818735278776
3587.5671,12.574106234535735,3.9826882103472285
3588.3923,12.549200364824479,4.306053569302816
3589.22,12.501743771047238,4.073958987303044
3590.0457,12.449216748172821,4.0958215437947585
3590.8716,12.40261381459085,3.623965625434102
3591.6995,12.360779192648103,4.56551473777499
3592.526,12.315416977434563,4.876698670370902
3593.3542,12.260477386936,4.7265487277649605
3594.181,12.198823018515938,5.182336415015429
3595.0098,12.13879660991595,4.122818715789884
3595.8367,12.088326978162007,4.6835125754267235
3596.6638,12.048944566054827,5.647486264130915
3597.4934,12.016534649832119,4.458648835840961
3598.3208,11.98534934170495,4.082432971232115
3599.1506,11.95111551201108,4.191423811828088
3599.9788,11.912536239512091,4.506614026934335
3600.8088,11.869515660229986,4.6403700635462934
3601.6372,11.82467912954199,4.399040624485647
3602.4678,11.785770705040884,4.427209269231196
3603.2964,11.766776218041548,4.070684811778724
3604.1252,11.781056684095333,6.206073509262395
3604.9565,11.833319412865544,4.39420829543071
3605.786,11.915347676397237,3.8392137142627116
3606.6172,12.01099996838211,4.551298545693963
3607.447,12.101567284482273,4.825283113855033
3608.2788,12.171569243139475,4.446266419930643
3609.109,12.209370586526726,4.611048469578282
3609.9392,12.210504992639502,4.557671765514046
3610.7717,12.179547408527725,4.165155298248596
3611.6023,12.130522687793759,5.166355865868545
3612.435,12.08010697978361,4.485699258610078
3613.266,12.038835303651494,4.348620909665428
3614.0994,12.004781732071352,4.3409691169679645
3614.9307,11.96811120396639,4.614550851963857
3615.7625,11.92044738631721,4.2191453185978585
3616.5962,11.862959403599778,4.937000837405435
3617.4282,11.806500652896755,4.570249623459749
3618.2625,11.763700124279845,4.699207223857416
3619.0947,11.74243669617538,4.6570099932294955
3619.9292,11.742186738157887,4.945105356975251
3620.762,11.755785186521729,6.238216922724158
3621.595,11.771963049983448,4.1536356956421585
3622.4302,11.778677769529056,5.363183253775451
3623.2634,11.768008679178108,4.64280740323971
3624.0989,11.74120072255426,4.599118781456074
3624.9326,11.709016944152962,4.540303990046692
3625.7686,11.684188972920095,4.452968713341758
3626.6028,11.672323508851807,3.5762886929127107
3627.437,11.668188541062197,3.614252965913958
3628.2734,11.662059847035561,4.568934074029033
3629.1082,11.648837538202397,4.268533204766684
3629.945,11.631028986419242,5.089639239354001
3630.78,11.613913202648721,4.970400500016903
3631.6174,11.59846049758283,4.563593415061195
3632.453,11.580558735177224,4.53840928257069
3633.2883,11.555807499808493,5.01294923476404
3634.1262,11.524890773501545,4.7152229257550475
3634.9622,11.494010513181223,6.502551263410103
3635.8005,11.469447333271967,6.045521575013238
3636.637,11.45316903388705,5.231110283425772
3637.4756,11.441758084006617,5.175536138132007
3638.3123,11.430702308644399,5.35479890634253
3639.1492,11.418557259797586,5.8703288441730015
3639.9885,11.407588134956331,4.465785528581363
3640.826,11.400052942795147,4.959064657700319
3641.6653,11.393952849232134,5.989462248466527
3642.5032,11.383536720561844,5.285469568019388
3643.343,11.363753486303752,5.068708971223265
3644.1812,11.334537994405459,5.110871261631935
3645.0195,11.300594295765068,5.496896081103434
3645.86,11.268951905780405,4.724287202579918
3646.699,11.24672974395214,6.444672026046327
3647.5398,11.238277289809208,5.401231481990806
3648.379,11.242941559189136,5.099592945320175
3649.2202,11.254088940983001,4.6755339683700265
3650.0596,11.261941697072903,4.917466106997459
3650.8994,11.259110808454743,5.654635130987327
3651.7412,11.24498178883425,4.9937493497324565
3652.5813,11.226621264058666,4.605108333067319
3653.4236,11.214038268429896,5.437844979362377
3654.2642,11.212674682016173,5.1848168944533635
3655.1067,11.218019214198819,5.511614680334708
3655.9475,11.218184790145145,4.990539441588983
3656.7886,11.202516698360178,4.7662898681421035
3657.6318,11.168837432654202,6.6877387418086505
3658.4734,11.124900296391946,4.800122725724208
3659.317,11.08347117580043,6.785047165557585
3660.1587,11.056840613132657,5.7522327153847
3661.003,11.051100691544818,5.940168524824775
3661.845,11.064259487371924,6.676443499836808
3662.6875,11.087755431572683,5.589824435097793
3663.532,11.111246357911252,5.602930780281565
3664.3748,11.126776924427986,5.295436605280602
3665.2197,11.130681707201147,4.663533309434783
3666.063,11.122454963232144,5.530838166598997
3666.9084,11.103778664484842,4.990155608440669
3667.752,11.078944510018971,5.079613940499165
3668.5977,11.055161406137358,7.48366950318642
3669.4417,11.04165076394403,6.269982529405951
3670.286,11.045018599038544,6.5357221014225555
3671.132,11.064556129014113,5.829102449139956
3671.9768,11.09034935501348,4.5322369919547905
3672.8235,11.10785123139695,5.505408746788693
3673.6685,11.105746413724576,5.211246476990783
3674.5156,11.082517284975873,5.632417722740834
3675.3608,11.046795962668545,5.71756791394046
3676.2063,11.011654954679043,5.735683950232697
3677.0542,10.987874931247198,5.9199699814859885
3677.9,10.979339574785616,5.5078814448660145
3678.748,10.981501063841757,5.620231523027439
3679.5945,10.984464722597192,5.031014839443103
3680.4429,10.97890931942793,5.854453283532574
3681.2896,10.961613707552576,5.514287844343541
3682.1365,10.935791132965415,5.208023345573718
3682.9856,10.906428654134231,4.887579798362178
3683.8328,10.876582666153258,5.460875210005294
3684.6824,10.847863608977645,4.650735810064092
3685.53,10.823962293628853,5.594540107132823
3686.38,10.80893328733891,5.050744799700085
3687.2278,10.80277965291378,6.7588130312801695
3688.0762,10.799549927389792,4.87461207840876
3688.9265,10.792347593657814,4.78834594578809
3689.7751,10.77919919102921,5.486684949524626
3690.626,10.763264166583761,5.481362351284355
3691.475,10.748765258313806,4.882888370976121
3692.3264,10.73746078370872,7.459704584203386
3693.1758,10.72895175350951,5.887359679485739
3694.0254,10.721862951520572,4.763833545764961
3694.8772,10.714973554472136,6.327959870185647
3695.7273,10.708094585333459,7.666744060170119
3696.5793,10.702487400018322,5.666350475079469
3697.43,10.700429353450886,5.420619574071525
3698.2825,10.703710985680509,5.781030062131549
3699.1333,10.712253803575324,5.870908001900605
3699.9841,10.723404568474509,6.19581847634344
3700.8374,10.732428477711741,6.152466781066093
3701.6887,10.734545182831432,5.651767897541854
3702.5425,10.727773992297246,5.593257936289781
3703.3943,10.71381890033297,7.176655698650079
3704.2483,10.696064220634373,4.975142886605373
3705.1003,10.677222571715166,5.801505823246454
3705.9526,10.658500153844372,5.03701438906472
3706.8074,10.641120823992425,6.171625945095028
3707.66,10.627074189200698,5.42627703740851
3708.515,10.617118226501084,5.761579834949338
3709.3682,10.609132601361264,7.4059446030904095
3710.2234,10.598414564572716,6.966821826332276
3711.0771,10.58017603688536,5.832410162231382
3711.9307,10.550779230800977,5.896973111038932
3712.7866,10.507921789937742,5.55770507790573
3713.6409,10.452872484580356,5.530793036889901
3714.4973,10.392730220173737,5.524202642048466
3715.3518,10.340861721069487,4.759716236174714
3716.2085,10.308832614320607,7.511824074557389
3717.0635,10.298914300739142,6.416368141146751
3717.9185,10.302558711815147,6.261773277345086
3718.776,10.308751425550561,5.621395982668346
3719.6313,10.312604453887309,6.048370207317443
3720.489,10.316883367271933,6.287622126031088
3721.345,10.326458491153344,7.098572065654815
3722.2031,10.342733870262387,5.567129939182723
3723.0593,10.361978708033938,7.149746961499026
3723.9158,10.37747085190563,6.093420125187761
3724.7747,10.382068746716135,5.736241907952356
3725.6316,10.371011148079154,5.29919345545578
3726.4905,10.344590710999052,6.302434607623789
3727.348,10.30928927762546,6.7019298556795155
3728.2073,10.275114230184125,6.814425879853877
3729.065,10.251076690727169,6.436292773392299
3729.9229,10.24000647510178,6.590146361777775
3730.783,10.237804702568688,5.730834304356668
3731.6414,10.236844758862874,6.734640177325732
3732.5017,10.231348642060711,5.637463116358757
3733.3604,10.220354168762068,5.702240164779358
3734.2214,10.20621145695135,6.9304598662031465
3735.0803,10.191626520333376,6.0708640508292016
3735.9417,10.17786678263811,7.976168754343901
3736.8013,10.16552033641703,7.123981681154475
3737.661,10.154675515963154,6.661013989431389
3738.5227,10.144480543981818,7.291238677502989
3739.3828,10.132900615493183,6.09638082201447
3740.245,10.117352370775022,5.407629983033307
3741.1055,10.096008659918144,6.457196982474066
3741.9683,10.067796022217335,6.34980699817772
3742.829,10.03288586540279,6.631966295840236
3743.69,9.992726123646255,7.163236453628507
3744.5532,9.950555890987122,6.451237137502705
3745.4148,9.91137064064229,7.07638528184582
3746.2786,9.880531528692932,7.123067738113494
3747.1404,9.864044263422846,7.169085743449986
3748.0044,9.866946436738926,6.877288861342777
3748.8667,9.890582066544134,6.900081897620048
3749.729,9.929211629854073,6.819697715851724
3750.5938,9.970547062532937,6.123195692001755
3751.4565,10.001296982418205,6.806197559515541
3752.3215,10.015921765581954,6.253563895784083
3753.1848,10.019178782496713,7.272212802154128
3754.0503,10.021095701043581,6.069141627699722
3754.9138,10.027472543421155,6.795969464136792
3755.7776,10.035188846554298,7.010658694770995
3756.6438,10.036126288244322,6.829153424079408
3757.508,10.02545553905222,5.329519659219183
3758.3745,10.006212945788931,7.2943541730404355
3759.239,9.986688138436758,7.257321844815577
3760.106,9.973599950463878,6.070230192622387
3760.971,9.968580385205673,5.359603227957626
3761.8362,9.969362763128546,6.820219489936823
3762.7036,9.973357623291802,5.886635365294834
3763.5693,9.978400709066573,5.889817761011712
3764.437,9.980941072085278,6.263861915616627
3765.3032,9.97544364451758,5.949519970296656
3766.1714,9.957434634993367,7.08206644565926
3767.0378,9.927274213737178,6.794430624603523
3767.9043,9.889916005221492,5.949452639082221
3768.7732,9.851533669490056,6.375361962100513
3769.6401,9.817219020776108,6.65073418005471
3770.5095,9.790182053269469,6.644221282961321
3771.377,9.772712262201129,7.955048518629741
3772.2466,9.764593091110488,6.453483754773847
3773.1145,9.762566263356897,7.060758913804858
3773.9824,9.761560644277628,7.73338166154325
3774.8528,9.757650035450428,7.095662679414565
3775.721,9.749856296815826,7.520998103329135
3776.5918,9.739547952031431,7.909113999347914
3777.4604,9.728712342214127,7.753437171721854
3778.3315,9.71791989118604,8.111278786981593
3779.201,9.70575032216485,7.0088231802061145
3780.0703,9.689500469315568,5.794227313746578
3780.942,9.667698580153473,6.407137446175861
3781.8118,9.642713133106758,6.438296615569557
3782.6838,9.620284257853521,7.5190766470139465
3783.554,9.606819951356123,7.055759150016354
3784.4265,9.605565169175206,6.329457706146838
3785.297,9.615467441637977,7.255395205085839
3786.168,9.63144707824802,7.245815514303878
3787.041,9.645325807795688,7.421829857377118
3787.912,9.647857636023051,7.003039848967313
3788.7856,9.63325944406364,6.371928560044722
3789.6572,9.603334557304331,7.132754667962411
3790.531,9.56683842690933,8.823339427326818
3791.403,9.53423530755499,8.517179506889159
3792.2754,9.510321674899004,6.272624395196685
3793.15,9.492063435047635,7.732484257438397
3794.0225,9.472389930812685,7.225955233630212
3794.8972,9.446442349388786,6.947376789050358
3795.7703,9.415888935774328,7.784282247843578
3796.6455,9.387099397978545,7.002968840381712
3797.519,9.367070888677286,7.151182784653842
3798.3926,9.359239579581676,7.088085681900676
3799.2686,9.362879821762215,5.870373427735961
3800.1426,9.374281964423425,9.263599788762486
3801.0188,9.388878009486525,7.675019651315912
3801.8933,9.402739235569058,7.086831387924495
3802.77,9.41338742978271,7.455744876608916
3803.6448,9.419264681046547,7.112937553800689
3804.522,9.419735588349765,6.421317727757215
3805.3972,9.41524844027849,10.394114003514343
3806.2727,9.407030596658524,7.597780990181058
3807.1504,9.395623307245678,7.4397993469154065
3808.0261,9.379987875127325,7.265223567121148
3808.9043,9.35839118789975,7.929517427507474
3809.7805,9.331521271131512,6.828319609728987
3810.659,9.303966239635967,8.6674870681123
3811.5356,9.283363187771704,8.896431633204077
3812.4126,9.27581031548056,7.588920976795743
3813.2917,9.28214600934619,9.267478162913449
3814.169,9.296978777382234,8.241521108244903
3815.0483,9.31172125611406,7.057031592272374
3815.926,9.318818827663216,7.982560057147508
3816.806,9.315080184081243,7.996034320474056
3817.684,9.302086207410872,7.56047952358664
3818.5623,9.284456034305405,7.751058852920419
3819.4429,9.267144038095099,7.782445269588038
3820.3215,9.253317590145073,9.644249031661769
3821.2024,9.243032461194533,6.7802295398245835
3822.0815,9.234137169658299,6.908847301249896
3822.963,9.223810585349693,7.8479133240122
3823.8423,9.210306045493402,8.505876037845159
3824.722,9.193231980220558,7.081549423445997
3825.604,9.173139898458958,8.0266504646542
3826.4841,9.151030739090352,7.87052337937642
3827.3665,9.127390232050757,7.81828251355891
3828.2468,9.102156281656967,8.627839643687047
3829.1296,9.074233698617723,7.823246389180904
3830.0105,9.04255644009563,8.761070807694868
3830.8916,9.00649878309737,6.761556537526911
3831.7751,8.966697978445502,7.179584024974524
3832.6565,8.925254517427707,7.227665298938012
3833.5403,8.883890386839711,8.77431522877423
3834.4224,8.843740070657113,9.691543138613087
3835.3064,8.805229740192186,8.344191802010483
3836.1887,8.770830130865416,8.450621038696658
3837.0713,8.74508591073586,8.565672926979985
3837.956,8.732242654033142,10.065300426733815
3838.839,8.732864012741892,8.207247648199006
3839.7244,8.743841666791923,7.3489369872888695
3840.6077,8.761821735543762,9.081053161177692
3841.4932,8.785500501342812,9.502832421839994
3842.377,8.814067853027556,8.783832141070091
3843.261,8.846012082056099,7.810847468967109
3844.1472,8.87970135095501,8.124446524751248
3845.0315,8.913897773109708,9.218942092563928
3845.9182,8.946770226479963,8.325068176082722
3846.803,8.973800597442828,7.51706503274345
3847.69,8.990768505191603,8.748717584437209
3848.5752,8.997824540210981,7.781671999870759
3849.4604,9.00066074771677,9.104352131277498
3850.3481,9.005448912886042,10.0291204207246
3851.234,9.013250469092922,8.336660407534547
3852.122,9.019918546392203,8.258361245923059
3853.0083,9.020851891349,6.534468990904969
3853.8967,9.015215149175031,7.761657172466697
3854.7832,9.005504081503096,7.715754737691889
3855.6702,8.994212310888368,8.531116223193342
3856.559,8.981588400690812,7.955494783341837
3857.4463,8.966109357510177,8.299044104644706
3858.336,8.946324745424578,7.866270817089443
3859.2234,8.923065848219881,8.87535403393688
3860.1135,8.899598650560106,9.796200230974998
3861.0015,8.880997245066723,8.245068971225516
3861.8896,8.871288608916997,9.669698368903651
3862.7803,8.871052028369709,8.793806046938451
3863.6687,8.876182464118788,9.732500842718636
3864.5598,8.879857045082701,8.020415369883503
3865.4487,8.876759625421537,8.320311546949135
3866.34,8.866435073219787,10.712155161567933
3867.2297,8.852890605880624,8.909921554711925
3868.1213,8.840531954634336,9.640245801103644
3869.0112,8.830013217236095,9.202783009024754
3869.9014,8.81664072155977,7.9996109987835275
3870.7937,8.793212677180678,7.418436232586759
3871.684,8.755523686293172,8.721520200555824
3872.577,8.705738178604122,8.276306493174495
3873.4678,8.652381617001438,8.765131721257617
3874.361,8.60475498780921,10.269836978567731
3875.2524,8.568959756457048,9.31791367255399
3876.1438,8.545230909121708,10.377149174093109
3877.0376,8.529789720649537,10.081159770410224
3877.9297,8.517242990559353,8.697941643002887
3878.8237,8.50180374872295,9.24403805880414
3879.716,8.478273710640497,9.680474232803535
3880.6108,8.442659199889034,8.946738000217897
3881.5037,8.393835126819859,8.971449565805223
3882.3965,8.333427750972156,8.416413663300712
3883.2917,8.265158978182237,8.92436233058897
3884.185,8.19442130008606,8.18083259390585
3885.0808,8.126271699527697,9.882972607005026
3885.9746,8.065850679323187,11.019993469829549
3886.8706,8.015857976967656,10.906077475526628
3887.765,7.977017285749323,10.567822343606414
3888.6592,7.948193306323024,11.654356176356083
3889.556,7.928617904211674,10.140344322460782
3890.4507,7.919006379527206,10.318655191010077
3891.348,7.9206821656946955,11.815784276950751
3892.243,7.934121897852381,11.911595372465234
3893.1406,7.957790821008803,11.246736668275432
3894.0361,7.988294167142861,9.842390908867516
3894.932,8.022611099010755,10.48684718080253
3895.83,8.059408252585683,9.066622323785012
3896.7263,8.098290124991134,11.224195311763332
3897.625,8.138789391840918,9.697282790627545
3898.5215,8.178757684143111,10.424945812921356
3899.4207,8.216045209121084,8.745795608132768
3900.3176,8.249338698958105,9.090858003909084
3901.2148,8.279974646805952,9.571373841609404
3902.1145,8.311208346210588,9.778952605297677
3903.0122,8.345937028429322,9.052317476263314
3903.912,8.38443470955384,9.514688907095946
3904.8103,8.422423430130262,8.966458982590632
3905.7107,8.453715526482362,8.758309872375218
3906.6094,8.4740480673718,9.167708386561623
3907.508,8.48495036561197,8.10085535653073
3908.409,8.492770504339072,10.449896007837703
3909.308,8.504478445297337,11.464346543430516
3910.2097,8.523848239778484,8.390823746003482
3911.1091,8.550613969862885,9.10099503260181
3912.011,8.583153153456509,10.627502279832264
3912.9111,8.620040814153413,7.924402763803293
3913.8113,8.660359812987917,7.812960839969951
3914.7136,8.701718062447096,8.726477431686103
3915.6143,8.738305301277128,8.916366324018291
3916.517,8.761998614539477,7.731552071012637
3917.4182,8.765576615751124,7.339856426919374
3918.3215,8.748589620872789,8.919131725403862
3919.223,8.720138975815676,10.788417215764083
3920.1245,8.695211233786951,8.700711748729397
3921.0286,8.686697860614494,8.811740407390385
3921.9307,8.698531336668855,8.54987436195908
3922.835,8.724735807619027,8.19041652147395
3923.7373,8.754318945813266,9.286444380968263
3924.642,8.778373951043188,9.12560700418593
3925.5452,8.793491282980002,8.670852146525084
3926.448,8.801472530093971,8.684907818507371
3927.3535,8.805636902724537,7.746742288980861
3928.257,8.80780111615341,8.774920530403064
3929.1628,8.807561398004047,9.583102943315154
3930.0667,8.803088508765018,7.88784879373901
3930.9731,8.792053102256933,6.963863271281237
3931.8774,8.7724556499472,7.36016672804829
3932.782,8.743544408940734,7.801608599384138
3933.6887,8.707173763940405,7.846937804290821
3934.5938,8.66838508465856,9.168092006119865
3935.501,8.633179976288888,8.15509017097473
3936.4062,8.606395887370306,8.190423287468224
3937.3142,8.589149946829696,8.12152129099965
3938.22,8.579123495031604,9.49734903832155
3939.128,8.571159283686248,8.512213341195766
3940.0342,8.558863382168242,9.637217999216837
3940.9407,8.536211410568924,9.802765477310611
