wavl,flux,ivar
3566.9744,3.5316102982512265,14.81750947512275
3567.795,3.4877503990902143,13.53274783575962
3568.6177,3.442645698656802,19.275028329511507
3569.4385,3.401653460949778,60.815920929221434
3570.2617,3.367826592347802,22.80891116048582
3571.083,3.343628171039157,20.395531535274937
3571.9065,3.330777943872475,20.38931265657954
3572.7283,3.3301290724020385,22.036890277472878
3573.55,3.3398304074750724,23.668086987711305
3574.374,3.354470534863003,15.9105086641158
3575.1963,3.366208147013759,19.730141812934967
3576.0208,3.368768743684145,14.772587123296741
3576.8435,3.36077870164324,13.609032511926952
3577.6682,3.3458304687098304,29.381375816452767
3578.4915,3.3290407715580947,39.30547393010738
3579.3145,3.313459195980334,18.346045124699867
3580.14,3.3005242968350923,26.241075441067192
3580.9636,3.293440408578055,18.106212359127834
3581.7893,3.2978445405762016,30.88691667315001
3582.6133,3.317470527344384,15.88249777563352
3583.4395,3.348880054368787,13.471668447695968
3584.264,3.3816136954448015,22.324351082509615
3585.0884,3.4053820761231925,33.256840108273295
3585.915,3.4157392074184836,15.719339828327742
3586.74,3.4138770094175723,29.624234666352894
3587.5671,3.4029594485726777,18.23842840056824
3588.3923,3.386346758630097,14.937206719071138
3589.22,3.368551306324459,26.27871787141065
3590.0457,3.3557231954224633,15.180025772959716
3590.8716,3.352215790916682,35.98504334387887
3591.6995,3.3570248667510576,25.78766599976253
3592.526,3.3636696366085386,17.8612680093031
3593.3542,3.365087987738083,23.71531004183503
3594.181,3.359406958762655,24.08045083477369
3595.0098,3.351505904940851,38.79547192459363
3595.8367,3.3487631083253238,18.600552863566488
3596.6638,3.3545138774340804,32.97674241869322
3597.4934,3.3655017689310496,20.979151366415056
3598.3208,3.375064744161606,22.859162637512163
3599.1506,3.378973622906684,16.484030777355915
3599.9788,3.377336097954701,23.283884608203035
3600.8088,3.3718213118035205,26.586606829202285
3601.6372,3.3622509305771517,36.76465588163612
3602.4678,3.3468950417443133,17.956924643692673
3603.2964,3.3260098448240125,16.784138327777324
3604.1252,3.303356044314136,14.165853761337724
3604.9565,3.2841256857080787,20.25366474712853
3605.786,3.2714811960580024,18.017189856502856
3606.6172,3.2653746806055985,21.086052453327554
3607.447,3.265400711377834,22.68909121173037
3608.2788,3.27283890866799,20.12197100732376
3609.109,3.28896351183043,27.912269019557936
3609.9392,3.3115991591298344,18.187424347246935
3610.7717,3.3345307355866685,19.767115199364042
3611.6023,3.350722319107262,24.45673907378417
3612.435,3.3565429574852232,26.078976605308497
3613.266,3.35256945429661,21.526279169090326
3614.0994,3.3424106035639336,29.658776374369157
3614.9307,3.3308411156852498,17.325879264050585
3615.7625,3.3219470097629187,20.670716887022017
3616.5962,3.3179390262721196,17.04316948981515
3617.4282,3.318577720848538,30.000024761829813
3618.2625,3.32152377199674,37.06263596974143
3619.0947,3.323588824365432,23.17323073771018
3619.9292,3.3224636149045392,23.142734826125878
3620.762,3.3179136464625554,19.006309225475768
3621.595,3.311439937241405,23.778760918136307
3622.4302,3.30438454381886,24.19193680091045
3623.2634,3.2961950481111377,28.19614015842795
3624.0989,3.2846510133344125,15.320329452088428
3624.9326,3.268747615436252,20.003008277413233
3625.7686,3.2507525072888037,18.81210165193086
3626.6028,3.235476882777234,23.304873024654587
3627.437,3.2266397149324004,23.981944061544798
3628.2734,3.225185218403895,20.997042516021406
3629.1082,3.230403187069916,16.13226219363607
3629.945,3.2414488994505652,48.41093923710046
3630.78,3.256655583304414,26.174927849992727
3631.6174,3.2726594773792894,34.697951701586845
3632.453,3.285787075677875,22.12005573724703
3633.2883,3.2962497020105705,18.510930425707446
3634.1262,3.3096012590747907,35.820088050336096
3634.9622,3.3327529262307802,20.458418745073153
3635.8005,3.3676066111329974,25.511957419150004
3636.637,3.4072695992738837,17.495724759632157
3637.4756,3.4402007386413396,16.191556530728516
3638.3123,3.457100770085878,9.32550258829807
3639.1492,3.4569812326910836,38.26484744912506
3639.9885,3.4462613021119055,29.67658808458719
3640.826,3.4339171858059094,22.136010700886853
3641.6653,3.4262809793340594,19.830905762242168
3642.5032,3.425598517013964,18.569161919524372
3643.343,3.4311741239249485,25.337760503883874
3644.1812,3.4411798712290387,12.530245271472587
3645.0195,3.4538866837573687,21.742900983799515
3645.86,3.468204976607298,23.117859785822084
3646.699,3.48343442064597,31.561092701024688
3647.5398,3.4989011960326177,23.676764584801344
3648.379,3.5134575244826576,15.430930918517376
3649.2202,3.52622125167488,32.702038573286714
3650.0596,3.5367467482491253,21.62070516184971
3650.8994,3.544985873240866,23.255229393115094
3651.7412,3.5505489676254176,13.119450152837985
3652.5813,3.552213901918125,27.070538137144894
3653.4236,3.5474858692024163,19.38075395398693
3654.2642,3.5324888702786463,15.384928822224145
3655.1067,3.5034552018288228,15.18326615940087
3655.9475,3.460520326154152,14.863407339659519
3656.7886,3.4100282627931437,18.442570840440688
3657.6318,3.3632266825026327,24.78191645204183
3658.4734,3.331313754990374,16.41619790628886
3659.317,3.3196957506472575,33.88459017483103
3660.1587,3.3273723740275187,34.18917376402059
3661.003,3.349205161623666,26.295906911813816
3661.845,3.378802978557849,12.407502398054248
3662.6875,3.410430931247624,15.643615613637497
3663.532,3.4391491543893906,15.133844953501361
3664.3748,3.4609336969501614,23.417343262306346
3665.2197,3.4736135679183637,16.259018122852073
3666.063,3.476681351095073,16.36438481559276
3666.9084,3.4709129670271355,18.772285623924386
3667.752,3.4573879377582606,25.5116939747296
3668.5977,3.4370224694561333,23.68491076502842
3669.4417,3.411356485584131,22.306334207892835
3670.286,3.3831001061342802,14.314803830170934
3671.132,3.35637964984547,41.65646483849989
3671.9768,3.3359148869645323,20.778216465637193
3672.8235,3.3252032116441512,21.254918396031503
3673.6685,3.3258653799731035,20.800666509318052
3674.5156,3.3372601511415705,25.02441073059561
3675.3608,3.3564999828239164,21.06815615231821
3676.2063,3.3788880318213796,22.98723781401111
3677.0542,3.3989737132042603,23.678901423771844
3677.9,3.412361971057243,26.038894933445132
3678.748,3.4177846374715424,14.669805446532186
3679.5945,3.416785627710173,25.86360553098792
3680.4429,3.4117697332512313,13.95463389920884
3681.2896,3.403347854002214,26.983403145249497
3682.1365,3.389370414926264,20.611258886687775
3682.9856,3.3666679016670726,19.140684640072653
3683.8328,3.334410616596839,19.8604233994078
3684.6824,3.2956977450775997,23.876828529323962
3685.53,3.257625550060991,55.79592815552212
3686.38,3.227983583267135,26.16944026969408
3687.2278,3.21304035357333,23.43378212239051
3688.0762,3.2149595396466224,35.993953816183065
3688.9265,3.2313176444592395,19.926315430313235
3689.7751,3.255675989529127,26.95849245356592
3690.626,3.280857874213523,35.55264515951927
3691.475,3.302243668159718,29.288690719457595
3692.3264,3.319654719432973,21.395150974219142
3693.1758,3.3350277559223143,20.849647389790952
3694.0254,3.3495545941511855,15.85023400346087
3694.8772,3.362331345530195,18.143848566355214
3695.7273,3.371774563666261,17.453720887928302
3696.5793,3.377764374720707,33.95511122546663
3697.43,3.3815233731210115,23.2445922299646
3698.2825,3.3838441919277433,20.455422830997247
3699.1333,3.3833329061966886,26.293802302321716
3699.9841,3.376951941905265,14.522020035321132
3700.8374,3.3625521512359047,29.74734629343274
3701.6887,3.3416153076669692,25.808465429196705
3702.5425,3.319113610607857,18.25576263615899
3703.3943,3.3011475019798238,21.62304527282417
3704.2483,3.290823842598923,19.31092272050218
3705.1003,3.286521800913636,26.858209116563906
3705.9526,3.2828106974450284,20.16142966267871
3706.8074,3.274212966272638,19.670954992616632
3707.66,3.2589328837361986,18.97194975052205
3708.515,3.2395912800000977,26.22989237031559
3709.3682,3.221335024640111,19.798759406686912
3710.2234,3.2085353056529637,19.338127883978842
3711.0771,3.203424661360911,32.911494431015726
3711.9307,3.2055134227638957,24.233031229849523
3712.7866,3.211840110706104,33.15875570921369
3713.6409,3.2180750258539605,13.867114855716355
3714.4973,3.221418642350459,27.157303490372144
3715.3518,3.2227665802129,27.87487183920425
3716.2085,3.2256493730805738,18.71208250036818
3717.0635,3.2322558864036997,19.687670009224707
3717.9185,3.240488783008777,20.29949148577952
3718.776,3.2444343261249484,23.226520036750646
3719.6313,3.237704559749656,20.37907604437493
3720.489,3.217663090198592,24.74640541863727
3721.345,3.188310104637708,20.764976119936065
3722.2031,3.1590752638742923,36.41179805458855
3723.0593,3.14041097462678,21.184792957151146
3723.9158,3.1375232320097592,28.638804524008084
3724.7747,3.148452208148613,21.471124987329173
3725.6316,3.1663829586524384,34.81695150712558
3726.4905,3.1842766992704554,28.25410219383619
3727.348,3.197390139772925,27.88925545781578
3728.2073,3.204130460628136,21.31728183046035
3729.065,3.2056627457795748,19.09457332490326
3729.9229,3.205287483242567,26.68221963353841
3730.783,3.2065530768191977,28.921743110668235
3731.6414,3.2109261472149835,23.808312748173417
3732.5017,3.2166537750680115,21.271788849895998
3733.3604,3.219753726825822,17.522871917753495
3734.2214,3.2168005567599187,24.399701639031875
3735.0803,3.2076724568756783,20.741184428589392
3735.9417,3.1964507820840358,26.02797021629535
3736.8013,3.1898311102314882,18.348252568894612
3737.661,3.1932793374276294,18.186732083738402
3738.5227,3.2077012558145985,30.235452368709115
3739.3828,3.2280266850093584,17.333539585422734
3740.245,3.245425080743821,22.53479757131657
3741.1055,3.2513816328650123,17.33855056231373
3741.9683,3.242318972077539,23.31067954847388
3742.829,3.2213163235041393,25.86888226890622
3743.69,3.1961453819715615,20.747765732437788
3744.5532,3.1749827996884603,27.574021951031494
3745.4148,3.1627035053575385,26.73329626841226
3746.2786,3.15924053847063,24.417477809667922
3747.1404,3.161266260897878,35.5888743632703
3748.0044,3.1645241251028384,31.34709485030304
3748.8667,3.1652949240827617,18.013002222725667
3749.729,3.160565744012117,31.93847983618635
3750.5938,3.1479913881038475,23.459941174637745
3751.4565,3.127334930659775,20.522326842389283
3752.3215,3.10211050418012,28.20800581848943
3753.1848,3.079758999514628,12.623942067384407
3754.0503,3.067543798997672,51.9282644660173
3754.9138,3.0680711511225653,21.14017195551738
3755.7776,3.077487566036906,35.68667854406152
3756.6438,3.0886438908971905,26.232334591214933
3757.508,3.095554702410326,23.840577549460075
3758.3745,3.0962177718942088,14.95364033074993
3759.239,3.0921939712305746,20.667833512168055
3760.106,3.0868109198340528,20.156944854835274
3760.971,3.0832300132484356,32.38839336352545
3761.8362,3.0826828564490336,23.263535810933494
3762.7036,3.083646623632454,20.2578640514504
3763.5693,3.082512108438342,28.899085992755708
3764.437,3.0758541749402815,30.170074987284252
3765.3032,3.062891407433922,26.09431592818858
3766.1714,3.046062330610413,27.982695822903633
3767.0378,3.0295480631365117,30.06859703697968
3767.9043,3.016429867988903,32.50937544902952
3768.7732,3.0075146274806124,33.195413553540035
3769.6401,3.0022586652956136,23.621287436760838
3770.5095,3.000299071836297,29.20683412198036
3771.377,3.002318915052823,30.253813537520834
3772.2466,3.0096606964754313,24.9010982018674
3773.1145,3.0235739635072645,33.159597313236254
3773.9824,3.04431334494427,38.14671571309636
3774.8528,3.069658882935866,20.728723006551466
3775.721,3.093617458179847,36.866697683186025
3776.5918,3.108387898339706,16.759457856929355
3777.4604,3.108269433483621,16.54224732634706
3778.3315,3.094155611176013,35.4022312149805
3779.201,3.073638201164531,23.763127605568382
3780.0703,3.056146463947028,28.068645304424866
3780.942,3.0470718717991323,22.653167222094375
3781.8118,3.0452816957217146,28.211252752212737
3782.6838,3.0453154466848322,31.902065640653603
3783.554,3.042059330111257,23.116510823172515
3784.4265,3.0337494153728652,29.447713271791066
3785.297,3.021931338323445,17.739663495133144
3786.168,3.0093014361535664,38.88161879905987
3787.041,2.998101742951983,24.236102405774194
3787.912,2.9899812374639874,32.31612870967514
3788.7856,2.9862566356062996,32.831353431220826
3789.6572,2.9877631852228683,25.80776195210286
3790.531,2.9936171322182554,22.97028140247198
3791.403,3.0006020092461845,23.62857400862062
3792.2754,3.0044360362904996,22.49967025790483
3793.15,3.001914113068654,38.37826969234642
3794.0225,2.9922686418121986,22.970220312117757
3794.8972,2.976863805319831,33.01294416446423
3795.7703,2.9586670155272388,21.711568305678924
3796.6455,2.9416710683590637,32.44185108278348
3797.519,2.9306150632316212,25.861508821586792
3798.3926,2.9291698802636144,42.085054765549756
3799.2686,2.938141795192184,37.88828955502395
3800.1426,2.9544143301154424,51.10055000920153
3801.0188,2.9723697894047376,16.043885611189673
3801.8933,2.986520764155991,26.005597098720067
3802.77,2.994442469826117,24.450511709699686
3803.6448,2.9972752458651923,39.54962622451586
3804.522,2.9984124478901832,27.33655331039726
3805.3972,3.0008518774250925,29.948277653838993
3806.2727,3.005083562137129,23.179349646440095
3807.1504,3.0086096241001843,30.240450958155026
3808.0261,3.007720489230787,29.353467926224784
3808.9043,3.000728014899631,18.704993476748395
3809.7805,2.9900265340639383,28.292877400448894
3810.659,2.9806467222133324,23.920533277014226
3811.5356,2.9765668843790474,17.289125668974567
3812.4126,2.9776257627328166,24.88362717152881
3813.2917,2.98008600680031,25.310080411245654
3814.169,2.979747456711246,20.845876764042337
3815.0483,2.9750216778535714,23.166082358598324
3815.926,2.9676646397726345,32.5758085300819
3816.806,2.96107921581343,27.65329362268452
3817.684,2.958016125655439,22.739276200184154
3818.5623,2.9588975784455944,30.29890145816854
3819.4429,2.9618874710365866,35.97604304517617
3820.3215,2.964221952552516,28.82175647208613
3821.2024,2.9640594146533177,31.083509166127207
3822.0815,2.9613290329384907,19.862557524675637
3822.963,2.9570281644801937,31.866661817658567
3823.8423,2.9517715946217007,26.779486765565558
3824.722,2.9450405573794476,25.564704716296433
3825.604,2.9360623983407566,26.755045613706848
3826.4841,2.925235361906133,30.64920936744531
3827.3665,2.9139721562827843,37.81353139885692
3828.2468,2.9033653865073537,27.17940933547705
3829.1296,2.8928311306873216,23.370719680790312
3830.0105,2.880999400796124,27.567719653086925
3830.8916,2.8669413960254126,22.74013887096591
3831.7751,2.8504018429757525,32.08053477389622
3832.6565,2.831046686719588,22.527670732713098
3833.5403,2.8081169891946636,31.21646232416526
3834.4224,2.782312338092838,30.760714962313802
3835.3064,2.7565503339733577,30.272579602195165
3836.1887,2.735404296696964,38.23236816389871
3837.0713,2.7221629759852184,42.84524816747739
3837.956,2.7172899560168697,31.694295826349272
3838.839,2.7190883489012383,29.413560520412595
3839.7244,2.726018486260875,27.204836420016004
3840.6077,2.7379824313227066,25.12530456073894
3841.4932,2.7550732295816616,30.922763341024154
3842.377,2.7749682452293247,44.48721055244641
3843.261,2.7930072059974247,45.582933614421265
3844.1472,2.8049487236555706,25.101744508875143
3845.0315,2.8102368105668023,59.93866029715694
3845.9182,2.812982983635674,33.91674092825664
3846.803,2.8197155596139445,37.506234888973815
3847.69,2.83607334103248,25.98003559942712
3848.5752,2.863743850319576,32.114627184188855
3849.4604,2.8997482001407358,31.01264850258157
3850.3481,2.9380709016622677,21.863478395896134
3851.234,2.9723033052017924,30.56309310419064
3852.122,2.9984919056787884,25.67847913341128
3853.0083,3.014805150600655,27.134723952671518
3853.8967,3.0215208310403874,24.70156223310689
3854.7832,3.0207256321747176,26.632230560982105
3855.6702,3.0164732313842726,22.197476548044268
3856.559,3.0132232736796336,25.999995530397793
3857.4463,3.013156626140097,22.119839641755775
3858.336,3.0145128396705916,35.54002350289429
3859.2234,3.013056768531416,30.37486878193928
3860.1135,3.0057819700746973,24.751617746551435
3861.0015,2.993938405871916,23.043151604640865
3861.8896,2.982566711381693,27.602670031531744
3862.7803,2.977059015789138,34.34066434234339
3863.6687,2.9791847656400914,35.74294624787446
3864.5598,2.9854989809355303,26.634371040207586
3865.4487,2.989291872084699,24.018919589345767
3866.34,2.984694358650251,25.697043088795855
3867.2297,2.970137865328588,29.845659620356436
3868.1213,2.949032467459854,27.739051751873422
3869.0112,2.927581740168891,27.66030000617087
3869.9014,2.910760909483305,23.058682233037555
3870.7937,2.900135886300374,32.25931309486862
3871.684,2.8942957412171997,42.796186320649284
3872.577,2.890685808504685,28.295704163395953
3873.4678,2.887052522245342,31.837985524306166
3874.361,2.8810540777902647,36.84256355601069
3875.2524,2.86963688719597,39.20298587232011
3876.1438,2.849575577131944,33.07385254854478
3877.0376,2.8195315187420102,27.694930986227643
3877.9297,2.7819319060098824,48.88652338634283
3878.8237,2.7415376797690616,26.21876966498848
3879.716,2.7031898416903255,32.525734981963986
3880.6108,2.668970737217577,27.880854643261323
3881.5037,2.638720883339244,37.66757019478993
3882.3965,2.610569917993755,41.2603864955781
3883.2917,2.582386349556812,48.90770121883436
3884.185,2.552901981987659,32.56500576551631
3885.0808,2.5217487100931524,43.767883994862885
3885.9746,2.489944357914344,67.47269457341795
3886.8706,2.458836024054961,32.077951217950556
3887.765,2.430533690501708,46.93532464314735
3888.6592,2.407623298256039,31.556838221915115
3889.556,2.393211003448424,38.55940967555636
3890.4507,2.390171792718307,50.56273915068817
3891.348,2.4000495647102214,31.490872012254133
3892.243,2.42239386193745,38.536126702814556
3893.1406,2.454221029673829,52.33465653687327
3894.0361,2.4891618264524373,44.80865943631462
3894.932,2.51950976300875,31.895396904306672
3895.83,2.539992535600528,40.68585044575074
3896.7263,2.5517955923034084,42.37326365715775
3897.625,2.5629237668776597,32.28090300637855
3898.5215,2.582710981373535,47.089085742516325
3899.4207,2.615639605884711,39.563117533222034
3900.3176,2.658136561529089,36.46605008742992
3901.2148,2.701853300668842,21.545196401905724
3902.1145,2.7389503873375283,38.34381616340092
3903.0122,2.766085139494838,36.048286246966114
3903.912,2.785466845204018,32.494595980621796
3904.8103,2.8014062781047344,42.05005039371704
3905.7107,2.8171952788632435,49.31399426922717
3906.6094,2.833395528372441,35.213065145582476
3907.508,2.8492360497377294,27.268171411570144
3908.409,2.8645013681177063,25.990208793926186
3909.308,2.880248902831286,30.572776331846413
3910.2097,2.8980886551705245,29.142971399963283
3911.1091,2.9180291012786403,29.424054217160656
3912.011,2.9378993895086905,29.53349254163338
3912.9111,2.9542352078456418,24.459354152091958
3913.8113,2.965403016241235,26.54645634905838
3914.7136,2.9732583572579956,29.842802271417693
3915.6143,2.9820089982351283,27.472782020934744
3916.517,2.995204265568367,25.534844000675243
3917.4182,3.0131822231749723,25.37305446609951
3918.3215,3.033454703220637,29.31825982641375
3919.223,3.0524141054378457,21.827440159408795
3920.1245,3.0677471768409603,26.25216763049103
3921.0286,3.0792428719290914,21.0588075248034
3921.9307,3.0883161562424015,25.070601569995844
3922.835,3.0968069890175833,25.105476687430876
3923.7373,3.105443854604773,26.36413336565895
3924.642,3.1137045777247647,24.020385136253612
3925.5452,3.120543623978095,28.267629659882864
3926.448,3.1256569206588534,24.659718750301124
3927.3535,3.1296083637589462,32.612613906723986
3928.257,3.1328497627061846,25.64470688789566
3929.1628,3.1347718180733737,20.29303513248213
3930.0667,3.1337672749622416,33.19796171748762
3930.9731,3.1284831435061324,26.27272235896575
3931.8774,3.1191111235075595,29.76076847273101
3932.782,3.1076660513309857,20.30347256762638
3933.6887,3.0972608880177632,28.442746585383407
3934.5938,3.0904164930073468,41.47785380131528
