wavl,flux,ivar
3566.9744,1.073935601749459,470.7429887352848
3567.795,1.0707786642063593,429.5222280886412
3568.6177,1.0665025192311606,385.40241781645193
3569.4385,1.0630432249430015,478.637458204254
3570.2617,1.0616402750275782,475.940046615227
3571.083,1.062410386936137,400.828777704293
3571.9065,1.064641287784213,411.93813994622127
3572.7283,1.0674557692031508,433.892980641593
3573.55,1.0702543678398435,367.0475883775528
3574.374,1.0727127861703265,447.71445380612744
3575.1963,1.0746260212251237,585.4621163027355
3576.0208,1.0759197221105767,469.71829054278743
3576.8435,1.0766828300912261,366.3618748979293
3577.6682,1.077172457986352,493.58822431128283
3578.4915,1.0775773367580697,454.4958500405035
3579.3145,1.0777611911377978,409.5731057614718
3580.14,1.0772587350597789,607.3854324233155
3580.9636,1.0756327083211834,391.1952196995361
3581.7893,1.0728212197758076,477.3101555816459
3582.6133,1.0691541276447483,430.82702346373696
3583.4395,1.0649891961290965,517.2858097982694
3584.264,1.0605857660175588,454.4094299999674
3585.0884,1.0561896384713674,410.37431431199354
3585.915,1.0522748747175434,367.62601794841913
3586.74,1.049473564240327,823.8885865039682
3587.5671,1.0481486181341388,368.63053457960694
3588.3923,1.0482527840161866,496.75541130835586
3589.22,1.0495231112899526,444.19566065507473
3590.0457,1.051759971529521,407.72643241448486
3590.8716,1.054707536137607,430.83027233046414
3591.6995,1.0576083982008668,430.0666866499862
3592.526,1.0591000549801166,374.14979274754523
3593.3542,1.0578982284908078,403.4624653527459
3594.181,1.05364914104166,436.2087878966942
3595.0098,1.047124829966581,528.3665203926316
3595.8367,1.0397232822481328,511.84433992218374
3596.6638,1.0326281321572794,501.485343383589
3597.4934,1.0265440529463044,360.266218646609
3598.3208,1.021833119893128,793.3622062712742
3599.1506,1.0186408216741112,478.68872106681556
3599.9788,1.0172460688407614,511.2931391161869
3600.8088,1.018099391938325,498.04008696685776
3601.6372,1.0215700404697152,361.84446454364377
3602.4678,1.027391678267339,468.50626161722204
3603.2964,1.0342670857563465,400.92847952016547
3604.1252,1.0403163335173646,374.3900825298985
3604.9565,1.0438871008426478,586.6751342204561
3605.786,1.0443307778722584,411.14438181329484
3606.6172,1.0423056782701623,498.6160802748019
3607.447,1.039358927413755,487.52857379519327
3608.2788,1.0371353054218515,524.6467037723514
3609.109,1.0366934237398189,527.3546841528591
3609.9392,1.038143179702861,464.92971522239907
3610.7717,1.040793604649642,470.75173054693016
3611.6023,1.0435424660660884,401.4716549840994
3612.435,1.0454443467936423,624.1023374239978
3613.266,1.0460630292631792,412.16725803001407
3614.0994,1.0456084093736784,396.62109227615775
3614.9307,1.0446949998067079,515.2368778521745
3615.7625,1.043927103174999,617.2164541307702
3616.5962,1.0435949694032698,341.2176406787221
3617.4282,1.0436369844052031,333.1431237170216
3618.2625,1.04373585127589,589.3670618329267
3619.0947,1.0433507175172005,453.0178873085476
3619.9292,1.0417383690745168,454.93916975686784
3620.762,1.038243115399641,385.2431495160535
3621.595,1.032796231969629,426.544013600311
3622.4302,1.0262412574682367,502.52219564451485
3623.2634,1.0201019302671426,556.834114687142
3624.0989,1.0156600693067472,494.7004087110088
3624.9326,1.013397997724857,488.8632866500478
3625.7686,1.0128985004459692,505.3048114233237
3626.6028,1.0133289856102494,524.6658460906647
3627.437,1.0137991265446606,483.3494356107219
3628.2734,1.0135499385687436,434.3946580196228
3629.1082,1.0122074847368838,422.9488745661571
3629.945,1.0100893712977017,405.9571255912356
3630.78,1.008172895056738,673.2891410932572
3631.6174,1.007472517517842,575.7817291598369
3632.453,1.0084264309288786,525.6049901769459
3633.2883,1.010717110300139,500.8725667886893
3634.1262,1.0135656132750634,668.5093402579056
3634.9622,1.0160202902219406,480.3487788717592
3635.8005,1.0172574104565755,702.2849093769116
3636.637,1.0168402006454966,438.6698471120991
3637.4756,1.0150273092723,420.57942973682316
3638.3123,1.012727266352661,562.6508318314106
3639.1492,1.0109731650865048,482.5504846992705
3639.9885,1.0103574637893222,836.1276855713645
3640.826,1.0107987800759966,534.8519581399757
3641.6653,1.0116737330015302,608.6513263736995
3642.5032,1.0120857621860209,512.2347292980477
3643.343,1.0111962290852583,571.3355425996914
3644.1812,1.0086644277210548,632.511731086086
3645.0195,1.004985228173558,428.0068048048958
3645.86,1.0013457232495957,517.5638205960358
3646.699,0.9989605129419191,523.75258652194
3647.5398,0.9982512903535393,461.7268676595308
3648.379,0.9986412644457024,447.626429852905
3649.2202,0.9989232552226978,556.380681959
3650.0596,0.9979154203406841,520.6876846255195
3650.8994,0.9950200861862974,541.0029006359904
3651.7412,0.9905392629372344,560.3544570871553
3652.5813,0.9857220050369021,517.5160573725515
3653.4236,0.9822160970800599,517.4458545228965
3654.2642,0.9812578666923012,509.60815228776715
3655.1067,0.9828749684716177,562.9257343177127
3655.9475,0.9859080703750919,424.9133237999268
3656.7886,0.9888045304099353,570.7127723437472
3657.6318,0.9905203846896675,424.99223209806905
3658.4734,0.9908827259198926,517.8007721568265
3659.317,0.9903565767785497,488.264772722567
3660.1587,0.989576789446276,610.5247054203882
3661.003,0.9890852590170973,616.084689754898
3661.845,0.9892785291164818,412.26419864399463
3662.6875,0.9903199422383845,499.39847314622637
3663.532,0.9919905763998196,439.8494570098482
3664.3748,0.9936221568802235,465.94741660642956
3665.2197,0.994383161090279,442.7923237411634
3666.063,0.9937244765501141,423.42219334629254
3666.9084,0.9916683568605197,524.7064453984883
3667.752,0.9886858390173301,456.7652993378371
3668.5977,0.9853430948172532,570.0565460516311
3669.4417,0.9821781976649694,346.19781483838113
3670.286,0.9795712710829144,456.4755672253478
3671.132,0.9776129791469339,682.8403684400354
3671.9768,0.9760271284743423,562.8730369464113
3672.8235,0.9744024929211412,598.0237676584741
3673.6685,0.9726479934337553,577.0695545106836
3674.5156,0.9710646340175803,545.0143127855889
3675.3608,0.9700025410287411,543.2176562920663
3676.2063,0.9693987056548686,484.04147943746676
3677.0542,0.9687760272359897,460.1570206503155
3677.9,0.9676761351217777,420.74725964463005
3678.748,0.9661056831754103,523.6131738999292
3679.5945,0.9646288471917294,577.4905558280477
3680.4429,0.9639902468498981,682.2104369305971
3681.2896,0.9646749645538736,495.49985578088626
3682.1365,0.9666416980207508,599.1396614012555
3682.9856,0.9693574896324123,511.9600777348781
3683.8328,0.9719621070419139,402.6380908860583
3684.6824,0.9736021672470986,495.7900842253093
3685.53,0.9737186431912354,499.75736109163824
3686.38,0.972346382027615,477.32102718001045
3687.2278,0.9701605376395729,488.85789555487753
3688.0762,0.9681900295794994,756.7863161066632
3688.9265,0.9673262589926506,584.0635940084547
3689.7751,0.9678464668778833,662.2697620381698
3690.626,0.9692960122579335,548.8532797029937
3691.475,0.9708905560897909,546.6519774151623
3692.3264,0.9722021896868488,584.370171107285
3693.1758,0.9734709060490613,567.6418972653449
3694.0254,0.9752752883203772,522.5642856740285
3694.8772,0.9778280116110704,509.34910919028994
3695.7273,0.98063420150663,518.1520746698717
3696.5793,0.9828842075090203,487.2167791025612
3697.43,0.9840024261788882,609.9555243081013
3698.2825,0.9839075381736249,574.3465139660552
3699.1333,0.9827599776022332,544.338467485699
3699.9841,0.9806320506625898,544.0450079741158
3700.8374,0.9774260141970466,533.8886131113196
3701.6887,0.9731495074132529,533.8570316851249
3702.5425,0.9681475822543434,601.6010917440943
3703.3943,0.963233075205402,575.4795674977352
3704.2483,0.9592898293826224,513.7415635825212
3705.1003,0.9569054549978309,541.1838338814505
3705.9526,0.9560233026203612,494.76497798055607
3706.8074,0.956051602523298,586.7215479042409
3707.66,0.9561685044078978,464.01305875621637
3708.515,0.955694739986545,495.68241887223905
3709.3682,0.9543542653201462,457.6437937540828
3710.2234,0.9523130595718597,498.4448356660821
3711.0771,0.9500152309707114,420.50499218763986
3711.9307,0.9478294593998257,422.1327022120619
3712.7866,0.9458001952102186,577.3835079091566
3713.6409,0.9436980109360436,520.8971956820046
3714.4973,0.9412737022660608,481.91574706507504
3715.3518,0.9385672601397997,568.006066893951
3716.2085,0.9358909033231909,581.5588130238458
3717.0635,0.9337936608120581,472.3122809930282
3717.9185,0.9330094141241236,518.462515579501
3718.776,0.9343882739745608,471.0721335595993
3719.6313,0.9383704486707631,598.2138947766747
3720.489,0.9443491571046557,593.8284995535215
3721.345,0.9505529962341209,474.6585614307548
3722.2031,0.9550647951623026,619.8569938521302
3723.0593,0.9569003767549376,610.0417305964766
3723.9158,0.9564320510000663,672.0630998622578
3724.7747,0.954697837175438,594.2369736638401
3725.6316,0.9526244969227629,665.3282738899198
3726.4905,0.9506839201318519,623.2212014317755
3727.348,0.9490590997779959,467.88398863632364
3728.2073,0.947801182164075,657.9573863804665
3729.065,0.9469354424846935,770.7066644518314
3729.9229,0.9464669988646675,689.1693778476032
3730.783,0.9463805010653578,551.1211511299499
3731.6414,0.9465658714180052,527.6311706536143
3732.5017,0.946744747619729,681.2838810890231
3733.3604,0.9464939345586346,572.6077274820786
3734.2214,0.9453813106735273,581.617428746802
3735.0803,0.9431470217464839,616.4498226227345
3735.9417,0.9397857097483279,543.2517931328002
3736.8013,0.9356050411597299,472.49080494697466
3737.661,0.9311119879706782,596.2711643794344
3738.5227,0.926916683373478,660.6536542038347
3739.3828,0.9236271184525705,542.1276847071236
3740.245,0.9216191329292871,622.9396451775101
3741.1055,0.9209321174410156,623.4173157763023
3741.9683,0.9212096151397342,592.0078518153965
3742.829,0.9219433321855515,608.0109595952539
3743.69,0.9228302552983786,527.6765035121618
3744.5532,0.9239406506375858,540.8805935252121
3745.4148,0.9255093542397572,501.0524458743075
3746.2786,0.9276136755590214,652.6074973490573
3747.1404,0.9300086288357311,588.5403143437021
3748.0044,0.9323040859959901,637.8369637692322
3748.8667,0.9340979672599193,564.4211546839091
3749.729,0.9350705473546216,458.3637954694001
3750.5938,0.9350308829797649,691.6421270360728
3751.4565,0.9341161539200539,580.2800620511911
3752.3215,0.9328949139652214,454.67369608639063
3753.1848,0.9321024526302183,547.2207268689808
3754.0503,0.9320639779976545,452.25810805421804
3754.9138,0.9323757368401192,585.3588814601106
3755.7776,0.9322067429554854,485.73868145680484
3756.6438,0.9310448619700177,584.372042189626
3757.508,0.9292413197291494,599.6102509732906
3758.3745,0.9277740442997294,684.2397422832639
3759.239,0.9274638515528008,604.2326025644929
3760.106,0.928290432525793,548.7540541453093
3760.971,0.9294740008294808,528.1698012976184
3761.8362,0.9302002011700482,602.2798598821331
3762.7036,0.9303181402969047,496.2325550057942
3763.5693,0.930446979450594,712.413782785855
3764.437,0.9314135241570701,528.9618209668134
3765.3032,0.9334857580798712,517.1740705209039
3766.1714,0.9360449979723269,530.1746073579076
3767.0378,0.9378407721911157,582.8963693789261
3767.9043,0.9376699834998569,574.3984797348425
3768.7732,0.9349478819129429,520.1886245696268
3769.6401,0.9300761304231577,509.0084772892182
3770.5095,0.9242930752487626,593.3038309592116
3771.377,0.9191977950796383,629.8849694772855
3772.2466,0.9159123118082736,560.4829042693901
3773.1145,0.9149289132688915,603.129332524856
3773.9824,0.9169213956804064,511.55105815227927
3774.8528,0.9247753216598056,583.6298067117633
3775.721,0.9454158155172726,692.4253361098766
3776.5918,0.9893948851788776,860.1302122513491
3777.4604,1.0640876545681317,639.4763363113605
3778.3315,1.1640088611056336,624.7275133826025
3779.201,1.262792914214446,532.3817119205014
3780.0703,1.3232971442888073,529.1600385600802
3780.942,1.319296481595358,773.1958749704656
3781.8118,1.2545227837517507,573.5879228680545
3782.6838,1.1594034412944505,711.314641128045
3783.554,1.0700707144626485,565.5837292717553
3784.4265,1.0066347819514088,574.7400795599275
3785.297,0.9706157144825228,585.8144043075613
3786.168,0.9525647257643552,455.6173210558443
3787.041,0.942825737300037,601.6979534032301
3787.912,0.935902915240987,579.422558490573
3788.7856,0.9298807895727594,554.4690874338452
3789.6572,0.9245598280451229,661.3500701092804
3790.531,0.9199510041552232,624.284853009249
3791.403,0.9159943195104153,619.813537958522
3792.2754,0.9125815033114388,548.1396122115137
3793.15,0.9097019020595525,646.0450793157136
3794.0225,0.9074036980337818,713.8169116108713
3794.8972,0.9055919748476312,637.5662414748198
3795.7703,0.9039853029137883,536.8468396462896
3796.6455,0.9022103529353704,555.9319636792318
3797.519,0.9001328815562237,622.5720072510608
3798.3926,0.8980261094247572,579.601410482554
3799.2686,0.8964236222513429,665.3209959834742
3800.1426,0.8957101155888939,565.8898426673967
3801.0188,0.8958018183886586,688.668596650716
3801.8933,0.8962698122713243,889.830549845342
3802.77,0.8966943923931529,599.7159863049332
3803.6448,0.8969276976898451,550.2918235543985
3804.522,0.8971316867911904,571.7907599412168
3805.3972,0.8976230956525595,639.5716260254377
3806.2727,0.8986168700162521,811.7739863068223
3807.1504,0.8999750869017142,715.5755110158783
3808.0261,0.90118064459747,591.820711592846
3808.9043,0.9017027569950481,523.1941748542821
3809.7805,0.9014303062042243,781.0420687240436
3810.659,0.9008258027400404,702.1693304211035
3811.5356,0.900634765596453,666.0148097287376
3812.4126,0.9014130433983198,549.5119657774783
3813.2917,0.903238268637553,609.8678266373634
3814.169,0.905705396294086,614.1677120677592
3815.0483,0.9082407099551197,521.0434240620797
3815.926,0.910398384931204,663.3610859209826
3816.806,0.9120530462198264,612.0269509569094
3817.684,0.9132497100399891,709.6131573592232
3818.5623,0.9140001881197704,703.8668718662814
3819.4429,0.9141129215380664,591.4826323664422
3820.3215,0.9132225342325309,711.8840096575627
3821.2024,0.9110275800536077,519.091702958049
3822.0815,0.9076730939322509,561.8429367930164
3822.963,0.9038658587296674,665.5032599974168
3823.8423,0.900526497866686,618.9077840603773
3824.722,0.8979534572543615,669.3744449947169
3825.604,0.8954693657355761,565.9374420550795
3826.4841,0.8919972994843934,571.9372642130525
3827.3665,0.8870949296835534,614.6927311450223
3828.2468,0.8815367741091049,683.0009216939886
3829.1296,0.8766334650933014,767.265163511599
3830.0105,0.8732260233848679,824.5013887417141
3830.8916,0.8710263735100243,581.9615822659193
3831.7751,0.8690313987933318,599.0422648653841
3832.6565,0.8663719803917345,583.8790861857328
3833.5403,0.8628484834657302,718.2915204475349
3834.4224,0.8589213251292529,658.8773676117507
3835.3064,0.8551445473761967,690.5476529723301
3836.1887,0.8517855626356597,814.672200106263
3837.0713,0.8487921552204105,637.7341761154412
3837.956,0.8462698134816827,789.9583014065013
3838.839,0.8448921544510233,764.9657404498187
3839.7244,0.8457142229988218,755.4824800688733
3840.6077,0.849506230379834,802.1361685961357
3841.4932,0.8562024671172614,694.6701247824375
3842.377,0.8649265724275049,555.770385474879
3843.261,0.8747027489382869,717.0623366983316
3844.1472,0.8848867543097291,638.9097626036335
3845.0315,0.8949288923472529,602.0575153471636
3845.9182,0.9040610279668987,548.9349224778665
3846.803,0.9110335413406784,597.721834720115
3847.69,0.9149231873007808,569.4027865546545
3848.5752,0.9158036681509137,613.8346455737903
3849.4604,0.9148863774159205,589.1395717838539
3850.3481,0.9136487351460121,624.2073411554709
3851.234,0.9129349085470465,537.1260368843252
3852.122,0.9127481427224085,581.0605565758005
3853.0083,0.9127704535300915,672.9835452277229
3853.8967,0.9128275394406016,611.700752442127
3854.7832,0.9128807652463428,642.1354198871284
3855.6702,0.9127909295066918,665.1727742231412
3856.559,0.9122925446768949,603.0556313037343
3857.4463,0.9112241788907836,513.3385123603352
3858.336,0.909686444523818,581.2083816111003
3859.2234,0.907977963620422,613.5978041939301
3860.1135,0.9063530611202886,546.4519027759617
3861.0015,0.9049576895396121,715.021285520498
3861.8896,0.9038673608027903,496.3853222384904
3862.7803,0.9031522974001337,640.4353788614823
3863.6687,0.9027422099259043,600.2871933649304
3864.5598,0.9022328677857332,772.3382747320251
3865.4487,0.90099670114871,534.4296803232618
3866.34,0.8985730967285457,629.9975708848546
3867.2297,0.894995531891649,626.7594264865563
3868.1213,0.8905806689062963,779.7754261687406
3869.0112,0.8855950003257153,588.2026312989967
3869.9014,0.8801355092213067,534.4860579552459
3870.7937,0.8744918768325854,635.4698700182528
3871.684,0.8693843669445352,846.7605206233153
3872.577,0.8655221296980149,609.624261497849
3873.4678,0.8631047164903584,670.0746702346573
3874.361,0.8615947604936881,636.7515597719744
3875.2524,0.8602779057815397,583.4114483280894
3876.1438,0.8588913701918367,694.9172321286392
3877.0376,0.8577405226495278,704.8208106477468
3877.9297,0.8571012116091099,654.0606340263357
3878.8237,0.8564765345806432,745.480388734203
3879.716,0.8545448702948029,624.6398577162598
3880.6108,0.8498869718509734,706.7097217292704
3881.5037,0.841989411152128,668.6941487595973
3882.3965,0.8315627205072089,691.2721566052221
3883.2917,0.8201579999516261,859.9659419647833
3884.185,0.8095120852577222,958.2585712859008
3885.0808,0.800677735610052,793.6311908419634
3885.9746,0.7939120996837385,875.4998704955702
3886.8706,0.7886726277288365,987.136079751676
3887.765,0.7843043953783749,691.8152559971958
3888.6592,0.78051702248766,758.8198002508689
3889.556,0.7775553022797365,1262.6632515328665
3890.4507,0.7758878528794787,870.2872392340308
3891.348,0.7758239093883258,700.184711080452
3892.243,0.7775328531842195,817.4861447984692
3893.1406,0.7811693754249239,981.2648747984355
3894.0361,0.786742561248938,872.7077718192056
3894.932,0.7939443215412575,708.0245077056522
3895.83,0.802096059049665,681.4531290976008
3896.7263,0.810279858897833,839.4730142132418
3897.625,0.8177378827361914,988.8104790784962
3898.5215,0.8239631336049076,615.261140952938
3899.4207,0.8290988130066249,567.5144823668626
3900.3176,0.8338500620652103,978.3376531264161
3901.2148,0.8391610686701474,838.9718950047333
3902.1145,0.8454944385383577,619.4504147095622
3903.0122,0.8524817913334115,640.8428187729332
3903.912,0.8594194799090811,694.7672501623092
3904.8103,0.8658131634172824,787.1072412741204
3905.7107,0.8718230464414081,599.0450690087222
3906.6094,0.8779513487402189,540.0118770944514
3907.508,0.8846541945613089,600.1823322246275
3908.409,0.8918833429013036,617.2370580127097
3909.308,0.8988867925407565,581.1080654063492
3910.2097,0.9045843188388015,726.096000413055
3911.1091,0.9080578182528187,524.7635946536002
3912.011,0.909260530946973,551.8453712487009
3912.9111,0.9091035901980488,537.9582931053629
3913.8113,0.9090410269004356,565.1045684264847
3914.7136,0.9103449528329461,531.2728266245234
3915.6143,0.9136332404712706,653.2085322611612
3916.517,0.918852329907063,618.9751420659571
3917.4182,0.9253611629785343,621.2062095857921
3918.3215,0.9321500956753803,586.3209427859382
3919.223,0.9379535597668247,484.39317319726666
3920.1245,0.94175259218592,596.6073827096585
3921.0286,0.9431384905354325,544.6048302327436
3921.9307,0.9425142543470034,487.99047953127416
3922.835,0.9409154860857158,609.952789964026
3923.7373,0.9395039570398918,648.6692164014167
3924.642,0.9389892671015976,602.8822530624255
3925.5452,0.9393743408822621,536.7985223664464
3926.448,0.9401518246311424,501.3210307371723
3927.3535,0.9408293794295762,597.1523828216456
3928.257,0.941279039541125,511.6197985583001
3929.1628,0.9416550998634251,586.9534948724353
3930.0667,0.9420025829701079,477.3030620265216
3930.9731,0.9420127073925691,705.3865460608193
3931.8774,0.9411160636052018,665.1120246753998
3932.782,0.9388233620703483,479.8963143560966
3933.6887,0.9350681947620686,595.0141588286713
3934.5938,0.9304282231079255,508.9501154388693
3935.501,0.9259222287377573,598.4617819632979
3936.4062,0.9225810424027903,570.4504963443302
