wavl,flux,ivar
3566.9744,5.209695823173589,18.88927721895649
3567.795,5.190468475132829,11.461389415063762
3568.6177,5.161788805264324,14.996112255036225
3569.4385,5.130411554289586,14.208556015357129
3570.2617,5.101174598550108,13.342869541156213
3571.083,5.076059658070024,10.323435783421038
3571.9065,5.053559482863998,13.344076973997577
3572.7283,5.030688101130941,17.138018343722067
3573.55,5.005426267903156,13.376257560276743
3574.374,4.979701116945076,15.024624565470917
3575.1963,4.959913585252537,15.176429858776478
3576.0208,4.952868492444942,17.78136642883531
3576.8435,4.960579634192326,13.023129648289496
3577.6682,4.97739479172687,13.180289436868929
3578.4915,4.992442218328158,10.685793820285081
3579.3145,4.995791092559492,11.759369880565835
3580.14,4.983663566601035,11.1720937414304
3580.9636,4.960408436734786,10.656500773834662
3581.7893,4.935942394248635,12.97170779883982
3582.6133,4.921259997109135,14.87396649165423
3583.4395,4.923738388848996,12.54264143187309
3584.264,4.945372113403961,11.412372661306023
3585.0884,4.9830076255752145,13.80439711490947
3585.915,5.029578354743538,15.093399597250754
3586.74,5.074749857415487,17.111800788549733
3587.5671,5.107730285537291,12.917416542182268
3588.3923,5.119967601304777,14.621053848690483
3589.22,5.109031459426739,11.829273495279757
3590.0457,5.079094615331481,11.09179242225875
3590.8716,5.038036571021721,9.923514459396534
3591.6995,4.993230444662187,11.756650027771517
3592.526,4.949649304971613,16.388113945678654
3593.3542,4.910023228637252,18.613784102201873
3594.181,4.877339601693601,14.36583221170555
3595.0098,4.8543328735705265,17.03556031559983
3595.8367,4.842673649715164,10.351079026668886
3596.6638,4.841893841903109,14.863454228876108
3597.4934,4.850555326205586,12.569307972915263
3598.3208,4.866322634269028,21.45336294565602
3599.1506,4.884433381364435,15.962256121074159
3599.9788,4.896185130529672,13.532662411277895
3600.8088,4.892263466467902,13.413700596910049
3601.6372,4.869385318687162,14.520726597995786
3602.4678,4.834980128630776,12.973239477362709
3603.2964,4.805163181475004,18.27970756865954
3604.1252,4.795550247929112,13.065123106305785
3604.9565,4.813107209546341,15.221231565796433
3605.786,4.852948029087458,17.371238045599576
3606.6172,4.902337140169855,10.075705416686603
3607.447,4.946709384225931,11.259042882543623
3608.2788,4.9758761214463885,11.89902912518906
3609.109,4.9857102276355505,11.234354897296523
3609.9392,4.977876906704611,17.22932432146642
3610.7717,4.95719785345801,11.814895074140706
3611.6023,4.9297024630882555,12.278863833290654
3612.435,4.900374869891341,14.858894083372455
3613.266,4.872436566254941,12.847191822639864
3614.0994,4.846908988956195,15.790524556511418
3614.9307,4.824476173809988,11.394180392191643
3615.7625,4.806143109242392,17.76722485281994
3616.5962,4.79293758422787,13.697296547009042
3617.4282,4.7842883399990335,13.873406985707662
3618.2625,4.777333389857727,12.486218804398098
3619.0947,4.768758377444584,16.782034943075594
3619.9292,4.756846745567313,15.720140749904594
3620.762,4.742044632857201,14.0511027148736
3621.595,4.7251240370288885,14.62561688365435
3622.4302,4.705664360914447,18.116051910290206
3623.2634,4.6824058513700475,15.905673729106189
3624.0989,4.654424625514389,14.613289389973472
3624.9326,4.623165160249296,15.006763220106075
3625.7686,4.592729998958331,15.672820984460863
3626.6028,4.569768033779507,10.758551401078464
3627.437,4.560082413350981,16.248080179109483
3628.2734,4.56478935724021,30.687711300380123
3629.1082,4.57826871910614,13.05295131296932
3629.945,4.591501469133144,15.268195106209893
3630.78,4.598255892458971,14.80776016058812
3631.6174,4.598816421734491,20.482805632869216
3632.453,4.597277699634813,26.640513485162895
3633.2883,4.596169270276407,20.136240880410515
3634.1262,4.5942268987333295,14.888286636871664
3634.9622,4.589256090436124,14.239020313161701
3635.8005,4.581756547367198,19.743466592711382
3636.637,4.574578372971105,17.303831675808006
3637.4756,4.568707444880252,16.032323954544104
3638.3123,4.56112035488444,21.433678217298013
3639.1492,4.5478538604773275,14.995474086451217
3639.9885,4.529616008490768,13.396278221088725
3640.826,4.513425295812983,17.498725702849587
3641.6653,4.5070660431098,19.203586383679863
3642.5032,4.512378727201369,16.592953597221964
3643.343,4.523661550517348,18.02977211708397
3644.1812,4.532837763821851,15.832436281697703
3645.0195,4.535896383991858,13.972153466628116
3645.86,4.534365553123054,16.489565794053785
3646.699,4.532093245126831,24.318980354697523
3647.5398,4.531237947086116,13.813561554692289
3648.379,4.530994769411701,15.873818079488444
3649.2202,4.528967940934227,11.589112403870287
3650.0596,4.523344297441256,15.320412333492701
3650.8994,4.514114552125151,21.432345017497944
3651.7412,4.502908039503308,19.355446625283278
3652.5813,4.492005660744108,13.548032821622751
3653.4236,4.483114044471616,21.297437905153064
3654.2642,4.476967162994716,18.175222569991277
3655.1067,4.472892611142558,16.45374271771505
3655.9475,4.468991682568408,17.08521863858608
3656.7886,4.462767491612427,17.772303042199958
3657.6318,4.452282664149075,14.349572821290243
3658.4734,4.437269882054113,17.15334164062472
3659.317,4.419571799373817,25.591911102602793
3660.1587,4.403516871587264,15.756616663310147
3661.003,4.394826530482764,17.04717358044471
3661.845,4.398762816275762,18.672684953718782
3662.6875,4.417338362706323,25.31886170266243
3663.532,4.448005951919275,14.97673901900697
3664.3748,4.484012458119188,16.89103655216737
3665.2197,4.5173296676367505,21.171765214177764
3666.063,4.540634632262216,16.352563456708225
3666.9084,4.549327627163939,20.495086123040885
3667.752,4.541777106891175,15.373618288375072
3668.5977,4.51979126872543,15.012661065320161
3669.4417,4.488461360199668,15.901736933305394
3670.286,4.4543782554514095,22.923697042828792
3671.132,4.4234786139895474,19.80345918595552
3671.9768,4.399565724675714,19.222326456889064
3672.8235,4.383523220938651,14.322805437381433
3673.6685,4.374253848648778,13.710162575988505
3674.5156,4.369327677208592,17.83266964352838
3675.3608,4.366280761191749,13.976723267698052
3676.2063,4.363382523280258,18.44682208682763
3677.0542,4.359563063986307,15.210191869815658
3677.9,4.353464991271791,16.036889376250908
3678.748,4.342946201246018,15.733551642303523
3679.5945,4.326464004304467,18.248622451716642
3680.4429,4.304733707692857,21.72915530976896
3681.2896,4.281368223778246,21.21595955538453
3682.1365,4.260870781987502,21.38066100594918
3682.9856,4.246649296147707,13.629705728674338
3683.8328,4.240065856002417,15.660285488404899
3684.6824,4.240332155176207,19.074416219855664
3685.53,4.245213738793159,17.631389782643122
3686.38,4.252015397139986,16.654837554504535
3687.2278,4.258937983285245,18.344851093133457
3688.0762,4.266206779069349,20.33024077421524
3688.9265,4.275736217774034,26.002914261879273
3689.7751,4.289529227971498,18.451667466307654
3690.626,4.3080499289740315,16.769393573529427
3691.475,4.3290770469054,16.571753370563098
3692.3264,4.34860956524372,18.694752029829957
3693.1758,4.362311950285435,21.919736772922242
3694.0254,4.367854493438477,16.031017422120176
3694.8772,4.365775277019651,15.180100530703903
3695.7273,4.359156692906831,15.340172840888338
3696.5793,4.351938397301487,16.920126221250943
3697.43,4.347068616497325,21.53311754436944
3698.2825,4.345056207823305,15.784645588992207
3699.1333,4.343746332428264,19.292062792943028
3699.9841,4.339316428527109,15.611995082385548
3700.8374,4.328386261565316,17.43883978755957
3701.6887,4.3102060800201665,19.594472864194802
3702.5425,4.287027314779216,19.08844705493493
3703.3943,4.263323862522018,15.53586934177103
3704.2483,4.243405854850668,20.161543318071804
3705.1003,4.229978190074309,25.109041279739486
3705.9526,4.222710977318623,15.981298604714377
3706.8074,4.218895873570859,18.136819804580806
3707.66,4.215415895983557,14.069145060536691
3708.515,4.210853861857062,15.702695464214802
3709.3682,4.206244492991937,17.011751970294004
3710.2234,4.203726374296413,24.321222059414
3711.0771,4.2042336378866345,24.39093519601324
3711.9307,4.205519863165351,23.28759809179128
3712.7866,4.202564219370614,18.551902964925862
3713.6409,4.190936396405718,20.225378148773103
3714.4973,4.170488284594464,16.84876596980445
3715.3518,4.145914164480532,16.55553328832113
3716.2085,4.122822962331295,16.665816927236058
3717.0635,4.104472824443802,27.551564725460906
3717.9185,4.090953295002124,18.3417886941948
3718.776,4.081310035043897,16.862831281224135
3719.6313,4.075064747051805,16.749488276645515
3720.489,4.072165496137361,25.29832761392603
3721.345,4.073048693208597,22.3118686452727
3722.2031,4.078752917890822,22.92398050347658
3723.0593,4.090091432569666,19.78253318889731
3723.9158,4.105868021804711,18.029365150214737
3724.7747,4.12215004141052,23.972853487787102
3725.6316,4.134009032112618,15.330808492523243
3726.4905,4.1386795999254815,20.566062235407852
3727.348,4.136530287530996,19.60409238443228
3728.2073,4.129993446060561,21.16752143418456
3729.065,4.121460722122076,17.790875478760118
3729.9229,4.111730159073785,20.44970729522401
3730.783,4.100151195333786,21.933853995313914
3731.6414,4.086193689951253,20.63691837616586
3732.5017,4.07066820887403,21.661190643755422
3733.3604,4.056108120853957,18.941491265993914
3734.2214,4.045575313240796,21.21906266210524
3735.0803,4.041584070066542,20.768524992908088
3735.9417,4.044633084911562,18.38676707474471
3736.8013,4.052670829398715,22.151940780622066
3737.661,4.062064354375742,20.21031207812438
3738.5227,4.069910103689,19.946216341958735
3739.3828,4.075605873660258,16.79790816441039
3740.245,4.080175753283896,18.85895254745102
3741.1055,4.083580257654557,17.588408785230957
3741.9683,4.083115678550863,16.409962609297544
3742.829,4.07447869252226,27.171047773487285
3743.69,4.054884363737959,16.336128098799996
3744.5532,4.0255795771149465,22.345499830623574
3745.4148,3.9925348793649715,17.440357078524023
3746.2786,3.963926528688919,23.171418843109635
3747.1404,3.9473020805984245,23.306784723685787
3748.0044,3.9460319497322898,26.701876605947955
3748.8667,3.9582536293700694,21.781772016961234
3749.729,3.977675545567118,26.23529830957341
3750.5938,3.9962900071170258,25.194944257463195
3751.4565,4.007466559061205,22.023089662388735
3752.3215,4.009123445537812,19.610717084669233
3753.1848,4.0043275386390595,21.272657192735846
3754.0503,3.999050687431668,18.776369637396737
3754.9138,3.99802534265185,24.402343774468697
3755.7776,4.001690081091762,21.61815730707377
3756.6438,4.006524508707445,18.501448140455665
3757.508,4.007874754457776,20.427073826740063
3758.3745,4.003307528550173,24.71044036163746
3759.239,3.994014966081332,18.71444692972364
3760.106,3.9833694317103614,31.878648777762137
3760.971,3.9742476288211597,22.52016654937242
3761.8362,3.9671596075012143,15.260603560379032
3762.7036,3.9609673703597834,20.877902910422446
3763.5693,3.9544728128010678,23.283011149884228
3764.437,3.9470127541428353,19.863902960427016
3765.3032,3.938351801049857,22.54068071861899
3766.1714,3.928480714433654,17.90447370157394
3767.0378,3.918114364546608,25.421780082239053
3767.9043,3.9086670280419615,20.598521094261738
3768.7732,3.9016532846908043,19.493973091068835
3769.6401,3.8975957361963522,20.86074535963181
3770.5095,3.8951398051042467,26.10313810014093
3771.377,3.891561182484782,18.913689813629865
3772.2466,3.884331877321244,24.460290549829068
3773.1145,3.8730637683567855,21.730171634889988
3773.9824,3.8599818796980663,23.256341542341488
3774.8528,3.848638053130019,19.34196934855131
3775.721,3.8418352955535076,21.470405208671444
3776.5918,3.8401105888161573,19.545194243900163
3777.4604,3.842260818243774,25.70126227159336
3778.3315,3.8465341231014047,23.986111311403953
3779.201,3.8512232995328803,21.270013087198652
3780.0703,3.8544497943453004,17.931627093865252
3780.942,3.8542362131320176,23.712338888725007
3781.8118,3.8498279881607766,25.11194779446028
3782.6838,3.84302630353137,22.235449569474063
3783.554,3.83778813893102,21.64373321630407
3784.4265,3.8378098206140807,25.071958148028735
3785.297,3.844419340569773,27.02479031816216
3786.168,3.8562234763228243,17.89331260840467
3787.041,3.8703121403622553,22.0815800325246
3787.912,3.883427415965488,20.923112191831613
3788.7856,3.8932024533118468,23.063791366592188
3789.6572,3.8987711714541957,23.673982387909987
3790.531,3.901055929214631,26.607877082961302
3791.403,3.9012657916525266,21.690017293163443
3792.2754,3.8989588802013024,18.886445808904938
3793.15,3.8915161702550307,17.80939318406264
3794.0225,3.876161279140609,19.677966636888577
3794.8972,3.8526161079675703,22.40071929795178
3795.7703,3.8247012019452784,24.569369353441715
3796.6455,3.798575508151899,24.57111616007693
3797.519,3.7798646775645066,20.03506884858389
3798.3926,3.770253647812566,27.240337238837544
3799.2686,3.7672388487283794,20.83262408476448
3800.1426,3.766474354555479,21.960016701882225
3801.0188,3.7650442912095694,32.74771229067063
3801.8933,3.763146429705868,23.723063997009792
3802.77,3.7629245234302626,28.187979906341262
3803.6448,3.765706560779603,29.38274223432771
3804.522,3.770005784258694,19.123978491387263
3805.3972,3.7721291057592263,28.321146684512378
3806.2727,3.769299796957075,17.706945530615688
3807.1504,3.762560522500063,19.201044017607014
3808.0261,3.757109196629088,29.96410242322399
3808.9043,3.7593440371980273,27.175717485010697
3809.7805,3.7730210817551537,23.387622855211077
3810.659,3.79712384411126,22.85013043230376
3811.5356,3.826382483688968,25.461289113661355
3812.4126,3.8544022787950833,20.122539473272035
3813.2917,3.8761379778127742,24.950231086939965
3814.169,3.8886384713771567,18.578444796429057
3815.0483,3.890829060002032,18.342347141543982
3815.926,3.8827974597181822,20.728393813765457
3816.806,3.865995796674293,22.876757648470303
3817.684,3.8434725152559466,19.07959390837088
3818.5623,3.8190492574148514,26.29892020201533
3819.4429,3.7963436890142046,21.420426926843316
3820.3215,3.7781526452850183,18.46585225575917
3821.2024,3.7656242771305135,22.802654170258513
3822.0815,3.7583766874717193,20.789149051796475
3822.963,3.754301444098622,29.249858926629717
3823.8423,3.750283039862095,24.59423180206174
3824.722,3.7432679686296457,25.227317683153217
3825.604,3.7314064628917025,24.814525315523994
3826.4841,3.7144440211246543,21.144452560214674
3827.3665,3.692809808058106,22.05076222348418
3828.2468,3.667245259222997,28.95593808238085
3829.1296,3.6384271910215276,28.6764491023365
3830.0105,3.607762216587986,27.73713541276656
3830.8916,3.5767318464701896,28.375268174618263
3831.7751,3.5465610038827373,21.6329850320381
3832.6565,3.5180974776491425,26.8135589377449
3833.5403,3.491343740497288,32.4776175993287
3834.4224,3.4666011401234886,31.91932931041021
3835.3064,3.444828887857626,27.161314192668932
3836.1887,3.4283673844642886,37.473763143481875
3837.0713,3.4196227948470077,37.59610098279542
3837.956,3.4198089813346124,27.001580264829084
3838.839,3.4285261730054493,35.938521778333836
3839.7244,3.444802495317563,22.023763540128293
3840.6077,3.4678306893379136,31.141000528228336
3841.4932,3.4970031109551236,26.003173103795856
3842.377,3.5306194000765347,26.05735491422133
3843.261,3.565837320414666,19.13493895403472
3844.1472,3.598827976720594,30.652041386951023
3845.0315,3.625718405359111,25.693911742588497
3845.9182,3.6448955611480174,16.823981764176022
3846.803,3.657768789361863,27.78267232915578
3847.69,3.6682937195046454,27.135554523577547
3848.5752,3.6797624798098134,29.363722953265963
3849.4604,3.692549504685517,22.552825577571763
3850.3481,3.704537215243649,23.182634530512352
3851.234,3.713843888269354,22.232739807781428
3852.122,3.72113739177531,19.546203953917498
3853.0083,3.72855987504349,23.3860513131257
3853.8967,3.736932703293269,22.810054105805328
3854.7832,3.743715908496039,22.10498633745442
3855.6702,3.744571733878819,20.38930980428782
3856.559,3.7372180650640807,19.67893862116454
3857.4463,3.7248297890123108,25.217176322885482
3858.336,3.7156160121636703,26.193699323779654
3859.2234,3.7191385712726266,26.22285320608818
3860.1135,3.7417650753811884,28.070465828582556
3861.0015,3.783915940165329,20.241523855086868
3861.8896,3.8396005648667537,23.743061012452817
3862.7803,3.8963565112944534,24.441202931684938
3863.6687,3.936718651827415,23.27591775110707
3864.5598,3.9452379902171066,8.117331371116341
3865.4487,3.916025677789937,19.81051802086795
3866.34,3.8568519690373413,20.663821395101404
3867.2297,3.785255510231606,19.43924045451739
3868.1213,3.718382564268084,26.360520417291898
3869.0112,3.6666170170078973,34.45205005335757
3869.9014,3.630931476994088,22.08359632612909
3870.7937,3.6064695447863024,24.696120754180708
3871.684,3.5871395372294383,21.296419933981035
3872.577,3.568473846510624,37.61201420352414
3873.4678,3.548779224328837,27.199277071557347
3874.361,3.5278075048318094,26.90342434485503
3875.2524,3.5059720170460427,26.338101058044828
3876.1438,3.483264635241329,25.875325618521202
3877.0376,3.4590817762427344,33.96882177342918
3877.9297,3.4325752714062947,24.402874546670095
3878.8237,3.4028693752555528,36.987189303720015
3879.716,3.370205260900939,26.802345559817145
3880.6108,3.3355370166723457,31.931833566917934
3881.5037,3.3004052263088717,27.638322767031596
3882.3965,3.2654241112789903,27.926628926140946
3883.2917,3.2302758638216846,29.465757993520228
3884.185,3.1947820991116997,29.672069917880656
3885.0808,3.1593092807302496,37.77056421658817
3885.9746,3.1256254919356428,29.71635185382257
3886.8706,3.0953838588437144,35.87012781586088
3887.765,3.069910061716497,36.15936903941238
3888.6592,3.049916068475663,33.12528762082669
3889.556,3.036572950996039,34.68246872264901
3890.4507,3.031705117563824,48.095640645014875
3891.348,3.036539243550827,41.6921071532479
3892.243,3.0506977170106344,41.58591635635985
3893.1406,3.0724782564471522,38.94551275793941
3894.0361,3.0996065983064964,36.44523293139947
3894.932,3.130134105624446,32.70331164799128
3895.83,3.1620040716593545,29.349333152415028
3896.7263,3.19272229144916,35.68595340938774
3897.625,3.2207859736544857,29.521508787341205
3898.5215,3.2461974540129352,32.297712270293715
3899.4207,3.271038616972664,34.32873594337288
3900.3176,3.297517886163357,27.50277831574299
3901.2148,3.326827221515197,35.03708080927475
3902.1145,3.3585802048045874,25.66203339727316
3903.0122,3.39167216505289,35.24209553282345
3903.912,3.425983105414296,33.7849613012264
3904.8103,3.461453992171069,33.08423282742321
3905.7107,3.497428174505301,27.344084658552735
3906.6094,3.5319161974228708,25.01590228687825
3907.508,3.563784450026127,25.854020258136874
3908.409,3.5939486751242375,30.46585131272241
3909.308,3.624238404936884,28.242397485212727
3910.2097,3.6552359243962473,26.068435032934488
3911.1091,3.6841683518815533,22.963357564346346
3912.011,3.706793516149268,20.363009540969117
3912.9111,3.719828410404706,25.367683655796363
3913.8113,3.723516640377522,25.48087374701989
3914.7136,3.721348711321397,23.466867262125543
3915.6143,3.7182053663107943,23.09771715039671
3916.517,3.717676863045073,24.381305073912912
3917.4182,3.720164119441958,22.413771460978815
3918.3215,3.7230176085657107,22.38144439810805
3919.223,3.7228875616763073,25.40976367093551
3920.1245,3.71871538215436,27.733931508810773
3921.0286,3.712916482816358,27.79817064296295
3921.9307,3.7100927236402588,27.56531278051159
3922.835,3.714239703279193,28.016929945175324
3923.7373,3.7268517251509476,24.8744001359248
3924.642,3.7470002687170565,20.45562281066293
3925.5452,3.772165733305655,23.12008988460951
3926.448,3.7991914457779683,24.513342531981923
3927.3535,3.82425222865668,25.10902249923561
3928.257,3.8429771209969807,21.485785537368766
3929.1628,3.8522016264005914,18.77607910921653
3930.0667,3.8509482034480365,22.173176043115426
3930.9731,3.8406015552735546,21.223216999686098
3931.8774,3.823779262489482,23.800653007097367
3932.782,3.8030652092454202,24.799870343498597
3933.6887,3.7806145071751067,21.92161570693793
3934.5938,3.7581836918789513,26.887479345377066
3935.501,3.7366133618223905,24.19768099679688
3936.4062,3.716359336638166,23.630742454845027
