wavl,flux,ivar
3566.9744,1.3072965936093108,153.08813221286962
3567.795,1.3014473823032073,168.1695132564782
3568.6177,1.2963677851124153,214.60671150155588
3569.4385,1.292423005518943,145.58186088936287
3570.2617,1.289426169238697,155.98516971315703
3571.083,1.2870821649595132,170.14036233991266
3571.9065,1.2852441248771103,167.12661415330004
3572.7283,1.283909857955746,162.56814006882553
3573.55,1.2829738347584527,159.7704784428287
3574.374,1.2823137397294109,215.1976328586445
3575.1963,1.2820986162411072,180.18579222183402
3576.0208,1.2827884155098377,193.73962613819705
3576.8435,1.2846501859036192,176.23777170852875
3577.6682,1.2873794740553046,185.39103468674512
3578.4915,1.2903594378989496,181.02221240106428
3579.3145,1.293355960228745,170.42704359377456
3580.14,1.2966800217931478,160.58526427604718
3580.9636,1.300557009366474,176.7123175400036
3581.7893,1.3045048803182038,184.4512718582874
3582.6133,1.3072900538898533,142.29432097394803
3583.4395,1.3077072357062756,138.1560349967347
3584.264,1.305293586263198,189.66801458438403
3585.0884,1.3005660924471847,123.68167907775381
3585.915,1.2946387776712538,155.10243304318053
3586.74,1.2886788661277762,189.00751223865717
3587.5671,1.2832671876066992,185.23629629273742
3588.3923,1.2783089547784425,176.17482908344545
3589.22,1.2732267383946259,175.8447488791278
3590.0457,1.2676999571760632,138.96252591988218
3590.8716,1.2619964816673153,162.1238327518739
3591.6995,1.2568371475526146,180.41591326990843
3592.526,1.252870133753565,161.38146193742512
3593.3542,1.2502828121618264,155.91582959729425
3594.181,1.2490141373591799,162.67881445913943
3595.0098,1.248956743140068,195.04464741333842
3595.8367,1.2499558448854016,171.9261257988066
3596.6638,1.2516342105216247,151.7929463886244
3597.4934,1.253403543947692,163.6892102892604
3598.3208,1.2546139929407627,196.96463859827614
3599.1506,1.254730570535262,155.6795928348632
3599.9788,1.2534762830438317,150.73203247459787
3600.8088,1.251121739904301,191.11602152996213
3601.6372,1.24862539624011,194.62605756223246
3602.4678,1.2471508542954726,188.9320000378944
3603.2964,1.247256406114924,195.8573486999641
3604.1252,1.2483561565428383,157.28551058896372
3604.9565,1.2490634991055634,176.23873243284353
3605.786,1.2481257408278266,144.3078180413915
3606.6172,1.2452993623519941,161.17849419935663
3607.447,1.2415285862097105,212.5249045993215
3608.2788,1.2383174225603026,195.7739784350927
3609.109,1.2369685111513085,165.51273893449732
3609.9392,1.2380388353373362,204.13226970547993
3610.7717,1.2412633976180862,205.9903540296825
3611.6023,1.245595697292824,227.93493811930992
3612.435,1.2496047352696666,210.12363833788166
3613.266,1.251997472426629,190.13381659155965
3614.0994,1.2521629406187396,181.17704317923125
3614.9307,1.2501654556265007,165.77422464613213
3615.7625,1.2465122089854317,161.98193580045418
3616.5962,1.2419653057525541,184.9769025970872
3617.4282,1.2374143418478316,170.2035074728321
3618.2625,1.2334496979673948,153.36912886773226
3619.0947,1.2301016963756422,157.61678952514546
3619.9292,1.2268390646606295,184.47503853741586
3620.762,1.2231557627525933,199.83915732142512
3621.595,1.2190495340216598,164.04730951960735
3622.4302,1.2151503893923674,198.0154328248969
3623.2634,1.212324617485597,225.40197497191062
3624.0989,1.210968669409412,184.3214541405788
3624.9326,1.2106887052407886,184.6675037115542
3625.7686,1.2104110216094643,226.46222120652092
3626.6028,1.2088922858341862,207.21113245370262
3627.437,1.2052837930321814,229.07901947477495
3628.2734,1.199558790398881,247.76338573876944
3629.1082,1.1926972357797456,214.86960427193057
3629.945,1.186202627916632,188.96119791191063
3630.78,1.181444662237751,207.83566035935362
3631.6174,1.1788737662541866,193.40331149162628
3632.453,1.1779839208490979,245.67534136593486
3633.2883,1.177723807368853,211.4484790580371
3634.1262,1.1772295004371123,237.87027327346817
3634.9622,1.1762322287874103,245.34606634856732
3635.8005,1.174892277459924,219.09914440489484
3636.637,1.1733938030864637,241.47681111661038
3637.4756,1.1717933380744252,202.08125787995021
3638.3123,1.170302473645789,176.38278090302012
3639.1492,1.1693443081674855,238.18818381550295
3639.9885,1.169141004441533,248.43429946443746
3640.826,1.1692297435046544,210.85758319728018
3641.6653,1.1686091236644112,218.36543971568977
3642.5032,1.1664949229794852,174.7972203492205
3643.343,1.1629403159165754,215.86178349153795
3644.1812,1.1588390060177614,276.69857413367436
3645.0195,1.1552303391442746,203.6310581533885
3645.86,1.152563523547654,220.06641943747317
3646.699,1.1503882365073095,196.66322958820868
3647.5398,1.1476822779043734,227.19717344890958
3648.379,1.1436930403457841,206.80694418267694
3649.2202,1.138465453262333,163.25048788349008
3650.0596,1.1328516735554548,208.79596962862934
3650.8994,1.1278285560819863,199.26649549446213
3651.7412,1.123926059597049,230.63549649667527
3652.5813,1.1209904079601054,219.3427622342654
3653.4236,1.1183285889840582,231.94461529340873
3654.2642,1.1152641299858002,191.68510635988392
3655.1067,1.1116345474502725,227.38722823975857
3655.9475,1.108134239253675,205.14690919589424
3656.7886,1.1060217824367773,241.50512934302836
3657.6318,1.106443656541874,258.3092431521971
3658.4734,1.109656537428317,223.1641122151592
3659.317,1.1147801911529645,228.6464987698381
3660.1587,1.12021098049414,208.02998000698116
3661.003,1.1245500662578005,174.75309084228275
3661.845,1.1271224078416335,253.01331025292933
3662.6875,1.1280735712694185,267.3961070500729
3663.532,1.1279261163049392,211.9144876615064
3664.3748,1.1272502806162858,268.01550624456854
3665.2197,1.1265241953397032,215.3733843395995
3666.063,1.1260621202879335,255.81525408907157
3666.9084,1.1258389520353302,247.9893668576919
3667.752,1.1254228763434588,263.89613285815483
3668.5977,1.1242133539182169,230.72898212947268
3669.4417,1.1218760404259014,225.99330362313196
3670.286,1.1185192525430088,251.68200893018312
3671.132,1.1145443613008403,185.9671099280771
3671.9768,1.1104636307139668,210.8981948145661
3672.8235,1.1067540765557644,239.61408984730025
3673.6685,1.1038351964119983,233.8519269682957
3674.5156,1.1018428226819796,229.5738484200092
3675.3608,1.100611904458753,249.11021743331898
3676.2063,1.0998261173309514,232.34292702525332
3677.0542,1.099302827782898,199.6239233838811
3677.9,1.0990347484455854,208.97515090515682
3678.748,1.0989996423766628,232.90927901279667
3679.5945,1.0990563262089006,253.21970049302064
3680.4429,1.0990814579370218,252.87065740555505
3681.2896,1.0991562103882035,249.39600984832975
3682.1365,1.0994897559900072,265.128390048723
3682.9856,1.10010436574781,194.6098244193575
3683.8328,1.1006272631314897,237.64452614896138
3684.6824,1.1004668495666599,212.23127399812526
3685.53,1.0992474121037017,218.99077856344334
3686.38,1.097294664449483,259.01685086037355
3687.2278,1.0961185837477716,250.1906979845428
3688.0762,1.098640165008013,254.04132562718723
3688.9265,1.1086408932797742,289.67514208284166
3689.7751,1.128446284355382,276.21405614243406
3690.626,1.1559092365116042,210.3362961966974
3691.475,1.1826496532626825,259.7963152609045
3692.3264,1.1977157530504605,227.50373545948548
3693.1758,1.1940633190059522,256.0321448868996
3694.0254,1.1737353259855825,189.17931512457503
3694.8772,1.145978155264593,218.65659763257162
3695.7273,1.1210962424137354,289.70274375974344
3696.5793,1.1044909174744033,234.0712295109181
3697.43,1.096144430956291,258.4013061758636
3698.2825,1.0928466761489712,221.65720737918238
3699.1333,1.0911442172446755,246.04289269211932
3699.9841,1.0887317669304009,205.40020809762527
3700.8374,1.084814020006932,308.19260817599564
3701.6887,1.0799240916877,239.57459126897527
3702.5425,1.0752697681766727,264.5527649244625
3703.3943,1.0720190068290494,242.05266251025648
3704.2483,1.070557927849771,198.74602678967696
3705.1003,1.0703899191133774,265.57923070317713
3705.9526,1.0704677920859331,274.27238575783446
3706.8074,1.0698051222022111,199.62302468157353
3707.66,1.0679399471523627,229.85837517339928
3708.515,1.0650441722580035,269.98985130521226
3709.3682,1.061796187816782,284.00910848815784
3710.2234,1.0590304487467443,225.05065017643244
3711.0771,1.0574714686638298,274.4940959618029
3711.9307,1.057482688751816,322.7042426919893
3712.7866,1.0590732950130388,269.5587651384029
3713.6409,1.0619687409336758,269.13432704674625
3714.4973,1.0656670886351867,201.82752953111176
3715.3518,1.0692893169452822,305.06933095623907
3716.2085,1.071645342632076,233.56019587193106
3717.0635,1.071571206988533,177.53170403788343
3717.9185,1.0686813037966645,265.323230382635
3718.776,1.0638196699422258,200.66259257913117
3719.6313,1.0588713192764048,272.00107011570526
3720.489,1.055699554931353,270.65645618570824
3721.345,1.0551729701938737,252.0356594094109
3722.2031,1.0567562126735823,218.51827681491278
3723.0593,1.059076205614252,237.8685024135605
3723.9158,1.0609230452677478,176.04684612941907
3724.7747,1.061881559925871,272.8070168610135
3725.6316,1.0622014571760563,260.0294659988854
3726.4905,1.062173733053365,250.04076969577343
3727.348,1.061675002240895,252.05406610144306
3728.2073,1.060355819390424,255.0639796403305
3729.065,1.058197100609497,268.6311068060346
3729.9229,1.0557438089866131,243.60884627203586
3730.783,1.0537904275290824,221.13487042425996
3731.6414,1.0528263455630364,237.9001544409717
3732.5017,1.0526892844594833,270.97024572462186
3733.3604,1.0527272886673469,267.12086123394965
3734.2214,1.052243139144842,250.39559164734504
3735.0803,1.0509109047033371,241.59404352210908
3735.9417,1.0488093438501596,347.7661912917056
3736.8013,1.0461459352566718,289.3598628621667
3737.661,1.0429599347653271,241.09717755057582
3738.5227,1.0392149671385975,253.72734972750607
3739.3828,1.0351078473259927,278.93309705700034
3740.245,1.0310774525792674,264.1965307762785
3741.1055,1.0276839848381136,249.9369543270249
3741.9683,1.025374638618703,269.73216415437554
3742.829,1.0245403384467755,263.4206335873658
3743.69,1.025412781625092,249.35343837631038
3744.5532,1.0278566718639444,268.54598982695217
3745.4148,1.0311369202918386,292.7094731409916
3746.2786,1.0341494160056535,256.6575293284309
3747.1404,1.035919599049937,250.8250470220611
3748.0044,1.0361111932474054,282.86363007215476
3748.8667,1.0350082760086619,233.13386536815707
3749.729,1.0332094073444253,279.7288010843475
3750.5938,1.0313308655262254,255.67837626369726
3751.4565,1.0299130389877562,293.0360002898892
3752.3215,1.0293192901118131,260.7122490906192
3753.1848,1.0296710924660755,272.8307270922115
3754.0503,1.0308160771387107,238.7809645840984
3754.9138,1.032417235126376,266.68924709822517
3755.7776,1.034102964024201,261.0173704318602
3756.6438,1.0355414717925089,227.82043519211135
3757.508,1.0364534554832465,272.81882652040105
3758.3745,1.0366473022798104,272.67680622264044
3759.239,1.036023303728472,263.2902791532026
3760.106,1.0345967548963115,259.66789982040035
3760.971,1.0325275613989344,237.3100325978099
3761.8362,1.0300799300976835,251.27136392887226
3762.7036,1.0275127062680147,282.27765120227605
3763.5693,1.024925349603508,308.62665403362803
3764.437,1.0221943275026895,278.1999149430539
3765.3032,1.0192819283198835,219.48699114374412
3766.1714,1.0165059294366605,231.0959308948138
3767.0378,1.0145219987206262,291.5483290241715
3767.9043,1.0137938291013955,304.83913769325073
3768.7732,1.0141546864654432,260.94432967705177
3769.6401,1.014784437328778,238.99425325624844
3770.5095,1.0146265443897609,263.4653089855972
3771.377,1.0128791867299352,277.7619129610471
3772.2466,1.0093073384571558,274.52732874635416
3773.1145,1.0043852003999667,252.360676721793
3773.9824,0.9991265907125846,316.6481630651247
3774.8528,0.9947162841456401,271.3806776501671
3775.721,0.9920391133484927,285.762867980143
3776.5918,0.9912973130891359,253.72039346291695
3777.4604,0.9922066660883986,256.85949585966466
3778.3315,0.9944124423017127,269.9424527452845
3779.201,0.9977500933813677,274.6935373863794
3780.0703,1.0020812341674668,282.7523071725314
3780.942,1.0068648518982743,350.17064995240435
3781.8118,1.0110147937744765,222.37668719843117
3782.6838,1.0134723871140396,230.9318539590634
3783.554,1.013849860481297,274.43420259623633
3784.4265,1.012698137181918,307.5223724095876
3785.297,1.011005319529663,340.05204256376817
3786.168,1.0094203668283837,264.50997396666446
3787.041,1.0078643798705151,251.98329541680147
3787.912,1.0057898504632035,281.57667555566275
3788.7856,1.002766156838068,291.0397948982584
3789.6572,0.9989732189413543,261.17022802051775
3790.531,0.9951038951842852,328.7067758558814
3791.403,0.9920209054697912,285.2884467789317
3792.2754,0.9902526056827624,270.8981137625087
3793.15,0.9897866480330096,284.64663555922516
3794.0225,0.9900919453217277,325.67955163970265
3794.8972,0.9903737535821515,292.9187883485199
3795.7703,0.9899089502614763,318.3231554250935
3796.6455,0.9882975987269264,220.51572613385673
3797.519,0.9855995785933824,266.7996195750145
3798.3926,0.9822883496609787,268.21271751942913
3799.2686,0.9790420047179275,296.90546893703583
3800.1426,0.9764500187773806,275.8836462958293
3801.0188,0.9747001775989979,307.2486717810867
3801.8933,0.9735690788429078,273.1911521639904
3802.77,0.9725488025783798,302.9113078794515
3803.6448,0.9712022634816153,316.94797226989124
3804.522,0.9694804490259831,353.8467795893539
3805.3972,0.9678277452667042,314.4885983344024
3806.2727,0.9668353597259133,308.57297332073813
3807.1504,0.9668058312371021,316.8847471971154
3808.0261,0.96759521407702,287.94611759844463
3808.9043,0.968889338289905,293.0106182414403
3809.7805,0.9705320368244892,408.29101138676924
3810.659,0.9725724950100748,266.26043969883085
3811.5356,0.9749926077092772,278.4421018573639
3812.4126,0.9775896410753074,295.62059011998883
3813.2917,0.9800621923283597,263.2813723436879
3814.169,0.9821289921999727,325.7001004063605
3815.0483,0.9835503994732966,327.95671980485156
3815.926,0.9840178948778229,298.93272383278094
3816.806,0.9832365718567047,313.6073447981356
3817.684,0.9811108335968733,257.81970855563037
3818.5623,0.977887663037844,245.29500066593738
3819.4429,0.9741247146601296,270.0016042232154
3820.3215,0.9705593473596252,277.7859897644203
3821.2024,0.9678317614333493,274.591919440796
3822.0815,0.9663983098339988,318.9533201946045
3822.963,0.9664308104625804,303.1458255847962
3823.8423,0.9678091906622363,293.0037244222222
3824.722,0.9700558221707473,316.79559551982635
3825.604,0.9723367020936582,317.5955098819804
3826.4841,0.973642578077457,288.6271926156783
3827.3665,0.9732326595649707,321.124466037085
3828.2468,0.9709942800988629,271.2981757545958
3829.1296,0.9675331596755852,329.0359334454118
3830.0105,0.9639500447993719,286.0404208134248
3830.8916,0.9612306713332317,335.13347417327617
3831.7751,0.9596638434957526,288.02101552635764
3832.6565,0.9586052076164653,287.1887553331729
3833.5403,0.9569041776075997,291.16610134603616
3834.4224,0.9538421485862153,323.19035091290766
3835.3064,0.9496919626347557,368.23928770802416
3836.1887,0.9455323994846088,396.3037390774878
3837.0713,0.9424216653208541,387.09244108032715
3837.956,0.9408628670442807,323.67249666129015
3838.839,0.9407873820298469,357.16565227169986
3839.7244,0.9418259711697973,348.4043762752806
3840.6077,0.9435480674282538,297.2382370462795
3841.4932,0.9455716982929091,277.50671145269484
3842.377,0.9475846821689368,263.86064439414986
3843.261,0.9494191398385335,256.2909220254992
3844.1472,0.9510531946461129,332.59554417195017
3845.0315,0.9525782559581961,310.7874060376102
3845.9182,0.9541510344158568,317.48301311698356
3846.803,0.955814611096902,395.0815984698748
3847.69,0.9573882671188474,288.10414335565486
3848.5752,0.958477995482493,255.56690897173655
3849.4604,0.9587446122909526,279.1776893933314
3850.3481,0.9581080195083435,281.562596910371
3851.234,0.9567771823992194,281.88515266461167
3852.122,0.955131585957443,322.1507699976289
3853.0083,0.9536562803932526,335.5312379476233
3853.8967,0.9528205753411878,273.1102493424986
3854.7832,0.9529203868142581,320.00294680742024
3855.6702,0.9538624323174149,365.48600443737735
3856.559,0.9551357978239763,297.08676272903296
3857.4463,0.9560111930527587,328.87692462214505
3858.336,0.9559185899111732,318.2630712561482
3859.2234,0.9547127871672121,306.8304913145148
3860.1135,0.9526934678788461,322.0911188087364
3861.0015,0.9504218537874036,334.8355396887712
3861.8896,0.9483780632867632,316.3653039654778
3862.7803,0.9467333494256736,322.23124957321915
3863.6687,0.9453290031852989,276.45665110127294
3864.5598,0.9438533793882171,274.2991570780982
3865.4487,0.9421240230892663,388.94840407496935
3866.34,0.9401015234681801,339.0679540863224
3867.2297,0.9377802524610729,287.01349692600155
3868.1213,0.9350712416069021,260.72655114287005
3869.0112,0.9319839683242198,284.2226576739443
3869.9014,0.9287836075009394,341.84886010664354
3870.7937,0.9259848711819579,305.43313721696006
3871.684,0.9241108550647249,352.2225527243505
3872.577,0.9234027693291795,286.4493254568983
3873.4678,0.9238120822213575,297.6886562804688
3874.361,0.925123552757115,359.8499126264686
3875.2524,0.9271226508785471,296.4005737394289
3876.1438,0.9296842796459337,295.1413143465258
3877.0376,0.9326493407451057,377.88431594401516
3877.9297,0.9355533854412259,335.73375550576156
3878.8237,0.9376189565784905,299.0405753780044
3879.716,0.9380761171614531,298.7346325502029
3880.6108,0.9367213256180503,321.6029892619911
3881.5037,0.9340974335663428,307.88141225273284
3882.3965,0.9310994116501098,348.85224435011867
3883.2917,0.9283574925049206,322.80864102879315
3884.185,0.9259247907611842,388.91174496459945
3885.0808,0.9234079895421292,320.43400499647146
3885.9746,0.920524834612233,314.98545445316154
3886.8706,0.9174476707067281,357.3246829205988
3887.765,0.9148133403172968,297.964634596749
3888.6592,0.913244543644402,377.8902820346043
3889.556,0.9129307178929278,317.8739673458425
3890.4507,0.9135315971621533,323.08748717459514
3891.348,0.9144727384443321,347.8432468687007
3892.243,0.9153138352731102,345.15085771383946
3893.1406,0.9159033759426126,373.55382907576086
3894.0361,0.9162471771868578,313.32195313976075
3894.932,0.9163459896413417,337.5054317380955
3895.83,0.9161205790227537,284.52480675894134
3896.7263,0.9154884003821804,280.46250516479006
3897.625,0.914489494217822,327.1929876367722
3898.5215,0.913351397994128,305.34247413992176
3899.4207,0.912352021173386,345.9924750005574
3900.3176,0.9116400968550084,340.13483881478214
3901.2148,0.9111488452399772,293.5227578445401
3902.1145,0.9107579921213256,344.5252748821169
3903.0122,0.9104911005749277,343.14847767115447
3903.912,0.9105409254692838,382.01117417567957
3904.8103,0.9111309356308527,304.9906779883071
3905.7107,0.9123414187660042,395.7781466808134
3906.6094,0.9139836575521887,344.6719144427419
3907.508,0.9156240495169758,369.5992905335025
3908.409,0.9167689097956188,292.91807799833316
3909.308,0.9171532850593827,306.8020512397521
3910.2097,0.916908885429344,347.518447699735
3911.1091,0.9164239440902455,287.0013326163381
3912.011,0.9160787851277798,342.33618492405367
3912.9111,0.9160779504727709,318.4577892715583
3913.8113,0.9163767427443376,291.38243777759186
3914.7136,0.9166687332769397,317.2261551876184
3915.6143,0.9164882333179516,264.53432444029215
3916.517,0.9154944062507595,328.52452030161714
3917.4182,0.9137423277906657,339.6091093491204
3918.3215,0.9116358675779463,375.7524111431689
3919.223,0.9096499236970551,368.2123806099217
3920.1245,0.9080342593987727,321.2356928386175
3921.0286,0.9068188282470278,320.75358078769244
3921.9307,0.9059600027244045,326.5590182137058
3922.835,0.905437650697522,324.49906581567365
3923.7373,0.9053211110791956,346.5116565973598
3924.642,0.905741166259718,322.94460549379505
3925.5452,0.9067424474813253,345.35244194198805
3926.448,0.9080536478391084,317.4719754072871
3927.3535,0.9090163386834978,327.49733758238756
3928.257,0.9088435637154633,335.9460170097726
3929.1628,0.9070760402990826,278.89219888015873
3930.0667,0.903806402478082,366.8918098916187
3930.9731,0.8994707006624594,385.00686672033106
3931.8774,0.8946176060254636,320.4875821823331
