wavl,flux,ivar
3566.9744,5.771463198266485,6.652839337650255
3567.795,5.777259396156522,6.414312867508776
3568.6177,5.771498316206807,9.067622409718275
3569.4385,5.7592283435592,6.283761623008726
3570.2617,5.742555131510702,9.74707014424278
3571.083,5.717029177623859,5.321715243632413
3571.9065,5.675236130818775,7.552272513366701
3572.7283,5.616114299080539,9.57504072277531
3573.55,5.5493795490390925,8.042343674041682
3574.374,5.4918786429276585,8.535253826096422
3575.1963,5.458641251386683,8.212654386760349
3576.0208,5.454844664398165,8.171119629336475
3576.8435,5.4761601080060505,10.843945948863029
3577.6682,5.513277306755984,8.764650367269152
3578.4915,5.556119722321319,11.901062871013991
3579.3145,5.596200390948623,9.702174914053677
3580.14,5.627121455053982,8.430583200565058
3580.9636,5.645378688575059,7.667186595143288
3581.7893,5.652388559449047,10.211560881017697
3582.6133,5.654159883963942,4.750191052612424
3583.4395,5.6583484583917,17.954954927725478
3584.264,5.668976324773375,18.69054710851107
3585.0884,5.683583764078277,8.808924414584702
3585.915,5.695699665864242,9.494732501137776
3586.74,5.700010991815087,8.072562161581383
3587.5671,5.6951351399293175,10.15358677861729
3588.3923,5.681703370877204,7.681688922435984
3589.22,5.659399764366418,8.174380323036969
3590.0457,5.626957518122868,5.554789534671536
3590.8716,5.583891290235262,8.192836201387877
3591.6995,5.532647472905934,7.015765653682328
3592.526,5.4792785016532015,8.659329191404355
3593.3542,5.431114402023548,10.049371698939089
3594.181,5.395283483236898,9.603205899649375
3595.0098,5.3762818314554695,13.926859283245683
3595.8367,5.37569590107801,12.287718109145086
3596.6638,5.390634717745525,15.48039417039965
3597.4934,5.412829728983659,15.014592273167212
3598.3208,5.429701514864479,9.042124587082398
3599.1506,5.430262281275318,5.487282406670387
3599.9788,5.411021195956082,8.647032303501868
3600.8088,5.377274872536442,7.857707580047615
3601.6372,5.339074473485202,9.567267105861616
3602.4678,5.305834198247013,10.007200408757775
3603.2964,5.285351925398953,6.496262512499302
3604.1252,5.28320040624489,8.421481060971486
3604.9565,5.301576668050631,12.205956909771881
3605.786,5.336609620230343,8.685370818368582
3606.6172,5.379094756487733,5.029788581914074
3607.447,5.417987965033305,6.547342665558894
3608.2788,5.445969679623845,8.80959577294612
3609.109,5.461312600326415,6.819605507646621
3609.9392,5.466939642373406,7.379581837900037
3610.7717,5.466470436396164,5.512110101920171
3611.6023,5.461662406345908,15.273227255473518
3612.435,5.452803162971966,10.368653255306137
3613.266,5.441084000936964,10.071688955972922
3614.0994,5.429422011607128,10.323021035635692
3614.9307,5.420955614775604,8.287518803540127
3615.7625,5.416249225473898,7.505103960153364
3616.5962,5.4123395894441595,7.972448846526525
3617.4282,5.403923523405389,7.439140863399472
3618.2625,5.386151771562978,8.679657329830356
3619.0947,5.3582077573692155,7.157626316243864
3619.9292,5.324645581965627,10.644106972487977
3620.762,5.293880551406472,9.722589391843822
3621.595,5.272852868840439,9.131769043950623
3622.4302,5.263567052245573,13.443027277356045
3623.2634,5.263080429428395,8.996234578813368
3624.0989,5.266035310886055,9.461845078504846
3624.9326,5.267229275184589,8.64424407413512
3625.7686,5.262808828666529,8.176012515192724
3626.6028,5.2505354769713435,5.567808993465125
3627.437,5.229402684409726,7.822793126809531
3628.2734,5.199165358391952,8.729325935217377
3629.1082,5.161105002180774,8.045114980571025
3629.945,5.118548797011938,6.166685885672904
3630.78,5.07752612968591,9.842133568336557
3631.6174,5.043925793723777,11.302242399804692
3632.453,5.021357370155573,9.082419748427323
3633.2883,5.008805696869859,9.504534995887807
3634.1262,5.001715106774091,11.134401617514982
3634.9622,4.994806640388539,11.124983241851023
3635.8005,4.984964296138298,11.59410600351878
3636.637,4.972021948515295,9.918329286336858
3637.4756,4.9564003205350975,8.1081969338597
3638.3123,4.937577126922589,10.848139480778988
3639.1492,4.915237154521495,10.719301565532925
3639.9885,4.892144374340838,9.820748678790013
3640.826,4.874211361246416,37.41362938374924
3641.6653,4.86635692145191,7.437922521742677
3642.5032,4.86938680762141,17.300577587776907
3643.343,4.880011196924328,8.549905650672201
3644.1812,4.893345009572745,7.666606514156678
3645.0195,4.905040966110253,8.796522902065709
3645.86,4.912091713304456,12.192394389101008
3646.699,4.913720508057036,7.927073566431356
3647.5398,4.912227328881491,8.672119208644746
3648.379,4.911745265738719,10.630608667501157
3649.2202,4.914987669052934,15.320831187075358
3650.0596,4.920743618520126,7.617127736241528
3650.8994,4.925126374445712,8.921953325535661
3651.7412,4.9254797815601155,6.46015204548711
3652.5813,4.922674291330235,17.564405983983036
3653.4236,4.918609201563661,11.455477882809465
3654.2642,4.911555145327874,10.262910232347348
3655.1067,4.895289445617777,7.895949569412031
3655.9475,4.864618850345801,10.661311321397234
3656.7886,4.821183986019809,7.367190287133571
3657.6318,4.773408270652381,13.451711942450332
3658.4734,4.731262899103583,14.532212545983263
3659.317,4.701010494076994,12.537039985536138
3660.1587,4.686418590611059,12.211571607956419
3661.003,4.690465028820522,18.371277676565317
3661.845,4.714466194829977,16.43277850897326
3662.6875,4.754520070408162,12.61230299017875
3663.532,4.800554819837778,10.409876755009469
3664.3748,4.839636420640042,8.013577454904341
3665.2197,4.861898376780988,9.658122236609382
3666.063,4.862781156362826,8.615143269358576
3666.9084,4.843549027524637,17.92540401137067
3667.752,4.81069358397711,9.26661333601699
3668.5977,4.774445509716696,11.468106939423208
3669.4417,4.745897127905901,12.947355998024667
3670.286,4.731319847091011,12.469404418737694
3671.132,4.7299300618959,13.182607325461662
3671.9768,4.73677381857602,18.751816336695608
3672.8235,4.748254030958434,18.286248442028153
3673.6685,4.763749345719205,16.0731886281792
3674.5156,4.782121737118956,12.868453897235705
3675.3608,4.797652159442992,11.235961477998261
3676.2063,4.8019300100862345,14.239806428789484
3677.0542,4.7898100002169794,9.367244837352724
3677.9,4.764650691975455,10.419247407619823
3678.748,4.736866782711704,11.27902419392845
3679.5945,4.717576025869501,13.963843265202756
3680.4429,4.711191355014074,10.36799586922061
3681.2896,4.713965654038438,10.668136968076123
3682.1365,4.717824266924854,11.283063626779501
3682.9856,4.715846341035317,9.085710290779728
3683.8328,4.704763177003882,7.610134261280061
3684.6824,4.683985171438819,9.291495988226508
3685.53,4.654435637446306,13.437461972596696
3686.38,4.618405093551026,9.596441394947146
3687.2278,4.581215458500995,14.712134806056847
3688.0762,4.550122885701289,11.300596505085927
3688.9265,4.531688003156178,11.856351150727706
3689.7751,4.528451039330362,7.858089299637949
3690.626,4.5382140718168715,7.888258716863478
3691.475,4.556544229313542,8.051627626231932
3692.3264,4.579040914910387,16.698260054441718
3693.1758,4.600864129667749,10.238330361535525
3694.0254,4.6167953182702455,12.046443104496122
3694.8772,4.623134260437127,10.360944481413204
3695.7273,4.6205172461691255,24.368941177057135
3696.5793,4.613611858397967,12.39548043652963
3697.43,4.60741600234628,8.824078360784032
3698.2825,4.603965946883469,10.882034919315865
3699.1333,4.602356635412788,13.961210883489143
3699.9841,4.600762153219323,12.913814370127396
3700.8374,4.598202158233865,9.796698377082606
3701.6887,4.594803973922752,11.040826710426483
3702.5425,4.590963667354781,10.540314484094662
3703.3943,4.586816340711157,11.127629032573456
3704.2483,4.582572994201443,12.175271134369776
3705.1003,4.579387535996114,13.762965692212042
3705.9526,4.5789802554372985,12.53081624269362
3706.8074,4.582022441105701,15.8323548906545
3707.66,4.586487106877319,12.130512269363964
3708.515,4.58774134925559,12.469675814621292
3709.3682,4.580450503178938,9.324618227816796
3710.2234,4.561473171109401,16.09062454799887
3711.0771,4.532216013351836,11.697277548015157
3711.9307,4.498410017703422,10.362304649645719
3712.7866,4.467688035287665,17.318935255012768
3713.6409,4.446430117923782,13.687977858483814
3714.4973,4.436320874352181,13.981071268889645
3715.3518,4.4335524943774836,11.692446068102166
3716.2085,4.430240926569432,10.35606285703061
3717.0635,4.419145470943664,12.303566324457979
3717.9185,4.39875861695469,11.911811192128312
3718.776,4.374988663246264,14.781554420823047
3719.6313,4.357943117220559,14.96131013363797
3720.489,4.3552083134903015,10.827704490207587
3721.345,4.3672492301596435,14.452575924209187
3722.2031,4.386914432918086,12.15516050162501
3723.0593,4.403476071132069,10.488133992915255
3723.9158,4.409319389013697,11.381765584285525
3724.7747,4.404040168266349,14.186749783944864
3725.6316,4.393778682446268,15.429386156535429
3726.4905,4.38623945274376,11.833707546519474
3727.348,4.385941891251645,20.34809235819791
3728.2073,4.392353187449066,13.543591873293229
3729.065,4.401313215045927,7.46397579741665
3729.9229,4.40822610492739,11.99561819626221
3730.783,4.410882439107358,13.191581463525207
3731.6414,4.410403189627342,12.032008733457701
3732.5017,4.409850056393451,15.04169001972938
3733.3604,4.411812274476894,12.937831319915817
3734.2214,4.416963336581449,9.911477485383122
3735.0803,4.424022565030271,10.595517643191489
3735.9417,4.430550123886572,27.293860243232878
3736.8013,4.433540930406046,14.27948995612802
3737.661,4.430278884956053,12.400354818110356
3738.5227,4.418899909641727,13.02726205487009
3739.3828,4.398837447471211,19.033258114364187
3740.245,4.370784246530469,11.915281397361795
3741.1055,4.337614939005969,13.084078323982618
3741.9683,4.304072037622616,14.063271672320349
3742.829,4.27558406754903,10.659210319472672
3743.69,4.254149266638465,13.609109838928273
3744.5532,4.2368130851865535,11.910142561148295
3745.4148,4.218725336645284,10.882736952102528
3746.2786,4.198592055875737,13.175958091007935
3747.1404,4.181613373500066,16.893966948568938
3748.0044,4.175549337640897,21.152551558409918
3748.8667,4.184876759037653,11.70290114173123
3749.729,4.207786559681266,17.2192673684478
3750.5938,4.238095354328153,13.315963842297812
3751.4565,4.268117317896672,17.909743838941843
3752.3215,4.291765204162426,11.13244420849996
3753.1848,4.306604250134191,26.76788359335447
3754.0503,4.317264133680608,15.243590944631906
3754.9138,4.33673812936385,20.659108502833533
3755.7776,4.385292177453212,11.95861076241529
3756.6438,4.48641825265378,11.408992773068611
3757.508,4.655747483118628,14.084730810323197
3758.3745,4.884694449558889,15.123083326954061
3759.239,5.1203192961685975,14.069318109827154
3760.106,5.2783522053022915,13.315026382052274
3760.971,5.285436061625448,19.358628637981983
3761.8362,5.133553440874744,27.482560526768076
3762.7036,4.885339737012769,13.059932817769644
3763.5693,4.633345864230205,10.526984342129275
3764.437,4.443424065159461,13.616284949806559
3765.3032,4.338530317926079,11.189923208988276
3766.1714,4.3079962171859725,13.049869135309319
3767.0378,4.32654290739651,18.488517744499866
3767.9043,4.3620787841462665,12.784653511036247
3768.7732,4.3825779982351385,12.72325866938538
3769.6401,4.366744700842804,14.27889891302501
3770.5095,4.313421932921864,13.582337752041179
3771.377,4.239608828430012,13.270729813835693
3772.2466,4.166868571897108,14.903065667740032
3773.1145,4.1098979613931865,16.10764752852954
3773.9824,4.0711062686668384,16.555428657869
3774.8528,4.045436133146147,12.553578000817962
3775.721,4.02814681303989,15.608645833616027
3776.5918,4.019439913901523,18.686399907819613
3777.4604,4.023547588799307,26.721876861796055
3778.3315,4.042856853321133,15.937929716027636
3779.201,4.073618600426595,13.975997197854046
3780.0703,4.10731560698588,17.969847424222834
3780.942,4.135584326741268,10.239063852313581
3781.8118,4.154593709977365,13.170177543679133
3782.6838,4.166528408557226,15.666280463145657
3783.554,4.176074487897523,12.876011940709166
3784.4265,4.18569208516842,16.367055477082754
3785.297,4.192898407760462,16.8669421908352
3786.168,4.192754643506401,17.58764277711991
3787.041,4.182273323120303,17.078986315624437
3787.912,4.162817694559137,13.468958857311032
3788.7856,4.138652606735888,14.430917609080998
3789.6572,4.115010616793218,18.260446591280243
3790.531,4.096006143255072,18.583833665497544
3791.403,4.083400763243827,15.806267793408754
3792.2754,4.0747612918846965,13.963611079481394
3793.15,4.064194129772645,14.579433444505783
3794.0225,4.0459140133143565,13.167473765504488
3794.8972,4.0180150935681755,15.846567728617845
3795.7703,3.983911616589464,15.597600200005033
3796.6455,3.949650560688292,13.418215399464628
3797.519,3.921448004646806,12.338945475108634
3798.3926,3.90354946514636,20.50533917421228
3799.2686,3.89827334867276,17.61634155253286
3800.1426,3.905918766024717,13.70606343986126
3801.0188,3.9242701078399187,22.712901852832587
3801.8933,3.948010998488222,15.757219699017744
3802.77,3.969489836903811,16.868495381022935
3803.6448,3.980506894348855,14.554213741482522
3804.522,3.975741292899354,20.137366788011107
3805.3972,3.954934089371098,14.1208818333469
3806.2727,3.9231260326318336,17.36308402820876
3807.1504,3.8887582394630624,18.398746612061007
3808.0261,3.8608526633518623,15.60238200116261
3808.9043,3.8452616863333233,20.203316184882944
3809.7805,3.843798982965645,12.191795769536117
3810.659,3.8556456903033602,11.562512027565901
3811.5356,3.8802067749048246,24.023958140066757
3812.4126,3.917292128948636,22.31962089522079
3813.2917,3.963857079938705,20.832599893464266
3814.169,4.0111061265848775,14.048205493642993
3815.0483,4.047700438269213,14.13123643315935
3815.926,4.065072680637259,13.040135770663774
3816.806,4.062384037290615,15.884260712572516
3817.684,4.04529185083062,13.379109409292571
3818.5623,4.021266057011096,14.578695720969534
3819.4429,3.9955363215635837,16.290335613348873
3820.3215,3.970967806634397,18.594761665676796
3821.2024,3.9491526888895914,13.686333081839297
3822.0815,3.9311252540136015,22.8632819042123
3822.963,3.915632962795008,14.083744782420329
3823.8423,3.8993181403586146,12.005076340778853
3824.722,3.8789614453643666,17.181427855150808
3825.604,3.8543614257764305,17.426036510277463
3826.4841,3.828564099401755,16.770438772937865
3827.3665,3.804876394061644,17.591661007867007
3828.2468,3.785066682964212,20.063650826298897
3829.1296,3.7687019384783986,21.194146615562243
3830.0105,3.7543981131212445,26.252330966670872
3830.8916,3.740053650340262,17.172129763559216
3831.7751,3.7233290291013748,17.25908925464831
3832.6565,3.7027719199154965,16.13592249279689
3833.5403,3.6787595883245507,20.226820796872847
3834.4224,3.6542668574212334,28.095010397864932
3835.3064,3.6336555311444183,16.113801592700867
3836.1887,3.6217421087728336,14.364508472450666
3837.0713,3.621765100722217,19.319925723904454
3837.956,3.6336293824071686,36.86909207308057
3838.839,3.653021982196586,20.49658882090747
3839.7244,3.6737156810587237,21.416624554750374
3840.6077,3.690708094308874,14.836408850854024
3841.4932,3.7021930945377886,21.86469698792859
3842.377,3.708487036491153,20.133304365452116
3843.261,3.711259697856804,18.281240687201663
3844.1472,3.713445095761225,17.67653383579675
3845.0315,3.7188243807427397,18.96549108937647
3845.9182,3.730060795965089,17.551282677894445
3846.803,3.746421634385228,18.669346968763975
3847.69,3.7641020763628434,15.469456038071277
3848.5752,3.7787224213560036,25.952130809981888
3849.4604,3.7889003931586744,16.311990272616875
3850.3481,3.7972295397254707,18.825708035931463
3851.234,3.807987101901299,20.65332776261066
3852.122,3.823297060802651,17.70823920703623
3853.0083,3.8404452111841585,13.811951279907987
3853.8967,3.853328230440404,14.175377326600604
3854.7832,3.855984616950526,20.329323626531096
3855.6702,3.8463894309706954,13.658570919312437
3856.559,3.8274927681678395,13.838080728063197
3857.4463,3.8059358472955473,15.73774808170272
3858.336,3.788408918929537,15.492809536504128
3859.2234,3.7785427640344844,24.421200960283258
3860.1135,3.7751546288181728,15.276574579619938
3861.0015,3.774130937516082,14.346330524495363
3861.8896,3.771884754754945,19.50318546505907
3862.7803,3.767886564549957,15.945562130398384
3863.6687,3.7641153571331225,16.94065050549895
3864.5598,3.762383466814418,17.192977913425064
3865.4487,3.7627396903856125,32.20630305693111
3866.34,3.7640933080351564,31.402712077086704
3867.2297,3.7655827629612797,20.525673803521837
3868.1213,3.766587501020819,15.212853252183985
3869.0112,3.765562559831448,16.87658059011083
3869.9014,3.759525029520113,17.585500979466477
3870.7937,3.744888212801981,11.373048640535018
3871.684,3.7192753865610526,20.10018839413622
3872.577,3.6827688251603488,14.390296568388463
3873.4678,3.6392401143518587,24.392662210647703
3874.361,3.5949513783445846,18.249731345764413
3875.2524,3.556802659603597,19.530897991487834
3876.1438,3.5286006263114857,21.301277438149768
3877.0376,3.5100014741772494,15.862148832558539
3877.9297,3.497243390128249,22.863265568241488
3878.8237,3.4846995534693574,21.78877970356881
3879.716,3.467337751494418,20.536351243772437
3880.6108,3.4424523757760936,21.171918478665994
3881.5037,3.4108689215086643,23.690294890418485
3882.3965,3.375448762120925,32.360837561014655
3883.2917,3.33910659012115,26.183902406477525
3884.185,3.304218540984401,19.148923043200632
3885.0808,3.2726459155010232,29.916541454838036
3885.9746,3.2466873890323606,37.992765708793456
3886.8706,3.2271666819337157,23.48180921072326
3887.765,3.2126393640194983,27.09437798781328
3888.6592,3.2000772494066103,22.771273349187265
3889.556,3.187646267014365,28.79082985580585
3890.4507,3.1761564570100083,24.547917495785278
3891.348,3.167657492675842,35.59398508406028
3892.243,3.1637184654719914,21.692938990992943
3893.1406,3.164949603467186,27.221450519938315
3894.0361,3.1722645702480903,24.936814162297743
3894.932,3.187577206360253,19.952210325795797
3895.83,3.212858798234363,24.4670426235478
3896.7263,3.247974349180404,25.792753562970418
3897.625,3.2903217463847088,19.017909084606238
3898.5215,3.335322379644128,20.30163618483225
3899.4207,3.3794690158462513,20.737751206049452
3900.3176,3.4208458791658676,19.406612078923086
3901.2148,3.4597079634398584,18.036800653649372
3902.1145,3.4966754673773175,23.199332340163675
3903.0122,3.5312581496751467,16.516946954102774
3903.912,3.562321297913084,21.503940655768965
3904.8103,3.588418700399673,16.180410457798338
3905.7107,3.6096291205102617,16.0653934551097
3906.6094,3.627681343450262,16.08988853247672
3907.508,3.6454330776646398,23.2785152390477
3908.409,3.664898805615201,26.386728222254252
3909.308,3.685998245868537,18.406239852317178
3910.2097,3.707788011840429,12.798181914124932
3911.1091,3.7300647761528776,15.481121472727892
3912.011,3.754436229068232,20.767642713626586
3912.9111,3.7822583673944012,17.47916691382925
3913.8113,3.8129662311885677,18.91320636180413
3914.7136,3.8435861571833065,16.85028203424997
3915.6143,3.869905066669845,15.838600003038138
3916.517,3.888621168712811,14.392432016624943
3917.4182,3.8978145542403353,20.323432274782277
3918.3215,3.897407183889959,26.31922074134029
3919.223,3.8889546503502386,15.022378292022648
3920.1245,3.8754342781275484,16.256849791042395
3921.0286,3.8604178911271108,17.57735599346107
3921.9307,3.847138006314615,16.617661459585495
3922.835,3.8376220574216293,17.630194554765815
3923.7373,3.8331210512915863,15.899511513459515
3924.642,3.8343275162321815,20.60972201761591
3925.5452,3.8411912590563064,18.99611875523741
3926.448,3.852081341030428,16.856002093904227
3927.3535,3.863506470992683,15.859161082985874
3928.257,3.8710511043126146,13.590723845639863
3929.1628,3.8715719860943576,17.8858249239106
3930.0667,3.8643408764140545,11.840199597955912
3930.9731,3.8506043482586727,16.258074083797247
3931.8774,3.8325061992514886,18.8005991425462
3932.782,3.812218253744721,14.247581227711477
3933.6887,3.7921259291053437,17.787896963823865
3934.5938,3.775061201391575,20.53079931960136
3935.501,3.763488427727769,16.004074110733352
3936.4062,3.758458662831051,19.05329227771076
3937.3142,3.7579127716175176,16.061523794365577
