wavl,flux,ivar
3566.9744,1.0699649332317176,77.05305500089936
3567.795,1.0713232421448804,69.54176805333063
3568.6177,1.0711088538805331,58.37775616109872
3569.4385,1.0695738547634412,93.07209269781146
3570.2617,1.0673984833840762,108.01793990473715
3571.083,1.0653160922512661,76.72385816956734
3571.9065,1.0638004197704625,67.4382687499097
3572.7283,1.06293364473991,121.09028041298046
3573.55,1.0624108152897054,77.49711376425114
3574.374,1.061828170656473,94.63714796666025
3575.1963,1.0609716037038779,54.833142185749054
3576.0208,1.0598123502975065,86.39178014936869
3576.8435,1.0583188446808895,80.47152915464805
3577.6682,1.0564019668592022,81.7574484985007
3578.4915,1.0541588810380336,81.83868787954928
3579.3145,1.0518793457050146,96.54663874717608
3580.14,1.049667572826542,91.41623891413009
3580.9636,1.0471800591119638,119.08297544081674
3581.7893,1.043978406504044,64.49515831438293
3582.6133,1.0403377163328928,118.48220824741831
3583.4395,1.0373785222383392,88.3937539825857
3584.264,1.0363927588476713,95.86038216305056
3585.0884,1.037847257204623,76.04910789115756
3585.915,1.0411446042214527,80.43316400371467
3586.74,1.0450398341169918,109.63447651602021
3587.5671,1.0483281968383715,91.95060870517702
3588.3923,1.050182969568296,77.44787743992877
3589.22,1.0504159913319255,84.71942131534712
3590.0457,1.0495123346699629,68.15051285237449
3590.8716,1.048406941628415,80.52433502450518
3591.6995,1.0478881171355467,77.07051726462471
3592.526,1.0480565575333927,67.83703488216229
3593.3542,1.0483445627759078,86.21874800525705
3594.181,1.048131094804345,94.9469310561191
3595.0098,1.0472997936141029,100.78495595990186
3595.8367,1.0461461961772391,72.72430346695666
3596.6638,1.044786437783915,95.5811186788798
3597.4934,1.0428865720169556,73.81557728944722
3598.3208,1.040154256371823,93.77372793206388
3599.1506,1.037007208755647,81.94299875241529
3599.9788,1.0346388114992133,91.833675368016
3600.8088,1.0340333376273356,74.54982847555067
3601.6372,1.0350083097271359,78.46234604025263
3602.4678,1.036259500368653,78.36285569827132
3603.2964,1.036493557177074,99.68228036627428
3604.1252,1.035532225216937,116.26937824985237
3604.9565,1.034320048542846,70.04669268012717
3605.786,1.0340686437897273,104.17753743897586
3606.6172,1.0353759082841616,83.65565995316939
3607.447,1.0379834320418482,95.49438621126856
3608.2788,1.041069773695793,83.84328218800383
3609.109,1.043640644959267,87.58584032125479
3609.9392,1.0449279768448778,68.5324310345968
3610.7717,1.0445721732556394,90.43883081742229
3611.6023,1.0426641950564242,77.14066945916309
3612.435,1.0395725799452515,65.28925561055684
3613.266,1.0357430147382618,96.74617824362281
3614.0994,1.0314812311860793,67.258710780553
3614.9307,1.0270082235704323,80.42336607544682
3615.7625,1.0224910290025007,79.44533985125129
3616.5962,1.0181669622241096,99.71558425533944
3617.4282,1.014305018771949,91.7633426970844
3618.2625,1.011001477294881,73.88442675278924
3619.0947,1.008259750333072,94.1246044630456
3619.9292,1.0061617356894414,100.15957074144012
3620.762,1.0051105906808024,90.40507037685977
3621.595,1.0056160137078707,115.39602803695651
3622.4302,1.007871238091089,86.01868191117184
3623.2634,1.0114161334920944,90.41635902183198
3624.0989,1.0152551823664906,133.6134038229218
3624.9326,1.0180793163935393,100.01206773899594
3625.7686,1.0186593597808775,109.75129276226306
3626.6028,1.0162295538756971,111.52543526934006
3627.437,1.0108886292437602,112.83581124038695
3628.2734,1.003564146922062,96.38898260414463
3629.1082,0.9956756161515278,97.96323883553673
3629.945,0.9885379025372483,80.63278666187699
3630.78,0.9831876526388508,91.29449534497991
3631.6174,0.9800146110475145,118.45571438613767
3632.453,0.9786724012282896,94.13649236474724
3633.2883,0.9780978444923292,102.23130030861698
3634.1262,0.9770473347312403,114.56905608708426
3634.9622,0.9747599892919209,121.3846237734174
3635.8005,0.9713148786613213,98.15292825107645
3636.637,0.9674689995511689,83.95305122013549
3637.4756,0.9638687649785685,90.4951607348866
3638.3123,0.9604387334966702,81.7954455569237
3639.1492,0.9563706505449932,143.73370161072972
3639.9885,0.950987752247061,77.5562548476356
3640.826,0.9446748273639943,140.95377996535154
3641.6653,0.9388927261343939,142.68930425751714
3642.5032,0.9355495667322445,114.89749785920303
3643.343,0.9358704282624906,125.80557119620876
3644.1812,0.9396601578463083,99.0944754178763
3645.0195,0.9452160650212538,88.673702075546
3645.86,0.9500986955623315,99.31478968688752
3646.699,0.9523125799620153,124.52259948198697
3647.5398,0.9513044540994567,90.5317339210599
3648.379,0.9480029936451514,134.8925783528539
3649.2202,0.9441095798656873,111.38939881754443
3650.0596,0.941206616875033,98.15035300311524
3650.8994,0.9400187952074373,131.61916004025002
3651.7412,0.9402906644782747,123.95387476568669
3652.5813,0.9411011394371591,105.58297225423502
3653.4236,0.9414895445835019,86.83842391725452
3654.2642,0.9409966043589331,105.5085833036017
3655.1067,0.9398365334501354,82.67746873734403
3655.9475,0.9386281935738162,105.5331082534802
3656.7886,0.937876543770671,133.37456263061824
3657.6318,0.9376238836447658,91.91589585737816
3658.4734,0.9375057709044853,71.05631376397334
3659.317,0.9371718919989743,95.04195260098626
3660.1587,0.9367005964736269,102.54798764838995
3661.003,0.9365721144474778,100.37093038016526
3661.845,0.9371795015256497,151.56382534694572
3662.6875,0.9383269888152116,118.43344672468555
3663.532,0.9392641861219012,75.36700607079558
3664.3748,0.9392100862653955,108.33216760381175
3665.2197,0.9378025492613838,91.15594806913055
3666.063,0.935068321537266,106.67292106950231
3666.9084,0.9311699290827137,91.68695657109689
3667.752,0.9264558704321224,95.84165958947659
3668.5977,0.9214986501886712,126.54291500567743
3669.4417,0.9170254284877309,106.08200875101171
3670.286,0.913474187056094,128.90948825223643
3671.132,0.9109018748959143,132.43157825275915
3671.9768,0.909248817278267,95.67553338154202
3672.8235,0.9085808425085775,135.64537737814967
3673.6685,0.9090090654741853,116.78796394569751
3674.5156,0.910342129337434,136.44656867690318
3675.3608,0.9120123820120973,108.69770210088288
3676.2063,0.913447540912587,98.40216842933394
3677.0542,0.9143972345959842,151.59404938598098
3677.9,0.9148717443420985,106.41670180546214
3678.748,0.9149300991350002,107.65373408069924
3679.5945,0.9146654278779609,90.15229399495094
3680.4429,0.9143136928239556,110.49572876690988
3681.2896,0.9140921979581519,110.26880342017347
3682.1365,0.9138706320861065,118.32230710491524
3682.9856,0.9131627725734754,110.33375550297498
3683.8328,0.911493938747228,81.7962842915605
3684.6824,0.9086664984546694,162.306861150109
3685.53,0.9047855404306905,111.86907727107011
3686.38,0.9001511346099942,157.30573207094363
3687.2278,0.8953934228813906,185.3178841713687
3688.0762,0.891334098172937,128.57883167634193
3688.9265,0.8886751078354463,91.03497589241174
3689.7751,0.887626792783083,111.1877452542102
3690.626,0.8878937501634582,130.663645493563
3691.475,0.889071055601896,156.0564889422474
3692.3264,0.8909387022206673,224.62195759753132
3693.1758,0.8933956880896383,150.19578322940635
3694.0254,0.8963242598683342,134.29951519975094
3694.8772,0.8995739417423153,125.17337743704512
3695.7273,0.9030235229164819,114.6168413870313
3696.5793,0.9066307614781993,139.2177019311263
3697.43,0.9102831328118144,132.88277454575564
3698.2825,0.9137962435998764,135.53094147878883
3699.1333,0.9168893311813144,96.0225337310172
3699.9841,0.9193577665894194,93.00467866684724
3700.8374,0.9211769761065538,120.3934629946956
3701.6887,0.9224751204650862,105.25261727040785
3702.5425,0.9233357600608496,135.79591361678328
3703.3943,0.9235311183898439,99.15128478938308
3704.2483,0.9225774102937337,94.79216055377117
3705.1003,0.9200869140737381,100.92049107351495
3705.9526,0.9161348739359739,140.07325870087166
3706.8074,0.9113435997676759,138.42926117674835
3707.66,0.9066727324016914,105.1373689803905
3708.515,0.9029167799053447,108.23691266020798
3709.3682,0.9004755326602257,153.9886080743331
3710.2234,0.8991419452375448,124.97803290973573
3711.0771,0.8981779169979451,110.79142114540791
3711.9307,0.896520522455148,123.83875576799772
3712.7866,0.8932051531662967,94.8874926835257
3713.6409,0.8878495068663744,134.997321969427
3714.4973,0.8808516932297682,89.63948533030637
3715.3518,0.8734526627370243,127.01816748249612
3716.2085,0.8672662717111199,161.85183319004716
3717.0635,0.8637823560318063,132.32010876889714
3717.9185,0.8635891699474101,138.13442412612528
3718.776,0.866114416669906,120.9469213368946
3719.6313,0.8698522055868404,159.88860966220784
3720.489,0.8732022357357696,96.63823804096256
3721.345,0.8752602445124067,107.16569417707147
3722.2031,0.8762058740535134,107.71826060840732
3723.0593,0.876822805183053,109.06245763040636
3723.9158,0.8776320588696466,149.11191689896853
3724.7747,0.8782992600875392,138.79119707001067
3725.6316,0.877876559519457,104.60240691988881
3726.4905,0.8756585466343529,99.76540554607466
3727.348,0.8718469045876488,110.8544957795868
3728.2073,0.8674106141344493,98.4518632616013
3729.065,0.8634935553004605,158.38468065492353
3729.9229,0.8608325753292604,98.64608622644406
3730.783,0.8597468950585844,121.9767567266583
3731.6414,0.8603218262937086,118.28161492129354
3732.5017,0.862456238304914,120.37665385782542
3733.3604,0.8657438358039352,119.85243139755634
3734.2214,0.8694994176183485,110.65253682403717
3735.0803,0.8729826161342487,109.31420886198109
3735.9417,0.8758570594134738,133.0145247030533
3736.8013,0.8782236715498234,120.24370983874259
3737.661,0.8803803294871496,111.35956457941656
3738.5227,0.8824410242618801,163.7203500704937
3739.3828,0.884265954312442,145.63082949541263
3740.245,0.8857011359097211,108.09773151961693
3741.1055,0.8866605826705656,113.98831296998492
3741.9683,0.8869696526446487,119.05307287305577
3742.829,0.8861165235176702,150.7615371908342
3743.69,0.8834207854978879,114.27009588885144
3744.5532,0.8786084340110251,111.78311122317753
3745.4148,0.8723769123468974,121.9095743399378
3746.2786,0.8661537781680356,162.91834466502326
3747.1404,0.8614398208642791,116.62799163038066
3748.0044,0.8590047683374644,111.52039370479677
3748.8667,0.8588231865078817,145.45346450398736
3749.729,0.8603283434806334,156.6086874514535
3750.5938,0.8627932394112588,152.76394710784777
3751.4565,0.8654544668602787,119.17053521386156
3752.3215,0.867589225616801,144.46296766304732
3753.1848,0.8685395283663037,112.91451606124684
3754.0503,0.8679513311902145,140.24638266106925
3754.9138,0.8660349052110615,153.71418275186855
3755.7776,0.8636059995392321,118.9009382471872
3756.6438,0.8616556232657903,123.542693923108
3757.508,0.860709931941239,124.29790164289882
3758.3745,0.8605536756185322,117.35798515321159
3759.239,0.8606959367974915,128.08671194919796
3760.106,0.8609670632548714,119.6935460714189
3760.971,0.8615896892648287,115.30366964075495
3761.8362,0.8627381406898209,135.70901407601647
3762.7036,0.8641880614945373,100.22881052749047
3763.5693,0.865420121196771,102.30479645599637
3764.437,0.8660318246541171,124.84807044206836
3765.3032,0.8659838463812107,118.64477937037807
3766.1714,0.8655612553461044,126.59116038668176
3767.0378,0.865097927826207,129.33465493577364
3767.9043,0.8647148834296499,125.42894679791097
3768.7732,0.8643021414997757,136.09026028144493
3769.6401,0.8637410374875497,168.91565796967222
3770.5095,0.863121230115548,135.44517133193455
3771.377,0.8627332599621972,143.6662097462409
3772.2466,0.8627598996119829,121.01077402216185
3773.1145,0.8629269948276944,124.84992249703568
3773.9824,0.8624438466863461,122.8586093608436
3774.8528,0.8604115788910301,112.84263253795444
3775.721,0.8564836615880117,196.85048733231477
3776.5918,0.8511525741379514,201.0195801552433
3777.4604,0.845601680888521,122.41431497283737
3778.3315,0.8410461011904748,108.17104053884161
3779.201,0.8383865448386778,122.45060755289902
3780.0703,0.8379871278977791,162.5572316386573
3780.942,0.8398426496338303,138.9167035495717
3781.8118,0.8437348237460165,134.06767539454935
3782.6838,0.8493414269390082,123.51678803856879
3783.554,0.8560236698888789,171.47621616854752
3784.4265,0.8627325429948669,137.8683551147441
3785.297,0.8680096319075131,127.44514335638274
3786.168,0.8706986907187857,159.71231042542738
3787.041,0.8705773761076752,115.63700739104121
3787.912,0.8686006911940202,129.71353816453188
3788.7856,0.8663333525582112,149.36978863787056
3789.6572,0.8649874771679963,98.44594270972944
3790.531,0.8647104956766332,132.71962988754623
3791.403,0.864755745576227,114.63202759934677
3792.2754,0.8642291572251549,137.18670984228586
3793.15,0.8627409891567115,102.21442470432964
3794.0225,0.8605144666365572,134.5576389523585
3794.8972,0.8580284080365671,131.27647205412688
3795.7703,0.8556677861798035,155.64270104491914
3796.6455,0.8534700797243745,127.49960430488505
3797.519,0.8512249701387575,117.22164631694437
3798.3926,0.8487472859407263,105.92175302758884
3799.2686,0.8461999919921042,140.6389167775393
3800.1426,0.8441016478055615,136.0552862286623
3801.0188,0.8428764462100564,131.63400402914866
3801.8933,0.8424354848979472,173.04177867906756
3802.77,0.8421291759507449,122.84600624860148
3803.6448,0.8413225713870482,157.63776359825152
3804.522,0.8400966521860372,114.99147804734653
3805.3972,0.839396690987867,141.01510817352215
3806.2727,0.8402833110302828,132.27483325642936
3807.1504,0.8429605645410283,112.92967694841865
3808.0261,0.8464108846734071,112.12349747647394
3808.9043,0.8490835027119555,126.70905428909406
3809.7805,0.8498806067098985,127.62256401262123
3810.659,0.8488038582335888,137.33111127393522
3811.5356,0.8467475404273649,99.74694018280837
3812.4126,0.8447689698804767,164.05456056726737
3813.2917,0.843403009630154,92.72235764563231
3814.169,0.8424449720744209,158.59078155888338
3815.0483,0.8412165127796087,126.00308210556867
3815.926,0.8390995119136334,155.2461432759352
3816.806,0.8358879474099239,169.0582339618
3817.684,0.8319064782708321,117.45381624388631
3818.5623,0.827793054329075,128.14244453860067
3819.4429,0.8242529593600557,105.73510016926207
3820.3215,0.8218850405330925,167.85136645672
3821.2024,0.821003015259297,157.44393303608643
3822.0815,0.821595780100901,145.24560332545408
3822.963,0.8232901495898122,115.50120348640958
3823.8423,0.8254666043600445,141.1051258794249
3824.722,0.8275409631476319,161.01212213564273
3825.604,0.8291975797169795,137.66588458006237
3826.4841,0.8304293831062485,130.85786391960025
3827.3665,0.8313468393964686,135.54589097421945
3828.2468,0.8318090076961663,119.02415683215985
3829.1296,0.8313107769887751,133.66321891237124
3830.0105,0.8293025324066541,140.90317601086454
3830.8916,0.8257756134472201,133.2844296251033
3831.7751,0.8216059315349472,101.91867961725222
3832.6565,0.8183153527886258,157.31216239281392
3833.5403,0.8171298864865111,157.18244735241032
3834.4224,0.8181502053431005,150.16811424189132
3835.3064,0.820169832448981,127.15503996872957
3836.1887,0.8214953406223652,118.25720569536297
3837.0713,0.8211346967816617,112.06220604749905
3837.956,0.819290810109902,121.26307465345559
3838.839,0.8168910464941924,149.26029549835647
3839.7244,0.8146719672124073,127.16979739752989
3840.6077,0.8128582861932913,163.24458174146764
3841.4932,0.8115159319859567,126.79858255050019
3842.377,0.8110842539383735,160.66704913462166
3843.261,0.81227175366689,165.29228362118562
3844.1472,0.8154437975260961,139.62397823124618
3845.0315,0.8200183996858333,138.6190446846578
3845.9182,0.8245892360191781,160.18462397657348
3846.803,0.8275590468662304,107.89020651619843
3847.69,0.8280691977673761,139.98315343504524
3848.5752,0.8263597596048976,134.94036672926654
3849.4604,0.8234978379190991,161.9127425405622
3850.3481,0.8206464851270551,137.67628555049822
3851.234,0.8185260004277289,129.52307758663576
3852.122,0.8172878265598038,77.30181150582484
3853.0083,0.8168291290862043,190.7906104525261
3853.8967,0.8169901865789079,164.31461522529756
3854.7832,0.817557927653713,144.2296360678043
3855.6702,0.8182153295898004,157.58556354853863
3856.559,0.818668969845099,118.15314209255696
3857.4463,0.8188861831964188,143.61472998787096
3858.336,0.8191683098287204,157.21327736995585
3859.2234,0.819861619342885,176.55981278087836
3860.1135,0.8209151213013286,175.48028875772357
3861.0015,0.8216841753544254,117.27685117264106
3861.8896,0.8212922013875624,152.17334792678272
3862.7803,0.8192254354468855,155.68679073670185
3863.6687,0.8157389007989736,129.02995431639562
3864.5598,0.811684704105454,118.58454249933459
3865.4487,0.8080880258651464,174.26773682123732
3866.34,0.8055659653802415,323.0007172859949
3867.2297,0.8041940722626967,123.37470767365649
3868.1213,0.8036559967093182,141.79744685194152
3869.0112,0.8036261530631172,124.21692068999592
3869.9014,0.8039086761787575,172.69011478898736
3870.7937,0.8043434144072256,169.11526289083997
3871.684,0.8047513957377944,109.58331670865957
3872.577,0.8051244630108848,111.05983635205216
3873.4678,0.8057759795482203,157.9467366597006
3874.361,0.8071526383564094,132.06316309084244
3875.2524,0.8093688666630399,183.82839834133839
3876.1438,0.8120126582267104,144.9690002497381
3877.0376,0.8144119720007583,157.89284421047947
3877.9297,0.8160663399819615,138.81174682125828
3878.8237,0.8168567176243515,118.66874375925404
3879.716,0.8168373513355144,149.6903136425569
3880.6108,0.8160418303291479,121.28787964181659
3881.5037,0.8145156418960161,167.93428215433087
3882.3965,0.812483999487376,155.49918830638407
3883.2917,0.8103752078550929,168.6328971993817
3884.185,0.8085762442566696,130.10728348662647
3885.0808,0.8070738703452003,128.70210718366627
3885.9746,0.8054818996051948,128.1824369219251
3886.8706,0.803350194764195,137.13970751335802
3887.765,0.8005192307579896,168.619623973194
3888.6592,0.7971191188943751,162.81063069652646
3889.556,0.7934435184160404,162.81577557210767
3890.4507,0.7899172189648863,168.64869050078698
3891.348,0.787015366526692,155.45004533103582
3892.243,0.7852553435022561,160.6215101674302
3893.1406,0.7850297714331266,153.63965649629077
3894.0361,0.786511548651073,182.1240836752615
3894.932,0.7894797618127588,128.21738212167418
3895.83,0.7932293416892289,181.583344021505
3896.7263,0.7966981177662794,140.6142590108629
3897.625,0.7990116196336143,183.19910418321192
3898.5215,0.7998683214610954,120.29563267506616
3899.4207,0.7995974612384963,139.7095775484982
3900.3176,0.798767004299383,157.80512262394873
3901.2148,0.797815700814679,161.34900881050407
3902.1145,0.7969111552924519,138.23900925166174
3903.0122,0.7959781356200045,139.5239861843002
3903.912,0.7948003027813225,145.7917593390729
3904.8103,0.7933049104331095,138.866383828113
3905.7107,0.7918530541619823,151.8249457757442
3906.6094,0.7912807666637124,140.18917065880137
3907.508,0.7924012489097577,168.09367386226276
3908.409,0.7953536013821653,189.52359431605498
3909.308,0.7992728032848895,148.66868240818383
3910.2097,0.802719387496403,126.83074930190129
3911.1091,0.8044126299105359,141.26571338070886
3912.011,0.8039126633908035,152.70188383597915
3912.9111,0.8016800004594108,137.74275838481012
3913.8113,0.7986710280900623,121.74541066764479
3914.7136,0.7957510353912671,172.78688698564474
3915.6143,0.7933809323492287,156.14980758136056
3916.517,0.7916786578631597,160.49885321479954
3917.4182,0.790781965034958,164.91624041651437
3918.3215,0.7908661234277722,174.67434197451317
3919.223,0.7917955005071635,174.10583138174667
3920.1245,0.7928631761001086,162.33423897653662
3921.0286,0.7931328678841785,146.94044291799713
3921.9307,0.7921177206793615,136.51438425448825
3922.835,0.7900791576577264,161.48448527827
3923.7373,0.7877096075268192,161.7620198755073
3924.642,0.7855823172667546,151.23187358915365
3925.5452,0.7839708170740185,155.60141400949033
3926.448,0.782914430561733,187.63180064794466
3927.3535,0.7824024468458739,148.0873048356771
3928.257,0.7824293343299892,142.3434881617768
3929.1628,0.7829007934149759,134.788635233241
3930.0667,0.7834761592265774,142.2785220130636
3930.9731,0.7834979922824075,171.02475009831088
3931.8774,0.7821949166169012,135.11808165967557
