wavl,flux,ivar
3566.9744,2.960040946606806,5.286104256365401
3567.795,2.9394173321239156,4.2913994287998865
3568.6177,2.9132208850727337,4.317401096255695
3569.4385,2.8897087549821086,4.890788836919156
3570.2617,2.876684424795643,5.573821443592263
3571.083,2.878134074920857,4.537771865341271
3571.9065,2.8921508666034685,5.025590058312674
3572.7283,2.912855811230311,4.183596960244252
3573.55,2.9344195873482093,4.423592845083279
3574.374,2.953445570432453,4.481347484562299
3575.1963,2.9687225343129957,5.496781194066031
3576.0208,2.9803995330057567,4.735334101452816
3576.8435,2.9887340541022516,4.092567406027004
3577.6682,2.9934543194095835,9.135106736997884
3578.4915,2.9931111613316657,5.053749846277861
3579.3145,2.986079306269154,6.4186116969319205
3580.14,2.9725600708441013,3.005663590932561
3580.9636,2.9557996268439184,6.191709819909886
3581.7893,2.9401190552391054,7.0225835556851965
3582.6133,2.9282930017735653,11.327604306091398
3583.4395,2.9207914733544302,8.509872474012381
3584.264,2.9184442769606793,6.368652088381948
3585.0884,2.9238046659588814,9.772655214082201
3585.915,2.9384709880411823,12.624307666594332
3586.74,2.958457486201703,7.875710255686124
3587.5671,2.9747475765281135,4.336229581228832
3588.3923,2.979478775708219,4.9388703066088055
3589.22,2.972268517589108,4.774382632954402
3590.0457,2.959149873112796,4.875981428643946
3590.8716,2.945901893347104,3.5550581447635885
3591.6995,2.933269169290973,5.73714087836571
3592.526,2.918381263651481,4.102395445005217
3593.3542,2.899273560664711,4.614475158627597
3594.181,2.8777570671697696,7.911661227892459
3595.0098,2.857545856466286,7.636334035940962
3595.8367,2.8414179049072437,5.235464826562312
3596.6638,2.829223901065159,8.748578489746516
3597.4934,2.818729368572927,9.44157033188022
3598.3208,2.807203110103712,10.66409287347037
3599.1506,2.792433593857122,5.0037652452113734
3599.9788,2.773970473841187,9.619540248605798
3600.8088,2.7537770263468833,12.701120911010692
3601.6372,2.736880429402254,7.180183644997711
3602.4678,2.73005768486852,7.483146947877275
3603.2964,2.7397741894384873,9.533082825164234
3604.1252,2.769162194536333,11.706969640335059
3604.9565,2.8159240476078953,6.684972471325615
3605.786,2.8712959471323036,3.9730544694199774
3606.6172,2.9233271804291734,4.413466131724894
3607.447,2.960543027713052,5.328337314779997
3608.2788,2.9768803759861355,4.788769407197952
3609.109,2.972428147556793,6.781421924482221
3609.9392,2.9521059633734317,6.4399741483000135
3610.7717,2.9230058796132745,3.8262678866306974
3611.6023,2.893031545237756,7.309562137138899
3612.435,2.8682646505289964,8.159123027651512
3613.266,2.8505349409497533,9.808757714304484
3614.0994,2.8360203227942518,8.284227170266657
3614.9307,2.8193452829220664,5.035254813963019
3615.7625,2.7989793132237084,6.8393123715956206
3616.5962,2.7791952115031724,4.583555425197256
3617.4282,2.7664943124520316,6.667146270599778
3618.2625,2.764179794009887,11.813832712909273
3619.0947,2.7703161634155484,5.650508929581744
3619.9292,2.778949176933734,4.981661459196248
3620.762,2.7830173151253392,6.712062952488937
3621.595,2.777629811244223,7.651665994676214
3622.4302,2.762237217537646,7.449184460075625
3623.2634,2.7409401990454234,9.919189966408577
3624.0989,2.7195496875495024,9.027479795888977
3624.9326,2.7022553405738226,5.104882702329212
3625.7686,2.6894769929696256,5.305655921429809
3626.6028,2.679492058409686,8.791214998425858
3627.437,2.6708703631353505,6.467625118972753
3628.2734,2.6638880534585923,5.613885835809988
3629.1082,2.659598790784689,17.273040446729084
3629.945,2.6579424005255903,5.335952515985889
3630.78,2.6572490283106402,4.916430339963519
3631.6174,2.6553495182197335,5.254417085705903
3632.453,2.6513888109697907,5.829696824438925
3633.2883,2.646980401049947,13.918921866611152
3634.1262,2.646303724617618,6.46956385107417
3634.9622,2.654517148071044,6.3248934883860635
3635.8005,2.6742881075227323,10.06695597110875
3636.637,2.7021774345278025,9.131235748190399
3637.4756,2.7293498484372525,4.1715344809409824
3638.3123,2.746209972204811,7.3924341749066125
3639.1492,2.7488257189157217,7.733401367396538
3639.9885,2.7405143687714566,20.179945857884434
3640.826,2.7288410601517894,8.869210947248776
3641.6653,2.720214958601523,5.804426085992887
3642.5032,2.716661527109568,10.375990380401186
3643.343,2.716053389544252,5.593638521437293
3644.1812,2.7153470308356726,6.262205481238748
3645.0195,2.713631768381544,5.293574017559834
3645.86,2.7124029750230383,11.35555752707547
3646.699,2.7130087849044893,4.481610698487196
3647.5398,2.7139682912752225,8.132974893619016
3648.379,2.7109432661283512,7.147194079503153
3649.2202,2.6994893611209547,6.314867947640955
3650.0596,2.678618135523154,5.375595427018718
3650.8994,2.6521213389012557,5.598159974850356
3651.7412,2.6269870484493656,11.791153549806815
3652.5813,2.609924437684108,12.714601563000478
3653.4236,2.6041000704865302,6.239875981591086
3654.2642,2.6088098725011952,5.650533339550583
3655.1067,2.6203939661004623,6.875786331140987
3655.9475,2.6337931733947264,8.431201518995785
3656.7886,2.6447345569403033,5.253771807045308
3657.6318,2.651448505120899,27.73988725685063
3658.4734,2.65426311439542,6.919341246025399
3659.317,2.653049266026724,12.396406560696308
3660.1587,2.645714139365953,6.322556594285041
3661.003,2.6305687162303952,5.5078280993064155
3661.845,2.610338747434538,5.851180985936437
3662.6875,2.5922270563683893,4.618050329093334
3663.532,2.5836908485342205,10.93008608782159
3664.3748,2.5871557473955185,10.892810400221206
3665.2197,2.598505451590584,8.486077004017943
3666.063,2.61062795783428,5.351368893298677
3666.9084,2.6189018354413722,6.2847133395543535
3667.752,2.623549948002646,6.984403920407684
3668.5977,2.627706614073511,4.529775585379849
3669.4417,2.6331495623089554,12.863696285968958
3670.286,2.6384508955750032,6.079489556602528
3671.132,2.6408703569070235,6.130176067804844
3671.9768,2.639569996634455,10.234279250378426
3672.8235,2.6365390987919084,13.496669705296117
3673.6685,2.634598306090855,7.236869459780365
3674.5156,2.6348866943228093,2.9760900960181393
3675.3608,2.635894133530018,9.580507994036735
3676.2063,2.6340621314883985,5.668896540763598
3677.0542,2.6253873862367256,5.304864027045845
3677.9,2.607564694336484,6.167330232257447
3678.748,2.580971404755236,10.47037096847525
3679.5945,2.548619476143695,9.949856215298876
3680.4429,2.5145056053890027,6.99146862556669
3681.2896,2.4835754263353205,4.790678076262
3682.1365,2.4611405685344843,13.47330499352455
3682.9856,2.4521159297700423,7.7075942043638515
3683.8328,2.458513484937827,10.860966857385058
3684.6824,2.47732356907325,5.501370537649549
3685.53,2.500958410992001,8.224622094337143
3686.38,2.520608466815965,11.0665887010909
3687.2278,2.529082394228215,11.284144920776068
3688.0762,2.522685349673281,6.350900657434848
3688.9265,2.501417024772456,14.356737703461562
3689.7751,2.4702179123699226,5.224672423620065
3690.626,2.4390973064937556,7.042762884353893
3691.475,2.420345565106544,8.613884335088894
3692.3264,2.4208221250459343,9.795115617076114
3693.1758,2.4368444926040147,9.425800462484148
3694.0254,2.4568293375051384,5.606092226023961
3694.8772,2.470230109756724,7.272471350706703
3695.7273,2.474252314734629,17.922300139188373
3696.5793,2.4735275610805685,12.911512560628275
3697.43,2.4745736752647103,4.798634539527788
3698.2825,2.4811585805356238,12.445443586833647
3699.1333,2.492953167116435,12.808086351734818
3699.9841,2.5068121568762516,9.276709345942473
3700.8374,2.518914609399966,6.775045072148276
3701.6887,2.5268213170312253,10.461969989892161
3702.5425,2.5308926469275512,6.266166459795103
3703.3943,2.5335514009487645,11.068175520604385
3704.2483,2.537478006339793,5.611198135870187
3705.1003,2.5436845444027725,9.95313878395478
3705.9526,2.5508727946052137,6.692485920104207
3706.8074,2.5561592804251902,7.5098964420336385
3707.66,2.5568383151976155,7.781708569931259
3708.515,2.5519729060198393,6.6301644920455
3709.3682,2.5422073940914305,18.89422758688203
3710.2234,2.528119805152015,6.167541893767776
3711.0771,2.509177621757277,9.473900991533059
3711.9307,2.4838624352691934,11.530833681005156
3712.7866,2.451001058404433,4.7773394188944405
3713.6409,2.41162416475965,6.982711272276673
3714.4973,2.36915569060439,6.849702238101373
3715.3518,2.329445050308305,3.982984837473232
3716.2085,2.2980615403060822,17.84099296730196
3717.0635,2.279272125042812,10.824249608442637
3717.9185,2.275308962566606,9.680195871195068
3718.776,2.2872999023685194,6.826294344034237
3719.6313,2.314419713696658,9.425446626889945
3720.489,2.352341447761686,9.676849840642072
3721.345,2.3923474435047645,4.818153224274206
3722.2031,2.4249539968019893,5.58306965655084
3723.0593,2.4442947282320713,7.897319728173279
3723.9158,2.451755925454266,8.203600814104284
3724.7747,2.453974382725644,8.532774767149988
3725.6316,2.4578041662989167,13.486449063880425
3726.4905,2.4659526686014726,8.967662361421837
3727.348,2.476332359869366,8.940797066049345
3728.2073,2.4846370144831185,15.06739220090488
3729.065,2.486760281061539,6.082092567690379
3729.9229,2.4800630187549046,8.862547471045747
3730.783,2.463734696962052,7.151406125585077
3731.6414,2.4398149035595966,12.660768387788936
3732.5017,2.413435681423979,9.719962323288765
3733.3604,2.391832524488472,11.412722083185763
3734.2214,2.380514132080708,7.023781966751043
3735.0803,2.380405626396943,11.664089026784273
3735.9417,2.3875137561659585,8.453219907371945
3736.8013,2.396037201852004,10.991126822973065
3737.661,2.4018868630926624,6.794866393065665
3738.5227,2.403843725637364,8.83129740776609
3739.3828,2.4023825603601727,6.80337062534961
3740.245,2.3979045047090737,7.673615667158634
3741.1055,2.3901704852566574,6.767266540355292
3741.9683,2.379134406601517,8.97085134142941
3742.829,2.3661793023645057,17.265811075541908
3743.69,2.353579585982756,8.926683989524777
3744.5532,2.342958944737432,10.069270735670443
3745.4148,2.334504835512428,8.590224095960078
3746.2786,2.3279078169932848,13.209711616071255
3747.1404,2.324218827858036,15.008879565000694
3748.0044,2.325675625922431,8.913667623051245
3748.8667,2.3337934392513318,10.250806554082663
3749.729,2.3476991254889517,7.79746607660131
3750.5938,2.3645757406887125,11.207751757971662
3751.4565,2.381409095481372,11.27531621711602
3752.3215,2.397105612516069,7.015592551332763
3753.1848,2.412661222887869,9.604661760904385
3754.0503,2.4304001378337405,9.505634320014966
3754.9138,2.4516501515383133,5.755911800508464
3755.7776,2.4751988772961657,11.651523891532747
3756.6438,2.4967993203749743,8.495012791783306
3757.508,2.5106605586220248,5.3581738085819826
3758.3745,2.5126202230016323,9.074648068542485
3759.239,2.501968007780908,8.504108883936055
3760.106,2.481491383691624,6.477397288735697
3760.971,2.456185540878105,7.104052679666288
3761.8362,2.4312079631824264,11.700893148043862
3762.7036,2.4104866301891117,8.762923962748113
3763.5693,2.3954898424940176,11.686854653058573
3764.437,2.3843960118010576,9.240683332922147
3765.3032,2.3735460901351777,6.456266239408911
3766.1714,2.359715500265555,5.6822694175217885
3767.0378,2.342304164009335,8.457666416009511
3767.9043,2.3231240072993877,8.835063674822676
3768.7732,2.304715947421371,8.658511991507597
3769.6401,2.2887714502745116,7.464486515672752
3770.5095,2.2754041548913393,8.429842489301116
3771.377,2.2642651034709975,9.498283994944792
3772.2466,2.2551007271973633,10.725549437010185
3773.1145,2.248073785880167,9.550616140770792
3773.9824,2.2433271231453102,12.719939441087716
3774.8528,2.2411103146065305,7.8785280683618275
3775.721,2.242156456538343,9.885043775690374
3776.5918,2.247782849136988,8.284502331667833
3777.4604,2.259382156792957,12.91358645913073
3778.3315,2.2777395308068065,7.1626518737104705
3779.201,2.3019499177732428,13.874942232697414
3780.0703,2.32913071238832,10.608281985338113
3780.942,2.3547801875516186,10.239690238599673
3781.8118,2.3745756743491935,9.95027983113493
3782.6838,2.3873885177374587,11.617378190512303
3783.554,2.395613137876796,8.85958751485055
3784.4265,2.402771117008413,4.6941236759779725
3785.297,2.4095782252039015,11.704600084009202
3786.168,2.4129741406975653,8.95725505121198
3787.041,2.4084415159629207,8.599334065310702
3787.912,2.3935354918222154,9.127791178129375
3788.7856,2.369560913420824,6.086769271565281
3789.6572,2.3413684181601404,14.780590160632551
3790.531,2.3148773236828584,14.982224087980061
3791.403,2.294975365978815,11.880447831676982
3792.2754,2.2831754265704474,11.072228511539409
3793.15,2.2775503456286486,10.401377586307998
3794.0225,2.274018308001594,9.535291780240566
3794.8972,2.2683826627866206,10.063003532170887
3795.7703,2.2584866737044944,11.766307827399835
3796.6455,2.2454307011208456,9.316940465505777
3797.519,2.2335816492661884,8.715547382453138
3798.3926,2.228200791867183,9.360130755704125
3799.2686,2.2323085721251172,9.905157624640935
3800.1426,2.2445377303655163,11.525038486366627
3801.0188,2.259960972541332,7.181330952287271
3801.8933,2.272640399082752,15.248349902441033
3802.77,2.2784177483289785,7.281670291665094
3803.6448,2.2760000307605583,7.848960345419361
3804.522,2.2672977159498124,9.504109059730755
3805.3972,2.256925590784004,13.913239907972489
3806.2727,2.250424077682793,18.128025364709753
3807.1504,2.2517713771782883,10.164041460699455
3808.0261,2.261151974762736,11.851461311023716
3808.9043,2.274711560717167,17.406869268929427
3809.7805,2.286282843300837,9.466398960556303
3810.659,2.2905327454965008,10.150796531718335
3811.5356,2.285027650330315,12.561669079077657
3812.4126,2.2708188869777413,14.35182999838025
3813.2917,2.2515325546138016,7.621079637278414
3814.169,2.2325456756270277,10.968705603355382
3815.0483,2.2194782814146747,15.079567221670182
3815.926,2.2163650478424106,12.490797982067189
3816.806,2.222880014426275,8.877531302779312
3817.684,2.233725051766401,9.66726713877426
3818.5623,2.241486798769226,9.828309283000983
3819.4429,2.2410525554369314,5.851362792542241
3820.3215,2.232233378902209,11.517519143211318
3821.2024,2.2188911740517394,9.667132453103465
3822.0815,2.2062171719899637,10.848034910861077
3822.963,2.197935547491393,10.783120184573185
3823.8423,2.1950772734615813,10.715741729181703
3824.722,2.195648006258136,13.631524392935045
3825.604,2.1958416844441064,8.25022191635637
3826.4841,2.1923379739925664,13.321325110986631
3827.3665,2.184569532239365,11.940893691263467
3828.2468,2.1751045399918687,14.147612539256418
3829.1296,2.167251071187118,13.379054117339885
3830.0105,2.162128232181199,11.677419849033333
3830.8916,2.157525604477667,15.351322313784735
3831.7751,2.1503138104038344,10.245118997683353
3832.6565,2.1400732200974844,7.235344948192264
3833.5403,2.129830523483832,13.821707047256522
3834.4224,2.12308244794851,12.741276033844715
3835.3064,2.1197711893784215,15.176143975640827
3836.1887,2.1161618682854115,11.406441311078797
3837.0713,2.108461762654031,12.719042231026506
3837.956,2.09669480657708,10.247263546662403
3838.839,2.085468947989554,16.238713363417627
3839.7244,2.0810085067740354,10.96380508966349
3840.6077,2.0873231424531413,14.645648065731287
3841.4932,2.103678498972629,9.205879513498642
3842.377,2.1248310862985997,10.41508183638425
3843.261,2.1438649038340736,16.39807388016455
3844.1472,2.155150250784693,14.88490846404912
3845.0315,2.156185635390752,14.60126611031766
3845.9182,2.1480372418376263,11.536678464744206
3846.803,2.134555117205776,11.394784656608984
3847.69,2.120908680814144,15.329653428687694
3848.5752,2.1121130643013863,11.597254260063394
3849.4604,2.1112279478146867,14.18466520127256
3850.3481,2.1185294131687544,12.186550073604108
3851.234,2.1314487698646443,11.119336062777158
3852.122,2.145872107969391,12.595221239367143
3853.0083,2.157651844358187,10.249314923678325
3853.8967,2.164173505722987,9.75170731135966
3854.7832,2.164478172759883,8.726563905427959
3855.6702,2.159079760937024,8.010337051777864
3856.559,2.1497448720434034,10.462629954455837
3857.4463,2.139661235916914,11.925730839600657
3858.336,2.1326610304027946,17.957440411670504
3859.2234,2.1316899982746467,10.619424964145894
3860.1135,2.137029941481449,13.588584084864756
3861.0015,2.1460790842634947,10.983747628728858
3861.8896,2.1549560753265977,10.419233071037217
3862.7803,2.1606354294594228,8.244105771630577
3863.6687,2.162077108217419,10.468226690876076
3864.5598,2.15965797222213,11.982754646776334
3865.4487,2.1535906282328354,13.360922449239032
3866.34,2.1433090246904025,10.58567072642813
3867.2297,2.128772507466982,6.509491346094547
3868.1213,2.1118613606973646,16.586255107017166
3869.0112,2.096713372923143,10.303208734572905
3869.9014,2.087973156929469,16.028867797578673
3870.7937,2.0890325258114353,11.007967798337472
3871.684,2.1004144599096626,13.523928338447282
3872.577,2.11887418821568,17.70948656843082
3873.4678,2.1375075851978607,8.1739903283362
3874.361,2.1484975412769702,13.088260995229975
3875.2524,2.146609507525315,11.16598297160506
3876.1438,2.1318459838411132,19.892842355716912
3877.0376,2.108441946891981,12.263469443501828
3877.9297,2.0821556422304845,13.490214904389466
3878.8237,2.057327526420958,20.06601485836166
3879.716,2.036479449143725,8.768678032286736
3880.6108,2.020046948831349,16.70960355969779
3881.5037,2.0068489072269395,15.126446040306563
3882.3965,1.9944864842178889,10.470581716680433
3883.2917,1.9814308180375553,13.740685267285922
3884.185,1.968971821581525,11.338091442221042
3885.0808,1.9604128892709052,13.264195388148984
3885.9746,1.9581593712050247,18.208460870015408
3886.8706,1.96081378251711,11.491722695349134
3887.765,1.9636144160254387,14.568616142075534
3888.6592,1.9616522797182252,8.705290733477506
3889.556,1.9530895880170982,13.697930126561056
3890.4507,1.9403043794368002,16.885265856525393
3891.348,1.9282688319864847,17.482147001564815
3892.243,1.9220497307177002,22.46396072856162
3893.1406,1.924292824684862,17.64854622398853
3894.0361,1.9344267188974513,12.208799526514941
3894.932,1.9492289380795833,13.393920841111171
3895.83,1.9641789706818513,17.471209059052292
3896.7263,1.9748062610175665,10.583240763155464
3897.625,1.978501312909456,13.717497049292822
3898.5215,1.9756355981761926,12.510550268613214
3899.4207,1.969615666080584,15.836832516704966
3900.3176,1.9650446148915468,8.881824195069363
3901.2148,1.9650431757837807,8.622023812093857
3902.1145,1.9698648716152218,13.07776363896262
3903.0122,1.9767734830254036,16.889328725716922
3903.912,1.9801311775672767,13.876687403663096
3904.8103,1.9709678618335615,13.185312591581035
3905.7107,1.9387890146494722,17.39372958980542
3906.6094,1.8789382312097476,12.356477123635944
3907.508,1.801999718966235,13.702647884030261
3908.409,1.736257463573618,11.255711435022377
3909.308,1.7149362620138184,5.233534502046062
3910.2097,1.752754558401997,7.427206614932464
3911.1091,1.8339592654496992,12.824921806066875
3912.011,1.9240581044276115,15.390860358457964
3912.9111,1.992719355467099,9.094961813630386
3913.8113,2.0307733079973262,9.173079013024232
3914.7136,2.04670313568743,84.24695860879109
3915.6143,2.053696331320567,10.276350689300713
3916.517,2.0598339993025396,11.80770981511502
3917.4182,2.0663500254805456,10.771518284678937
3918.3215,2.0712610165177896,14.066506062647575
3919.223,2.072390541410804,11.975908025513617
3920.1245,2.0685076678220193,11.14942390321972
3921.0286,2.059753085084074,9.886835150787501
3921.9307,2.048551185771809,10.211983091995684
3922.835,2.039237140733276,15.69026006874876
3923.7373,2.0359394853176416,13.254455823552004
3924.642,2.0395351415995266,16.212442217977433
3925.5452,2.0467882431332036,8.84710491193597
3926.448,2.0525194704647247,11.115234007932028
3927.3535,2.053101897636506,9.988245953734058
3928.257,2.0484173585052057,13.059256620292926
3929.1628,2.0408065937184,10.06604626981215
3930.0667,2.032462908751912,15.177657709853097
3930.9731,2.0237699548975883,12.578523197771435
3931.8774,2.014178765502157,12.202315369262424
3932.782,2.003651445053404,12.858715959601989
3933.6887,1.9933512469939068,11.073920882726823
3934.5938,1.985015053814142,13.81808092836412
3935.501,1.9798347688475786,17.394389337010193
3936.4062,1.9781585828917494,12.450614934186243
