wavl,flux,ivar
3566.9744,8.80086637327643,5.342761736172748
3567.795,8.791036730583507,5.977947065688438
3568.6177,8.76363673360271,4.8456978130841835
3569.4385,8.726629103278844,4.548528302684254
3570.2617,8.688156271735473,6.245955754441955
3571.083,8.653207455428277,4.142795872823141
3571.9065,8.621716364390181,4.701695854610669
3572.7283,8.592317398257173,6.923112872284298
3573.55,8.565750777651788,5.867080451269082
3574.374,8.54571057196757,5.563811314086097
3575.1963,8.536094196013535,5.9218294300742595
3576.0208,8.537674802503814,6.353689208230852
3576.8435,8.547441642239866,5.354259584493354
3577.6682,8.559991785469663,6.667892280847962
3578.4915,8.570092650625092,6.5388218818192785
3579.3145,8.574916960377225,6.354802720224374
3580.14,8.573264642660439,5.531680532681581
3580.9636,8.563351035569381,4.079956469614811
3581.7893,8.543464567198361,5.97354459208114
3582.6133,8.5168422348014,6.172625259366396
3583.4395,8.4939299539321,8.687223375515162
3584.264,8.487728480790835,6.479900031972887
3585.0884,8.503933794160984,7.654425913404029
3585.915,8.536111705924565,6.907424789867659
3586.74,8.568846550414198,4.633273108118975
3587.5671,8.587369665423985,6.396353623961989
3588.3923,8.584635293543142,5.920362732834303
3589.22,8.562437965848396,5.755316846160824
3590.0457,8.526246494594233,4.8090697945783205
3590.8716,8.479537939182682,4.9704207264981415
3591.6995,8.424205816762328,5.826031694407308
3592.526,8.366133074314218,6.016702561179932
3593.3542,8.3166720689546,5.097151292112122
3594.181,8.28734435055765,8.365482179035997
3595.0098,8.279073246877132,6.3291686361810635
3595.8367,8.279618271679967,5.185469578626587
3596.6638,8.271768904915039,5.119070215027316
3597.4934,8.246120618980138,5.7073622774721935
3598.3208,8.20719647467044,6.013055763031661
3599.1506,8.167392230169153,6.530414742739785
3599.9788,8.136498372076462,6.713884360968265
3600.8088,8.114007621244445,11.47589963573537
3601.6372,8.09279401974916,4.245020714933295
3602.4678,8.068884427774503,6.196305604995922
3603.2964,8.049241289367522,7.0353099592055175
3604.1252,8.048032344271041,9.581531206336386
3604.9565,8.076026053869517,7.122892933630431
3605.786,8.131839370771068,6.070995776659156
3606.6172,8.202978600784007,5.834009585343366
3607.447,8.271308138935149,4.595361501664453
3608.2788,8.32080949538997,4.883326706390024
3609.109,8.341679416018428,7.534562379197865
3609.9392,8.334079730806117,5.134510400787325
3610.7717,8.306961696418922,5.0684299603933525
3611.6023,8.274087589213526,6.31783445725573
3612.435,8.24744409348077,6.151156842573556
3613.266,8.233199093943881,7.279269997995433
3614.0994,8.230011604538216,7.542241829468316
3614.9307,8.231336928073146,7.5503778739414695
3615.7625,8.228913867201035,6.161506047061086
3616.5962,8.215784956029484,6.007241651603234
3617.4282,8.18855196818138,5.974455621191309
3618.2625,8.149299993810796,4.933834680447983
3619.0947,8.107572232926286,9.241731034748934
3619.9292,8.077342003246043,6.830621389138311
3620.762,8.070432508483206,8.38887013496329
3621.595,8.087896459972749,6.758511248468772
3622.4302,8.117888589855262,6.250553265284803
3623.2634,8.140872784291751,6.642096814315356
3624.0989,8.14021635598106,7.957794896563475
3624.9326,8.109758732191393,7.549018730860775
3625.7686,8.054979072435735,7.259005028925416
3626.6028,7.988921690473459,4.983667870392541
3627.437,7.924951942999609,8.98450020782571
3628.2734,7.87230767492452,5.757838261495726
3629.1082,7.83490417381963,6.6673900299912034
3629.945,7.81132571241628,7.287106300143913
3630.78,7.797154286872144,7.774838989675434
3631.6174,7.786163110088093,5.89211129730959
3632.453,7.773211072920326,6.588337787180116
3633.2883,7.757499363928729,5.438578926975972
3634.1262,7.744454586421767,7.853911753728093
3634.9622,7.742480737728235,7.32707977926265
3635.8005,7.754610958293482,7.576617958389121
3636.637,7.7720132228079954,8.813640689572576
3637.4756,7.776924590802551,5.319453305707567
3638.3123,7.754589633267462,7.636123377109393
3639.1492,7.7048671186277415,6.137309119398376
3639.9885,7.642403921990694,8.38303155896299
3640.826,7.586707506192297,7.892080488774329
3641.6653,7.548948528972354,10.450552713794536
3642.5032,7.5284394705129305,6.304313872633014
3643.343,7.51636785662293,8.362608700444818
3644.1812,7.504377030986165,9.35792396187866
3645.0195,7.490107700900564,8.3130983471816
3645.86,7.477191126110897,7.164539385419711
3646.699,7.470434407846667,8.23053086092338
3647.5398,7.470366158890909,8.34729418706657
3648.379,7.472097930278862,7.806062460763049
3649.2202,7.468843762947062,7.4211483500382
3650.0596,7.457091017074421,6.413882484438923
3650.8994,7.4387474001216605,8.316062218869625
3651.7412,7.4188893772991165,5.240745484539318
3652.5813,7.401904713438942,7.243903524534383
3653.4236,7.388885884856196,7.223885500896212
3654.2642,7.3781412254832865,6.298496953719667
3655.1067,7.366644191762138,6.247269415337106
3655.9475,7.352710758558257,8.998401177365206
3656.7886,7.3380432593956195,6.04818106869703
3657.6318,7.327864747846163,9.647566779668274
3658.4734,7.327899091596439,7.458575618417093
3659.317,7.339856757131302,9.21841676704601
3660.1587,7.3592084382141305,10.301081759183278
3661.003,7.377830256010152,7.80083201488733
3661.845,7.3900120772439974,8.175046851406625
3662.6875,7.398201097803307,8.023857693706683
3663.532,7.41185705783601,7.636018311976952
3664.3748,7.439583270930052,6.40634718463683
3665.2197,7.480608852492895,7.270364908348553
3666.063,7.52189559770976,6.548831919384487
3666.9084,7.545317620769902,8.88308866830096
3667.752,7.538492077355839,7.645853622815878
3668.5977,7.503190665544652,8.4473006564283
3669.4417,7.45378672549904,9.946072963715157
3670.286,7.406600944122116,7.09136448926742
3671.132,7.3700775139886145,6.434746069150668
3671.9768,7.343407719287245,6.204924108896977
3672.8235,7.3224505900935855,5.709978173409941
3673.6685,7.30648892180098,7.692058141161699
3674.5156,7.297446383388345,8.75868852468465
3675.3608,7.294789707039906,10.09232286600165
3676.2063,7.292382958237439,6.421432319304179
3677.0542,7.282420684006348,6.055504241878864
3677.9,7.2628481077340155,7.581396881703567
3678.748,7.240152127971747,7.8971459324274775
3679.5945,7.224509387115598,7.235785513971297
3680.4429,7.220206697270671,6.922022648194884
3681.2896,7.220983482083675,8.980982995570589
3682.1365,7.214119252352105,8.194925233378543
3682.9856,7.190476225945476,8.617312088766749
3683.8328,7.152064001208667,8.973502389440723
3684.6824,7.109763700777389,6.575813970102137
3685.53,7.075359338791307,10.941174317800257
3686.38,7.053771029265495,8.13303302820478
3687.2278,7.043778711837873,8.01980921391774
3688.0762,7.042437569704995,9.493551820602129
3688.9265,7.049098350609148,9.550358828740569
3689.7751,7.0651198239312665,8.24379129977216
3690.626,7.09155776673993,9.716127127072355
3691.475,7.1268076737139205,6.293766483184952
3692.3264,7.166598539533421,7.115909416251578
3693.1758,7.204229928236816,8.064429745918666
3694.0254,7.233181682763634,7.623987757972555
3694.8772,7.249384842929454,8.185489426049912
3695.7273,7.253068130800838,8.33727985631402
3696.5793,7.24853882794151,7.197755643913293
3697.43,7.241806520056278,8.795933111610074
3698.2825,7.238070939132505,9.861774059123416
3699.1333,7.239956865068823,9.200720649629694
3699.9841,7.246558770884085,8.108627446754232
3700.8374,7.253780877191747,7.461569764321016
3701.6887,7.255774014030458,7.962538840950379
3702.5425,7.247422649555517,7.370980510026934
3703.3943,7.2265231734851145,6.149048824585117
3704.2483,7.1939944583694775,8.618524314850987
3705.1003,7.1527616493861,8.588804590460564
3705.9526,7.1060445057250545,7.7185456580949126
3706.8074,7.058404440597187,8.773394317990698
3707.66,7.017192864801479,7.885053082353093
3708.515,6.989456990460175,10.895502506475111
3709.3682,6.9780567640495,9.422334194942032
3710.2234,6.978990555282892,6.9131919447067265
3711.0771,6.984572694484362,8.781296497061362
3711.9307,6.987879103619022,7.929211499594786
3712.7866,6.984660504493104,7.402118703382323
3713.6409,6.973245659264985,9.632615820083311
3714.4973,6.95490804722837,6.384375992909817
3715.3518,6.934697837898664,11.538679838195455
3716.2085,6.919423603034914,7.619158761993354
3717.0635,6.914005257122262,7.522297837959516
3717.9185,6.918473007064957,11.689050046094343
3718.776,6.929277789221336,10.895469148732392
3719.6313,6.942663921462528,8.342188124770669
3720.489,6.957041200662007,12.152026448884062
3721.345,6.971646650004182,9.976722054495935
3722.2031,6.9844812460994605,7.270248497004079
3723.0593,6.991875829726515,8.719565566975202
3723.9158,6.991084965116911,12.485345713782925
3724.7747,6.982058722665789,9.054391829927283
3725.6316,6.966643211604071,8.552038056199226
3726.4905,6.945811469930854,7.834500027194997
3727.348,6.919243995011998,9.976458502334236
3728.2073,6.887473308563224,10.97340748636529
3729.065,6.854984858702036,12.844845402356349
3729.9229,6.828867179211773,8.041987939494643
3730.783,6.814595657284516,11.239569924251498
3731.6414,6.811869204596131,10.81480799816029
3732.5017,6.814519828207174,9.582542945348761
3733.3604,6.815347371205306,7.292842243325827
3734.2214,6.811521049663625,7.378380826699779
3735.0803,6.805649740276712,8.447901179760883
3735.9417,6.801109920419651,13.886216935013458
3736.8013,6.7963575671085685,9.425650270318918
3737.661,6.784026123752582,8.761744134962761
3738.5227,6.756342942230049,8.821075863590949
3739.3828,6.7123801515297,9.751117343875613
3740.245,6.65984910070518,9.69099191622494
3741.1055,6.611558787902557,11.870753234542793
3741.9683,6.5773150973016055,8.648874722024745
3742.829,6.560061131056203,11.202641795266969
3743.69,6.555592903675989,9.86720374025754
3744.5532,6.556978245506461,8.24165103393214
3745.4148,6.5588219515880715,11.583363295304194
3746.2786,6.559430605793111,10.29154168037895
3747.1404,6.559823763648364,12.13394176399014
3748.0044,6.561057408287421,11.467220013445816
3748.8667,6.5627149302343035,7.55549879847866
3749.729,6.564148434953116,10.552513298089828
3750.5938,6.566423165968197,8.334998548656214
3751.4565,6.5719487620103445,10.195729880313321
3752.3215,6.582123921120957,10.76629952051128
3753.1848,6.595603570421215,11.395715715201055
3754.0503,6.608286467396343,12.435366124620847
3754.9138,6.6120625524769645,14.181769129251595
3755.7776,6.593467780302609,5.731975544148696
3756.6438,6.5369766749778035,7.945461095472802
3757.508,6.438639913688375,8.146718582807598
3758.3745,6.319381172274768,8.482357455478265
3759.239,6.2253021011143215,8.373150071658607
3760.106,6.200972817889412,9.997750210609357
3760.971,6.259434677130615,9.562410606635684
3761.8362,6.372079453091152,9.456578374886547
3762.7036,6.490181257662473,10.582044839028667
3763.5693,6.573987345623847,9.296221744352636
3764.437,6.609677414936445,11.458552506522862
3765.3032,6.603988411810009,7.612714617231163
3766.1714,6.573363933596561,9.884560744000085
3767.0378,6.5347402674830155,9.997464902343511
3767.9043,6.499926995077912,10.702677370589523
3768.7732,6.473686825443392,9.949839046249652
3769.6401,6.455392122372585,9.84693363946423
3770.5095,6.442260781377855,14.899652017252523
3771.377,6.432318022217562,13.487895142959713
3772.2466,6.423898875186325,12.90005281661421
3773.1145,6.414795090416291,10.67669793832234
3773.9824,6.402663753865624,11.902821939951828
3774.8528,6.387049104765603,9.793265916932475
3775.721,6.370794170010427,11.167887602464546
3776.5918,6.358693239656457,10.482984256971852
3777.4604,6.355076952514848,12.209210805944014
3778.3315,6.361188444876468,9.199015678180295
3779.201,6.374569516822164,9.542801966176759
3780.0703,6.390242621565759,8.098714901453315
3780.942,6.403186586712193,8.81080560242387
3781.8118,6.410867714390628,13.03351318702323
3782.6838,6.4144037483175005,8.711436666745058
3783.554,6.416763731511519,11.266333611019995
3784.4265,6.419957400796396,9.55886348914918
3785.297,6.42329722712129,8.677335223890429
3786.168,6.4242319283827385,9.253170313254055
3787.041,6.420702699874784,8.860001088817645
3787.912,6.41323728610485,8.211257303052506
3788.7856,6.404854544483098,9.475384325255309
3789.6572,6.398971996686137,8.239980246067374
3790.531,6.396447867936039,9.316816645357239
3791.403,6.394226825228237,10.18168087033168
3792.2754,6.386255922047915,12.11955178752162
3793.15,6.366629262158993,12.276087394511881
3794.0225,6.333783790958526,9.449538469161382
3794.8972,6.292470889151764,8.909740270488056
3795.7703,6.252946111652924,9.642552144153017
3796.6455,6.225619621301835,13.238797100048368
3797.519,6.216685638403856,10.288062681924304
3798.3926,6.225566605040745,8.921900215309579
3799.2686,6.246588934163964,9.15858306768882
3800.1426,6.271519453223067,11.997474235414906
3801.0188,6.292487704429292,9.378165887822044
3801.8933,6.303375503428987,11.515672117829194
3802.77,6.3012582018212395,9.66277473413546
3803.6448,6.2864701882369385,8.860628688898263
3804.522,6.261803049599964,7.194074001678498
3805.3972,6.2316495143490425,9.715610119831025
3806.2727,6.200687573934474,9.865663701207058
3807.1504,6.173280784068435,7.98449167914134
3808.0261,6.152950629559722,13.267341826041708
3808.9043,6.141465322319216,11.608836735258093
3809.7805,6.139000979181331,10.319163964430203
3810.659,6.144024126055304,12.552489817028453
3811.5356,6.154024047553923,13.537106210117816
3812.4126,6.166568068799361,10.309432044321976
3813.2917,6.17980195656153,14.949960668700252
3814.169,6.191858583886587,13.925618148979304
3815.0483,6.200551266949728,9.071711460244874
3815.926,6.203692655206707,8.907063941970103
3816.806,6.200280264803923,10.880155113316471
3817.684,6.190749239378141,10.498313580644437
3818.5623,6.1764494982669245,11.334100662400353
3819.4429,6.159234563360296,8.314369438913594
3820.3215,6.141638286356671,12.948358995762478
3821.2024,6.126243147651396,9.31371030914584
3822.0815,6.1150292450194,9.579988601724319
3822.963,6.108091763765289,10.70024948107506
3823.8423,6.103542521145779,11.702628348973114
3824.722,6.098057208817903,11.635027168688415
3825.604,6.088002305652861,12.972840671827141
3826.4841,6.070329650065687,9.992610147044859
3827.3665,6.043055345805077,10.002900465805252
3828.2468,6.00692412382074,11.185814115781838
3829.1296,5.966265754204164,9.850634428265684
3830.0105,5.928827427835166,12.061412383591922
3830.8916,5.90109445350176,13.244786525800821
3831.7751,5.88461457627539,13.09503262785218
3832.6565,5.876275734944203,14.309632452317423
3833.5403,5.872402675069289,14.179397771010057
3834.4224,5.872184074848866,14.63778829841401
3835.3064,5.875925625970756,14.364978868137836
3836.1887,5.881139260666889,12.741505068475654
3837.0713,5.88185064244226,10.034928312372484
3837.956,5.8725736845673975,13.545859491452807
3838.839,5.853375790265682,14.778097736230103
3839.7244,5.830717480715371,14.766702262507213
3840.6077,5.813838847182171,14.61518760774905
3841.4932,5.80904196675817,12.795400141658686
3842.377,5.8172859569575595,12.116697874129978
3843.261,5.8355979515263865,11.70449014108354
3844.1472,5.860907798884472,14.126189160633894
3845.0315,5.892120543168775,11.265146210831173
3845.9182,5.929566959488191,11.623384140113764
3846.803,5.971380994055811,9.321907752397854
3847.69,6.012700219300148,11.18260235342723
3848.5752,6.046849447290875,11.256430959476376
3849.4604,6.069505984795457,9.509343737087173
3850.3481,6.080172565101063,12.352740801330006
3851.234,6.081298455263854,10.550959089083179
3852.122,6.076625759756845,11.316642845597142
3853.0083,6.069881546482393,15.528684659771399
3853.8967,6.0637346136416275,9.90704690149579
3854.7832,6.058840296669782,12.983299340554353
3855.6702,6.053591148746075,10.621581629356722
3856.559,6.045595166141243,9.748224619549502
3857.4463,6.033781044073742,11.667500757004985
3858.336,6.019385829720124,13.884089838008832
3859.2234,6.005694741125319,11.66749347108066
3860.1135,5.996065970527162,14.56031176770785
3861.0015,5.9921985770541735,10.977839525063649
3861.8896,5.992920415459386,13.384255130077374
3862.7803,5.995008339625546,12.051378793590747
3863.6687,5.994893244915537,11.976228202306732
3864.5598,5.9900874057122735,11.127957982701085
3865.4487,5.979663770355577,13.758948447872227
3866.34,5.96424995314925,11.1991547741622
3867.2297,5.9462582578388075,10.379136292204386
3868.1213,5.928750393102349,12.296901534398891
3869.0112,5.913667480481772,11.46967838832989
3869.9014,5.900067095576376,10.970662624660557
3870.7937,5.884930472289177,12.533791487432074
3871.684,5.865461155975524,11.672832617669798
3872.577,5.8404792812540585,11.875733665851127
3873.4678,5.811167598782483,12.60649578058552
3874.361,5.780168625676014,10.328968565565319
3875.2524,5.751099991328912,12.012036062794836
3876.1438,5.726244125409171,15.97027321099024
3877.0376,5.705090205137925,11.421351990445817
3877.9297,5.684386706057239,15.414559126408577
3878.8237,5.6596201347238795,13.50632427511377
3879.716,5.627715230765434,11.69407017834032
3880.6108,5.587664886737606,13.797615199127605
3881.5037,5.5406436307578995,12.627549719297534
3882.3965,5.488293101803064,13.841035983531587
3883.2917,5.432503688296471,14.995782093050584
3884.185,5.376513301331301,12.410907820212987
3885.0808,5.324400973698642,17.49251663668623
3885.9746,5.281061294911659,15.53543872947677
3886.8706,5.248915381740219,16.44795949990489
3887.765,5.227275185708603,13.740991515424316
3888.6592,5.2128172411605815,14.526972043381589
3889.556,5.202386453713688,13.678247519439278
3890.4507,5.194855169576073,14.26838855203392
3891.348,5.190939222832849,21.902647629082065
3892.243,5.1921202223755065,15.50431181810482
3893.1406,5.199743799873435,12.985587277448449
3894.0361,5.215239863525988,12.639308218903366
3894.932,5.24036359816838,16.124635230829618
3895.83,5.275697817415112,14.409944442363182
3896.7263,5.318242653389689,13.48469696898969
3897.625,5.36261814793013,14.576025773572598
3898.5215,5.4040255839020634,13.036614282727871
3899.4207,5.442406345401448,16.200488459591813
3900.3176,5.480861332626365,9.720744386806425
3901.2148,5.522415467396399,11.200563227456833
3902.1145,5.56638347214011,13.231967268620378
3903.0122,5.608503848229949,14.508149639115185
3903.912,5.645535143455079,12.600458481404806
3904.8103,5.678129285470916,13.326776887243964
3905.7107,5.711242820205122,15.709418833342154
3906.6094,5.749350027195944,11.625922879677644
3907.508,5.792543704041236,10.564353012484546
3908.409,5.835580059823795,10.977423199264813
3909.308,5.870769872095898,9.77703718725035
3910.2097,5.893135868256424,11.7388838341666
3911.1091,5.9024778763125605,11.157735488148802
3912.011,5.903240073510933,11.53139285284325
3912.9111,5.901313518038097,10.783041648202888
3913.8113,5.90085971519244,11.179885052175585
3914.7136,5.902732582874671,11.37113859041076
3915.6143,5.905338718236325,9.980077292700763
3916.517,5.906995751902587,10.839248742402866
3917.4182,5.907698908040365,11.745156961008291
3918.3215,5.908959330761202,12.44439183783443
3919.223,5.911945062748048,12.393948009126447
3920.1245,5.91596898529985,9.941319758756988
3921.0286,5.919025690730304,16.080170523633463
3921.9307,5.92007908939009,15.380576324058424
3922.835,5.92092355669946,12.62872916526759
3923.7373,5.925451398043683,11.519641655011732
3924.642,5.9368915547050225,11.391507691294429
3925.5452,5.9550565780123215,11.76548531789436
3926.448,5.976078697970135,11.0560516592261
3927.3535,5.9943552716159365,10.82801173896037
3928.257,6.005065159098351,13.868031626128813
3929.1628,6.006179008446135,9.998417813674504
3930.0667,5.998228862933294,9.949607242815597
3930.9731,5.983010231236513,12.609663784731595
3931.8774,5.962298664651113,12.06512708295368
3932.782,5.9372045747346975,11.681442130129444
3933.6887,5.909174433606884,11.984101818531144
3934.5938,5.881391002145153,16.301743276477882
3935.501,5.858303935999174,14.283984326517787
3936.4062,5.844272148150213,13.427240731788213
3937.3142,5.840709747158067,14.570489727877733
3938.22,5.844918028829717,12.854790362553969
3939.128,5.850744169481948,11.052196189162688
3940.0342,5.851171948587648,11.945738811354254
3940.9407,5.841366199340677,11.44634804871599
3941.8494,5.820467400031195,18.039118977319305
