wavl,flux,ivar
3566.9744,17.788250116121766,4.268563945043546
3567.795,17.721675573707284,4.500888816706993
3568.6177,17.622489977671776,4.045606648718489
3569.4385,17.516968637548736,4.691532292261468
3570.2617,17.42188643770708,3.6789249212198727
3571.083,17.34233291755546,4.143739517369451
3571.9065,17.274109880590686,4.596512076842873
3572.7283,17.213424714533655,4.771977165212759
3573.55,17.160355642270225,4.7209678160817194
3574.374,17.117606119739573,4.954775242037792
3575.1963,17.085695391706214,4.809683850594043
3576.0208,17.05947443091704,4.659864328847348
3576.8435,17.03095255130817,5.671918446295688
3577.6682,16.99401848981981,4.624142136337443
3578.4915,16.949128576087233,4.8153000782978355
3579.3145,16.90266339943196,4.47138307589647
3580.14,16.863289631312398,4.732053416723907
3580.9636,16.839058230555047,5.22331129739151
3581.7893,16.836700060195238,4.873273803379802
3582.6133,16.862838384607798,4.814379098511388
3583.4395,16.920980414687172,4.938266877719765
3584.264,17.004461504474214,5.412499191804851
3585.0884,17.094570076798988,4.4641535567425965
3585.915,17.167207221838595,4.92121675700644
3586.74,17.20481457997641,3.8554449022883737
3587.5671,17.205267167519718,4.4869129397861345
3588.3923,17.178095455286737,4.432851746701767
3589.22,17.13459436158219,5.031579758732513
3590.0457,17.080817284316158,4.854011701984601
3590.8716,17.017067364066186,4.620109011858334
3591.6995,16.943310405490518,4.8743489984230965
3592.526,16.863934060230513,5.044747545470589
3593.3542,16.7869129994352,4.838119405701674
3594.181,16.722228590994618,4.698149847111749
3595.0098,16.67688234524089,5.370941064154925
3595.8367,16.652896609603864,4.990623679444683
3596.6638,16.64504452932392,5.227929763634303
3597.4934,16.6429390835301,5.319225942601956
3598.3208,16.635714718219017,4.9554486072291954
3599.1506,16.617577072083424,4.225441182253754
3599.9788,16.59012414130482,5.38716027579379
3600.8088,16.55899244044146,4.350317507103873
3601.6372,16.529900499840217,5.063506878734068
3602.4678,16.50712349312003,5.364128959908129
3603.2964,16.495792834523208,5.034644983882217
3604.1252,16.50174190554508,5.83332968829216
3604.9565,16.528879827671428,4.120979799749896
3605.786,16.575026644830896,4.752380208064513
3606.6172,16.631155906391783,5.689651183223962
3607.447,16.683441714359684,4.761798412783646
3608.2788,16.72023950417237,4.630865073298765
3609.109,16.737017674333337,4.8223238541619935
3609.9392,16.737391958615703,5.062088398582208
3610.7717,16.727490739033477,4.9114292174217145
3611.6023,16.71025229821754,5.710903792230451
3612.435,16.683309410025103,4.821308654423534
3613.266,16.64179599396825,4.611651680077387
3614.0994,16.58182416289957,4.843710025466255
3614.9307,16.504591865026104,5.1646985685615965
3615.7625,16.416652455732308,4.739700659559509
3616.5962,16.329044833848837,4.893735741144665
3617.4282,16.254281875115876,5.621284280659861
3618.2625,16.201135563662934,5.707905375283502
3619.0947,16.173229956657327,5.778554468482991
3619.9292,16.166935436374583,4.766577024196396
3620.762,16.172413918667573,5.149671330031886
3621.595,16.176200105886338,4.826552840354236
3622.4302,16.16665508449081,5.131826971004923
3623.2634,16.13913594629971,4.953445509989012
3624.0989,16.09617137293249,5.201246791822921
3624.9326,16.043568899487788,4.891685206385717
3625.7686,15.985620070901469,5.644791751422772
3626.6028,15.926460592472862,4.723127673803764
3627.437,15.871647408507942,5.474065789077547
3628.2734,15.827942588114555,5.183112043765093
3629.1082,15.7994607232051,5.192965420882403
3629.945,15.783861308201839,5.675156280160398
3630.78,15.774005041149186,6.0038487568679155
3631.6174,15.76135840300032,5.28943508116396
3632.453,15.739739878251104,5.205552766022653
3633.2883,15.70729346745206,5.023149962355213
3634.1262,15.667550858948852,6.1943854206895645
3634.9622,15.628639560202982,5.414240629616795
3635.8005,15.597592654103536,5.978250875171656
3636.637,15.574802524611702,5.0968760650216565
3637.4756,15.552007569831192,5.256863119550567
3638.3123,15.51945466092484,5.462763741611524
3639.1492,15.474466874850421,6.0656266908752565
3639.9885,15.424058482622453,5.835415389445689
3640.826,15.379506128080545,4.7066493954363935
3641.6653,15.347215140968634,5.887471297731058
3642.5032,15.325735718604811,6.22077564959228
3643.343,15.307715589667929,4.845558724236996
3644.1812,15.286292491823879,5.848441418222659
3645.0195,15.259583586378596,6.145112024145542
3645.86,15.23099905622826,5.10606713264263
3646.699,15.205721167913882,5.8012820536022405
3647.5398,15.186197718001738,5.5619377672232355
3648.379,15.171036341786188,6.34083662313113
3649.2202,15.155629749089389,5.78399836284261
3650.0596,15.134903666830374,5.780241406837112
3650.8994,15.105846455449493,5.61343336180697
3651.7412,15.069001895383774,6.817794301057711
3652.5813,15.027408024048778,6.038848794283832
3653.4236,14.983425425690193,7.292019171687692
3654.2642,14.93880110804999,6.101090563281067
3655.1067,14.895573371709158,5.921497601898496
3655.9475,14.857804298932816,5.733232872101217
3656.7886,14.82887595428821,6.224950700921491
3657.6318,14.808919970822055,6.86935110726164
3658.4734,14.795140208300511,6.65883817595429
3659.317,14.78546104700209,6.39869288701109
3660.1587,14.78184616253151,6.65298420344824
3661.003,14.788129988455943,6.536009655601404
3661.845,14.804758101710412,6.481448945275034
3662.6875,14.826420898731875,6.239674040172567
3663.532,14.845464563752643,5.806769337597258
3664.3748,14.857562908991861,7.403602472353708
3665.2197,14.863903833490868,5.546803509138377
3666.063,14.866718045580887,6.088734539126408
3666.9084,14.863465892021596,6.189238460965446
3667.752,14.8462445408988,5.819295480375004
3668.5977,14.808452071238403,5.475758308585777
3669.4417,14.753227568069274,6.967691958757894
3670.286,14.693891987891563,6.543264130260409
3671.132,14.64623589980837,6.87392934238464
3671.9768,14.618474455981195,6.475196024579398
3672.8235,14.606222136953708,6.166535278521733
3673.6685,14.59758658241841,6.970799034564468
3674.5156,14.582148739918814,6.053664630245658
3675.3608,14.55756588846971,7.144394684122771
3676.2063,14.528271356922588,6.1877561195032555
3677.0542,14.499504447146405,6.606410957328249
3677.9,14.472784913113834,6.69071491401747
3678.748,14.445783941248797,7.042934460184189
3679.5945,14.417201518058683,6.442267257956682
3680.4429,14.389761945288157,7.526700687200971
3681.2896,14.369943876537668,6.319116298081317
3682.1365,14.362963924363525,7.137755963037417
3682.9856,14.368429831455014,6.565223513442487
3683.8328,14.379305679822131,6.379439611316396
3684.6824,14.38550963156435,6.493965393704764
3685.53,14.37895836823229,6.713987289237593
3686.38,14.356933310152742,5.886362244843931
3687.2278,14.32219695858034,6.838571241819013
3688.0762,14.28058092207588,6.38161726338004
3688.9265,14.239300468707903,8.321537646312922
3689.7751,14.206259743571463,7.631234562908796
3690.626,14.187881061692405,6.239861793060402
3691.475,14.18649153609725,6.794527243839452
3692.3264,14.19727199668634,7.073855640671239
3693.1758,14.209319584767615,6.6392762039073725
3694.0254,14.211218626613993,6.079664518942998
3694.8772,14.197177015931773,6.628814131588669
3695.7273,14.169695646371764,6.620555585749188
3696.5793,14.136571589094462,6.632865978023758
3697.43,14.106208538299688,6.760058869082069
3698.2825,14.083291201598469,7.126047343491947
3699.1333,14.067879066233335,6.887185938348281
3699.9841,14.055872045112974,7.156174927665913
3700.8374,14.04174591066377,6.5590616194382445
3701.6887,14.022034901239929,7.336411916743999
3702.5425,13.99725262206755,7.0009058354164395
3703.3943,13.971842585668886,6.7551737292327205
3704.2483,13.951115372585438,6.760756309051825
3705.1003,13.938563986417664,7.1801312567595605
3705.9526,13.933338201212296,7.034811821230473
3706.8074,13.930509916595302,7.754355266146809
3707.66,13.923489492767184,6.604383371387076
3708.515,13.907033953599209,7.088649559700179
3709.3682,13.878827304890944,7.909201880961789
3710.2234,13.838763665395437,7.096706725583555
3711.0771,13.789037299816544,8.22928693203404
3711.9307,13.733947582951012,8.732782972599535
3712.7866,13.679743837574268,7.400437230571267
3713.6409,13.63363703142486,7.271485025549561
3714.4973,13.600754051713077,7.557997096778186
3715.3518,13.58340142667595,7.314690215055899
3716.2085,13.579943500447113,7.167826302815675
3717.0635,13.585520299702601,7.17298920288887
3717.9185,13.593362597712916,7.078037472402106
3718.776,13.597791236425513,7.723951748504363
3719.6313,13.59724928750204,7.955709557118002
3720.489,13.594394002896218,7.4537200537625905
3721.345,13.591780446305101,8.053917726473891
3722.2031,13.587171702095015,6.656511822686546
3723.0593,13.574063638603898,8.106669261905362
3723.9158,13.547316429057776,7.237555309681562
3724.7747,13.508282366778316,7.525343945849338
3725.6316,13.46497059908333,7.009331251754985
3726.4905,13.426277774132089,7.443309368220463
3727.348,13.397577896690413,7.663312820270566
3728.2073,13.378822116735664,7.406203130617649
3729.065,13.367465972546444,8.62983691341928
3729.9229,13.361561195936616,7.215117850355096
3730.783,13.361158831291984,7.127273003138718
3731.6414,13.366255555062827,8.633593696467436
3732.5017,13.373710256261043,7.276691461265781
3733.3604,13.376710731456246,8.253540856142845
3734.2214,13.368373010376596,7.785786512675234
3735.0803,13.346205074807521,7.152113648633322
3735.9417,13.312656153024323,8.127939449344147
3736.8013,13.272066572531475,8.840693747380923
3737.661,13.226650223931497,7.388336059177284
3738.5227,13.176993873905914,7.7183638623194
3739.3828,13.125930097176687,7.511305644863789
3740.245,13.079931738766899,7.489907698027058
3741.1055,13.047901838837022,7.630138288493871
3741.9683,13.035243636763635,7.852769146255583
3742.829,13.040271525685199,8.597266264784894
3743.69,13.054012512017293,7.60329139482258
3744.5532,13.064930964411445,8.507494894604221
3745.4148,13.06484649402158,7.512669608274317
3746.2786,13.053078769312418,7.916071737987056
3747.1404,13.03587133151024,8.282913834826399
3748.0044,13.021255105787127,8.055343898722725
3748.8667,13.013410423570885,9.112357841429281
3749.729,13.010116013601017,9.177577734920447
3750.5938,13.005725355824627,8.850014941562643
3751.4565,12.996317752697353,7.681656176596099
3752.3215,12.98251449598106,7.880262737555449
3753.1848,12.968120995917467,9.563624686131105
3754.0503,12.95567020950475,8.735058542023147
3754.9138,12.943580065127831,7.862156774318231
3755.7776,12.92668007501859,7.600742585819904
3756.6438,12.900101068838493,8.128594663781202
3757.508,12.863467390157911,8.34739505477898
3758.3745,12.821558864953682,7.319425579934152
3759.239,12.78250466138594,8.694457209510176
3760.106,12.752472477549407,7.898939743573044
3760.971,12.732698078298286,8.371292206736646
3761.8362,12.718626436877635,8.420807089330506
3762.7036,12.703252713461444,7.7593018802587235
3763.5693,12.681258525834648,7.956831250473839
3764.437,12.651478799823208,9.018100118541708
3765.3032,12.61765869224534,8.021009196183622
3766.1714,12.586202893046725,8.481300153664396
3767.0378,12.563391136691447,8.987816141536456
3767.9043,12.551646292831562,8.45661594140325
3768.7732,12.54850921508625,9.30547345790934
3769.6401,12.548237359352768,8.610350133143344
3770.5095,12.54517194966178,8.267653761313406
3771.377,12.536418315960749,8.822538982449233
3772.2466,12.521989045418275,9.003110876000319
3773.1145,12.503735457733377,7.608582027242269
3773.9824,12.48449606748955,9.240077154222805
3774.8528,12.468455044234116,8.311315201275915
3775.721,12.460593001674598,10.475682073855202
3776.5918,12.46355232015365,8.75399384975018
3777.4604,12.474895997146483,9.919546555018071
3778.3315,12.48764279845038,8.451348348424727
3779.201,12.494161488473306,8.642761954004607
3780.0703,12.490677538181652,7.914797322518615
3780.942,12.478776519190717,8.903137862094123
3781.8118,12.464065676647209,9.376680348080306
3782.6838,12.452260531095149,9.12302661006751
3783.554,12.44543280053646,8.721083869348156
3784.4265,12.440422165794347,7.089889440258255
3785.297,12.431476263179281,8.763301494908383
3786.168,12.414312442300574,9.365694393076025
3787.041,12.388386753657842,10.330066495045473
3787.912,12.35645807215051,8.29674997097655
3788.7856,12.322134236845738,8.84938428862782
3789.6572,12.288766057510578,9.89174141229346
3790.531,12.257336392586986,9.023484797394781
3791.403,12.225921433052687,9.180915532547651
3792.2754,12.189767906047537,9.686919916453975
3793.15,12.144641038556264,8.965195095570065
3794.0225,12.091108172917567,10.613761202717255
3794.8972,12.035179032721986,9.357959600639406
3795.7703,11.986874752409495,10.03092413957424
3796.6455,11.954877456346997,9.437018770574326
3797.519,11.943667257016134,9.492447596801226
3798.3926,11.951853133307754,9.889336777542022
3799.2686,11.973728890306147,7.26423112115594
3800.1426,12.00087466245587,9.85075647990733
3801.0188,12.024467524536156,9.573711476646793
3801.8933,12.037245406667024,10.226281236991975
3802.77,12.036875550435028,9.392995882617793
3803.6448,12.027482273404793,9.536769956663328
3804.522,12.017642471435844,9.575547395052958
3805.3972,12.015102078499222,10.074418973399112
3806.2727,12.021771094743196,10.540015559470394
3807.1504,12.033276197792913,9.250447629068097
3808.0261,12.042532992550449,9.691987649564183
3808.9043,12.044811560654372,9.327862287928994
3809.7805,12.04040502707278,8.585740753451198
3810.659,12.03422289079402,9.31171035586705
3811.5356,12.032803743270176,10.68726015439786
3812.4126,12.040131663338286,10.56290405706486
3813.2917,12.054501130275453,9.654838049465981
3814.169,12.068237502375055,10.36782790797567
3815.0483,12.071831990978904,9.54419470185409
3815.926,12.059370747309758,10.11227052197966
3816.806,12.031542506225229,10.5577395594394
3817.684,11.99418632177974,10.825805770652503
3818.5623,11.953664598872866,10.782914632186465
3819.4429,11.913723641098505,9.479494300900605
3820.3215,11.875423685875765,9.583738678744227
3821.2024,11.837960709055102,10.592500561488437
3822.0815,11.801018926947215,10.299074206816028
3822.963,11.76434713816978,9.780865086178038
3823.8423,11.727325961508567,9.676747001082154
3824.722,11.68758219019777,10.681537771241265
3825.604,11.642279867334718,10.383111506439795
3826.4841,11.59052743909461,9.30255912002868
3827.3665,11.533023478981846,10.93701750888115
3828.2468,11.471081119554144,10.730907121561497
3829.1296,11.403530093817864,10.756415756009414
3830.0105,11.328590568076109,11.6263140158036
3830.8916,11.245712038943111,9.723274274889965
3831.7751,11.158442873544594,10.964369412345121
3832.6565,11.07482241335809,10.907156928384461
3833.5403,11.003023485299826,11.307070049778682
3834.4224,10.94986738849123,11.60785328429976
3835.3064,10.91803260120027,11.42128406781561
3836.1887,10.907587388347538,10.642800725142564
3837.0713,10.917022937289685,12.502881533445738
3837.956,10.94464553024744,13.413299507761126
3838.839,10.988072998399765,11.465369176793086
3839.7244,11.044230865874027,12.056327632066793
3840.6077,11.108442786251127,10.637066296830305
3841.4932,11.175659741575386,11.497781223618736
3842.377,11.239832837993445,10.565859897144525
3843.261,11.295965770421702,11.354064878482749
3844.1472,11.341163750064675,11.034869106448404
3845.0315,11.375637859503616,11.275363884943964
3845.9182,11.40308697505169,10.312289796369217
3846.803,11.42800524977289,10.764772242714832
3847.69,11.453911995761985,10.664053463834442
3848.5752,11.481699569578057,9.751381897047727
3849.4604,11.51050565982707,10.425283821803943
3850.3481,11.538805622868685,10.268882290076869
3851.234,11.565039961655495,9.84332161524323
3852.122,11.588233382760334,10.820972694727738
3853.0083,11.607277624848425,9.887676698595772
3853.8967,11.621331069477353,9.38678171775421
3854.7832,11.629609452195295,12.080988953330094
3855.6702,11.631749567783748,9.769051715295737
3856.559,11.627749649117526,10.226749429090729
3857.4463,11.618323173737751,9.82017622189056
3858.336,11.604961301631349,9.848249472627485
3859.2234,11.589728343154276,10.367866356221835
3860.1135,11.574283875623527,11.816688127805197
3861.0015,11.559886242126845,10.259298460540156
3861.8896,11.54729338600773,9.681287605349013
3862.7803,11.536641097762914,10.022254086815952
3863.6687,11.526393953944618,11.154467457822756
3864.5598,11.512618291739763,9.947975402100889
3865.4487,11.49083309095518,9.961991471644811
3866.34,11.458518999461646,11.774968231496125
3867.2297,11.417007541651198,9.701528202457387
3868.1213,11.369477868628008,10.438739931691096
3869.0112,11.318758250103128,9.49956195111901
3869.9014,11.265149769146085,10.171065978633141
3870.7937,11.207674321600473,11.019287114327229
3871.684,11.14654767357981,11.299425481268685
3872.577,11.083098896330219,11.47982808872249
3873.4678,11.019972478710214,11.931870185212798
3874.361,10.958172865542501,11.943665227054016
3875.2524,10.897162560254666,12.007851440065922
3876.1438,10.833835830579144,11.17672874198253
3877.0376,10.764120054169009,11.43665796257522
3877.9297,10.685683952557149,12.663434323700807
3878.8237,10.598723357292984,11.8994148582411
3879.716,10.507246215520182,13.425900555209239
3880.6108,10.41495308402386,12.743694565436911
3881.5037,10.323406695668195,13.628494489278214
3882.3965,10.229447878688786,11.716398420287748
3883.2917,10.128505704167264,12.228200233952176
3884.185,10.019671874299917,12.962431935125327
3885.0808,9.905598467415492,14.38473239449931
3885.9746,9.79215391602622,15.90858984821058
3886.8706,9.682545655331156,15.469618210133035
3887.765,9.578906400321522,13.977643197683932
3888.6592,9.48435738314183,16.998486363330752
3889.556,9.407512228567727,16.14294351152982
3890.4507,9.361719410538228,18.85105452280434
3891.348,9.357260185422795,17.704099464341695
3892.243,9.395381917018273,16.26301908775246
3893.1406,9.467029441535136,17.482982898061557
3894.0361,9.557104905743081,14.416630182790538
3894.932,9.652636630323263,15.037022832889845
3895.83,9.74671852683016,12.83741691372037
3896.7263,9.83804258571576,15.895140797229319
3897.625,9.929899305377527,12.895338906322744
3898.5215,10.024820483581658,13.50743903373503
3899.4207,10.12368529617328,11.947143659005956
3900.3176,10.22283322820389,12.9301189231242
3901.2148,10.317736237287047,12.560137238774718
3902.1145,10.405501236801014,12.403651061796799
3903.0122,10.48664370110645,11.65274045760294
3903.912,10.56600155576724,12.412440541658174
3904.8103,10.648332592010133,11.788624938456042
3905.7107,10.736795433117441,12.715944760983527
3906.6094,10.830065335946117,10.882187124936943
3907.508,10.924004478325847,11.767759440846039
3908.409,11.012677305321874,11.156116170258983
3909.308,11.089721530926326,11.673842238870812
3910.2097,11.151798363738745,10.920401966866253
3911.1091,11.198700196135988,11.79403258340727
3912.011,11.234428096610777,11.042550213927099
3912.9111,11.264396556033924,10.806159577699937
3913.8113,11.293974412134586,11.460505904133038
3914.7136,11.326699626626265,11.035367290563906
3915.6143,11.362884060074583,11.609306639885993
3916.517,11.399628229225886,11.308995333622835
3917.4182,11.43159023099892,11.318197759681588
3918.3215,11.454579107740997,10.19837399967846
3919.223,11.467405170597765,10.538200793732734
3920.1245,11.472470075935846,11.126201691611831
3921.0286,11.47426078551088,10.141057578027468
3921.9307,11.477819047031048,11.125171693830737
3922.835,11.48708180517761,10.288051621040854
3923.7373,11.503289575342798,9.330460885597837
3924.642,11.524737273863945,10.110383355316403
3925.5452,11.54747110261131,10.860108162360543
3926.448,11.56748758853225,10.635619966739377
3927.3535,11.582442777072723,10.40728019936805
3928.257,11.592356934612308,10.75869323899824
3929.1628,11.599122116968847,10.298366296008522
3930.0667,11.604131320992,10.037818826529895
3930.9731,11.606181257795114,9.763746019121244
3931.8774,11.600914946635834,9.723126994358454
3932.782,11.582926592470658,10.423935555077408
3933.6887,11.548962142792002,10.745442912715191
3934.5938,11.500644005389063,11.55145235507223
3935.501,11.443858212708205,9.385826402512548
