wavl,flux,ivar
3566.9744,2.103729676226413,30.940696936186992
3567.795,2.0953104676977317,46.48687821413705
3568.6177,2.094500495937556,34.58965851048392
3569.4385,2.1058631313144556,52.95783075522137
3570.2617,2.126888439205868,122.23208971668235
3571.083,2.1469437534107088,39.24749614581457
3571.9065,2.1520109598520514,36.5895732605068
3572.7283,2.1327308951465387,38.39348690303592
3573.55,2.0913836344576944,18.069897737662355
3574.374,2.0410949576100132,99.28512070931635
3575.1963,1.998087399405837,39.34533816022954
3576.0208,1.9716426988492135,41.44985079801799
3576.8435,1.9625023627249447,30.83388408771581
3577.6682,1.9671651358252693,52.891686062589585
3578.4915,1.9829005858735371,24.550838234980322
3579.3145,2.0076787328259,86.2902091828019
3580.14,2.038069122877658,24.13477795870246
3580.9636,2.0689561280116364,41.50655870101116
3581.7893,2.096183396563704,88.64524797582288
3582.6133,2.11701991362728,39.19257051615457
3583.4395,2.1297651912985027,17.687578150071413
3584.264,2.132716443285801,23.56167095529947
3585.0884,2.125054842122534,35.91316467817046
3585.915,2.10766728643954,36.693904649169504
3586.74,2.0837229645215904,23.46742598171459
3587.5671,2.0577545331158245,75.90375336499737
3588.3923,2.0346920233244763,45.487930498114046
3589.22,2.0177643529778364,55.16353378444502
3590.0457,2.008024415069706,35.67426812962668
3590.8716,2.0044667590899126,34.61645599564356
3591.6995,2.0055012607946674,30.625622325927903
3592.526,2.0097736291247927,26.3484080477053
3593.3542,2.016399193128841,20.457157764413505
3594.181,2.024900927306932,63.813365442475565
3595.0098,2.035075184488727,23.14332173615616
3595.8367,2.045813449810756,28.206666095479758
3596.6638,2.054086066698765,15.345773194770263
3597.4934,2.0552050563496875,47.47751168677216
3598.3208,2.045540416051195,34.78493010719606
3599.1506,2.0258242567182845,99.35608673348453
3599.9788,2.0024599136101693,32.26977718315046
3600.8088,1.9845784209723747,44.65437380076947
3601.6372,1.9794155302776217,145.6004645607249
3602.4678,1.9882311067337566,124.50770162750032
3603.2964,2.0062223219462068,52.63973462956754
3604.1252,2.02578576386631,26.29339583555697
3604.9565,2.0404281137500337,46.180913575280044
3605.786,2.046996060354756,46.026002926007145
3606.6172,2.0459687692156874,40.95933882838359
3607.447,2.040008830299662,152.02782091010408
3608.2788,2.032820920663674,38.50600635186271
3609.109,2.0286636759270316,51.99821887033833
3609.9392,2.031323854589736,93.21285063931576
3610.7717,2.0422803518751502,101.6757352623577
3611.6023,2.0589031831508,30.092368897087002
3612.435,2.0754102051575476,39.41143861559398
3613.266,2.0858000627109483,30.455204571649215
3614.0994,2.0873440252537514,31.742198550984465
3614.9307,2.081441011530981,37.694607064069295
3615.7625,2.072431761461556,52.41864905707153
3616.5962,2.065507027652058,41.21871986291425
3617.4282,2.0647891119399704,63.02170240181697
3618.2625,2.071557500158308,39.660409708494
3619.0947,2.0835156351862785,26.90019784527339
3619.9292,2.096208504613712,36.153304508072914
3620.762,2.1055217304656852,37.918002798040824
3621.595,2.109331344507561,31.882627304688143
3622.4302,2.106347318158208,34.18463670779776
3623.2634,2.0950830102883446,21.106564901385532
3624.0989,2.0751776547606067,23.728346838820784
3624.9326,2.0498992958217763,48.44350110173315
3625.7686,2.0249155641811605,96.69620463975235
3626.6028,2.0046318220310835,49.96795849885459
3627.437,1.9893203913391238,22.396158228618557
3628.2734,1.9774104110877648,31.968051234144077
3629.1082,1.9691349991899854,36.20678709498364
3629.945,1.9667289066935911,34.42289289193682
3630.78,1.971331788632759,23.796307432006753
3631.6174,1.9801500998488926,71.73273464530557
3632.453,1.9875008519824329,26.469583547076745
3633.2883,1.9891749174229776,38.72156501894608
3634.1262,1.985577210184421,112.58829166196583
3634.9622,1.9811236563033905,53.29622769285235
3635.8005,1.9805003791883804,35.41279015178068
3636.637,1.9852248109353612,69.35459035919271
3637.4756,1.9927400433193811,31.6756318705002
3638.3123,1.9984811434429735,22.05855420715803
3639.1492,1.9998722809879883,31.98577112865066
3639.9885,1.999056444693442,45.382312254599285
3640.826,2.001810290408002,26.646907613633083
3641.6653,2.012583561997274,36.3203867848447
3642.5032,2.0297598872383973,33.791819293800124
3643.343,2.046185104640754,27.527702424006144
3644.1812,2.054574903598684,39.62369027459949
3645.0195,2.053672679709412,52.98950251196313
3645.86,2.0490179408128393,59.2616798397413
3646.699,2.048678561667866,33.07224481473686
3647.5398,2.0575820190985823,40.10286039218417
3648.379,2.074565659994907,25.005026217798257
3649.2202,2.0930837014933967,121.65717950642573
3650.0596,2.1037795479388013,26.63631217395978
3650.8994,2.098711109781978,76.47441795727407
3651.7412,2.0749674360640094,21.509738694690288
3652.5813,2.03720953242734,94.49197958011551
3653.4236,1.9961235292918786,108.98241735576973
3654.2642,1.9644273337670493,51.71531990259955
3655.1067,1.9503407938593622,34.356332557880194
3655.9475,1.9543761247792595,32.750801826018794
3656.7886,1.969772402110765,26.638579395497914
3657.6318,1.9870222368821426,48.482527892377526
3658.4734,1.9986622953356201,22.492052527714417
3659.317,2.002405137353891,117.34282028621047
3660.1587,2.0007113963821035,52.16383251775522
3661.003,1.9984030527079761,41.895365790154656
3661.845,1.9995330287831778,74.15515655361482
3662.6875,2.004950968366714,33.908490204473836
3663.532,2.0119248714894806,48.49981248992047
3664.3748,2.0162656393955696,91.93647627294555
3665.2197,2.0159362229184348,78.95921268227934
3666.063,2.01278748303259,78.8880843127059
3666.9084,2.0108328089797167,46.848807759801836
3667.752,2.0127616130425836,132.03354077247653
3668.5977,2.018334968608882,24.510231091032338
3669.4417,2.0259166787549017,64.14619888009543
3670.286,2.034507995219536,34.78703706245652
3671.132,2.0431435636388686,56.124897474650794
3671.9768,2.0488156097917276,42.580664323633734
3672.8235,2.0467021094576916,36.7695239395572
3673.6685,2.0333437133818797,38.158694092005774
3674.5156,2.0098807271390977,25.4824451999522
3675.3608,1.9824976178062141,41.4945539928697
3676.2063,1.9589093747291344,54.494582479180266
3677.0542,1.944455124559086,425.104870003942
3677.9,1.939823868253954,58.703683622080895
3678.748,1.9415506479997309,32.80153530101849
3679.5945,1.9449008160876473,94.59809931568876
3680.4429,1.9462328464107614,25.616139113647684
3681.2896,1.943636762279354,79.65191384958338
3682.1365,1.936619609521238,35.50119357028649
3682.9856,1.9261086872659414,28.48850798335058
3683.8328,1.9148750514635657,51.88138809465013
3684.6824,1.9065872039670724,96.11001745294074
3685.53,1.9039442740367354,33.961024893726815
3686.38,1.9069645289295851,48.68108293746575
3687.2278,1.913623502288772,54.235051482910286
3688.0762,1.9220154518547428,57.15765839960211
3688.9265,1.9317473287822726,33.51880141945452
3689.7751,1.9430361006514465,72.15499946660243
3690.626,1.9548547132928535,26.145178625888274
3691.475,1.964181736580288,41.00040306603297
3692.3264,1.9681918655151558,33.36018110802022
3693.1758,1.966847528801686,40.397636999224204
3694.0254,1.9638059269998895,34.188973558029026
3694.8772,1.964501355299931,56.772637308670404
3695.7273,1.9728021774358158,42.48870679611294
3696.5793,1.9883846305118271,69.90784023397823
3697.43,2.0064482797411816,42.592947234746035
3698.2825,2.020381510371564,36.29906645624059
3699.1333,2.0248626017052995,47.581815822132356
3699.9841,2.0183749722252977,29.680414884396747
3700.8374,2.003467655119037,47.80787212905583
3701.6887,1.9855588486529006,86.19208815193551
3702.5425,1.9701050063057544,58.25473889851691
3703.3943,1.9607636490868605,44.47314152688874
3704.2483,1.9585170006040395,32.28672599051497
3705.1003,1.9622722821804803,56.5032995676213
3705.9526,1.969200051620573,48.06599988313042
3706.8074,1.9752551178827311,48.46118687461103
3707.66,1.97628132050866,34.24063724484837
3708.515,1.9698133683057555,26.796627619643168
3709.3682,1.9563529470253296,40.732980073412506
3710.2234,1.9392783247812286,76.36021395485983
3711.0771,1.9234979834506014,45.74885388207035
3711.9307,1.912724777495284,46.346627528295954
3712.7866,1.9078260099218511,31.10300642185829
3713.6409,1.9075080234463062,46.43750672483901
3714.4973,1.9107445613429939,52.265497795956
3715.3518,1.9181263784844496,47.5482810415055
3716.2085,1.9300706606360252,87.88153570898429
3717.0635,1.9436222610944895,35.479370242596346
3717.9185,1.9524231736495348,30.7707544147986
3718.776,1.9503707804662214,47.98897807678309
3719.6313,1.935972212136235,48.2333930240802
3720.489,1.9130917081683607,62.63884976924433
3721.345,1.8884543236583473,52.992779060797
3722.2031,1.8681110268503696,51.77572002180613
3723.0593,1.8562693850143355,61.35102019906628
3723.9158,1.8544997295702854,78.86214080141409
3724.7747,1.8617488020597284,43.339007845345215
3725.6316,1.874355378567273,40.64593147437844
3726.4905,1.887243654564952,167.94268756478718
3727.348,1.8954346888229472,50.20909321163909
3728.2073,1.8960084342028087,53.51192302319146
3729.065,1.8894574616611175,67.01518997736241
3729.9229,1.88004374545243,69.05773364190202
3730.783,1.8741774138970304,55.797513771794755
3731.6414,1.8770510209757905,53.69118224322124
3732.5017,1.8889711927268655,32.90383017943282
3733.3604,1.9041419493158553,30.740966057908732
3734.2214,1.91370034465883,37.31326519036132
3735.0803,1.910997587934135,132.00780569297388
3735.9417,1.895733014342117,33.35774432580524
3736.8013,1.8734928600488587,58.19761495662835
3737.661,1.8514671359561454,46.27238707890537
3738.5227,1.834499564514246,45.94050938701761
3739.3828,1.8238640716097472,68.32324083685884
3740.245,1.8179983604417478,30.102961940830053
3741.1055,1.8143641286530952,115.42734623820972
3741.9683,1.81071778572555,100.03324057149919
3742.829,1.8063525803731617,53.87545940557218
3743.69,1.8025785325611139,65.6099768760873
3744.5532,1.801930741423863,70.98076329811182
3745.4148,1.80610871731056,66.12720161490792
3746.2786,1.8143150640429229,45.51703583556376
3747.1404,1.8234278328079943,34.98451694777549
3748.0044,1.8299893406480583,40.5505362768992
3748.8667,1.8319565126452741,43.07461965846712
3749.729,1.8295645226428627,195.40719136732736
3750.5938,1.8247075333318359,48.99890725585917
3751.4565,1.8196942216452134,49.46971704402444
3752.3215,1.815887654815444,38.78763990612165
3753.1848,1.8134435146057273,76.23039553549675
3754.0503,1.8119520774790014,50.68886030300635
3754.9138,1.8112738815064189,53.980612548800394
3755.7776,1.8114073129610457,47.54762943853132
3756.6438,1.8119182487258054,36.12444533747977
3757.508,1.8122021295414756,44.067594457470875
3758.3745,1.8128095988480002,34.567200592627
3759.239,1.8158844576311373,49.204073966592716
3760.106,1.8231550335019246,78.39652131857201
3760.971,1.8328724950970159,37.677381558541434
3761.8362,1.8396100464113705,45.09583909717608
3762.7036,1.8378051569022495,53.25688052297084
3763.5693,1.8264158442743497,28.10686060279434
3764.437,1.8101593687596949,46.843055679016956
3765.3032,1.7962294108027521,36.55254179439429
3766.1714,1.788796679580764,74.8066885770491
3767.0378,1.78654773055307,31.729227024599442
3767.9043,1.7845260886360723,65.81126336028258
3768.7732,1.7783768730019984,67.0367618215519
3769.6401,1.7670804064470325,25.0056103711663
3770.5095,1.7528461528971995,82.8357393764852
3771.377,1.7400394981246146,59.27491515427708
3772.2466,1.7334508528193375,62.43067377713665
3773.1145,1.7367301819980243,59.638665763087104
3773.9824,1.7504737309899279,59.286026383393605
3774.8528,1.771520916569512,59.63115877017757
3775.721,1.79336299080679,69.35254251964831
3776.5918,1.8088691388702263,39.524567474055246
3777.4604,1.813395517557196,56.63903276119981
3778.3315,1.8079697808830815,46.529037591409214
3779.201,1.7988768133280373,114.6259879456901
3780.0703,1.7937053792074182,40.322481629849655
3780.942,1.7967754914505196,58.692170736748096
3781.8118,1.8073551337116254,62.997403593304426
3782.6838,1.8215352402466747,51.62485049141402
3783.554,1.8350600535115773,51.677263745920946
3784.4265,1.8452531366373914,48.714419725681246
3785.297,1.8508643918891838,54.108121945508074
3786.168,1.8519104667898856,38.11237749687074
3787.041,1.8493078246265138,28.494512952906028
3787.912,1.844340556028333,44.38881979742626
3788.7856,1.837672631344846,57.79474035247996
3789.6572,1.8291963651353926,56.22673955175222
3790.531,1.8187910020846203,75.11845686552346
3791.403,1.8074072476930252,50.52965050022132
3792.2754,1.7965641297675305,58.05113999526323
3793.15,1.7870322146121291,74.19769158745395
3794.0225,1.778025582162858,82.27733575867859
3794.8972,1.767859245110277,49.284569020242174
3795.7703,1.7560938874577983,62.19211443818312
3796.6455,1.744589423724178,74.1011436185033
3797.519,1.7368021569413432,105.15494218515789
3798.3926,1.73508499943998,52.39186684081167
3799.2686,1.7386345759671742,97.15353369424257
3800.1426,1.7432297532236163,77.72607850017451
3801.0188,1.7433645442187309,88.94965201559955
3801.8933,1.735561944728243,26.940730014579565
3802.77,1.7210680232542066,49.06525781221704
3803.6448,1.7060601139387266,48.54384288364212
3804.522,1.698244940259943,68.5867617372108
3805.3972,1.7024161782307636,121.7150067538538
3806.2727,1.717351133424636,49.617264910346336
3807.1504,1.7368555113270645,41.722992637936485
3808.0261,1.7536538071633674,69.29235076114603
3808.9043,1.7640972781533062,47.83849781192144
3809.7805,1.7695120992684465,64.98941773113827
3810.659,1.7745649749480563,64.50300694345825
3811.5356,1.7836274379206678,57.19217624718516
3812.4126,1.7982455431300233,62.86557951511079
3813.2917,1.8165444906496984,57.98577919500452
3814.169,1.8341309576848437,65.89290203199518
3815.0483,1.8462209798400961,43.004082702272584
3815.926,1.849213800392959,43.657888736506884
3816.806,1.8423413887088183,39.5693216501659
3817.684,1.8283181425334645,43.94371247726179
3818.5623,1.812522632399673,53.012302192854975
3819.4429,1.8004808693851027,34.93122834704431
3820.3215,1.7948973326534476,43.29913329261386
3821.2024,1.7940676219116107,61.93755891524734
3822.0815,1.793455480015001,47.33769745740768
3822.963,1.7887136080937738,76.80173313642631
3823.8423,1.7782071066590655,54.99021803359105
3824.722,1.7634097665171258,43.15901705986268
3825.604,1.7474294914979636,45.767384504553604
3826.4841,1.7327875699322497,90.15628067049371
3827.3665,1.7193851045757909,205.6123583020485
3828.2468,1.7049648277270721,62.996082158992266
3829.1296,1.686897325187286,51.85677643565836
3830.0105,1.6646916209125668,52.6705340344179
3830.8916,1.640103026127084,87.6263367114235
3831.7751,1.6157455489787438,52.37500960666478
3832.6565,1.5936677147678195,37.51514660623998
3833.5403,1.5747347824029407,59.73084423250266
3834.4224,1.5600063488576192,90.76897283973167
3835.3064,1.5509208682027251,86.56170476524507
3836.1887,1.5490138657403436,54.807194665164474
3837.0713,1.5549225148166996,80.774702534996
3837.956,1.5682374461371644,103.08491321033144
3838.839,1.5875988851602052,56.26477043961265
3839.7244,1.6113355132903913,58.662314369579335
3840.6077,1.6375544809326765,46.958460491943136
3841.4932,1.6648744283937809,63.075073751656205
3842.377,1.6917562694694324,56.76669688557434
3843.261,1.7162059470537911,37.64954977371915
3844.1472,1.7352432994934344,42.7100373356749
3845.0315,1.7458434072430558,66.0722387772513
3845.9182,1.7471880082339273,46.570031978377
3846.803,1.741688288507289,135.8402885545105
3847.69,1.7342821084167237,58.10358827960173
3848.5752,1.7303750044160267,80.59932044094451
3849.4604,1.7338120813331321,102.03696635922829
3850.3481,1.746040192162979,42.71735795685147
3851.234,1.76596320634009,108.4841939110106
3852.122,1.791032618559838,57.63570230608083
3853.0083,1.8181662142819026,43.00104518954933
3853.8967,1.8450054544575603,65.25347607333063
3854.7832,1.8692190759184524,48.41706364744519
3855.6702,1.8885427987138614,40.260596494967714
3856.559,1.9010435760468583,56.91793784351499
3857.4463,1.906269928366302,41.31885891559087
3858.336,1.9056160816415697,70.14194928565668
3859.2234,1.9009478866247933,40.211128244344565
3860.1135,1.893114954610149,48.51621052904567
3861.0015,1.8819823081946958,76.66175075274164
3861.8896,1.8676438580498742,50.29077608266242
3862.7803,1.8515941541267722,45.63536629547141
3863.6687,1.8364766984718033,48.34308398825956
3864.5598,1.8241866696935392,93.37785738610111
3865.4487,1.8148638320029258,56.03841111076192
3866.34,1.8067252442729722,40.7371206989392
3867.2297,1.7975799744271506,44.091431290828794
3868.1213,1.7859633053994104,40.543184574582895
3869.0112,1.7716073226754363,42.11853993357025
3869.9014,1.7547569483603007,41.15924140684956
3870.7937,1.7359872188740766,50.727532322063745
3871.684,1.716840192716324,56.62760362075518
3872.577,1.6996528400301911,59.99835781554444
3873.4678,1.6866169795655626,67.3950124960919
3874.361,1.6775376320747226,96.23407145005092
3875.2524,1.669571679934421,73.81710779036794
3876.1438,1.6587811733567994,48.33194080930901
3877.0376,1.642751699199273,45.19149466455198
3877.9297,1.6220416361788006,45.28512007834633
3878.8237,1.5991517730365383,37.21484603027432
3879.716,1.5769628776126523,64.1098229806277
3880.6108,1.55681672978718,139.06868260832616
3881.5037,1.5384065873644912,54.89764568830325
3882.3965,1.5199793040187422,71.68156914148854
3883.2917,1.4996493325553273,80.02292966125734
3884.185,1.4766747163380425,71.88519844987965
3885.0808,1.4514177575910947,89.39421330351104
3885.9746,1.4252365300167853,102.55875314001088
3886.8706,1.3993801451054098,72.04581995457139
3887.765,1.3756860890040965,145.84363829530935
3888.6592,1.3570869274322477,78.43546883967498
3889.556,1.3479911464452374,117.48084270282897
3890.4507,1.3526118549964319,116.85298438873751
3891.348,1.372001655451416,68.43989195903893
3892.243,1.402178663748103,99.83887063910026
3893.1406,1.435691148775142,87.01978061131868
3894.0361,1.4646822614489763,76.29453688719664
3894.932,1.485008755268216,55.09649966841509
3895.83,1.497121794113221,44.15783729634309
3896.7263,1.5049559204471055,72.18409169818571
3897.625,1.5139140986847572,76.19700996069633
3898.5215,1.5282336695561494,70.04518109330486
3899.4207,1.5491361572165316,135.0212723364738
3900.3176,1.573857873449895,85.98128315471686
3901.2148,1.5978851428295229,56.29739443860841
3902.1145,1.618256222314692,77.01978270619155
3903.0122,1.6355834970818335,75.49845632727072
3903.912,1.6532995721342696,102.51381791314586
3904.8103,1.674373852131739,55.307076514051374
3905.7107,1.6999263257422181,117.68254164228719
3906.6094,1.7292365066091138,48.204070850164584
3907.508,1.760979885732919,58.75913076678591
3908.409,1.7932320503106396,41.529977519355725
3909.308,1.8232758250191734,61.12578542794823
3910.2097,1.849015362105407,52.568207528921775
3911.1091,1.8696740904080082,46.98522562453935
3912.011,1.8865588758815037,66.71646048487395
3912.9111,1.901564746224993,46.42901828579794
3913.8113,1.9160197205074183,57.25545545892912
3914.7136,1.92990406469299,49.82057608556797
3915.6143,1.942280801590618,49.54400810879131
3916.517,1.9525571794162686,60.33387870593064
3917.4182,1.9608438839372573,48.569392069178335
3918.3215,1.9677606782070713,51.07496580092073
3919.223,1.9734272654859326,47.13917306337837
3920.1245,1.9771969901203956,67.52083024469468
3921.0286,1.9783054627653678,33.41438620148527
3921.9307,1.977153386406232,34.0542454137918
3922.835,1.9756244351618282,53.774150684187006
3923.7373,1.9757425489504532,42.64452760030241
3924.642,1.978060380598792,33.985607908536295
3925.5452,1.981614040680401,72.29728747175454
3926.448,1.9852749928198827,48.85591141130436
3927.3535,1.9886025021664835,42.02009444353052
3928.257,1.9913885811100804,39.56448657724755
3929.1628,1.9930806850574856,35.07314031114596
3930.0667,1.9929244264468435,40.52721020195092
3930.9731,1.9906179103287014,43.72807565599854
3931.8774,1.9864783315526218,62.717516878376
3932.782,1.9809976070772084,41.404802300762114
3933.6887,1.9744709082915184,35.651770577079645
3934.5938,1.9670968662934167,55.87527267632072
3935.501,1.9592165020568164,32.38056500058543
3936.4062,1.9517349314665116,57.444689202681865
