wavl,flux,ivar
3566.9744,1.6310211986469463,363.23364534559784
3567.795,1.6263916000608754,508.8242812926645
3568.6177,1.6198748671625807,434.67251817196484
3569.4385,1.613225559049198,322.2327990617307
3570.2617,1.6082155760273633,390.97464224498185
3571.083,1.6059254911823226,403.5482213468824
3571.9065,1.6063298675873114,440.74722250964084
3572.7283,1.6086103502923708,361.53048425979017
3573.55,1.6116817412969418,339.24395486553436
3574.374,1.6146507491806876,382.15327632117146
3575.1963,1.6169640183975598,378.7604144696379
3576.0208,1.618387778268327,371.9348797093514
3576.8435,1.6188590685750728,365.2750581363655
3577.6682,1.6185570819105513,362.57587914530615
3578.4915,1.6179394426768356,480.9591291527567
3579.3145,1.6174582148989929,356.66378374896794
3580.14,1.617068196200905,377.2344084310551
3580.9636,1.616165386261025,356.4131821562809
3581.7893,1.6141857024395747,454.3354576056941
3582.6133,1.611253432536665,384.3562619796912
3583.4395,1.6080157001163293,355.8741528837441
3584.264,1.60496379477053,388.5380549165684
3585.0884,1.6019479264435585,453.0709702752165
3585.915,1.5985198085905807,509.25346769378706
3586.74,1.594571186638377,431.66534478962353
3587.5671,1.5905013883219254,395.6327711993301
3588.3923,1.5870757349423743,365.0909508158902
3589.22,1.5850795514165916,492.7394861296937
3590.0457,1.5851734045048933,443.1176594730366
3590.8716,1.5875346264273762,440.50652164942903
3591.6995,1.5915333331879742,416.22879545247935
3592.526,1.5957157433243152,340.9709082839731
3593.3542,1.598528232386596,373.9363756871642
3594.181,1.5991516933552417,392.8281545480309
3595.0098,1.5979214116114624,439.43979399246103
3595.8367,1.5959341602404622,514.0857359884697
3596.6638,1.59431977363859,407.3761829186099
3597.4934,1.5937187462814895,492.45105453351937
3598.3208,1.5940990761065958,455.339286235737
3599.1506,1.5948944656680564,402.5813959540258
3599.9788,1.5954467063684754,451.3900520422164
3600.8088,1.5955247584854466,433.4705017949008
3601.6372,1.5954364944895751,421.1139980505017
3602.4678,1.5955548337448175,428.0004761289254
3603.2964,1.5956714317686813,361.90861185905334
3604.1252,1.5949108360758997,376.71955649521175
3604.9565,1.5924076824695932,373.3543871496679
3605.786,1.5881849671455495,368.91047057241707
3606.6172,1.583243977838482,436.86406401564255
3607.447,1.5788809377724673,485.8060096028337
3608.2788,1.5756830008061997,425.73708827839624
3609.109,1.5732904456568615,411.2963674992796
3609.9392,1.570820404939546,349.9955610506333
3610.7717,1.5676558815326824,436.6559323358803
3611.6023,1.5639258554420006,438.6283666341343
3612.435,1.5603155265180662,428.62219127669414
3613.266,1.5576233706551124,376.46017702091984
3614.0994,1.5563275289964693,417.34143360479135
3614.9307,1.5566617118942387,348.14238240781935
3615.7625,1.5587185193320527,402.01836781575616
3616.5962,1.562243102748601,385.96227868614915
3617.4282,1.566159710177711,400.1626616206833
3618.2625,1.5687536168763574,373.7001395270634
3619.0947,1.568654040811763,408.06921958908526
3619.9292,1.5660207665578856,382.7456287718635
3620.762,1.562588837596024,437.89395561146205
3621.595,1.5603888998579674,493.43974525947533
3622.4302,1.5603435563540755,418.12933008613
3623.2634,1.5618738039294287,392.2086303132943
3624.0989,1.5636716259981138,373.9458150063762
3624.9326,1.5646919367018264,437.2645621785075
3625.7686,1.56459199905355,393.36237677538196
3626.6028,1.563505785886203,389.232238233042
3627.437,1.5616957717021478,376.70326465134957
3628.2734,1.5593867233831609,497.40632818901736
3629.1082,1.5567803313430204,389.5416402021745
3629.945,1.554016896057343,379.29921906381594
3630.78,1.5512606861535705,428.0495370949737
3631.6174,1.5487088319655002,511.50137183596166
3632.453,1.5465409864024493,443.8599013390284
3633.2883,1.5445822007490742,400.1981737903334
3634.1262,1.542228104006242,402.93777470226325
3634.9622,1.5388486902937677,566.0748736240944
3635.8005,1.5342953432187765,406.4748306872941
3636.637,1.5291727658606624,369.43126198081865
3637.4756,1.524476316873278,405.1011415423244
3638.3123,1.521195730812036,400.83685785649953
3639.1492,1.5197689185282255,446.3635693761921
3639.9885,1.5198478292468711,436.41991340404
3640.826,1.5203820969455957,515.2875456318387
3641.6653,1.5202037717372514,420.2253470096505
3642.5032,1.5187546219550423,412.00052907831105
3643.343,1.5163524218508107,519.9779384011122
3644.1812,1.5138006959775987,440.0549449813442
3645.0195,1.5116721962798614,448.6597956062941
3645.86,1.50998645042478,451.83751836448863
3646.699,1.5084010885154924,438.77026282481944
3647.5398,1.5065708597855163,448.22028237277806
3648.379,1.5043706581889387,431.1199295359585
3649.2202,1.5017425154028836,494.44902415180854
3650.0596,1.4985129635939305,448.53961809600673
3650.8994,1.4943391480121402,440.6151595161816
3651.7412,1.4890697705850444,419.9319925702124
3652.5813,1.4832270517157153,488.69912055043983
3653.4236,1.4779643034173324,570.2892728119213
3654.2642,1.4745709194086092,456.8909614150418
3655.1067,1.4735851470933499,452.091113503621
3655.9475,1.4745523440646147,562.3419793760906
3656.7886,1.4764395809352455,485.5172322081218
3657.6318,1.47837174450435,460.71858876769375
3658.4734,1.480014698847602,473.73880155255813
3659.317,1.481506874131481,364.8529904606068
3660.1587,1.483062179233142,502.33724158838675
3661.003,1.4847384414000369,376.00433975409555
3661.845,1.4864325945630439,450.0327137969002
3662.6875,1.4880516486925308,464.5797509485178
3663.532,1.4894751044056618,584.4272817200134
3664.3748,1.4904256174258443,400.47318641513846
3665.2197,1.490562287964624,407.9533316958452
3666.063,1.4897796003134969,493.4054646649024
3666.9084,1.488400058727934,426.3664212865717
3667.752,1.486970176824241,521.4885761945368
3668.5977,1.4857915336101284,480.0200933058593
3669.4417,1.484701498670678,421.19417402672286
3670.286,1.483227475551848,468.7760323599944
3671.132,1.4810254041438407,457.7978395532227
3671.9768,1.4782739951847155,458.6064654167137
3672.8235,1.4756980142191154,415.25069539158375
3673.6685,1.47421087962105,469.35912327248036
3674.5156,1.4742233175070898,424.550103447379
3675.3608,1.4752653527167094,428.8856830497163
3676.2063,1.476234870494118,423.4698934742149
3677.0542,1.4761099565039442,411.559312616972
3677.9,1.4745401746161817,425.8130300831729
3678.748,1.4719027619146676,491.58885635035375
3679.5945,1.4689578486825927,473.83367479787114
3680.4429,1.4663502514120261,428.83893660865516
3681.2896,1.4644004885752644,657.0893546906782
3682.1365,1.463073946639212,563.3596724253015
3682.9856,1.4621843170981945,364.46531824055126
3683.8328,1.4616300999345069,467.4744246392913
3684.6824,1.4615356941599538,500.7238116989826
3685.53,1.4621781046505922,419.2267555773043
3686.38,1.463661588978648,465.6477840789509
3687.2278,1.4655880487093425,458.6420786509425
3688.0762,1.4670728286254926,454.63115518739414
3688.9265,1.46707344097835,522.4214957396673
3689.7751,1.464897303463065,452.90567026656186
3690.626,1.460627914797635,395.30210338413576
3691.475,1.4553612295191514,525.4028500274393
3692.3264,1.4508704104927488,485.40063526747537
3693.1758,1.448850449991247,569.2376987879306
3694.0254,1.4498217083270009,558.9606787794947
3694.8772,1.4527409366207122,506.10543947146476
3695.7273,1.4555383877695858,532.4769273255598
3696.5793,1.456442098107924,500.9623167008571
3697.43,1.454993852560145,460.1891444387625
3698.2825,1.4521524935135388,479.20666419351187
3699.1333,1.4494797519126106,457.59508314803634
3699.9841,1.4480636483592797,506.7421740326573
3700.8374,1.4480314167993633,453.0618863581182
3701.6887,1.4487465990653952,464.4525130411593
3702.5425,1.4493764612888278,526.3539485564127
3703.3943,1.4493680892756824,463.81176742203957
3704.2483,1.4486473514187272,512.6019739961343
3705.1003,1.4475294911252354,493.29346107788064
3705.9526,1.4464393654079009,511.35150081235054
3706.8074,1.4456405090585394,481.5095676425686
3707.66,1.4451283026057655,420.26626819152114
3708.515,1.4446810796886929,522.335568114757
3709.3682,1.4440045463558522,497.64014399876726
3710.2234,1.4428365953859181,475.19746405231604
3711.0771,1.4410418910920522,475.2207317144638
3711.9307,1.4386089568932752,540.7090087539252
3712.7866,1.435601004107692,459.43324086299043
3713.6409,1.4322135925857817,557.1315533754992
3714.4973,1.4288562358575452,434.5179268978114
3715.3518,1.426245821131383,498.08453200717514
3716.2085,1.4250737171194972,497.84331579665866
3717.0635,1.4256206182625395,443.00569978207056
3717.9185,1.427556611109124,544.8125477959444
3718.776,1.4302137863322146,479.04662425169397
3719.6313,1.4329561306471534,487.28729112742127
3720.489,1.4354205023124695,510.0831561399612
3721.345,1.4373794231998414,488.9485709082885
3722.2031,1.4386228529734366,499.62346385635016
3723.0593,1.4388699563119072,403.062396055268
3723.9158,1.4378564203422335,514.3864124207614
3724.7747,1.4354401929820126,449.80268807811825
3725.6316,1.4317746787352292,442.8169598697798
3726.4905,1.4273383424739288,504.45584971367606
3727.348,1.422953500250453,485.2333823193132
3728.2073,1.4195510768128758,540.9118491072383
3729.065,1.417891722972428,647.767573138266
3729.9229,1.4180684930065153,469.73787713020363
3730.783,1.4193247183228959,514.6475467593432
3731.6414,1.42036910385281,471.266223660912
3732.5017,1.4201512575629,470.368337075183
3733.3604,1.4184353604999393,565.6714246648907
3734.2214,1.4157804100765665,491.31217795727764
3735.0803,1.4130920852747237,540.4935659346819
3735.9417,1.41102862848958,525.5442979101808
3736.8013,1.409706936009888,484.4927707388959
3737.661,1.408626575058367,627.989973424835
3738.5227,1.4069857451182015,519.4211705597777
3739.3828,1.404234997680741,473.0606334142562
3740.245,1.4005250591898164,478.45394536456723
3741.1055,1.3967970305024735,583.6512250004564
3741.9683,1.3942136784231274,630.0697201128928
3742.829,1.393495520821919,480.3504530909904
3743.69,1.394458027806707,489.9958177796332
3744.5532,1.396226733960022,407.5855549769502
3745.4148,1.397776130288067,575.0444653659849
3746.2786,1.3984720705836946,476.28424118858385
3747.1404,1.3982257229844166,578.447421140153
3748.0044,1.3973672040334337,505.79966390762394
3748.8667,1.396378848918296,469.845596503625
3749.729,1.3956253248086252,572.4235990233857
3750.5938,1.3951844668547189,557.7039944728629
3751.4565,1.3948546576164267,545.507552114484
3752.3215,1.3943777041258663,473.95452908472566
3753.1848,1.3937513582782113,628.3675916340077
3754.0503,1.3933161824581493,512.7712583279357
3754.9138,1.3935482139323745,556.0233217232253
3755.7776,1.3947294067584657,488.4460766689811
3756.6438,1.3968064168812555,464.4103202195928
3757.508,1.399438534040856,530.6784001730382
3758.3745,1.402199775825605,515.5124588598004
3759.239,1.4046622358303695,481.8939722166799
3760.106,1.4065277754549033,544.7458206591737
3760.971,1.4076276811325756,478.1612616254291
3761.8362,1.407946818181366,496.6179674525665
3762.7036,1.4075386419845426,531.265273635269
3763.5693,1.406453993466278,668.8461252592645
3764.437,1.4046353948472243,528.8710230056804
3765.3032,1.4018504344842269,532.6958433935251
3766.1714,1.3977020972659644,502.8831632913549
3767.0378,1.391958419731733,424.4626878759784
3767.9043,1.384916408830789,490.13691551492457
3768.7732,1.3776153502775395,559.2907734005784
3769.6401,1.3716300382653788,534.5315173436128
3770.5095,1.3683315422868447,566.0260739600739
3771.377,1.3684707881373988,570.7058432316222
3772.2466,1.3719362043710637,601.5749685500249
3773.1145,1.3778184725101112,477.4292051644833
3773.9824,1.3846646635068869,503.9687713789507
3774.8528,1.3909201119363837,476.21638631652314
3775.721,1.3954589688176473,492.3565015078133
3776.5918,1.398039012881278,519.9689716738012
3777.4604,1.3989990740275744,477.33338910950545
3778.3315,1.39880608858886,501.6037679578585
3779.201,1.3977508144109532,497.6698698036059
3780.0703,1.3961048513392036,533.7410668807278
3780.942,1.3943266242231849,494.96203708346064
3781.8118,1.3929663563077603,495.8056225001732
3782.6838,1.3922954810967492,514.1104846007795
3783.554,1.3921547387600195,503.8462312412816
3784.4265,1.392116349236385,529.6403644391381
3785.297,1.391799001759174,456.8180281835714
3786.168,1.3910139513817192,477.58114653171083
3787.041,1.3896915440995397,468.38831442472156
3787.912,1.387756251163713,490.62953985742007
3788.7856,1.3850452373390034,505.56548667892326
3789.6572,1.3814320969517,464.72272075731865
3790.531,1.376956409435181,622.4313479483742
3791.403,1.3720489591953409,584.9510427054732
3792.2754,1.367397762651466,581.2498253848491
3793.15,1.3635773543658023,496.1312274845313
3794.0225,1.3605382639860768,556.0491303543497
3794.8972,1.3573820257316067,582.0582682281122
3795.7703,1.3529966996691192,557.5318144477081
3796.6455,1.3470103413836823,575.1656766879729
3797.519,1.3404876734492022,503.5475596492086
3798.3926,1.3354076129146637,589.6653963730927
3799.2686,1.3335127266281692,546.2560319086274
3800.1426,1.3353148533814276,467.1813034421719
3801.0188,1.3399653067198296,517.7325775694839
3801.8933,1.345877344445788,620.0095837534158
3802.77,1.351582425135428,535.625750616048
3803.6448,1.3561408584339263,557.0346101033751
3804.522,1.359409869364202,622.4730789679031
3805.3972,1.361885774644145,508.9569861412793
3806.2727,1.3644694607681556,607.9537656031772
3807.1504,1.3679483052276058,461.1761176588327
3808.0261,1.372501025901773,492.04474857263614
3808.9043,1.3776195482742357,485.6599676532096
3809.7805,1.3823053864343022,555.1765123401883
3810.659,1.3856485954936668,558.5615652403823
3811.5356,1.3871265866292926,465.8039756586903
3812.4126,1.3867504817091918,440.7316197280094
3813.2917,1.384836533778309,484.60756589828486
3814.169,1.3817789876767175,613.8078442735605
3815.0483,1.3779488814278937,437.0137528722918
3815.926,1.3738904597614088,587.6965962113749
3816.806,1.3702813971652295,510.9043529398075
3817.684,1.3676648628676717,578.5793043363217
3818.5623,1.3659889519865278,540.5380818544542
3819.4429,1.3646699759692498,519.9177410570946
3820.3215,1.363088118519181,540.4258290857621
3821.2024,1.3609875714264286,645.4469468536017
3822.0815,1.3584702691823334,525.9667294642372
3822.963,1.3556207231861073,564.0787058572744
3823.8423,1.3522905476346812,551.5169806138604
3824.722,1.3480275049147215,569.493424329816
3825.604,1.3422559047255649,540.0197699257584
3826.4841,1.334626717966221,550.5480925534437
3827.3665,1.325190744630256,563.5176428205252
3828.2468,1.3146197477407253,572.4976989259914
3829.1296,1.3038270769640865,621.1469946912114
3830.0105,1.2937745554219957,590.2193186953835
3830.8916,1.2849019592139654,618.91867882409
3831.7751,1.2770548095466943,622.8059134601361
3832.6565,1.2697575103540313,559.9620137259952
3833.5403,1.2626401299581198,680.0700331260294
3834.4224,1.25614007476505,680.6278413579887
3835.3064,1.2514114473403706,726.3800667687683
3836.1887,1.2498024435198125,752.4068532395944
3837.0713,1.2519294209559289,618.2618344957733
3837.956,1.2573443135188629,696.5225895557367
3838.839,1.2648040460022603,551.8703016526038
3839.7244,1.2731292233184006,606.4585836070072
3840.6077,1.281698036993908,725.8940173552346
3841.4932,1.2906639951556884,637.6345468303944
3842.377,1.3003492371527348,686.2647655318247
3843.261,1.310851598640125,598.2185836448842
3844.1472,1.3218558917185863,519.9594194873824
3845.0315,1.3328433977644298,537.4810699287661
3845.9182,1.3435416961017566,568.3602613677077
3846.803,1.3536341563718304,526.9101068165286
3847.69,1.3628246438649274,568.6298699006372
3848.5752,1.3708838184482046,437.4310617809889
3849.4604,1.3782255448438956,509.25964574679796
3850.3481,1.3858377137437634,605.6489461341009
3851.234,1.394603550156647,452.85964367764825
3852.122,1.4047852441683886,470.12243131720476
3853.0083,1.415697814076467,520.8869242377983
3853.8967,1.4262181012285808,437.457024880448
3854.7832,1.4350682981979914,475.0198438618253
3855.6702,1.4414634491180531,456.87516714546274
3856.559,1.4453180081841108,456.3704589437148
3857.4463,1.4471828865876846,544.795583927152
3858.336,1.447815776447713,520.7065245521056
3859.2234,1.4476580601149847,484.7028915453877
3860.1135,1.446774758883197,518.2176242429717
3861.0015,1.4451798229753694,421.14550862204084
3861.8896,1.4431446256549803,483.87247368476466
3862.7803,1.4411762453813102,484.20882451433147
3863.6687,1.4396863762028562,522.8561083008038
3864.5598,1.4385950524232887,455.62065583066743
3865.4487,1.4372991316671575,530.4003515648643
3866.34,1.434938778793278,412.2314704022761
3867.2297,1.4308709246548992,462.2070200593489
3868.1213,1.4248948136060153,465.00220673058493
3869.0112,1.4172817986657142,580.5690597129344
3869.9014,1.408435714426343,488.4317714382169
3870.7937,1.398640550322931,501.03469789297793
3871.684,1.3880240772950843,591.6633234710529
3872.577,1.3765230307681569,497.19137374573654
3873.4678,1.3643506042964166,556.4752285368909
3874.361,1.3518423246824742,613.2598330737447
3875.2524,1.3393957072898113,634.5053231850736
3876.1438,1.3268666036298769,595.129328554835
3877.0376,1.3136079577065027,582.7293017262157
3877.9297,1.2989848888803228,752.7554400907939
3878.8237,1.2826494587495294,557.6322230835102
3879.716,1.2649616865069986,687.1572688996788
3880.6108,1.2464984845998395,571.4425447077813
3881.5037,1.2280230223493382,693.1426616377094
3882.3965,1.2099552477045221,644.3897239685272
3883.2917,1.192445867584641,613.1757383898721
3884.185,1.1755254500859682,611.8077600465759
3885.0808,1.158803724451917,797.2508870870261
3885.9746,1.1419350100957004,758.254167130439
3886.8706,1.1247212008040244,860.0811484406302
3887.765,1.1080308162909658,767.1985041976744
3888.6592,1.093789009077947,988.4999334331139
3889.556,1.0845500036996012,875.1171453139249
3890.4507,1.082377903915448,887.5319702121117
3891.348,1.0877132771464098,976.8181589181423
3892.243,1.0992611180633836,890.8495199716201
3893.1406,1.1148438168948367,862.9119819768549
3894.0361,1.132257011017889,725.0508000388853
3894.932,1.1502924828940955,760.0363196648356
3895.83,1.168724833743012,700.2806813443357
3896.7263,1.1877144986181103,782.5494506611649
3897.625,1.2074736139901707,663.852904827974
3898.5215,1.2274650336395114,699.3101634579552
3899.4207,1.2468958381736772,563.3770345807793
3900.3176,1.264840743651688,700.1853529447203
3901.2148,1.2811991925899038,622.7081119980762
3902.1145,1.296656665066305,609.7602155016067
3903.0122,1.3121521329709813,576.7855053079722
3903.912,1.3284802124903885,559.9942671829209
3904.8103,1.3456488993104068,448.972139855786
3905.7107,1.36331555776726,553.4480898467673
3906.6094,1.3808614602352867,568.9577187770466
3907.508,1.397896469808343,587.4524092063601
3908.409,1.4142103145899896,487.312437294165
3909.308,1.4296567233956952,489.22528128840884
3910.2097,1.4443738925342446,436.23742587410544
3911.1091,1.4583608953745706,457.3297550614384
3912.011,1.4715856812684718,468.8028792737603
3912.9111,1.4836481145471283,451.46569378523134
3913.8113,1.49415517265238,459.0152496715764
3914.7136,1.5028714804799703,478.21210475491125
3915.6143,1.509858443525342,465.62248402216727
3916.517,1.5156895884270132,442.7279188236679
3917.4182,1.5212558682209443,417.67346479059455
3918.3215,1.5275436090079684,483.73369398976814
3919.223,1.534983631534594,449.00863286277865
3920.1245,1.5431579442740455,435.91344229326404
3921.0286,1.5509060237750123,447.9553413850803
3921.9307,1.5569126358196383,414.352651053221
3922.835,1.560517426666908,447.7721757535884
3923.7373,1.5618631016348283,473.8629467370724
3924.642,1.5617091641590108,400.17499297340845
3925.5452,1.5609513441803053,360.4719879146783
3926.448,1.5603338463230685,398.65020260110634
3927.3535,1.5603647176665218,384.81169275610523
3928.257,1.5612486930559635,432.71836727401285
3929.1628,1.5627478276544067,421.64255783047713
3930.0667,1.5641352767234413,402.95891665593393
3930.9731,1.5644953887949478,419.5547188344472
3931.8774,1.5632102915557171,415.11720534418544
3932.782,1.5603440326154456,383.08701740331554
3933.6887,1.5565639741493955,456.3743217062179
3934.5938,1.5527002485696921,303.9951158539798
3935.501,1.5491431660448436,423.6401713207482
