wavl,flux,ivar
3566.9744,2.2568494958623373,372.6369644487695
3567.795,2.248594829283788,327.8829380323495
3568.6177,2.241626250402581,322.8408886717041
3569.4385,2.236973134714445,331.3751965947059
3570.2617,2.2351502132630623,343.6625844607107
3571.083,2.2360364172824636,281.39570840998584
3571.9065,2.2387454083057707,414.8748254748304
3572.7283,2.2417529135456746,346.3003344862129
3573.55,2.243459155216992,324.708144759023
3574.374,2.2430523957019917,352.6527123911767
3575.1963,2.2412016815004465,305.97945592577275
3576.0208,2.239755721157506,330.79211401154856
3576.8435,2.2404473134074463,313.263481835265
3577.6682,2.2435751534643003,329.3682041324214
3578.4915,2.247850340332557,286.71677269755145
3579.3145,2.2515205733025363,318.0742563568482
3580.14,2.253542915366041,303.47959040766483
3580.9636,2.253753787932227,411.1712577810105
3581.7893,2.252217809402804,344.7529185905158
3582.6133,2.2487305804414404,352.56812435076415
3583.4395,2.243110671637821,320.2128979283091
3584.264,2.2358935286964017,351.37535278480175
3585.0884,2.2283531758635458,333.4402516339292
3585.915,2.2219647486854694,335.1905002902128
3586.74,2.2177331011524415,330.237322168085
3587.5671,2.2157498770722093,347.1268351667092
3588.3923,2.215489974317357,324.3854140044775
3589.22,2.2163173604923525,328.58311088372614
3590.0457,2.2178482843354255,314.4718033361092
3590.8716,2.219748094438596,305.3772618200355
3591.6995,2.221233387393422,351.8555278997221
3592.526,2.22102011595385,354.92571416313814
3593.3542,2.21803799071379,322.8456042485513
3594.181,2.2122517488916373,339.77341499164015
3595.0098,2.204709711305672,306.50006004820114
3595.8367,2.197081770210131,302.92449189221503
3596.6638,2.190939272836727,335.7912896010812
3597.4934,2.1874649696856383,342.5692794856297
3598.3208,2.1871201627532213,372.03497536807225
3599.1506,2.1893438547445445,346.0412222769869
3599.9788,2.192828213948508,308.1377407429234
3600.8088,2.1963035128564234,333.0429194589538
3601.6372,2.199096835403674,352.7725187446021
3602.4678,2.2011419789050612,335.62702332274824
3603.2964,2.2024781584142947,321.17754785345505
3604.1252,2.203003129321913,378.08008553544977
3604.9565,2.2025543790361044,341.73996767995146
3605.786,2.201207453986008,368.46175165440434
3606.6172,2.1993930407599285,356.4932749327213
3607.447,2.1977149794582242,336.9105875722182
3608.2788,2.1964988889860413,357.3082513580563
3609.109,2.1954925676925905,311.1479832965167
3609.9392,2.1939203290893015,368.1603769759023
3610.7717,2.190950115354803,331.52452937451943
3611.6023,2.1862797006953048,279.6825848830759
3612.435,2.180365643001513,379.72413260575775
3613.266,2.1743447942421272,333.27843407129836
3614.0994,2.169403946195706,374.3386642900683
3614.9307,2.1662854546232486,393.5193881964635
3615.7625,2.1648689340037,408.8878563811777
3616.5962,2.164368119573808,452.1057639225594
3617.4282,2.163888984148555,391.93971254865016
3618.2625,2.1630462181888594,401.09798237304216
3619.0947,2.1620808762361317,372.03595557871995
3619.9292,2.1612947439274897,327.2245080787434
3620.762,2.160502570218648,392.15171705984324
3621.595,2.1591771396226163,398.7285970660955
3622.4302,2.157156082451091,384.03199215244894
3623.2634,2.1550114719899387,370.6285692283486
3624.0989,2.153580390532262,358.8486502610842
3624.9326,2.1533220760962988,302.109454303484
3625.7686,2.154073464474227,447.0757651897913
3626.6028,2.155346360279131,351.69269123688093
3627.437,2.156739023843636,374.04706263284766
3628.2734,2.1581143712282924,400.35772819215083
3629.1082,2.1594234077646455,331.4592477386637
3629.945,2.160353770653464,323.36992557720407
3630.78,2.1601170108818843,310.5395544262409
3631.6174,2.157766604553611,370.2119036432171
3632.453,2.1528622977686935,390.8818933548921
3633.2883,2.14590294000632,357.2057047063944
3634.1262,2.1382180329949483,409.34243360358107
3634.9622,2.1314296791925122,355.29883837717875
3635.8005,2.126521365472646,365.9884608769176
3636.637,2.1235220944458426,328.69386172506063
3637.4756,2.1216958662318555,366.5911930018623
3638.3123,2.1204321753381823,310.19819969750944
3639.1492,2.11975481728552,393.563998939222
3639.9885,2.120082118690935,421.4100908030398
3640.826,2.1215657273900774,346.32877168820795
3641.6653,2.1238554299529904,344.14461770897486
3642.5032,2.1263000209232326,400.6126878056161
3643.343,2.1281106262492346,383.97362465630397
3644.1812,2.1282879800962164,392.5211322918701
3645.0195,2.125976291907912,401.8845942224105
3645.86,2.121207012842583,356.53735482868467
3646.699,2.1153869929150497,386.6797584904866
3647.5398,2.1106194348712575,428.8148960443523
3648.379,2.108511346650261,336.56736326053453
3649.2202,2.1091555714948345,377.9129531073708
3650.0596,2.1111589993324507,370.3014691760491
3650.8994,2.1124771065099894,382.49289981127396
3651.7412,2.1115597062171356,365.9979892819952
3652.5813,2.108222992489118,375.1751537977874
3653.4236,2.103679282626758,325.45354826814025
3654.2642,2.099780975427003,349.6187094596962
3655.1067,2.0978329324077927,365.24419990484404
3655.9475,2.097996210239124,349.2955779144676
3656.7886,2.0994384682784153,412.4304189203151
3657.6318,2.10106401280554,357.3192630108996
3658.4734,2.102107739828339,375.4043936938448
3659.317,2.1023461226955127,357.95115655338805
3660.1587,2.1018984062036816,415.8975900852215
3661.003,2.1009524818303484,398.6042242328259
3661.845,2.09965376552711,385.5219961139287
3662.6875,2.0981987109021576,371.67741808437603
3663.532,2.0969832458977256,373.80527111716475
3664.3748,2.0964880902794376,387.2301692380042
3665.2197,2.096887776950757,388.4164839206023
3666.063,2.097823732679213,401.61053015376086
3666.9084,2.0986405984505048,399.75327790540877
3667.752,2.0988361340756483,400.7743880926215
3668.5977,2.0982353839287704,455.34179799438226
3669.4417,2.0967707857577897,378.8033448995187
3670.286,2.0943275539404733,419.88426329302496
3671.132,2.0909252801594747,398.03627211275017
3671.9768,2.08693755276667,341.3069291039459
3672.8235,2.082839772867293,379.4716009774246
3673.6685,2.078866146472119,417.1657064919615
3674.5156,2.0748981326931952,373.96075692515217
3675.3608,2.070989845953018,408.0918808750882
3676.2063,2.067670973356549,380.41399290939387
3677.0542,2.065699115456907,405.42029194759573
3677.9,2.065339779167261,352.0735604034969
3678.748,2.06597707677431,397.7460095528366
3679.5945,2.066563394569809,407.0213659320258
3680.4429,2.06638162185842,352.2809660349961
3681.2896,2.065367160329516,385.0469881750274
3682.1365,2.063822202262762,413.41201521857084
3682.9856,2.0620272346956585,338.271468639026
3683.8328,2.060234465515964,359.58322381699173
3684.6824,2.0588105607203597,383.7308652455713
3685.53,2.0581922005679365,386.9597823071968
3686.38,2.0585304019164243,349.45411155131825
3687.2278,2.059577588846828,388.2863945426245
3688.0762,2.060968149577639,435.63018838726805
3688.9265,2.062528312072537,432.5213682492206
3689.7751,2.0642237450928502,416.2312511039629
3690.626,2.0658860084268924,403.2123048044665
3691.475,2.066997735121549,382.301473174872
3692.3264,2.0668644029152246,362.78221746619323
3693.1758,2.0649935329089613,362.89768257934827
3694.0254,2.0614286025243422,393.72511627524597
3694.8772,2.0567281509031785,377.12527819192445
3695.7273,2.0516873496221715,458.4299612339662
3696.5793,2.0469220840191644,378.1748522234151
3697.43,2.0428734938605015,394.803080632741
3698.2825,2.039909011069683,371.34735781333046
3699.1333,2.0385401272267476,406.26667561936716
3699.9841,2.039241772223571,412.5733744901508
3700.8374,2.0420576453925876,367.78093677898244
3701.6887,2.0461442855675367,352.3456747791355
3702.5425,2.0499131419902143,435.2752241894838
3703.3943,2.051721751278679,387.6237587131669
3704.2483,2.05089310652049,377.2684407359177
3705.1003,2.048063402126711,400.62291303812583
3705.9526,2.0446422743185217,426.4894552957484
3706.8074,2.0418347107884713,339.14595017139106
3707.66,2.040012541125998,402.3719077611474
3708.515,2.038673805679858,379.20540353092326
3709.3682,2.036952632121699,409.7741012890055
3710.2234,2.034121077602071,382.57773020469176
3711.0771,2.0299652280387512,402.43889357407346
3711.9307,2.0247900039984468,388.3272009684205
3712.7866,2.019214602414518,409.7341838734305
3713.6409,2.0139990903855454,476.4113688899555
3714.4973,2.009849557575843,379.8977959494155
3715.3518,2.007489040932441,414.0445726426693
3716.2085,2.007455260663955,453.04747713039177
3717.0635,2.0098211495933884,413.49685249454876
3717.9185,2.0139006478796233,376.19797992683914
3718.776,2.018407696361641,375.4609643716399
3719.6313,2.022029050663557,374.0229982414913
3720.489,2.0241467673590554,422.9262553023494
3721.345,2.024814027487103,454.02542203360156
3722.2031,2.024206911842434,394.77915016068704
3723.0593,2.0220998338126526,378.3835202611701
3723.9158,2.0180543193439577,444.21549105750285
3724.7747,2.0120887581872915,442.8822102699807
3725.6316,2.005158377762379,360.9750136786081
3726.4905,1.9987610628119685,440.0558322814444
3727.348,1.9943205900434624,396.43897628063775
3728.2073,1.9924527328505262,453.85574286644925
3729.065,1.9927871087450897,359.3870640219605
3729.9229,1.9941302874665605,397.45758340088724
3730.783,1.9950444908672886,373.71935266464044
3731.6414,1.9945338708851499,392.91543831430823
3732.5017,1.9925182058456292,391.34297442705025
3733.3604,1.989745406709813,384.2529113550472
3734.2214,1.9871824209000748,452.08032185782344
3735.0803,1.985460553704313,465.5877645110573
3735.9417,1.984637915947269,420.56677691035867
3736.8013,1.9845001345019384,436.80275148753367
3737.661,1.9849507628104794,406.0143770158751
3738.5227,1.9862003203467258,432.0093080769453
3739.3828,1.9885190263730015,396.66418345512466
3740.245,1.9918170237521022,446.4342351811323
3741.1055,1.9953802553316518,383.03737205130426
3741.9683,1.9982081371858114,401.0766188007134
3742.829,1.9995572663237515,430.47517894639014
3743.69,1.9994327290875153,381.9475916494427
3744.5532,1.9984682398770715,393.0120507001813
3745.4148,1.99742522531603,457.95762321773964
3746.2786,1.9966237297210971,458.8431586060692
3747.1404,1.9957773162220291,376.5159720048339
3748.0044,1.9942734634769892,442.4818049928233
3748.8667,1.9917407773105895,457.0641610269358
3749.729,1.9884416091931931,414.2847592531724
3750.5938,1.9852607750030855,412.2613303830522
3751.4565,1.9832556727231039,457.8249517097454
3752.3215,1.9829493251554327,409.57840490461626
3753.1848,1.9840317276438801,457.56968699450505
3754.0503,1.9855903520924763,470.2626791247348
3754.9138,1.9866682864347254,428.85247459474067
3755.7776,1.9867434056746214,395.429546336542
3756.6438,1.9858392014207384,438.53462120981476
3757.508,1.9843752692268184,380.28140716829006
3758.3745,1.9828091704053588,443.9522581620862
3759.239,1.981357456396591,422.9185719136797
3760.106,1.9799352017249894,451.16270096428593
3760.971,1.9784099035205192,464.72810759914876
3761.8362,1.9767642911853744,450.5887507073735
3762.7036,1.9750591826524126,398.09040292673666
3763.5693,1.9733071743885457,420.74820389014906
3764.437,1.9714461079781442,435.0647479381594
3765.3032,1.9694817190712277,396.74498751162935
3766.1714,1.96749189587591,401.3106239779479
3767.0378,1.9655838609079466,433.43719813721515
3767.9043,1.9638527995758597,481.2720057145231
3768.7732,1.962498296836624,428.20068205813607
3769.6401,1.961824581533068,435.48836535375693
3770.5095,1.9618980316552903,465.3145223229932
3771.377,1.9621761315403572,483.3827035854011
3772.2466,1.9615844167354712,410.9617803389466
3773.1145,1.9591941617982234,434.53861277026834
3773.9824,1.9549425382643666,383.0944354367795
3774.8528,1.9497856762015107,421.3190743031754
3775.721,1.9453353824602102,472.5842916666345
3776.5918,1.9431490705827412,496.19282436273505
3777.4604,1.944234250999587,516.7100085057795
3778.3315,1.948530773978206,468.02136183832977
3779.201,1.9547471641528018,412.3741417907969
3780.0703,1.9609219100951718,426.14668600618666
3780.942,1.9654032663458303,429.21177779182767
3781.8118,1.9675898183753873,365.94289778282706
3782.6838,1.968011214623771,460.2231871896188
3783.554,1.967670251565495,376.03549154231723
3784.4265,1.9673476229415072,455.8070705466006
3785.297,1.967195978958732,476.5959985091941
3786.168,1.966748607659214,382.39604064997485
3787.041,1.9652567585250706,426.903561914061
3787.912,1.9621685166697056,407.6881487541727
3788.7856,1.9574334881001412,418.429395903299
3789.6572,1.951614876050249,417.7552613457058
3790.531,1.9455744531999897,428.4164816734716
3791.403,1.9402261784534327,461.4910148984266
3792.2754,1.9361605149999168,423.9398282682097
3793.15,1.9335719191430856,454.9076977267658
3794.0225,1.932277532279341,482.57427856658387
3794.8972,1.9317685458452623,438.4588111321658
3795.7703,1.931391173417913,467.4370333560534
3796.6455,1.9305423444939847,448.6723301982974
3797.519,1.9288682370805206,422.4269750150209
3798.3926,1.9263083278521542,497.73415885947554
3799.2686,1.9230498304910904,408.2316832318878
3800.1426,1.9195494874344659,431.41717167839425
3801.0188,1.9164481591408566,402.9935166919513
3801.8933,1.9144312395745668,457.1370212469876
3802.77,1.913889768434732,434.91214272944757
3803.6448,1.9148649800878466,409.145742151749
3804.522,1.9171892592884574,526.5267753928634
3805.3972,1.920554324514088,522.6262793131981
3806.2727,1.9244665799655567,414.08741609051515
3807.1504,1.9282370977596432,403.65662358166765
3808.0261,1.9311694196096243,490.53981103498
3808.9043,1.9328834713080387,411.0101432625207
3809.7805,1.9333942335992056,472.31766324742966
3810.659,1.9331026712328534,429.63765804210925
3811.5356,1.9325637319082716,474.0930801881853
3812.4126,1.9322026223221163,444.3493108192511
3813.2917,1.9322143813405175,423.36518987609327
3814.169,1.9327300091746853,467.87380825436827
3815.0483,1.9339868825916722,460.28845282994064
3815.926,1.9361928817115386,472.0307232950494
3816.806,1.9392429419438537,430.5179581554414
3817.684,1.9425271474662569,472.0803800887666
3818.5623,1.9450843353274272,484.9416541079575
3819.4429,1.9458271566744187,429.1873488990064
3820.3215,1.9438702948874238,424.12111225183605
3821.2024,1.9389483785577857,421.96465641290223
3822.0815,1.9317701566494532,464.4323372652396
3822.963,1.9238040061210149,446.6187168118777
3823.8423,1.9167112199199539,518.4929876513663
3824.722,1.9113813841964165,476.5713206638329
3825.604,1.9075953726299177,472.186596914743
3826.4841,1.904318511173132,476.4547444418933
3827.3665,1.9003357268803711,437.9225953854036
3828.2468,1.8949273872167498,451.3835497770412
3829.1296,1.887992274464074,440.0597276760999
3830.0105,1.8800430875282506,486.419209971233
3830.8916,1.8718364855658824,490.0244277981597
3831.7751,1.8641296592871563,523.8091822434683
3832.6565,1.8575166696897274,478.88998080983913
3833.5403,1.852270384925352,450.8203259547354
3834.4224,1.8486381004915877,482.76097855513314
3835.3064,1.8468466428381574,510.4066513475447
3836.1887,1.8470169733710364,646.6762185321636
3837.0713,1.848866958490538,446.6718242124023
3837.956,1.8517032151501334,486.5237874522667
3838.839,1.8547188140685706,488.9349882558197
3839.7244,1.8574975032684244,582.6816713188676
3840.6077,1.860219721674641,485.80288716319814
3841.4932,1.8636383114182589,448.04679174523693
3842.377,1.8686647847332303,520.0415122712856
3843.261,1.8758762572364192,451.61494717561357
3844.1472,1.8849686591574708,510.4678404731516
3845.0315,1.894495601734262,473.66518792868607
3845.9182,1.902531587167282,445.48636705537183
3846.803,1.9075819222421049,447.5667187960547
3847.69,1.909670317303985,465.0905790984215
3848.5752,1.9103083771482199,408.63674060804107
3849.4604,1.911638675018938,462.7096230503527
3850.3481,1.9152436027022552,418.5160401426624
3851.234,1.9214634615428285,491.90935716964015
3852.122,1.92961518082359,461.087536319333
3853.0083,1.9384519624122998,433.0597516059827
3853.8967,1.9468370559811972,489.1428617899111
3854.7832,1.9538639318068896,443.1151194338659
3855.6702,1.959058158947399,442.347633194463
3856.559,1.9622478334225468,409.9492488580531
3857.4463,1.963522620516887,452.60193918794846
3858.336,1.9633119154462113,460.13642263000384
3859.2234,1.962442155780756,436.1393166416926
3860.1135,1.9620050168759138,458.66125406118067
3861.0015,1.9628516210026474,450.7474197544618
3861.8896,1.9649486954951423,437.0214777865104
3862.7803,1.9672071536415185,398.1200289155549
3863.6687,1.9680513775464716,401.39329102062493
3864.5598,1.9664788911754754,419.4361944783998
3865.4487,1.9626691729293084,402.83159782734543
3866.34,1.9576142082441756,405.6078468160366
3867.2297,1.9522568010005616,429.73258997494315
3868.1213,1.9467967297631183,400.84914711171325
3869.0112,1.9409457449479122,451.44086985061625
3869.9014,1.9343786481643974,459.0274239922013
3870.7937,1.9270087156239804,427.428404083988
3871.684,1.9189312029757997,438.0247310101848
3872.577,1.9101944812835114,472.7781707487826
3873.4678,1.9010160755914278,487.5918136335511
3874.361,1.8916137969809885,425.53278311066987
3875.2524,1.8821829756959199,490.8379317506481
3876.1438,1.8725221051716714,392.9010937636989
3877.0376,1.8621204145280001,481.5191241307693
3877.9297,1.8505543111078642,468.147119323579
3878.8237,1.8376890288931427,484.07932082514145
3879.716,1.824020907852653,500.5844263691228
3880.6108,1.810271875174346,510.1455943106716
3881.5037,1.7972534451051547,572.7169530856677
3882.3965,1.785303457783348,548.9948814325144
3883.2917,1.7742124974300129,527.9949675898914
3884.185,1.7633353632058384,548.100033988795
3885.0808,1.7516889146137091,528.6015349840268
3885.9746,1.738677063602238,532.4282177180642
3886.8706,1.7242725288291498,583.9525871321828
3887.765,1.709323075325197,553.3052761505876
3888.6592,1.6951575108608865,528.993397334025
3889.556,1.683489445413544,595.4465355798612
3890.4507,1.6762707785101911,641.8136834202126
3891.348,1.6749727777795884,595.1674681478845
3892.243,1.6799908536966188,596.1412028081413
3893.1406,1.6903360401722098,597.5452684420749
3894.0361,1.704087544806214,489.9219766755498
3894.932,1.7195963964003393,510.1698093922001
3895.83,1.736084041242485,560.5752588548683
3896.7263,1.7533312848522116,482.5326976587528
3897.625,1.7713310874669252,525.6081992805865
3898.5215,1.7895233214230677,535.2912126489925
3899.4207,1.8072315684512668,481.44585096026765
3900.3176,1.8236325694422928,498.9350833751735
3901.2148,1.8384128178168537,470.5257303311058
3902.1145,1.8517373887978739,513.9753337447827
3903.0122,1.8641132923516093,474.7293220263973
3903.912,1.8763987469824437,455.9250955732958
3904.8103,1.8892635947795038,417.14829061535914
3905.7107,1.9031175997425094,401.5770429214496
3906.6094,1.9177429274058837,451.44659300988593
3907.508,1.932638956678933,424.9015595992697
3908.409,1.9473053786617371,453.4703037563176
3909.308,1.961406136709358,422.2809315032953
3910.2097,1.9749373455269361,475.68443449287344
3911.1091,1.9876904652462277,412.3931285898197
3912.011,1.9994110495400577,401.51256139613537
3912.9111,2.0097559266155534,406.9921745833337
3913.8113,2.0187484901254713,399.59460340623815
3914.7136,2.0266618802138385,422.40525374062787
3915.6143,2.0336698183816124,435.34306744315853
3916.517,2.0396823336078356,385.09387472282225
3917.4182,2.044191513108766,347.84288287828144
3918.3215,2.046619494978838,404.05398172274766
3919.223,2.0466971438325334,374.3140032200842
3920.1245,2.044961926703255,400.36095603236265
3921.0286,2.042816345650005,385.8975907668134
3921.9307,2.0420205801280704,415.0631701631739
3922.835,2.0437398450738145,406.5626724735084
3923.7373,2.047943040082068,352.53557421074396
3924.642,2.0536175576262163,413.28756797048305
3925.5452,2.0593696849510015,411.78235238409536
3926.448,2.064018922971631,399.44756087379227
3927.3535,2.0667019953539234,353.6198988671181
3928.257,2.066919903842127,380.432130014797
3929.1628,2.064761693191689,380.5158131783666
3930.0667,2.0609081457660827,380.8644017332768
3930.9731,2.0561715341689095,384.6414585392199
3931.8774,2.0510133852474226,429.1219793847377
3932.782,2.0453860566919913,385.2280808595987
3933.6887,2.039255875192956,394.04201839571664
3934.5938,2.0330628347480486,463.4170635511199
3935.501,2.0274206536113994,390.4234793794068
