wavl,flux,ivar
3566.9744,1.5849014422081424,443.3299995823176
3567.795,1.583971973648863,618.8407953249719
3568.6177,1.5787374246761392,462.9407473505736
3569.4385,1.5714167174881946,521.9978991865692
3570.2617,1.5643331848716395,427.88616184680575
3571.083,1.5593333251061279,456.0731387709323
3571.9065,1.5572232580193444,387.54282941424674
3572.7283,1.5577254561828127,461.3707206807268
3573.55,1.5596323356164317,389.43759938727914
3574.374,1.5613289347962693,484.22184462722174
3575.1963,1.5613765492395177,473.31845373719324
3576.0208,1.5590769995398333,358.95078981869597
3576.8435,1.554745744192606,517.9736856390571
3577.6682,1.5494591512503575,419.7994557994037
3578.4915,1.5444524967652893,356.75167126448537
3579.3145,1.5403406356809404,377.62229006383996
3580.14,1.5369124299792665,392.1027027232771
3580.9636,1.533549818329843,392.0894034852725
3581.7893,1.5298215408266347,462.227634495055
3582.6133,1.5259577298435651,443.58392491072044
3583.4395,1.5227427843058963,497.3754647483244
3584.264,1.5212649869614105,515.1190474498418
3585.0884,1.5224868786254362,409.11927651515833
3585.915,1.5269085689702548,368.57145420534664
3586.74,1.534165850461853,457.18937421041227
3587.5671,1.5429907049675873,474.8719294218741
3588.3923,1.5513066407662826,404.8273436739632
3589.22,1.5569171697163724,462.4679283561582
3590.0457,1.558098526771499,342.0798049108077
3590.8716,1.5544627578777956,418.98399044242205
3591.6995,1.5472033023162617,461.45073409083767
3592.526,1.538763968536731,518.5561208466343
3593.3542,1.5316944492400022,408.2090109359747
3594.181,1.5277087301143035,367.70681989468443
3595.0098,1.5270654576355427,429.1741538555223
3595.8367,1.5288185762024815,561.9903956564906
3596.6638,1.5314360951995925,465.752349608619
3597.4934,1.5334950209046618,454.91939063499467
3598.3208,1.5340675553851366,454.87114790324006
3599.1506,1.532881768102941,404.20871414585747
3599.9788,1.530260944379913,596.281754800129
3600.8088,1.5268490552241316,445.8305530133577
3601.6372,1.5231645624657197,622.031431754031
3602.4678,1.5191946563291059,405.21551553244495
3603.2964,1.5147715962121227,530.5623973057429
3604.1252,1.5103706554712966,468.7412773979854
3604.9565,1.5076608830743201,537.6059418792524
3605.786,1.5088811245000058,454.29950463445965
3606.6172,1.5152832164768573,516.230719970275
3607.447,1.5258604857105504,612.065462452508
3608.2788,1.5374762436138243,462.0145631246368
3609.109,1.5461714219444922,438.59007263856483
3609.9392,1.5493816883398128,356.32704308213914
3610.7717,1.5470901565461985,526.3176614066872
3611.6023,1.5414327416473816,473.2061646456556
3612.435,1.5348487936137292,385.5604206205534
3613.266,1.5286512802402525,491.2599530842412
3614.0994,1.5228678894001542,420.30570809096514
3614.9307,1.5173399934259637,515.2329815960848
3615.7625,1.5122927737581682,420.0731746509466
3616.5962,1.5081707604146066,538.4885357531989
3617.4282,1.5051454676693792,456.0896164374732
3618.2625,1.5030010007955967,489.5270809179774
3619.0947,1.5015011420496032,467.30589047464116
3619.9292,1.5004900985892966,499.1056539640811
3620.762,1.4997749217871952,500.79129062420753
3621.595,1.4990256044779646,466.1091639228173
3622.4302,1.4979835574819291,506.4045554613277
3623.2634,1.4966645791113096,444.289334491511
3624.0989,1.4951667561915325,544.5385603439976
3624.9326,1.4933067624825203,543.8910851630028
3625.7686,1.4905434796083703,506.3057914433198
3626.6028,1.4865411312811654,586.5040214006991
3627.437,1.4817111870199087,449.1465205491363
3628.2734,1.4771613420529675,545.0082502641344
3629.1082,1.473969401641964,633.548188818187
3629.945,1.472270140382252,547.17660543928
3630.78,1.4710630005821963,435.34044632292677
3631.6174,1.4687024297962274,507.9447260098364
3632.453,1.4639502156826067,506.3302805797996
3633.2883,1.4567994447195949,406.77122847062117
3634.1262,1.4485448400523209,486.46907329843174
3634.9622,1.441069244145268,566.2671245044393
3635.8005,1.4356423205367155,445.7137342517954
3636.637,1.4325543011831212,515.6560859714596
3637.4756,1.4311875697418264,501.0050512648637
3638.3123,1.4304970622374145,487.86984930265123
3639.1492,1.4293054665448122,552.0774439055986
3639.9885,1.4266685407829083,572.3649879767555
3640.826,1.4223462742894408,483.0356781167671
3641.6653,1.4169532526840611,550.0699097521394
3642.5032,1.411692193596524,527.067015584613
3643.343,1.4076139536808254,635.8550782438572
3644.1812,1.4052416305570596,509.6965187515033
3645.0195,1.4045410492003783,474.67277966311843
3645.86,1.405268298227822,591.2531766760798
3646.699,1.4071215017021488,571.6994576835152
3647.5398,1.4096550380350115,539.9066378274775
3648.379,1.4121180416732058,518.5716482006665
3649.2202,1.4136589914428768,481.30579817599744
3650.0596,1.4137479193757312,545.0300348708391
3650.8994,1.412546948160818,513.2037006110687
3651.7412,1.4107303728713603,491.2091115630025
3652.5813,1.4089156706948995,506.1616175135109
3653.4236,1.407102686501046,606.9070771415571
3654.2642,1.4047357071296795,556.5418260346971
3655.1067,1.401295610244483,564.7658102426527
3655.9475,1.3970292312049857,629.0238002946901
3656.7886,1.3929495547465813,622.6888799709175
3657.6318,1.3901891451652848,737.7906670680144
3658.4734,1.3892918495825564,478.3599973494061
3659.317,1.390087620725504,584.6625966528987
3660.1587,1.3921815995404507,524.8873351643333
3661.003,1.3953238928922889,595.0542674045132
3661.845,1.3992213014949364,518.9255123279208
3662.6875,1.4032491851588085,473.33019262948926
3663.532,1.4064254695158624,592.6378408910359
3664.3748,1.4078804976027832,582.506108978725
3665.2197,1.4074442781360337,528.337892946439
3666.063,1.4057526844350168,485.86608770868656
3666.9084,1.4038727106020077,431.40525897494393
3667.752,1.4027883014500122,597.6828647514201
3668.5977,1.4030424452365682,613.4157304749976
3669.4417,1.4046868334565643,526.8415409557388
3670.286,1.4073208449388537,555.0803539204131
3671.132,1.410165989615478,531.3850405951189
3671.9768,1.4122541980453271,546.2520317085069
3672.8235,1.4129205924394181,542.8321226158588
3673.6685,1.4122344448548882,522.5561277755829
3674.5156,1.4109716265277135,529.5546486057583
3675.3608,1.4099554468852595,654.2679352104312
3676.2063,1.4093541119974122,457.9650475650338
3677.0542,1.4086954150350774,550.552698857853
3677.9,1.4074724262775709,465.26273846141686
3678.748,1.4055850111661776,583.034919750376
3679.5945,1.4032624376785532,480.94595829366733
3680.4429,1.4006978881397047,552.9445506279087
3681.2896,1.398012867246749,499.4606705926334
3682.1365,1.3954198317975528,659.3940777319882
3682.9856,1.393381658874954,541.9307156574596
3683.8328,1.3924936152380765,601.2897879280002
3684.6824,1.3931552278095662,604.6629946719695
3685.53,1.395345576075424,482.7192681479402
3686.38,1.398588665214273,545.1798256560322
3687.2278,1.4020454588030244,700.0525268934111
3688.0762,1.4048217243981975,596.0949516927656
3688.9265,1.4062691108830887,650.4241354041047
3689.7751,1.406265345253632,587.5698157561204
3690.626,1.4052639775409748,432.12331879523913
3691.475,1.404044444187605,484.8904150704854
3692.3264,1.4033059075971435,519.6708409002232
3693.1758,1.403322105772597,520.0026355552008
3694.0254,1.4037839800378487,582.8646523231115
3694.8772,1.4040160780889792,491.6133856779724
3695.7273,1.403442569591869,491.38010586617776
3696.5793,1.4019632073042985,488.4718919507514
3697.43,1.3999507019325341,595.0144194561337
3698.2825,1.397923609762239,538.8715222798286
3699.1333,1.3962777651048086,443.33154531192696
3699.9841,1.3951247017833435,526.7711563674027
3700.8374,1.3943136100690856,492.5015406987726
3701.6887,1.3935281288131638,494.4446124670351
3702.5425,1.392408957385596,545.8292774483372
3703.3943,1.3907085814124227,574.2787903415435
3704.2483,1.3883785898143366,509.56556745550876
3705.1003,1.3856537242133835,541.1065935490134
3705.9526,1.3828970796570723,577.5960108694047
3706.8074,1.3803238526018273,494.40642357994227
3707.66,1.3777802312137493,579.530610011644
3708.515,1.3747626394806705,591.5102715763398
3709.3682,1.370841272676855,553.4364898774783
3710.2234,1.365959839406339,617.7751674090596
3711.0771,1.3605711054174598,518.2804105580741
3711.9307,1.3553606217566305,518.7598978160106
3712.7866,1.3510274025987792,540.652403549226
3713.6409,1.348214045954354,704.5829124616654
3714.4973,1.3473144457878683,620.0165700248488
3715.3518,1.3482921257562004,591.8728879200756
3716.2085,1.3505562741118953,582.0013424903984
3717.0635,1.353181524150156,594.2719787682436
3717.9185,1.355301094741678,561.2200589162621
3718.776,1.3562462467843257,509.0599830335959
3719.6313,1.355554431348754,637.8193328287174
3720.489,1.3531388761812706,620.1217049368851
3721.345,1.3495070899047734,527.2283475213867
3722.2031,1.3455700081380213,610.7509164845079
3723.0593,1.3421859070170543,602.9978755285566
3723.9158,1.3397434533094426,531.9950181419563
3724.7747,1.3382985257309254,595.9176690541774
3725.6316,1.3377984046002107,559.9015149576619
3726.4905,1.3380390787133951,555.1465825124837
3727.348,1.3385568535262795,600.456893103032
3728.2073,1.3387530976571227,486.21424873780904
3729.065,1.338236426227737,612.7836044671909
3729.9229,1.33704539346228,609.0726694038032
3730.783,1.335563607213466,583.5578772287961
3731.6414,1.3342889709464296,573.1172325230243
3732.5017,1.3335735338707002,625.9164614042189
3733.3604,1.3334851649590747,613.6301055691774
3734.2214,1.3337700243752801,575.195822693516
3735.0803,1.3340238443027146,602.1863955903339
3735.9417,1.334015759231362,571.1713564526215
3736.8013,1.3339154571898901,631.736129311171
3737.661,1.3341582313321023,648.63631277002
3738.5227,1.3349823008435038,537.5986504242342
3739.3828,1.3360431542708266,516.9122809997385
3740.245,1.33653643609153,559.8514578350959
3741.1055,1.3357380503941623,564.108710548014
3741.9683,1.3335368788788546,564.4767484688955
3742.829,1.330536450672901,562.7700292419485
3743.69,1.3276121546634427,724.1390696017031
3744.5532,1.325356026104048,636.822402713481
3745.4148,1.3238176576067482,634.383260723868
3746.2786,1.3226738810105232,582.0685057123105
3747.1404,1.3217248196646143,688.5573608921962
3748.0044,1.3211422366429777,617.045441794153
3748.8667,1.3213209200029412,756.1608334207939
3749.729,1.3224262162944815,661.4967046457969
3750.5938,1.3240894470421696,672.6901756321433
3751.4565,1.3254986680833392,556.9757985479944
3752.3215,1.3259097685723569,564.930311451497
3753.1848,1.3250587101006763,559.7897259908674
3754.0503,1.323182702349195,708.2057019045667
3754.9138,1.3207483015500736,697.271890908839
3755.7776,1.318233378564359,500.05178951553677
3756.6438,1.3161482365372628,685.922493700217
3757.508,1.3150285153381223,674.4323929257007
3758.3745,1.315243595086241,539.6565346772837
3759.239,1.3168817341858854,570.8616034835426
3760.106,1.3197485168926937,647.6095440910544
3760.971,1.3233340647025458,575.2342329411039
3761.8362,1.326807570327117,734.7904621352147
3762.7036,1.3290789472419053,609.522673369915
3763.5693,1.3291894121964292,531.8844737421656
3764.437,1.3269122494188967,524.778024908784
3765.3032,1.323037531717594,643.9156864628961
3766.1714,1.3190076000626707,613.547402885622
3767.0378,1.3161533173269286,600.2517758766064
3767.9043,1.3149131962374117,580.7171773951369
3768.7732,1.3147434263586755,646.014852506852
3769.6401,1.3146289646078082,572.6773292774955
3770.5095,1.313837917668417,559.8888725910912
3771.377,1.3123815877542861,585.9683569476488
3772.2466,1.3108816948355329,851.8235432973664
3773.1145,1.3100957001907967,673.210290680468
3773.9824,1.3104171980355446,637.4675233259554
3774.8528,1.3116910472365269,692.6063490939551
3775.721,1.313299145339618,573.3425723915041
3776.5918,1.3145410692177997,686.7976386264256
3777.4604,1.3150780866647276,667.7866875880652
3778.3315,1.3152677836192046,632.9946104734076
3779.201,1.316011298813287,656.607312991815
3780.0703,1.3181806809677838,656.6626767906115
3780.942,1.3220319183470588,619.404298303183
3781.8118,1.3270468539188978,540.9240938521062
3782.6838,1.3324662368239408,640.5359215094927
3783.554,1.3379249394999746,529.3635945676186
3784.4265,1.3441891173130136,647.4407571102039
3785.297,1.3534407660853909,477.55305937519176
3786.168,1.3690210044418554,653.9855058112903
3787.041,1.3933125916830822,613.949968490444
3787.912,1.4237864908704523,552.0034595228307
3788.7856,1.451293512409251,573.7228813356409
3789.6572,1.4630136648975676,688.1868318404116
3790.531,1.4512056417370849,593.6977866909511
3791.403,1.4191861174001772,696.3425289837357
3792.2754,1.379040023016245,683.3873368600557
3793.15,1.3431167924328873,649.2746216926764
3794.0225,1.3174854778151457,550.30801627805
3794.8972,1.3010242325617067,616.9356117830902
3795.7703,1.2899770542953901,639.5755672617579
3796.6455,1.2813660590582665,635.7587055545393
3797.519,1.2743668945579394,704.0958196864307
3798.3926,1.2694152565249475,713.3826813835124
3799.2686,1.2671245732771246,603.3361033531565
3800.1426,1.267556737098559,691.7079167084819
3801.0188,1.2701075254214294,541.6448796362874
3801.8933,1.2738944148978815,735.5357836947234
3802.77,1.2782057160971936,589.1468855807152
3803.6448,1.282543979492812,676.0011989699966
3804.522,1.286576697933159,698.0794174333539
3805.3972,1.290001329335689,625.0543896518557
3806.2727,1.2927472355384826,582.5643294935081
3807.1504,1.2950647923756107,500.9658155236113
3808.0261,1.29743471336125,634.3574371520301
3808.9043,1.3003548348039322,767.7351164101322
3809.7805,1.3040807555446934,657.7801885597864
3810.659,1.308641260138831,550.5189799994104
3811.5356,1.3138107961718826,680.7337434551525
3812.4126,1.3192282954154193,566.2054052624279
3813.2917,1.324434248438345,531.2161121168788
3814.169,1.328889546514909,526.9668858425255
3815.0483,1.332066216470149,524.4935245329433
3815.926,1.333426936411841,646.5228169717637
3816.806,1.3326920005337388,481.32935215935845
3817.684,1.3300432181220223,573.8370840051548
3818.5623,1.3260870648901066,516.2201965005418
3819.4429,1.3215260260401558,685.4436061447783
3820.3215,1.316889281898925,637.1263255523086
3821.2024,1.3123394734817981,591.0947549126086
3822.0815,1.3077985774873238,709.0943128094531
3822.963,1.3029357140065996,566.5033470471342
3823.8423,1.297361690169228,657.454372450665
3824.722,1.290739690548758,638.7496118601613
3825.604,1.2829702417080777,688.0138676480136
3826.4841,1.2742187719810107,705.044680965836
3827.3665,1.2645353354130169,607.1866098655729
3828.2468,1.2538037324052467,648.3641859697875
3829.1296,1.2416003771181616,665.0455835426792
3830.0105,1.2277634682849956,727.1547381023746
3830.8916,1.2126504047395432,621.741575253689
3831.7751,1.1974328878319043,717.0494595399718
3832.6565,1.1839021397532716,852.2427034901042
3833.5403,1.1734488547990443,818.1201104750401
3834.4224,1.1666909611030551,875.2376628641583
3835.3064,1.1632409190420188,799.3392205109476
3836.1887,1.162329710714201,790.55718314138
3837.0713,1.163271397353082,881.6158071298346
3837.956,1.165735611393407,774.5365395977158
3838.839,1.1697336854062732,593.8944045701272
3839.7244,1.1756663928168312,746.687497029453
3840.6077,1.1842021984614046,718.70786931155
3841.4932,1.1961413048584222,679.7487235652517
3842.377,1.21173406988508,802.479429330893
3843.261,1.2302906149031199,718.5688497538997
3844.1472,1.2499820537484239,732.3323847584359
3845.0315,1.2682764632739676,583.3561765893273
3845.9182,1.2833636934225383,703.9941762100891
3846.803,1.2946788548632784,598.5219610915759
3847.69,1.3031842299782503,688.7203843499254
3848.5752,1.3103507197989588,595.7056239809716
3849.4604,1.3173850749216862,594.2639849217943
3850.3481,1.3247514975327144,590.5354283266465
3851.234,1.3322949123280494,537.1116834841765
3852.122,1.3397824544900772,608.2503466405877
3853.0083,1.3469662145117693,502.81220145004454
3853.8967,1.3536780393050947,589.6260112128627
3854.7832,1.3596365941723707,628.8557355216074
3855.6702,1.3646240783312118,560.2878255899489
3856.559,1.3684793526028258,582.7141012496941
3857.4463,1.3710510209795235,599.3425837481165
3858.336,1.3722192607851282,604.8986862321377
3859.2234,1.3719595999999734,495.21149133957607
3860.1135,1.370523719696999,624.6422474902588
3861.0015,1.3684876202060183,560.2680369248677
3861.8896,1.366566580078971,535.2366606837668
3862.7803,1.3652917497445958,677.5746277542022
3863.6687,1.3647012992039003,538.9008406961252
3864.5598,1.3642651545392848,520.3337789284889
3865.4487,1.3631667281310853,596.7439423723424
3866.34,1.3606392426694545,556.7309039142468
3867.2297,1.3562071771555488,589.7757668104161
3868.1213,1.3497058050571666,616.2314059164008
3869.0112,1.3413739734777828,514.7891086856789
3869.9014,1.3317062013352732,558.656250180171
3870.7937,1.3212826779126947,633.5740338030079
3871.684,1.3106503433489056,552.4938351707556
3872.577,1.300112761532109,566.9820402657177
3873.4678,1.2899803254594024,647.3953688709834
3874.361,1.2802870735204688,592.6779168649457
3875.2524,1.2708272505700382,703.8471805018166
3876.1438,1.2610115726187394,751.6103851154662
3877.0376,1.2502183312981079,663.710809821524
3877.9297,1.238214963074979,730.8456388441504
3878.8237,1.2250944742142102,614.2710779595217
3879.716,1.2112994428926345,719.2822837568503
3880.6108,1.1970522425186756,785.8320742569726
3881.5037,1.1823213456811728,696.1096589930714
3882.3965,1.1666085385843175,763.7643961575956
3883.2917,1.1493799178648734,758.9677194210643
3884.185,1.1306330569281438,797.368154677909
3885.0808,1.110771985702851,907.9069741258169
3885.9746,1.0908500286352227,940.3876144991565
3886.8706,1.0719442075231373,903.6629185504704
3887.765,1.0553435993588742,892.1059201577979
3888.6592,1.042218284525349,1097.6441241834552
3889.556,1.033712417078006,1065.275743485719
3890.4507,1.030742389636115,1063.507784295098
3891.348,1.0335338163394903,1068.4211570547395
3892.243,1.0416045596451857,1045.0103468476914
3893.1406,1.0541800060584956,988.89439421812
3894.0361,1.0704139770833891,974.8958970761761
3894.932,1.0895512086040418,927.6053963870116
3895.83,1.1105095905327462,830.6401735465076
3896.7263,1.1316792573159393,662.2764173741219
3897.625,1.1518469910308815,699.0816533387907
3898.5215,1.1704458792431425,947.6113864490036
3899.4207,1.1880688542159497,841.8511013324116
3900.3176,1.2055292373730864,749.0840638745861
3901.2148,1.2234896263036623,733.2959249361876
3902.1145,1.241926624088818,640.7266632711979
3903.0122,1.2601175201302248,623.2868642109243
3903.912,1.2774421340497533,657.7178711364202
3904.8103,1.2936095561166587,698.0666400405664
3905.7107,1.3092219009987724,693.7608122497643
3906.6094,1.3251991358729,618.7209422535037
3907.508,1.3422836152185436,589.8666742664199
3908.409,1.3603205226212345,519.8865216286322
3909.308,1.378117667003377,546.0121326830571
3910.2097,1.3943862426178824,597.4532928356965
3911.1091,1.4082409335447585,543.8831316711604
3912.011,1.419906050970272,487.4884812451084
3912.9111,1.4301844864484874,648.7353614777587
3913.8113,1.4400261018877363,547.5362950788078
3914.7136,1.4499203137734782,486.30510213377215
3915.6143,1.459726710565547,505.88435009037414
3916.517,1.4690634676719987,451.554773794477
3917.4182,1.4774353611121271,495.75861939364245
3918.3215,1.4845862766589117,444.7442033021043
3919.223,1.4904458866530663,454.42505169490755
3920.1245,1.495228430735153,514.2104866340799
3921.0286,1.4992505838708354,431.1952225905585
3921.9307,1.5027976425691403,463.11693619266487
3922.835,1.5061908379104845,450.5719141143327
3923.7373,1.509788725473847,481.9908848662473
3924.642,1.5140063670674386,458.98164188011833
3925.5452,1.5189689759593306,465.5295432202439
3926.448,1.524242475135394,555.5341506235537
3927.3535,1.5287930806687058,426.92574909795115
3928.257,1.531390222382115,478.801809648677
3929.1628,1.5313085563238333,465.75144499412096
3930.0667,1.5285948151280053,463.4149706218507
3930.9731,1.5239019394339273,444.3389409946069
3931.8774,1.5181621275752828,490.8961720334281
3932.782,1.5121705922515278,444.1900250208032
3933.6887,1.506402174573323,520.1625513042956
3934.5938,1.5009968993228757,485.5273848519615
3935.501,1.4958175191271934,528.0372767384185
3936.4062,1.4907524625703787,468.38010489933924
3937.3142,1.4856839220109106,486.3265053021847
