wavl,flux,ivar
3566.9744,1.1709884422419563,521.5771246271838
3567.795,1.1740250459674288,629.4654304654758
3568.6177,1.1747323051432346,483.5630753520584
3569.4385,1.1721122680932707,573.4492915552198
3570.2617,1.1667760892216235,427.20971417572804
3571.083,1.1606050962723555,685.3750180096627
3571.9065,1.155575317113412,493.27209078285216
3572.7283,1.152912583596666,357.5580822160791
3573.55,1.1528212984410502,472.7590182668855
3574.374,1.1549922022487984,588.9236767982527
3575.1963,1.1590809128172266,496.917866573215
3576.0208,1.1650317907453789,626.3670387201455
3576.8435,1.1730064977403576,579.5629717680946
3577.6682,1.183098676047936,507.10798205302376
3578.4915,1.1943584860953536,508.83680331298126
3579.3145,1.2043378255028532,441.7319409467831
3580.14,1.2097835890491098,456.97164446841657
3580.9636,1.2086360906737936,431.80488148216347
3581.7893,1.2017111363065036,572.266919515938
3582.6133,1.1922206850952326,418.5063810677875
3583.4395,1.1835699622968907,804.2355155083177
3584.264,1.1776369358444487,461.9310943232012
3585.0884,1.174183244956694,626.7138301003444
3585.915,1.1716821785488345,574.3979198012678
3586.74,1.1684663248548643,604.7419912707749
3587.5671,1.163575821395032,550.6897046256161
3588.3923,1.1571930491182523,592.3868016379978
3589.22,1.1503968723835873,519.2991771076083
3590.0457,1.144781335557093,519.0273854276344
3590.8716,1.1416386209178933,506.87880084077153
3591.6995,1.1414038341683457,529.0684643851985
3592.526,1.1433631947053775,476.49247531554346
3593.3542,1.1459413657471462,553.154732828594
3594.181,1.1474702214473376,577.8462231887867
3595.0098,1.1471771474719021,542.9607799631385
3595.8367,1.1457145725094695,415.37275123838873
3596.6638,1.1447693157493026,544.9780175388967
3597.4934,1.1458523895783224,711.8700850860115
3598.3208,1.149111526494504,559.4658416433949
3599.1506,1.1531445388414028,486.368484366872
3599.9788,1.155765157282243,475.190040727804
3600.8088,1.1552532041258619,502.7634593854211
3601.6372,1.1512006742338672,592.3715164127598
3602.4678,1.1447393544707123,470.32863188734154
3603.2964,1.1381494219602155,761.8470544675065
3604.1252,1.133718212862288,674.1075548371592
3604.9565,1.1326545700877069,763.0707541861201
3605.786,1.134474585381609,530.9900785774523
3606.6172,1.1373503818612483,535.138320133063
3607.447,1.1391518865652381,858.8827736942618
3608.2788,1.1385292615577436,397.35362182667143
3609.109,1.1354219706505029,511.7803998260167
3609.9392,1.130898590884615,588.5583036293051
3610.7717,1.1264327454101668,678.0339169419339
3611.6023,1.1230270374225755,443.3740029592312
3612.435,1.120588273427484,547.8889475437481
3613.266,1.1182174642679805,499.29973683356684
3614.0994,1.1149500108679473,458.75599142596946
3614.9307,1.1105427308259939,779.8709479426394
3615.7625,1.1055901624450886,680.8800404704181
3616.5962,1.101154756576738,755.528254917659
3617.4282,1.0981869579758206,702.8187235422998
3618.2625,1.097080856685224,907.4304035556432
3619.0947,1.0977408411548233,575.3171051091027
3619.9292,1.0997913829864054,446.13858803610884
3620.762,1.1026887873911444,551.8719306085928
3621.595,1.1056947100062717,604.7607184745426
3622.4302,1.1078959269291797,475.94490102158704
3623.2634,1.1084999697559825,611.9487366020699
3624.0989,1.1072765488216851,595.3156426110435
3624.9326,1.104704541358424,431.06057916038293
3625.7686,1.101720923892988,494.63166929218744
3626.6028,1.0992831004474455,431.3239859907275
3627.437,1.097845819830067,654.838578227364
3628.2734,1.097131348721655,708.3241387824535
3629.1082,1.0963046920134252,590.3501542605925
3629.945,1.0946027176369222,664.1249146307532
3630.78,1.0921020656137905,520.7899193046417
3631.6174,1.0899434151743457,829.6234825980343
3632.453,1.0898889644683285,884.8159957024552
3633.2883,1.0934041248641735,603.2832111348039
3634.1262,1.101055281188335,592.6177926820105
3634.9622,1.1122969440316353,447.50124189460166
3635.8005,1.1258826348770483,556.8613178206135
3636.637,1.1398649973268185,609.1779391153887
3637.4756,1.1519561221342232,843.1748756629815
3638.3123,1.1596274003113638,457.97109232028
3639.1492,1.1611969974885603,508.1705788624595
3639.9885,1.1566545232368328,885.8398524994849
3640.826,1.1480628663378982,549.3520092232299
3641.6653,1.13866789752681,545.8702866675417
3642.5032,1.1315476182409399,760.0407955916472
3643.343,1.128223158108838,499.8219369912298
3644.1812,1.1283620224461008,531.8009370849943
3645.0195,1.1302667832752267,471.8092405003555
3645.86,1.132004584692714,514.1082033696647
3646.699,1.1323659457794906,517.9646331391797
3647.5398,1.131196216882738,556.112840515719
3648.379,1.1289886287286517,586.4758336005115
3649.2202,1.1263644127733166,508.73939875359684
3650.0596,1.1240693223090503,474.769775955835
3650.8994,1.1232374807419503,582.850293602952
3651.7412,1.1255431232284063,670.1800417914155
3652.5813,1.1327171330083756,433.4720344377853
3653.4236,1.1455117048706709,565.3824369632233
3654.2642,1.162128323016714,545.7561342171003
3655.1067,1.1778599986904708,570.5316326559514
3655.9475,1.1865605282199732,186.75531986977728
3656.7886,1.184451050714941,392.78457915616406
3657.6318,1.172477972963095,508.5655121430838
3658.4734,1.155647994524879,503.5811853652334
3659.317,1.1394428568646624,538.9489328020163
3660.1587,1.1272128645918762,611.0572787840495
3661.003,1.1194394716493425,483.4549415258594
3661.845,1.1151830662152409,600.1143127304581
3662.6875,1.1132301773254174,645.3550865317492
3663.532,1.1126207349402624,681.109310445146
3664.3748,1.11234810875746,706.9037486423731
3665.2197,1.1112069195386014,447.23820365048425
3666.063,1.108284230682047,596.2375570065459
3666.9084,1.103582922458516,696.2832808610121
3667.752,1.0981121910935288,598.1362566472276
3668.5977,1.093139579609425,465.88853648070426
3669.4417,1.0896029016695028,515.0976557348574
3670.286,1.0878307263915974,674.4048674484217
3671.132,1.087672727852327,715.2985764543297
3671.9768,1.0885015416658925,696.7437088427307
3672.8235,1.089316013266199,598.6084551225367
3673.6685,1.0892422940460298,444.81764471498354
3674.5156,1.088227611465475,724.2380522403212
3675.3608,1.0872100253459125,537.8671736590334
3676.2063,1.0874223839619042,581.727165062873
3677.0542,1.0894105403736216,546.2941075090312
3677.9,1.0925419761249038,584.4886758207385
3678.748,1.0954505743878085,746.2802594333516
3679.5945,1.0968380125339272,642.495219516545
3680.4429,1.096157312855025,556.9862163173972
3681.2896,1.093666503606944,566.577274683469
3682.1365,1.0900812994959004,563.7536866988626
3682.9856,1.08623299310545,465.1769215981962
3683.8328,1.0830594723145721,652.1461655860859
3684.6824,1.0815877063251955,671.2570893722867
3685.53,1.082669462140444,637.4789768043726
3686.38,1.0862666314428389,705.4954039250719
3687.2278,1.0910643779676368,608.5842147705132
3688.0762,1.0951266634424195,701.9314272694165
3688.9265,1.0970960496914013,656.0836490382205
3689.7751,1.0969912509090993,506.35006756731553
3690.626,1.0959271914898407,517.3596783667299
3691.475,1.0951070242306544,554.4820349505023
3692.3264,1.0950025096400275,677.89809009524
3693.1758,1.0952834190154832,589.6424048982384
3694.0254,1.0953311461015238,454.20726134722577
3694.8772,1.0947892164876476,647.560317135941
3695.7273,1.093701062482138,626.069951315522
3696.5793,1.092283524393426,677.1888772814989
3697.43,1.0907890561974942,658.1797452017647
3698.2825,1.0895420479320785,632.4527555460768
3699.1333,1.0889479931945607,609.7656309282646
3699.9841,1.0892051627221198,463.2579184257055
3700.8374,1.0900497811539729,487.49272085714296
3701.6887,1.0908108928699982,562.4616663717937
3702.5425,1.0908116560926173,641.8119327087787
3703.3943,1.0897583312595456,582.2755321229545
3704.2483,1.0878904629497772,625.4809292034543
3705.1003,1.085841412029221,542.4862363072428
3705.9526,1.0842275475344747,650.0319910707374
3706.8074,1.0832849928863562,572.58726377847
3707.66,1.0827723073015774,501.78354487968943
3708.515,1.0821935755256065,591.468537819267
3709.3682,1.0811146418973387,763.0949056669392
3710.2234,1.0792272876723175,559.8123173871019
3711.0771,1.0763307019400798,551.6152336539153
3711.9307,1.0724671666771783,716.230562009606
3712.7866,1.0682497433531328,598.9677031515469
3713.6409,1.0649622010583424,452.01358222635395
3714.4973,1.0639464644368577,703.4061367717252
3715.3518,1.0658070353214042,581.2649284156189
3716.2085,1.0699438319029155,539.695892197226
3717.0635,1.0748174390756242,572.7876560261375
3717.9185,1.078814415655776,551.4036893608346
3718.776,1.081002629234344,566.3297227963141
3719.6313,1.081404872939029,646.1621128081244
3720.489,1.0806904094748522,592.5719527099691
3721.345,1.0794809442006692,583.207977715891
3722.2031,1.077869481412905,754.2558952554494
3723.0593,1.0755214686620038,635.5599062414846
3723.9158,1.0721683184403263,576.7686785655729
3724.7747,1.0680900067764358,488.27277116063027
3725.6316,1.064162799259763,622.8841315265444
3726.4905,1.0612934420768039,566.1981075966713
3727.348,1.0598919235574247,529.5766251434818
3728.2073,1.05961808309844,577.8097263346754
3729.065,1.059696708635361,545.2739326557663
3729.9229,1.0593933364319308,701.2706827356832
3730.783,1.058357434143502,615.2624187183771
3731.6414,1.0567724649681993,593.0830576913582
3732.5017,1.0553054801732111,593.771939410549
3733.3604,1.0547965773608623,572.8390432442112
3734.2214,1.0556142210713413,755.991847861706
3735.0803,1.0572172924922283,603.0146725331941
3735.9417,1.0584721340177141,807.5825199644976
3736.8013,1.058522469042845,644.7462500016692
3737.661,1.0574534925339156,805.4328489725094
3738.5227,1.0560864767622373,639.4831525415058
3739.3828,1.055245362222499,658.2449424436016
3740.245,1.0551310117885133,671.8887906936835
3741.1055,1.0553055208204982,628.4421145318289
3741.9683,1.0551312983607726,642.3853979710199
3742.829,1.0542707838451761,602.7229593325392
3743.69,1.052870116776785,669.7460237310917
3744.5532,1.0513887402672375,682.0535104537852
3745.4148,1.0503523105699732,477.7639618994171
3746.2786,1.0501723887734733,589.2311436905565
3747.1404,1.0510579212682418,568.8778085127699
3748.0044,1.0528689448543898,705.0058587328756
3748.8667,1.0550400570505811,765.1844429997299
3749.729,1.056823196229506,539.0005357309759
3750.5938,1.057705881471649,710.8327248262221
3751.4565,1.0577264317492143,644.6256286491969
3752.3215,1.0574339305878893,764.6300626424605
3753.1848,1.0575082697841853,820.648984246603
3754.0503,1.0583823742740792,767.8682549010082
3754.9138,1.0601062104575114,609.2474155129012
3755.7776,1.0624193687648813,547.4495804109791
3756.6438,1.064774332850903,596.2924572726167
3757.508,1.0662998887335358,723.0037086318595
3758.3745,1.0660473767810499,631.9082800855845
3759.239,1.063484109527272,701.2383258946712
3760.106,1.058899650449472,658.7925889110556
3760.971,1.053336909144341,881.7283690489895
3761.8362,1.047977307821686,610.3076539796657
3762.7036,1.0437458275931866,630.4160607706682
3763.5693,1.0412673271564699,633.2411511297569
3764.437,1.0408046335070984,685.7163642069819
3765.3032,1.0421050901494477,689.3669200342465
3766.1714,1.0442650971777867,622.6783085465837
3767.0378,1.0460800192438855,576.366644985408
3767.9043,1.0467808304353727,688.8991015877443
3768.7732,1.0464049689876,776.4878880332011
3769.6401,1.0454848772355625,662.1586587211691
3770.5095,1.0443400628529456,772.0164531464312
3771.377,1.042717511201037,697.3708522433292
3772.2466,1.0400699087677796,466.132129455253
3773.1145,1.036289075293107,518.5147880243767
3773.9824,1.0321077398263048,628.2120798899359
3774.8528,1.0288227470098081,767.5055833944018
3775.721,1.0274857739283056,699.1752945905324
3776.5918,1.0281576383096618,693.1790041218786
3777.4604,1.02993097215904,649.7587061571337
3778.3315,1.0315249685231727,742.4307828834814
3779.201,1.0319408288464824,566.1735441441398
3780.0703,1.030893440909457,616.129940610539
3780.942,1.028860814589128,622.3447384376697
3781.8118,1.0268893655376643,750.5911433046143
3782.6838,1.026096032788934,671.6621826571686
3783.554,1.027167784752793,487.3360284919173
3784.4265,1.0300617713014377,729.5004463658822
3785.297,1.034026408444207,783.0524065105866
3786.168,1.0379128747903208,609.9030550824086
3787.041,1.0405181299891126,581.478826793145
3787.912,1.0409466411376798,699.3858506889055
3788.7856,1.0388832736794111,697.0046354863767
3789.6572,1.034599733684182,909.5673396130409
3790.531,1.0287853472732575,660.3588757420389
3791.403,1.0224668308989695,735.8306138848958
3792.2754,1.0167014904248797,767.685084833824
3793.15,1.0122247668882565,677.9231660742694
3794.0225,1.0090806228059197,705.235070817648
3794.8972,1.006552585885387,623.8524735816063
3795.7703,1.0038012034478105,715.3722947039523
3796.6455,1.0005964253157253,663.2112575034027
3797.519,0.9977126151327557,751.2669605254542
3798.3926,0.9964168795804005,725.050401268507
3799.2686,0.997526768099717,729.7794366912813
3800.1426,1.0006378571722152,697.3826554033039
3801.0188,1.0042607496873852,664.4098701279888
3801.8933,1.006780514096852,646.805431474392
3802.77,1.0076765384279949,511.6879644934226
3803.6448,1.0078842649281528,547.5708621076517
3804.522,1.0091221164683077,854.5946968480308
3805.3972,1.0126661943192286,664.0575284274003
3806.2727,1.018562006368426,880.0004975291492
3807.1504,1.0256607975497944,670.345491056522
3808.0261,1.0322234028962787,712.0445805949522
3808.9043,1.0368831085632564,555.7764733524031
3809.7805,1.0390906247400669,669.1594458089455
3810.659,1.0392339379942117,688.6486018044502
3811.5356,1.0382206951338249,671.2465369225769
3812.4126,1.0370240407475828,607.0246743691396
3813.2917,1.0362853500832152,595.9451809321546
3814.169,1.0360693873268334,731.3646608339627
3815.0483,1.0359092873874074,693.2168972903041
3815.926,1.0352747632283352,686.0802273698927
3816.806,1.0340966365683313,602.2152637329788
3817.684,1.0328078023735363,753.785479384782
3818.5623,1.0317441580756643,667.7665433713739
3819.4429,1.0306021944361097,739.3841236397703
3820.3215,1.028654472930803,741.2769027763225
3821.2024,1.0255715098745641,599.3646004680731
3822.0815,1.022020356513828,759.6717685913485
3822.963,1.0191844836580541,789.0319071646395
3823.8423,1.017750081698282,770.8841156121224
3824.722,1.0171793570045122,677.4630340171184
3825.604,1.0160240540799128,660.3102755341871
3826.4841,1.0128464696235349,572.5308331971893
3827.3665,1.0070087930249745,719.4377170845557
3828.2468,0.9989959245476238,785.9876329128969
3829.1296,0.9899838910060844,767.4845063801148
3830.0105,0.981323889539081,740.0792780251935
3830.8916,0.9737333069386377,720.6347917055059
3831.7751,0.9670409402117823,795.0015968565676
3832.6565,0.9603722023398832,707.658179185401
3833.5403,0.9525453479586657,773.309915217381
3834.4224,0.942876216837848,745.3407041952485
3835.3064,0.9315701006343571,819.0779866036513
3836.1887,0.9200500686816674,870.92375606119
3837.0713,0.9103977365257346,1004.6064504106757
3837.956,0.9046020514496733,907.5182494626455
3838.839,0.9038221745483853,869.9089488318089
3839.7244,0.9081400426627196,806.1279843709261
3840.6077,0.9169088473529909,928.2671193356182
3841.4932,0.9292530146426159,1026.0966922903644
3842.377,0.9441314323084955,1050.367287847032
3843.261,0.9605381685792043,721.5887642332157
3844.1472,0.9773737043697369,703.6985253747405
3845.0315,0.9932366343753068,810.353971243575
3845.9182,1.0067832242913617,671.2479268190563
3846.803,1.016861621487169,623.9919760604454
3847.69,1.0233710153717308,603.4068892915291
3848.5752,1.0273207914958329,699.5418318384714
3849.4604,1.030468238395185,663.2194924294258
3850.3481,1.0343293175551345,547.7964103885735
3851.234,1.0394814965633152,627.2435376541861
3852.122,1.0456782181273632,584.2680271526209
3853.0083,1.0522733227696133,590.0276275103154
3853.8967,1.0587723866609553,564.4510244001951
3854.7832,1.0647648112958006,679.4498781242455
3855.6702,1.0698749301384765,612.5854606218835
3856.559,1.0736805990574487,530.1219158215313
3857.4463,1.0759178187940979,744.963111183106
3858.336,1.0767320450764408,546.0026048026842
3859.2234,1.0765903198353113,584.4433190206613
3860.1135,1.0759940191319597,615.9633793833123
3861.0015,1.0751364275321507,634.8327059247893
3861.8896,1.0738075338835054,729.5891459939354
3862.7803,1.071710337714105,592.5996581323411
3863.6687,1.069004552165603,547.3413203998826
3864.5598,1.0664710804161113,609.3859333894313
3865.4487,1.0650928492714442,644.6830089450827
3866.34,1.0651637153302007,563.9262522551682
3867.2297,1.0658436475360504,476.5238492216155
3868.1213,1.0655059990232572,654.9554935245148
3869.0112,1.0626430344852542,546.8606922431854
3869.9014,1.0566300982728112,711.6415698982157
3870.7937,1.0478966400604104,902.8854011620429
3871.684,1.0376642538680623,599.8333606869871
3872.577,1.027194155287733,711.6047368233043
3873.4678,1.017440413354677,759.0005511685462
3874.361,1.008597560937885,787.243871711877
3875.2524,1.000354863403292,989.6859074729059
3876.1438,0.9920448140424131,766.0543302128574
3877.0376,0.9830813486433017,716.9248177356798
3877.9297,0.9732976816447982,625.6066429892292
3878.8237,0.9628282636077602,881.6199163543664
3879.716,0.9521004005484704,898.073364898823
3880.6108,0.9414334432729136,730.6647679926803
3881.5037,0.9310177100367985,737.1262495165518
3882.3965,0.9205441771391907,720.4623973993769
3883.2917,0.9092529247881513,768.0086155556568
3884.185,0.8963984875017628,785.3954431700474
3885.0808,0.88167005165089,1029.2624160729133
3885.9746,0.8657968776179872,856.6665200087987
3886.8706,0.8500328340908322,948.1419730760255
3887.765,0.8359248274961331,1100.228963314624
3888.6592,0.8247605535998713,1015.4214968112781
3889.556,0.8176121819285509,985.9565139747576
3890.4507,0.8152442954958576,1363.8509299277086
3891.348,0.8177420509239989,968.3881091941983
3892.243,0.8243841917019396,1229.5570051640543
3893.1406,0.833876837816636,1075.9044759214764
3894.0361,0.8447621426316662,845.4039243310532
3894.932,0.85620178808351,985.9170083373755
3895.83,0.8681871848446944,817.4751796837822
3896.7263,0.8811130096304828,918.6382185712432
3897.625,0.8952732571796309,1060.226793755121
3898.5215,0.9101140388433323,958.7035167856158
3899.4207,0.924643119903224,802.7992265336593
3900.3176,0.9376586674109894,856.2709207449857
3901.2148,0.9485522491934661,647.9255673446993
3902.1145,0.9574789731167331,801.3662314742924
3903.0122,0.9653794388017507,737.0196749773518
3903.912,0.973847417186209,834.2449524493455
3904.8103,0.9843233511983999,922.6769130013855
3905.7107,0.9975308995645227,649.0711734817429
3906.6094,1.0129233547271554,690.2845884234703
3907.508,1.0290782088834718,683.2211021822764
3908.409,1.0442519220007729,697.7947812202106
3909.308,1.0569545374441929,554.7240981565511
3910.2097,1.0666845967116103,624.0670367965517
3911.1091,1.0738828152668265,554.6220326417246
3912.011,1.0798724251535263,614.8109118620308
3912.9111,1.086044424230373,607.9381151870349
3913.8113,1.0932494953719685,605.9874768769217
3914.7136,1.1014689371869872,513.0287652360788
3915.6143,1.1100128475588003,490.37651619004725
3916.517,1.1181642336931858,634.6511902433044
3917.4182,1.1254051078810987,537.6796390450315
3918.3215,1.131639809271448,515.970754607717
3919.223,1.1369771773506272,565.3662804725976
3920.1245,1.141688939527055,611.3708565835678
3921.0286,1.1460571164389282,540.2735920028583
3921.9307,1.1503275124199202,513.8653951526269
3922.835,1.154763806648234,494.8138015351632
3923.7373,1.159441048566641,540.9352526433407
3924.642,1.1641643133863293,531.3018694967109
3925.5452,1.168399257104776,538.6743931183345
3926.448,1.1716333318804204,467.15524737861125
3927.3535,1.173667194119201,510.28720643876915
3928.257,1.174650063427007,459.9865947782006
3929.1628,1.1748751535838282,607.6187674052281
3930.0667,1.1745131973689122,475.26346382322015
3930.9731,1.1735695827101054,599.0343928069844
3931.8774,1.1719514647559246,471.0496858193686
3932.782,1.16948933148576,541.239048235577
3933.6887,1.1660018302165402,460.0635298229945
3934.5938,1.161499436029308,556.8031719776387
3935.501,1.1562869037994883,506.69910802056216
3936.4062,1.1509754663673992,592.5413395518967
3937.3142,1.1460701716497224,552.4589924090711
