wavl,flux,ivar
3566.9744,6.920631240049583,2.4956931291224986
3567.795,6.889540123686204,3.3524782130722466
3568.6177,6.873532975247772,3.024337449721883
3569.4385,6.873050512772966,2.6457566895628686
3570.2617,6.88066315553125,2.3766686827845547
3571.083,6.886870227284542,2.924699910755632
3571.9065,6.885939143062036,3.4486991642846183
3572.7283,6.877591390703821,3.3619630890476366
3573.55,6.8645343308537825,2.5425639778433684
3574.374,6.849015764388125,2.847960950672399
3575.1963,6.8318419530631225,2.523242248651191
3576.0208,6.813120739487308,2.8576204668458116
3576.8435,6.793559607489077,3.229907376887406
3577.6682,6.773864047644519,2.375015635266265
3578.4915,6.754409983374963,2.667096801307898
3579.3145,6.73518249339801,2.387969039697594
3580.14,6.7170713054897195,2.6304600971994088
3580.9636,6.703023122463393,2.613103498734256
3581.7893,6.6972532293178775,2.9395632830380354
3582.6133,6.703651305717855,2.6489908693976383
3583.4395,6.72364891923373,3.9691249812219516
3584.264,6.754522403247292,3.1605460728376307
3585.0884,6.7893368689279985,4.240017242527937
3585.915,6.818719776693644,2.37183993586807
3586.74,6.834444468833096,2.963093997714032
3587.5671,6.833715162759869,3.051917796259
3588.3923,6.820217392099395,2.205883825188042
3589.22,6.801811702502485,2.5790838225172275
3590.0457,6.785855674568189,2.6023585008727688
3590.8716,6.774260173638527,3.0752259457965314
3591.6995,6.762408312489972,2.3623368663389215
3592.526,6.742605022635108,2.7939058369436265
3593.3542,6.709943138278125,2.7839403815798844
3594.181,6.667272812355934,3.1421111765256
3595.0098,6.624257408391249,2.8245377468309836
3595.8367,6.592491691775973,4.116850326192053
3596.6638,6.577500301073585,2.426430670719905
3597.4934,6.575342093475075,2.378712315114688
3598.3208,6.5747377738438555,3.763549869171393
3599.1506,6.563945428162267,3.9890719945078263
3599.9788,6.538274744247572,3.9686534314121524
3600.8088,6.503529788476478,3.526712036902024
3601.6372,6.473974540717147,2.6379749723690797
3602.4678,6.4640132963559855,2.7010484485452766
3603.2964,6.479942831475494,4.0574449081225605
3604.1252,6.516326420776146,2.9439055885794296
3604.9565,6.560343892353117,2.2876009033197167
3605.786,6.598861777196193,2.7670051974163465
3606.6172,6.624517696345369,2.5663512792184737
3607.447,6.635951260867794,2.730702930454489
3608.2788,6.636517042693613,2.771461689642123
3609.109,6.631257236935674,2.240751348931808
3609.9392,6.6232837302409475,3.128740433553265
3610.7717,6.611109642214899,2.1579735498632355
3611.6023,6.590650431016106,2.734196470264286
3612.435,6.560976706818991,3.3633843795400375
3613.266,6.528570323608294,3.151829914531391
3614.0994,6.503050498971513,3.653631061933052
3614.9307,6.489212601429062,3.4636247556702924
3615.7625,6.4820675644030885,2.6361258536905066
3616.5962,6.4708299223606,2.5008648059859646
3617.4282,6.446781391437206,3.166105830775845
3618.2625,6.408208557679993,3.3350469774681657
3619.0947,6.360765146526755,2.5208157918484995
3619.9292,6.313304131949108,3.13587689080566
3620.762,6.274672383125092,3.5794276960497284
3621.595,6.249713816248791,2.0239004176198048
3622.4302,6.238023911570144,3.4724984878244953
3623.2634,6.2345033895795146,3.551558769007176
3624.0989,6.232201866890037,3.428874005150439
3624.9326,6.226333560412097,3.1269926796396272
3625.7686,6.216195325901011,2.5560432488579163
3626.6028,6.203906002698659,3.397089032873019
3627.437,6.191087289042319,3.321723550487169
3628.2734,6.177259918943448,2.66515379058667
3629.1082,6.161107758778248,3.235533329642211
3629.945,6.142071311241048,3.354781178646559
3630.78,6.12063935631046,4.5013742702919
3631.6174,6.096291252468317,3.5608518354498484
3632.453,6.067116504921539,4.045295061768347
3633.2883,6.031060375790214,2.8649570513542315
3634.1262,5.988889139102408,3.6464575648285846
3634.9622,5.945656445554864,4.013355951979354
3635.8005,5.907532387515528,7.0038457519998465
3636.637,5.878703374078437,2.8038782374367313
3637.4756,5.858889185331212,3.99671417671656
3638.3123,5.846012236300166,4.839756386547555
3639.1492,5.839169328650471,4.1198063474492885
3639.9885,5.839679453047433,3.524531057177654
3640.826,5.848664000737681,3.4131065841173887
3641.6653,5.864737179070865,2.661881874559203
3642.5032,5.884003878723569,4.03623357466671
3643.343,5.901660213909696,2.7673314080051785
3644.1812,5.9122854758880194,3.4862912348455244
3645.0195,5.9107756373244325,2.8706022607714505
3645.86,5.894654584513383,3.5071136487514427
3646.699,5.86722268549776,2.907206584259112
3647.5398,5.836789221729679,3.2171984951252024
3648.379,5.812128297637012,4.562358159020636
3649.2202,5.79599402315056,4.759365303448201
3650.0596,5.783163796519441,3.81840822677448
3650.8994,5.763727468283761,3.154054067068178
3651.7412,5.730737222028063,4.837353100774198
3652.5813,5.686665560456836,4.239733056460689
3653.4236,5.642613366083604,3.7845276873816003
3654.2642,5.611982466728212,4.4035460690429815
3655.1067,5.601473954993751,3.8842894295936983
3655.9475,5.6086890487567205,5.039991209649585
3656.7886,5.6258185909295655,4.374750029583038
3657.6318,5.645806578592866,7.466995126827275
3658.4734,5.6649081341223635,3.91823691563517
3659.317,5.681801006511794,6.445457919902651
3660.1587,5.695045009982541,2.723015951789034
3661.003,5.702952283191657,3.91975862234331
3661.845,5.7049303064235275,3.3029426724763487
3662.6875,5.70311915128433,4.5891725504154754
3663.532,5.701374169815357,5.288166053331447
3664.3748,5.702015064282648,5.387011609352426
3665.2197,5.702953381059591,3.1941557592844214
3666.063,5.698327320725128,3.582382458613284
3666.9084,5.682524943744338,3.4292397452674455
3667.752,5.654823851560521,3.6813137344719853
3668.5977,5.620664694575878,3.3977540698610826
3669.4417,5.589580728287333,3.6655506109198956
3670.286,5.569475599524771,4.145917505987004
3671.132,5.562428407832303,3.141101721744276
3671.9768,5.56379050803939,2.974168030536628
3672.8235,5.565381907985542,5.859429479329709
3673.6685,5.560390116572691,4.312483328297849
3674.5156,5.546376634209449,3.8037028671071558
3675.3608,5.525567942856666,3.998570253704219
3676.2063,5.503246485094443,6.228870699935831
3677.0542,5.486011897984693,3.9386955898703975
3677.9,5.479413354233954,5.539557973653181
3678.748,5.484913929637796,3.0380198869701105
3679.5945,5.499019437722943,5.453682818137078
3680.4429,5.515305229771084,4.682359531024932
3681.2896,5.527697381008756,4.5446072338319405
3682.1365,5.532897310124935,4.671799702238781
3682.9856,5.529989087342079,4.422471603706685
3683.8328,5.518858909817087,4.085977097213765
3684.6824,5.499035619770867,3.844968219649357
3685.53,5.471083633072063,3.6910442095640503
3686.38,5.438935144220612,4.466087362215491
3687.2278,5.4114599255793525,5.426302524983142
3688.0762,5.398387838119155,5.082095297482932
3688.9265,5.403934570758496,6.2798681841834645
3689.7751,5.422214198563064,3.2444580993320224
3690.626,5.439912585127805,4.71588213093461
3691.475,5.444269311965628,3.9518141357662984
3692.3264,5.431188522955053,4.806519376361056
3693.1758,5.407313260954848,4.868850694832443
3694.0254,5.384729846372422,3.170523505002887
3694.8772,5.372295470548325,4.8071804174417805
3695.7273,5.369662464522151,4.384487797764028
3696.5793,5.368457569032595,3.9364467399172116
3697.43,5.359781410757861,2.888994836125954
3698.2825,5.340990418340449,4.423583327675428
3699.1333,5.31675091254772,4.471418819848742
3699.9841,5.2941114141124075,4.492941234274236
3700.8374,5.277460895312513,4.99387759679629
3701.6887,5.267408305569674,3.171919954912736
3702.5425,5.262859006714316,4.957298812669593
3703.3943,5.263496524937175,5.096871606688819
3704.2483,5.269216323121319,5.627161317957591
3705.1003,5.2779229291040455,5.9558136623253235
3705.9526,5.284550779190732,4.057287063528275
3706.8074,5.282603570120457,4.170852669421336
3707.66,5.267573693316364,4.255669768673436
3708.515,5.239764658216792,4.441675090270538
3709.3682,5.2051602782583055,4.175235775884346
3710.2234,5.172488557072654,4.441127507066339
3711.0771,5.149142419183647,7.40082100295596
3711.9307,5.136828978768698,6.017145766016895
3712.7866,5.131771888034994,3.4873837089919704
3713.6409,5.128699102313238,7.401470673504334
3714.4973,5.12491645916751,5.734450815003796
3715.3518,5.120740222306149,7.785019820252881
3716.2085,5.116869497974554,4.549560186687674
3717.0635,5.113416619794106,3.580671192982844
3717.9185,5.111769923847448,3.6823516334569293
3718.776,5.115795333700089,5.411529638280564
3719.6313,5.128611515921334,5.609683382160541
3720.489,5.147597533455624,5.224855350985856
3721.345,5.163494381995599,6.026315307408659
3722.2031,5.166870030439218,5.505448977363586
3723.0593,5.155690616642274,5.296516872805564
3723.9158,5.1369447413041485,4.791335187081337
3724.7747,5.120348051531606,5.41776192897752
3725.6316,5.11106864865889,3.9796822807933547
3726.4905,5.107601463480951,5.068691632203109
3727.348,5.105765066940456,5.228482398049524
3728.2073,5.102677664899514,4.204410486300377
3729.065,5.0976675552527375,4.748743288032527
3729.9229,5.091022492453668,4.415764382429509
3730.783,5.0830961884272705,5.446467954538448
3731.6414,5.074252811984478,4.995272563047907
3732.5017,5.064673269710304,4.256065597029056
3733.3604,5.054229616039853,4.937313546359504
3734.2214,5.0422263542472345,5.550753887122853
3735.0803,5.028157051229899,5.284169902400544
3735.9417,5.012309013807389,4.046940732457001
3736.8013,4.996168402912108,4.653994276455274
3737.661,4.981147581541479,5.88436723568969
3738.5227,4.967823280465394,5.096939987465968
3739.3828,4.956580099305203,4.921046994729871
3740.245,4.948458480064971,4.212406320981078
3741.1055,4.944801029635153,5.104067212918434
3741.9683,4.9449541335965685,6.621309260658114
3742.829,4.945345719349075,7.5150815792071635
3743.69,4.941704322821556,4.402023915651939
3744.5532,4.932720374904895,5.469071082716749
3745.4148,4.921330408024497,4.472998452982911
3746.2786,4.911911329134237,4.472781883617839
3747.1404,4.907103441037076,5.584306694158242
3748.0044,4.907298331925473,5.791642791746802
3748.8667,4.912705865411759,4.081348088157542
3749.729,4.9238950024650645,3.897739900463041
3750.5938,4.939751371993225,4.860521570869361
3751.4565,4.955665711427486,5.059447897045472
3752.3215,4.965854384692059,4.806842823152119
3753.1848,4.967421209921229,3.963818518511815
3754.0503,4.96249492912033,3.9190271375647243
3754.9138,4.955645537117766,4.453306654054731
3755.7776,4.9495135131017705,6.721513183693417
3756.6438,4.943057042093952,5.39883792195528
3757.508,4.933528728505186,4.601489491966207
3758.3745,4.919376480269196,5.802393655165587
3759.239,4.901562524154858,4.927796053364706
3760.106,4.882281794855878,6.168757096175569
3760.971,4.8642263827992585,4.714063267995141
3761.8362,4.850196318576333,5.115444543391384
3762.7036,4.842801903549752,6.783032327105105
3763.5693,4.842322282272874,5.545760578565213
3764.437,4.844681382932803,5.599644150527065
3765.3032,4.8427869111695,5.400613562893095
3766.1714,4.830764747326186,5.658877527477491
3767.0378,4.807589372253941,6.046363457059972
3767.9043,4.776970645701438,5.269808347505596
3768.7732,4.744685537591173,5.269528176275808
3769.6401,4.716371452201113,5.817440712926966
3770.5095,4.696043100423912,5.789124061454209
3771.377,4.686529651709247,6.743057686936391
3772.2466,4.688316050530311,5.23600167686188
3773.1145,4.698432134477659,6.436743165706913
3773.9824,4.7106740561756535,6.097759574040751
3774.8528,4.718490223544401,6.532924175532981
3775.721,4.718268438189858,5.631392983428529
3776.5918,4.7103233227911385,7.682868293210786
3777.4604,4.6972088146266495,6.0787527618355535
3778.3315,4.682040169214,5.6018087109949635
3779.201,4.66887638266728,5.438410938909408
3780.0703,4.662564670747684,6.643261110741997
3780.942,4.666842172287937,5.756086046211898
3781.8118,4.681169922060918,5.8196996774863585
3782.6838,4.700014017723665,6.28860671074941
3783.554,4.715563130838738,5.530101037782578
3784.4265,4.722520995068345,5.456209342495333
3785.297,4.720304944485031,5.456386418228141
3786.168,4.712005317036204,8.160511664559511
3787.041,4.701064158499465,5.020036136920616
3787.912,4.688989071369491,6.387056490340563
3788.7856,4.674826428880826,7.826363815888963
3789.6572,4.656742258687926,7.2634664773332
3790.531,4.6335948783130805,8.420567017528276
3791.403,4.606480751998105,5.091879680726946
3792.2754,4.578085977247413,6.853143523030026
3793.15,4.551398947412799,6.143562804226889
3794.0225,4.528722261957752,6.681758096260157
3794.8972,4.5112403278337325,6.970915209055651
3795.7703,4.500138937368945,6.241133985027583
3796.6455,4.496526174487481,6.757854135567899
3797.519,4.500801047390706,6.32887330616691
3798.3926,4.51141538947188,5.87151133665584
3799.2686,4.524793157221239,4.978182020510273
3800.1426,4.536405684139007,4.442677621535348
3801.0188,4.5428247497304115,6.215191246767142
3801.8933,4.542730425931769,4.006699568300531
3802.77,4.536934109686679,6.882564709597178
3803.6448,4.527385452048161,9.037380067428549
3804.522,4.516231781048758,6.736821427290565
3805.3972,4.505784036733272,8.242216648271757
3806.2727,4.497931047309901,8.011196114599638
3807.1504,4.492905810220836,7.628369639068593
3808.0261,4.488284475343957,7.316622063782743
3808.9043,4.480242668796125,6.774480318659472
3809.7805,4.466954610333435,6.616079084436014
3810.659,4.450520576732515,6.353728582002067
3811.5356,4.436010377507022,7.34316406555672
3812.4126,4.428075209082145,6.550605724921189
3813.2917,4.428799433947945,5.783805962447956
3814.169,4.437313108116526,11.65542978578046
3815.0483,4.450776890115576,5.046866577653471
3815.926,4.465560954419992,7.080136573923995
3816.806,4.478663720415846,6.708278593744703
3817.684,4.488040488071016,8.472649572841075
3818.5623,4.492381093201952,5.728136123601915
3819.4429,4.490281069756055,7.344766234074279
3820.3215,4.480514098693049,6.068299837910627
3821.2024,4.4630412916343865,6.082920237005657
3822.0815,4.439843768065427,7.021545213279028
3822.963,4.414086495639809,6.46413893934271
3823.8423,4.389262424041034,6.176174852586747
3824.722,4.3675456840409765,6.324234200421593
3825.604,4.349045184138361,7.720060895154534
3826.4841,4.331949635067661,6.267593406198852
3827.3665,4.31410218806239,6.860584101354318
3828.2468,4.296110424471014,6.937141933987077
3829.1296,4.2817263414807645,7.985578866549172
3830.0105,4.275293811112761,8.295404596994164
3830.8916,4.277497035586241,7.9411856698700305
3831.7751,4.284610513939869,6.518340979647064
3832.6565,4.2914518201747,6.836389027132723
3833.5403,4.295187953565294,6.986073715844849
3834.4224,4.29587176345372,6.995078524040241
3835.3064,4.29444557555335,4.573602909665036
3836.1887,4.2909562527588045,5.989128190070252
3837.0713,4.2847758177743325,6.833604970801502
3837.956,4.27589905166233,8.133615520707998
3838.839,4.265851077520286,9.110788989553333
3839.7244,4.25708652438279,7.162484850150876
3840.6077,4.251503901502339,7.836156275170692
3841.4932,4.248674523450467,5.9400040440473525
3842.377,4.246173500315294,6.211847262449651
3843.261,4.2419682389290125,6.930020015754548
3844.1472,4.236766693959818,6.803352848738626
3845.0315,4.233612787879444,8.139034414246051
3845.9182,4.234960651661433,6.340626272666919
3846.803,4.24048926454905,6.3568917779416365
3847.69,4.247598459029605,7.80039656323637
3848.5752,4.253632286937209,5.270808942172922
3849.4604,4.257825243512538,7.174325034846736
3850.3481,4.261205569997481,10.875948213780376
3851.234,4.264779031316653,6.14716162023576
3852.122,4.267530406069285,6.659756385068083
3853.0083,4.265962005376821,6.29362700862866
3853.8967,4.255971861500092,8.110677658641663
3854.7832,4.235509004858179,6.762153124230689
3855.6702,4.205649722041818,8.49497967093282
3856.559,4.170040276566486,7.886519574817452
3857.4463,4.133967092767681,7.51978092769088
3858.336,4.102748971068777,7.786201551583944
3859.2234,4.080974895228372,7.594912403074874
3860.1135,4.0703059171983345,8.357349961582619
3861.0015,4.069435681606371,7.327711657105452
3861.8896,4.075353427104042,7.955780714250372
3862.7803,4.085619267528818,6.512392204930352
3863.6687,4.098560864047654,7.888313054168656
3864.5598,4.111832523689895,7.38714900939273
3865.4487,4.120755198582486,7.206588183100842
3866.34,4.11961808838827,6.296351217672272
3867.2297,4.104961653003822,6.131795474969339
3868.1213,4.078872226074884,8.839496689068575
3869.0112,4.049427411902694,9.926307928539105
3869.9014,4.026511622104916,7.916078319006997
3870.7937,4.0165199239535925,9.53713066901663
3871.684,4.019413957381636,5.544472487321894
3872.577,4.0304440957623635,6.884983515327584
3873.4678,4.044536629266496,7.669643655430532
3874.361,4.059177783401147,8.101256161531733
3875.2524,4.073294355008903,9.772955224291023
3876.1438,4.085140026056993,8.809752443648053
3877.0376,4.091645001653864,9.098592474917647
3877.9297,4.090383837257409,6.409233174256177
3878.8237,4.081779510934444,6.5015318133553235
3879.716,4.068884281326874,7.505264631608159
3880.6108,4.054878962179916,6.229092219223743
3881.5037,4.041076820857823,8.312161324044332
3882.3965,4.026514968229235,6.51231943443438
3883.2917,4.009719703915578,7.709562558024711
3884.185,3.9907981598884996,7.41092585904888
3885.0808,3.9718353061553757,6.624781637788083
3885.9746,3.956307983895716,8.056877611993288
3886.8706,3.9469146014299548,8.702901570022002
3887.765,3.9442408639429583,9.305582346495816
3888.6592,3.946169859084202,9.23166061973215
3889.556,3.949076060778056,8.366868071860194
3890.4507,3.9498130364049944,7.5348934401261
3891.348,3.947448163822824,7.6239928087015585
3892.243,3.9432632571821786,7.950925960954516
3893.1406,3.938879672783754,6.833363097313775
3894.0361,3.9342768240506727,7.86523981180425
3894.932,3.9276555068186916,8.39731337274703
3895.83,3.917879850268889,9.092604029246752
3896.7263,3.9072163258614947,7.938660224204965
3897.625,3.900949097017306,7.869668245347967
3898.5215,3.903867367569308,7.801966019705323
3899.4207,3.9162470325409684,9.30189536237961
3900.3176,3.933426065876905,8.401272624015142
3901.2148,3.9496780476897646,6.920427751456056
3902.1145,3.9622135547188106,7.031937634046304
3903.0122,3.971720231753359,8.050914970495391
3903.912,3.9796952899673634,9.066053314186412
3904.8103,3.9855574433348555,6.9339109086349255
3905.7107,3.9874513556039752,8.58822532657036
3906.6094,3.9854004583112905,7.608578322957213
3907.508,3.9833283490514257,7.634875666586429
3908.409,3.986983428312303,8.74594151344998
3909.308,3.9990531567805703,7.402760435247155
3910.2097,4.016019432724071,6.437093459267937
3911.1091,4.029728264015016,6.4735083810913405
3912.011,4.033162231427365,7.790106553313714
3912.9111,4.024683647914554,7.000489040817394
3913.8113,4.008143072224169,7.878817445446029
3914.7136,3.9891741921757435,9.311760063620904
3915.6143,3.971692659941341,8.249229693362455
3916.517,3.9564432477580525,9.988466149677333
3917.4182,3.9427372037280626,8.735504269504169
3918.3215,3.9302125676898414,7.708569277493918
3919.223,3.919511360479049,7.773226224015072
3920.1245,3.910728869291836,10.453296146745398
3921.0286,3.902356139772093,7.870982558211923
3921.9307,3.8920910353346274,7.060962855768432
3922.835,3.878797378790116,7.597717215389759
3923.7373,3.863956584501612,8.210804649535069
3924.642,3.8505844035192562,8.962156770533587
3925.5452,3.8415045132626098,8.6977216172972
3926.448,3.8379358097333482,8.727751616305552
3927.3535,3.8399334954492996,8.657734534757537
3928.257,3.847000507438379,8.550208077194121
3929.1628,3.8577449050754837,7.478299054898744
3930.0667,3.868584506243301,6.042091462187899
3930.9731,3.8739037440893775,7.968240122734286
3931.8774,3.8684467688948616,6.762431597961001
3932.782,3.8511665347049893,9.06798540710756
3933.6887,3.8267024912379806,9.806547648878386
3934.5938,3.803266672469669,13.101602569779415
3935.501,3.787696381002354,9.182651787856804
3936.4062,3.7827111427719027,9.594548980982983
3937.3142,3.7869840296962742,12.374218294311618
3938.22,3.79744067422766,8.940041420208104
3939.128,3.8109653758290345,9.035405504747294
3940.0342,3.8246991872713356,11.80684739542626
3940.9407,3.836417904369372,6.400606111292193
3941.8494,3.844798909939777,9.371110227714418
