wavl,flux,ivar
3566.9744,0.2658188879886022,1406.4711062739214
3567.795,0.2619775521356154,2295.372670267532
3568.6177,0.25710402897255386,560.5367387534927
3569.4385,0.25268209495407373,3955.562961959184
3570.2617,0.24965095318975158,11440.751488455786
3571.083,0.24819229829086414,872.9530469599746
3571.9065,0.24778833840571138,1084.3829636757944
3572.7283,0.24767445960432252,1045.0679036919857
3573.55,0.24732890179241204,1642.3608787456842
3574.374,0.24682255646137427,816.9156988674797
3575.1963,0.2467944861062978,6351.774035125098
3576.0208,0.2480273993164046,4101.463148689574
3576.8435,0.25088871825738096,13153.608120806513
3577.6682,0.25499557111453663,3727.0620905323117
3578.4915,0.2591635391660837,1164.9904920740073
3579.3145,0.2618468150623637,1953.0844650520473
3580.14,0.2618173599101481,605.9187858544203
3580.9636,0.25887415886406445,701.8048386362759
3581.7893,0.2540431606525917,1253.0834296771493
3582.6133,0.24912813066210346,2920.011594061154
3583.4395,0.24579670082163407,1006.8419721797226
3584.264,0.24496559939830584,622.7083100360007
3585.0884,0.24650350565587337,1755.0440763350134
3585.915,0.24953416540612705,847.8677857768512
3586.74,0.2529363759689344,2127.2943067768483
3587.5671,0.2558623281870635,815.9917907523981
3588.3923,0.25784008530888897,1096.5503720919387
3589.22,0.25879593284021346,4503.574272243473
3590.0457,0.2589704575952271,952.5774728275233
3590.8716,0.25879421845931433,1128.4545264032135
3591.6995,0.25854605312864587,4397.253740428167
3592.526,0.25814335548012457,2722.0538966392596
3593.3542,0.25738253252872995,4090.94471332236
3594.181,0.25644643774861897,874.6818606381788
3595.0098,0.2560063440768558,2193.820700171152
3595.8367,0.25669908130355357,1345.0305730095388
3596.6638,0.2584208046687758,1084.6213978548965
3597.4934,0.2601578354899522,1406.0542618709396
3598.3208,0.2605036001939431,4248.729069962141
3599.1506,0.258570525061274,2642.9453574097297
3599.9788,0.25460850613870517,359435.42668629484
3600.8088,0.24987359885134602,1761.0205263443374
3601.6372,0.2459275786164348,1840.149300568749
3602.4678,0.2437361348663435,1660.075404464329
3603.2964,0.2434408638951118,962.6855410616716
3604.1252,0.24464336001557568,2646.675941395274
3604.9565,0.24689268344787393,5490.710041469412
3605.786,0.2497338555532949,1682.7499340786203
3606.6172,0.25252074396583807,2932.3406527650977
3607.447,0.25434541616910233,1009.0121147950587
3608.2788,0.25454732167833305,579.311280933439
3609.109,0.25327827502986167,1315.7413582723007
3609.9392,0.25156873907976185,4540.544319083416
3610.7717,0.2506920050191348,7442.442274488219
3611.6023,0.25135903476091553,1247.2726217626605
3612.435,0.2533417649082769,3496.659815371433
3613.266,0.25573324755833216,1192.9165540026895
3614.0994,0.2575919262977571,3144.5766133219877
3614.9307,0.2584298810881291,929.8675274154588
3615.7625,0.25837741386975194,1040.2839580887178
3616.5962,0.25789290936445247,3647.416216111188
3617.4282,0.2573756851854512,1581.1279400544179
3618.2625,0.25698223656725927,1665.020004464923
3619.0947,0.2568097488889664,842.1251673000928
3619.9292,0.2571608086347961,1795.3030508400207
3620.762,0.25852270178735337,2205.5609492822473
3621.595,0.26117873591875274,1532.9097832549253
3622.4302,0.2648111414697302,2285.095439681862
3623.2634,0.2684789833760518,1031.1786303969452
3624.0989,0.2711884725854982,765.965603429952
3624.9326,0.272449263262235,636.5290143443382
3625.7686,0.2725306018100608,2403.117418833264
3626.6028,0.27204948712464305,2382.4691578767643
3627.437,0.27135990237654456,1014.2792311670385
3628.2734,0.27029696676115333,2638.9512809859307
3629.1082,0.26851710308289717,620.1015356947187
3629.945,0.265965185035723,736.1555704482273
3630.78,0.2630112195783524,2072.7089722237984
3631.6174,0.2600960970303163,506.0774962603475
3632.453,0.25754180631788465,721.9441983248862
3633.2883,0.2556268770809574,2005.6285409594657
3634.1262,0.2548731268987469,898.0240761651512
3634.9622,0.25595995260473164,1299.5703098422337
3635.8005,0.2592125570565686,1288.597894511156
3636.637,0.2640915097245277,1570.1624388941898
3637.4756,0.2692910125097197,877.2568637874896
3638.3123,0.27325396929164614,3142.900493914345
3639.1492,0.27499581919968896,1406.2025233682282
3639.9885,0.2744573754767432,708.1323371161928
3640.826,0.27242782233022883,1819.1988221608183
3641.6653,0.27003667682322563,701.6030911939407
3642.5032,0.2682119644087517,1015.8225552080986
3643.343,0.2673014743235261,1780.7744804640515
3644.1812,0.2670636628712591,1339.9076897554703
3645.0195,0.266878634188758,796.7223942258257
3645.86,0.2661588679569295,1129.726191723777
3646.699,0.2647596068933218,1015.1078854670551
3647.5398,0.26307051575905743,2738.843815148526
3648.379,0.26169216896462216,1184.8490368810087
3649.2202,0.260920403136558,1412.0346793105252
3650.0596,0.2606029218780624,1790.723752932955
3650.8994,0.2603774567593714,1416.6966344803834
3651.7412,0.2600261147249419,501.16433103615975
3652.5813,0.25965354105429805,1706.2728638784108
3653.4236,0.259678258456565,2530.104898876706
3654.2642,0.26063665494615584,1321.5993364497267
3655.1067,0.262768437588111,2918.6355193107374
3655.9475,0.26563810169893043,941.1354581611221
3656.7886,0.2683104400161023,712.0491212648191
3657.6318,0.26995916870671155,2550.5509938937826
3658.4734,0.27033879742706574,2103.68834159759
3659.317,0.26970204745208265,2024.5545564767708
3660.1587,0.2683826083669366,3736.118669140896
3661.003,0.26660468534776516,1229.4631632101964
3661.845,0.2646056048865017,1234.6518279106583
3662.6875,0.2626362135544887,10614.355642007267
3663.532,0.26081288336744424,539.4678771481936
3664.3748,0.2590159219264878,1638.2842675720499
3665.2197,0.2570472598995247,1155.4769692130403
3666.063,0.25502923864915594,1088.2145239141832
3666.9084,0.2535444490790858,4021.595951371422
3667.752,0.2534020183095242,2240.919887198832
3668.5977,0.25507329420611013,868.0177582630305
3669.4417,0.2583396326642285,1299.3925639197782
3670.286,0.26244884379140143,1129.989928459117
3671.132,0.26653477658382246,797.4890479377063
3671.9768,0.2698608580155896,1085.232497915521
3672.8235,0.2718799016175405,1111.2170491504144
3673.6685,0.27219321556067105,1178.2369438787453
3674.5156,0.2708228853627826,522.284178449721
3675.3608,0.2684939078845688,1073.9469057821848
3676.2063,0.2664986954641858,4297.5219094748345
3677.0542,0.26605164823055666,1753.6863865050846
3677.9,0.2675172533524842,1525.8985187007402
3678.748,0.2701656271754797,1633.4443656912513
3679.5945,0.27265521359954054,1339.6713924258775
3680.4429,0.2739304358687693,641.716188432488
3681.2896,0.2737553905792495,3119.206174739065
3682.1365,0.2726881063059613,3135.806021581415
3682.9856,0.2716094778443697,5706.337342977524
3683.8328,0.271245787854076,1369.3636503643816
3684.6824,0.2718021168640192,1861.8226311550434
3685.53,0.2728270565101528,1121.879941222994
3686.38,0.2734070247762931,899.1217003314812
3687.2278,0.2726589411579583,759.9109836189976
3688.0762,0.2702834161347911,1789.1211685139797
3688.9265,0.26678995055833343,1095.0190446772137
3689.7751,0.2633113863647019,2570.3553782877707
3690.626,0.2609832121430996,10643.011724071084
3691.475,0.2604310086181041,1254.8379207245634
3692.3264,0.26153915260658106,1167.0983418333597
3693.1758,0.2636893745497743,2165.162779788001
3694.0254,0.26614750752387284,997.9196572109975
3694.8772,0.2683167951962672,2707.9444241962165
3695.7273,0.26985190711800305,1151.024715896012
3696.5793,0.27076424574981495,2029.0360749093704
3697.43,0.2713610904678284,1414.0461227861626
3698.2825,0.27207274976603724,640.1553747363266
3699.1333,0.2731997783041564,634.5402931254777
3699.9841,0.27480176161706993,2635.701621104156
3700.8374,0.27671601196793244,1423.6218342653324
3701.6887,0.2785996705637762,1028.3195305309707
3702.5425,0.2800304920179003,852.6051763975973
3703.3943,0.28059140487435097,778.660980477835
3704.2483,0.28007153437838916,2129.7143556775186
3705.1003,0.27861172250063776,1334.0038124629707
3705.9526,0.2767601283240075,594.7494477805373
3706.8074,0.27539332061252364,1049.7954727516299
3707.66,0.2754497304213794,939.6550869944975
3708.515,0.27745069866817657,1014.9651295774499
3709.3682,0.28112798935023253,1368.2082736664152
3710.2234,0.2855526691075383,913.2700867907353
3711.0771,0.2896641692341725,1176.912886338216
3711.9307,0.2929108400024368,1000.3121066205979
3712.7866,0.2952984610964844,1466.4821155769832
3713.6409,0.29694456353619564,850.4717291488646
3714.4973,0.2977029130194972,659.8466134616484
3715.3518,0.29718863282100966,941.7411530955543
3716.2085,0.2952120470331339,1559.967319902467
3717.0635,0.2920744642182934,1406.5178120405837
3717.9185,0.28840875261306964,1854.3986671218127
3718.776,0.2848340243453622,883.2377358776066
3719.6313,0.28175581797964955,2836.4832757913246
3720.489,0.27926994453649695,1194.4762945129298
3721.345,0.27735231882707845,694.4815965453536
3722.2031,0.2760668523629227,972.3831582014485
3723.0593,0.27578900115366745,1233.2774939332392
3723.9158,0.2770193853452588,864.9406559064678
3724.7747,0.2799006780200934,1135.4044962643954
3725.6316,0.28376028459468755,1674.1502101377844
3726.4905,0.2872987059606791,1264.7714241045953
3727.348,0.2892115635358695,614.9442451667405
3728.2073,0.2889428056136233,1186.4642741387008
3729.065,0.28687712521192144,3340.0667208562622
3729.9229,0.2839918427157237,1109.9646557057579
3730.783,0.281280187637926,994.8305721931956
3731.6414,0.27935202134355686,2046.6892827922634
3732.5017,0.2782547047208175,1150.6333994507895
3733.3604,0.2776328822564164,1178.048238899841
3734.2214,0.27702802733434423,1481.3288409382392
3735.0803,0.27626591391988115,803.2648046160712
3735.9417,0.2756200976214509,1140.6467785100376
3736.8013,0.27564123510105754,2646.0847017444876
3737.661,0.27671474882076097,869.3043876915032
3738.5227,0.2787199272966592,797.5600288284378
3739.3828,0.2809482172900337,1129.0766379504262
3740.245,0.2823880031203502,1252.7151554261372
3741.1055,0.28217676648058304,3166.338462811302
3741.9683,0.2801367969986812,560.5102279580516
3742.829,0.27696208582269044,1266.3822328665408
3743.69,0.27377529781111837,2466.269368689857
3744.5532,0.2714042234053191,1147.1591684729165
3745.4148,0.26999147819371533,3319.7586306504054
3746.2786,0.2691761912897541,854.0420427018114
3747.1404,0.26865070872724667,903.3297892897551
3748.0044,0.2684362532885228,742.003459344558
3748.8667,0.2687535456797005,2981.3616305776395
3749.729,0.2696972582969333,1458.9061981950515
3750.5938,0.2711142765307414,1381.7421302487242
3751.4565,0.2727311315503923,1296.0965547488631
3752.3215,0.2743574858480575,813.2334780863911
3753.1848,0.275862373912806,5980.542372314728
3754.0503,0.2771334885194636,1513.1686034958216
3754.9138,0.2780852875744923,937.4707292719821
3755.7776,0.27874303223128855,2141.3421688009335
3756.6438,0.2791445031662684,2236.641397540149
3757.508,0.27920986657000857,865.5637860748797
3758.3745,0.2788508503332678,596.1849094537862
3759.239,0.27826762272364675,948.5731740292749
3760.106,0.27801864928817455,2062.6934908796384
3760.971,0.278674710478448,765.441433323978
3761.8362,0.28038654744423996,621.1113575675263
3762.7036,0.28282623371908555,940.2784816016582
3763.5693,0.28541765254333856,1350.3473148920696
3764.437,0.28763322429463706,1173.784927145573
3765.3032,0.28908434342049877,1287.6636565254037
3766.1714,0.2896340957645502,2335.470878769422
3767.0378,0.2894171319268411,1378.8090847376334
3767.9043,0.2887701179132036,1816.5588889656337
3768.7732,0.288044111655559,720.3896664701966
3769.6401,0.28748756042020895,1640.3139971211542
3770.5095,0.28725323643912964,1344.319835288306
3771.377,0.287506307006171,1405.1709305525437
3772.2466,0.28844328463802765,1184.1722063142843
3773.1145,0.29015345848748275,1736.9323600880418
3773.9824,0.2924598719801065,1859.6394133845424
3774.8528,0.2949169869150991,1022.4300895643994
3775.721,0.296978069409306,1027.5911884490038
3776.5918,0.29824966143165804,1824.5781487235295
3777.4604,0.2985301676581614,2075.613566524447
3778.3315,0.29781033500520104,2439.201135458672
3779.201,0.2962184128369658,2947.7530616938966
3780.0703,0.2940051175026697,700.585071329508
3780.942,0.2915897411633449,865.7867951488942
3781.8118,0.28959767956777255,1339.9904401405345
3782.6838,0.2886299106262623,2373.6548150911526
3783.554,0.2889315035290887,1362.6340078054675
3784.4265,0.2902091859975046,1143.6986711170396
3785.297,0.2918873583263894,813.4471730307329
3786.168,0.29356434291241856,2029.7620563938715
3787.041,0.29519179607679025,647.1331228306107
3787.912,0.2968770546465557,509.5109010999642
3788.7856,0.2985612861117014,1832.2708850568615
3789.6572,0.29975234929436395,607.3635178180505
3790.531,0.29965468982317095,1332.079823398308
3791.403,0.2976358572809481,1304.4451953184214
3792.2754,0.2937816651300197,645.5820662228234
3793.15,0.28900900891242426,2003.0378941147228
3794.0225,0.2846686539065469,949.5899187396456
3794.8972,0.2818187642202372,1912.793239841784
3795.7703,0.2809191325978247,1281.308765579284
3796.6455,0.28179495734365795,1758.9376881414846
3797.519,0.28384035587754347,1260.7243584528887
3798.3926,0.2861823473930946,1223.1543890871544
3799.2686,0.2878431510371265,1133.9494139407047
3800.1426,0.28802599261502326,1428.8051463696988
3801.0188,0.28654604734875105,1072.446579962217
3801.8933,0.28403403392701393,1337.8712174947686
3802.77,0.2816151258265757,974.996633509704
3803.6448,0.2802508435226401,2390.4022394073454
3804.522,0.28018340229317995,1702.0772196040812
3805.3972,0.2810691575447783,2413.9285602878704
3806.2727,0.2825342028115784,1416.6749458603867
3807.1504,0.28459350136707423,1383.7167111720116
3808.0261,0.28752118942186733,1091.2896235760834
3808.9043,0.29140347016444346,792.3132853659102
3809.7805,0.2956093136648097,1312.1270568356135
3810.659,0.2988206492487342,908.4156059704304
3811.5356,0.29961340579962803,792.7803511200036
3812.4126,0.29759487780182853,1188.8488408712867
3813.2917,0.29402399710493826,1332.661135986677
3814.169,0.29134787682755936,806.2546466631584
3815.0483,0.29167045375397577,1392.03422412095
3815.926,0.29543135655280794,1358.364909105596
3816.806,0.3011863961712977,885.7128616503899
3817.684,0.3065152309114496,927.7656905347835
3818.5623,0.3094587049876498,895.6292755199794
3819.4429,0.30929528225999564,614.8820474488639
3820.3215,0.306522326663287,906.2439575045946
3821.2024,0.3022717161950295,1226.7878796642337
3822.0815,0.29776389884041926,1159.1804326264748
3822.963,0.29387927809448866,1673.6100996262999
3823.8423,0.29103830085411253,772.7372972296309
3824.722,0.2890990392378777,1173.9078601429042
3825.604,0.2875580327805263,1232.3535388003932
3826.4841,0.28587898181026883,967.5534438064838
3827.3665,0.28377039452781555,1375.4913410995248
3828.2468,0.2813247127712179,1107.8732770231056
3829.1296,0.27885327603166865,2502.2234476293206
3830.0105,0.276696157925729,836.9105339148506
3830.8916,0.2749795889288726,1165.4509049079666
3831.7751,0.2735683389184398,1872.2379921653987
3832.6565,0.2721964185310134,1549.7359843433662
3833.5403,0.270746254925299,757.4949438082765
3834.4224,0.26955403639594105,2465.2605934013823
3835.3064,0.26932420141596497,1599.527303986119
3836.1887,0.2706924279422138,1287.749517957262
3837.0713,0.2737345801884535,2386.814486649522
3837.956,0.2778870703174453,2240.4023312236445
3838.839,0.2822628088541744,1208.6442658699218
3839.7244,0.28621457920419907,2147.4031301551436
3840.6077,0.28951334274043294,2007.1844247906802
3841.4932,0.29227708040251654,2089.739604346187
3842.377,0.2945834599964189,885.666006765156
3843.261,0.29638064588827717,656.6287751814542
3844.1472,0.2976786366522151,1138.340737759414
3845.0315,0.2988549887178968,698.4435723963495
3845.9182,0.30064632920259193,1401.855142773344
3846.803,0.30360716462732884,1093.8073567333731
3847.69,0.3075414675916775,752.6625324971027
3848.5752,0.3113482002094129,717.4996054678699
3849.4604,0.3136984024333243,396.69768783074744
3850.3481,0.31388487226038186,1437.7226573655576
3851.234,0.31225229518373226,862.5008941018637
3852.122,0.30986915508739993,2248.2427210252454
3853.0083,0.30784294858434,2756.992995244856
3853.8967,0.306764289198856,2272.2867285048947
3854.7832,0.306656650157106,752.9039305163725
3855.6702,0.307202689676682,919.9883800327173
3856.559,0.3080973683887289,923.3390792671307
3857.4463,0.3092643546285826,998.9197097574565
3858.336,0.3108545901360521,845.5643598117867
3859.2234,0.31296256090082,885.3088400892194
3860.1135,0.31538386570731763,638.8713226989407
3861.0015,0.3175752685273581,856.8809106482869
3861.8896,0.3190214168451822,1023.4499419850313
3862.7803,0.31955402583671044,732.8738419171434
3863.6687,0.31941459556294666,1586.0354294374697
3864.5598,0.31899195571878114,798.9919542890095
3865.4487,0.318462271481255,1324.9982699677773
3866.34,0.3176473537912491,1245.5354674891955
3867.2297,0.3162600579673418,858.0857030877506
3868.1213,0.31428864615062035,674.709925220081
3869.0112,0.31218481411756366,1314.1179857341676
3869.9014,0.31057783746236384,1056.662998652391
3870.7937,0.30984708762057456,1299.9728252008333
3871.684,0.30989500875527864,780.2262619412245
3872.577,0.31030267469329986,753.4829184674658
3873.4678,0.3107073654923513,825.0262940220268
3874.361,0.3110316491320782,1313.8874462351173
3875.2524,0.3113378182441575,739.6491315629929
3876.1438,0.3115194848664557,1018.1380457164153
3877.0376,0.3112242541100807,1300.4607516957815
3877.9297,0.3101560979335196,964.8580704285812
3878.8237,0.3083853406951707,1136.966868821427
3879.716,0.3063073211246924,1004.6393229324793
3880.6108,0.30425479380765014,901.4439691188053
3881.5037,0.30228001014313927,931.2952714165185
3882.3965,0.3001860980063825,1155.8136630282477
3883.2917,0.2977376638597593,1539.7019569458791
3884.185,0.29477480281444984,1303.920415841482
3885.0808,0.29117504534746574,984.0784098303506
3885.9746,0.28697028266550484,1312.0592616064869
3886.8706,0.28234938602242127,3008.4550530345373
3887.765,0.2776795418224531,1154.069218842693
3888.6592,0.2732956502956199,1010.0876722097959
3889.556,0.2694910062810085,2488.733936991352
3890.4507,0.26666553062330306,1310.6090921781743
3891.348,0.2653519339202437,1740.145772016277
3892.243,0.26612917129766667,927.3417623358281
3893.1406,0.26929590967713285,2051.810783439744
3894.0361,0.2746176666639611,1011.6228088262312
3894.932,0.28141552452023794,706.6353028645212
3895.83,0.2888309130848072,1320.4751527872697
3896.7263,0.2960347526660287,1019.6740673076381
3897.625,0.30246971973641373,939.0997449552101
3898.5215,0.30772134282331626,775.8116728189383
3899.4207,0.31166225292507965,1220.8821873501213
3900.3176,0.3143577844048255,1861.5630468008546
3901.2148,0.31606953588803827,865.2514160968634
3902.1145,0.31703502061507594,617.4853386045214
3903.0122,0.3173157725510591,916.4359894557464
3903.912,0.31679559005747554,879.0575767821279
3904.8103,0.3153416510007918,907.716713827112
3905.7107,0.3130298110019452,845.7037978890169
3906.6094,0.3102845349031738,754.6931322180376
3907.508,0.3077550981792332,1119.5913594530648
3908.409,0.3060971474833032,836.037924679856
3909.308,0.3057304448820649,1222.9264202205215
3910.2097,0.3066416766647606,949.6269774348376
3911.1091,0.3083649182330197,846.3432693425015
3912.011,0.3101987947349659,1491.3668289413981
3912.9111,0.3116046518997472,816.2583108506548
3913.8113,0.31266184495345273,842.2935961032712
3914.7136,0.31408987309783376,1208.9353548972226
3915.6143,0.3167291715024887,786.8951685177142
3916.517,0.32092441350188766,902.3483901687
3917.4182,0.32626640170276955,900.4342200298041
3918.3215,0.3319457161419329,844.6319161656146
3919.223,0.3370480000035681,757.0649212566468
3920.1245,0.340895008436329,807.4879796749502
3921.0286,0.34318935552667973,862.2585836790464
3921.9307,0.34413587007590213,826.7956906256716
3922.835,0.34435642838392616,742.7819604027883
3923.7373,0.34451593018069027,727.9029737734413
3924.642,0.345010412483936,1249.673259132504
3925.5452,0.3458381307608838,728.8102164767704
3926.448,0.3466457068425977,761.6737222227472
3927.3535,0.3468612962186272,614.1923429072064
3928.257,0.3459539907162394,683.9148330582531
