wavl,flux,ivar
3566.9744,0.705611857553822,435.1544929290436
3567.795,0.7055992283366622,617.3160456215824
3568.6177,0.7042481233459938,761.0244325764304
3569.4385,0.7021531582093662,1388.3259992487021
3570.2617,0.7002813577345468,765.0895465046776
3571.083,0.6993830508401244,672.6400856340374
3571.9065,0.6996330764246314,471.3840728649413
3572.7283,0.7008102256362229,593.6745924250698
3573.55,0.7026422140394828,608.0260877159168
3574.374,0.7049263386110436,659.2451684589283
3575.1963,0.707387942233131,405.99111989410085
3576.0208,0.7097455532072591,476.72930581999174
3576.8435,0.71191608008805,1083.1820038393726
3577.6682,0.7140971016562357,529.061942754913
3578.4915,0.716307116770552,613.6491850045339
3579.3145,0.7180171609592695,572.791469315635
3580.14,0.7183887058294105,387.0209124218985
3580.9636,0.71707965337788,379.3708449182844
3581.7893,0.7148207714513328,526.1810880339231
3582.6133,0.713159839645947,855.6946285468924
3583.4395,0.7134852022966343,680.6900929454995
3584.264,0.7161120514357072,501.41200472845924
3585.0884,0.7200093042233707,563.8282760108734
3585.915,0.7233707446275468,910.9007672629281
3586.74,0.7245802985371528,160.3807752917863
3587.5671,0.7230345288815936,514.9607100018557
3588.3923,0.7192463032855941,509.34979853289207
3589.22,0.7144148846671241,527.1155139129079
3590.0457,0.7100330429780967,507.1831818124471
3590.8716,0.7074681440146761,524.1688412121752
3591.6995,0.707618147299829,579.0843640249261
3592.526,0.7103788074558138,639.0717544006704
3593.3542,0.7144565278304884,481.0061856100733
3594.181,0.7179009028648349,554.478023816512
3595.0098,0.7192639183691532,371.1011780581932
3595.8367,0.718355314555318,456.38570466285773
3596.6638,0.7161450883988811,693.3994060602948
3597.4934,0.7139132514791499,422.99973775183344
3598.3208,0.7125233933339608,616.0683036779075
3599.1506,0.7121788073745331,599.8843987508819
3599.9788,0.7126468356695769,454.7715997322671
3600.8088,0.7134711457433691,780.6799697030735
3601.6372,0.7141308836149334,406.27065858157755
3602.4678,0.7142389862793561,643.050512531601
3603.2964,0.7136781215969854,830.7612562826871
3604.1252,0.712536594523056,666.8728891336104
3604.9565,0.7109069241267699,914.5738143178962
3605.786,0.7088644365847729,523.8206600566193
3606.6172,0.7065910529150566,554.0598572824849
3607.447,0.704459668581721,655.4657173201831
3608.2788,0.7027394949509381,583.5644320156307
3609.109,0.7013281175906059,651.7413179392611
3609.9392,0.6998211329252119,526.0179992082556
3610.7717,0.6980004947115127,480.47484053018127
3611.6023,0.6961433933005271,525.7154768612426
3612.435,0.6946893649513095,505.6453391065947
3613.266,0.6937339771471261,836.5864501118367
3614.0994,0.6929692829310948,581.3003366290493
3614.9307,0.6922835301835243,618.2657198412802
3615.7625,0.6921963835491203,935.3741337736734
3616.5962,0.6935580590005791,736.0386911998495
3617.4282,0.6966982302224487,739.6065423842794
3618.2625,0.7008791675393352,606.0702640271127
3619.0947,0.7044187874269561,674.5927436719256
3619.9292,0.7055833297566164,421.84702738788087
3620.762,0.7035377675673209,477.42748254241957
3621.595,0.6989610634706866,447.14552619960585
3622.4302,0.693781471786662,721.2330800948998
3623.2634,0.6902602709577893,810.9453420485979
3624.0989,0.689774210553349,718.5528098620225
3624.9326,0.6922516234413049,608.6434629726948
3625.7686,0.6963561551575003,993.2139565154537
3626.6028,0.7002598065862479,381.5312048894901
3627.437,0.7025954526374613,398.45671025561535
3628.2734,0.7029112780238398,603.3586254500503
3629.1082,0.7015601865434286,599.2849613161488
3629.945,0.6991796577035616,956.6358446022141
3630.78,0.6962838773047785,630.3469504803232
3631.6174,0.6932495318608405,454.743530491559
3632.453,0.6907071717763614,573.3680615599521
3633.2883,0.6896027878278291,595.6929537050554
3634.1262,0.6908359252433193,815.573958345753
3634.9622,0.6945893954146715,485.29679401423397
3635.8005,0.7000137904778043,435.6773246757261
3636.637,0.705421113676964,813.4173191474428
3637.4756,0.7091298649660227,720.7666961433263
3638.3123,0.7101815030669655,546.1073593794263
3639.1492,0.7087660180128917,1173.5757006443312
3639.9885,0.7058666083002435,544.2708463370288
3640.826,0.7026311654014612,528.290407521506
3641.6653,0.6997997647367006,951.1027055145983
3642.5032,0.6976789399195877,536.2857202342022
3643.343,0.6962664553052913,609.2363024464923
3644.1812,0.6953745648770583,769.053226114344
3645.0195,0.6945731268131018,766.2095645272622
3645.86,0.6932716979832265,821.1964084923732
3646.699,0.6910318587408535,600.2327439346848
3647.5398,0.6879111916275007,696.6478909419061
3648.379,0.6846372016528338,949.1427777295883
3649.2202,0.6822839479107751,939.2611554166293
3650.0596,0.6817307560845708,690.380085052852
3650.8994,0.683080501787339,641.0117985669955
3651.7412,0.6856307797017515,488.3244907938582
3652.5813,0.6883448048116488,519.0442018735778
3653.4236,0.6905388222581531,533.7044781607447
3654.2642,0.6920505960374591,478.04832452423136
3655.1067,0.692946466860256,1149.6137685044089
3655.9475,0.6930962693226591,929.6209428222741
3656.7886,0.6922060952164674,733.344494286688
3657.6318,0.6901829619922201,717.4839737208005
3658.4734,0.6874529270263929,482.29525355998425
3659.317,0.6847766932120886,853.6503627716806
3660.1587,0.6827620113429202,601.34977411649
3661.003,0.6813567266217049,638.3276120636848
3661.845,0.6799508923198173,443.56630183779885
3662.6875,0.6779628629832678,568.322137305177
3663.532,0.6754855323876079,1172.118578702738
3664.3748,0.6733703678979801,711.8287447664712
3665.2197,0.672640283091166,793.6029815106212
3666.063,0.6738014765079439,723.8668652620349
3666.9084,0.6764447806673562,608.7778705911908
3667.752,0.6793736465383998,604.0336983217788
3668.5977,0.68124787779893,504.06952485379037
3669.4417,0.6812449849509324,481.42735890222366
3670.286,0.6794232682603607,508.6407842789177
3671.132,0.676462446870641,689.5877234588543
3671.9768,0.6732127463783244,828.175525893903
3672.8235,0.6703596695321252,549.9183383512826
3673.6685,0.6684597580341195,769.039475758008
3674.5156,0.6679178269445883,803.5178559976133
3675.3608,0.6688839893539376,851.5666839723071
3676.2063,0.6710739015228394,559.764066662727
3677.0542,0.67383563425231,623.5089003201233
3677.9,0.6764359938296692,531.487288146201
3678.748,0.6784566413904531,676.5713909444659
3679.5945,0.6797789469217779,611.8245969348078
3680.4429,0.6803138690151163,545.4485522159141
3681.2896,0.6796879846455075,458.7237467605755
3682.1365,0.6773877719052932,473.98967055738035
3682.9856,0.6732559796876016,925.8834225255604
3683.8328,0.6679202105973228,887.2355462674285
3684.6824,0.662480909587503,1193.3970633994566
3685.53,0.657884447746686,749.3312278182677
3686.38,0.6542837734229735,738.8653796147298
3687.2278,0.6513072335789853,581.7266686889384
3688.0762,0.648669525927056,895.5848939516327
3688.9265,0.6466509498079103,512.8265815102311
3689.7751,0.6458610744425751,751.52846005337
3690.626,0.6465963676010953,990.2732285420931
3691.475,0.6485308118847563,486.7881827436748
3692.3264,0.6510235053848415,660.5900780372472
3693.1758,0.6536640846386667,706.9042970740657
3694.0254,0.6566079443254498,612.4096601359786
3694.8772,0.6603695995569406,601.3815372248357
3695.7273,0.6653216137892433,603.9543970681725
3696.5793,0.6713444676466245,1061.7279783935958
3697.43,0.6776487364655503,555.4819664599647
3698.2825,0.6831679074526027,602.0761205247696
3699.1333,0.6869633918868766,551.2963662209595
3699.9841,0.6886327119747248,573.3125085187932
3700.8374,0.6882565493571854,742.7885723952595
3701.6887,0.6862857083056119,633.0617235359447
3702.5425,0.6834095312269982,802.0601697753341
3703.3943,0.6803956035006178,751.3829222955102
3704.2483,0.6777157833828108,587.5107996215778
3705.1003,0.6753734098905516,706.16756547609
3705.9526,0.6729721923102736,792.3311639026944
3706.8074,0.6701133655682009,895.8785806745656
3707.66,0.6667579587664026,524.3368229956012
3708.515,0.6632495971021461,648.1990987881298
3709.3682,0.6601911283677488,740.1351489159013
3710.2234,0.6580613398661999,733.3951185520989
3711.0771,0.656995753617441,790.2137027531007
3711.9307,0.656661888928938,749.3207660168166
3712.7866,0.6563940547668544,659.0167253549798
3713.6409,0.6554657319046082,590.2484621158567
3714.4973,0.6534152528913786,738.4094764219975
3715.3518,0.650321469286113,792.3924976358838
3716.2085,0.6468113005703127,583.9662403914007
3717.0635,0.643914311010507,758.0804991394403
3717.9185,0.6426172746287949,697.5476537369293
3718.776,0.6434349323740081,679.4811701147319
3719.6313,0.646038902397761,680.772461633496
3720.489,0.6492988144503893,825.6051602051575
3721.345,0.651771628936419,951.8741475927989
3722.2031,0.6525482489449888,683.1607008307961
3723.0593,0.6517632556351307,602.3955388089698
3723.9158,0.65051155106393,581.2524422356071
3724.7747,0.6501977721274007,586.7390231239235
3725.6316,0.6518056121796237,1014.5141620646764
3726.4905,0.6554664682721085,722.2714118448428
3727.348,0.6604567217794594,667.4228670032455
3728.2073,0.6656485386681631,436.17530398383053
3729.065,0.6699617843700899,459.9909184725211
3729.9229,0.6727840042480917,806.7265785412849
3730.783,0.6739520216533454,620.665826412984
3731.6414,0.6735815940158741,641.0712896248428
3732.5017,0.6719163191263013,677.23325985139
3733.3604,0.6693027704547536,488.79398228022694
3734.2214,0.6662247963963228,637.4047800458236
3735.0803,0.6633522792420099,768.3948472214984
3735.9417,0.6613234819755601,691.1501346252659
3736.8013,0.6605440224283546,620.9822827278307
3737.661,0.6609764439717966,535.8388307532003
3738.5227,0.6621959237814401,705.4243196666084
3739.3828,0.6635652241226587,571.7850424857315
3740.245,0.6645084475196121,534.5762789144064
3741.1055,0.6647049748531287,504.17616845205544
3741.9683,0.6641869295751442,753.1372279412811
3742.829,0.6632761047923929,590.3234052357221
3743.69,0.6624402468309613,630.6708406295487
3744.5532,0.6621125016796412,1043.2321487286079
3745.4148,0.6624536149685909,440.69964564379677
3746.2786,0.6631563113216067,735.1455173348854
3747.1404,0.6635284610242225,623.8906576786413
3748.0044,0.6629278935858748,580.727171547413
3748.8667,0.6612524849046628,752.7915970427334
3749.729,0.659093925672495,528.3488844126655
3750.5938,0.6574199948268644,552.1421719807288
3751.4565,0.6570179322779951,661.7968765002477
3752.3215,0.6580246606882768,1008.1486668666905
3753.1848,0.6598934749557982,669.8467179620972
3754.0503,0.6617402354740429,656.2834955605684
3754.9138,0.6627543236038854,524.4480503930889
3755.7776,0.662520095333533,625.2868039530267
3756.6438,0.6610860122240371,580.7059119527099
3757.508,0.6589243866279889,782.71350643592
3758.3745,0.6566940254017253,813.1792363402916
3759.239,0.654977335254972,542.0139711191503
3760.106,0.6540272770394562,718.4063794764152
3760.971,0.6537918215204201,795.1490521363268
3761.8362,0.6540486227578499,677.0419560920045
3762.7036,0.6545961777698845,766.160830067133
3763.5693,0.6553638065715262,718.6951949190524
3764.437,0.6564571438832953,789.6427973717048
3765.3032,0.6580635614061888,662.9908135099048
3766.1714,0.6602619631683558,820.5546249444931
3767.0378,0.6627542157746303,736.605793379857
3767.9043,0.6648156256406954,634.288264476352
3768.7732,0.6655022290623573,753.8431229576703
3769.6401,0.6641057393664707,609.9324076328954
3770.5095,0.6605607869000871,892.8376587969803
3771.377,0.6555383207859007,542.0962052433941
3772.2466,0.6500499427480829,644.0990500619214
3773.1145,0.6450456573946977,1353.5313369463456
3773.9824,0.641023536251801,728.5651077935671
3774.8528,0.6380725313209399,850.410653042141
3775.721,0.6360922125604834,735.4451388257899
3776.5918,0.6349862863270509,775.0109181117464
3777.4604,0.6349147140997407,768.1289209801901
3778.3315,0.6363317384868465,589.224953227969
3779.201,0.6397164799758223,732.0258823400936
3780.0703,0.6450104097176541,824.2968110578731
3780.942,0.6512159787888503,704.7456908084314
3781.8118,0.6566458613255018,751.2178326251113
3782.6838,0.6600076902764633,582.0126690888351
3783.554,0.6611691056186264,687.5572794864036
3784.4265,0.6611115363873293,576.9825329990408
3785.297,0.6609448286847782,698.5840173218721
3786.168,0.6610590460099235,734.2620670499898
3787.041,0.6611132163758767,579.3268202631209
3787.912,0.6606686464943623,594.9743547851754
3788.7856,0.659692285536967,713.9077315327091
3789.6572,0.6584998764256668,795.292582645732
3790.531,0.6573455038941531,858.257317639011
3791.403,0.6562041653226132,722.2677577185854
3792.2754,0.6548398790553006,565.3992161554951
3793.15,0.6530162923056012,779.688825624881
3794.0225,0.6506089661224632,689.8763064904974
3794.8972,0.64756204884783,670.6352828696505
3795.7703,0.643955888635457,953.266682434629
3796.6455,0.6400500648942838,623.137623664159
3797.519,0.6363932580906545,774.6068736366663
3798.3926,0.6336287078153598,638.4838226102494
3799.2686,0.6322413693478951,883.8864542045269
3800.1426,0.6323232219172596,524.506415746604
3801.0188,0.6335279921088487,958.732477876576
3801.8933,0.6352497338616875,713.9568559539131
3802.77,0.6368849722144433,776.4068104365704
3803.6448,0.6380537051875599,877.3077612433501
3804.522,0.6388294746958849,497.0085357471999
3805.3972,0.6397291590182249,630.4751697697344
3806.2727,0.6414036778628045,831.8563658847222
3807.1504,0.6441385338641605,952.3727720556709
3808.0261,0.6475855966302119,619.3296440143365
3808.9043,0.6510332687317012,549.5193683180495
3809.7805,0.6537383710731048,625.4420235318635
3810.659,0.6551725859503806,629.8240839360822
3811.5356,0.6549878165696779,516.895537714801
3812.4126,0.653143728318729,553.917941517985
3813.2917,0.6500523533815598,441.0331150766835
3814.169,0.6465717046135594,764.8034395387301
3815.0483,0.6436236866975108,668.0384172494057
3815.926,0.6419111902133037,633.7913958056232
3816.806,0.6417510479763247,903.9069901808069
3817.684,0.643108643312095,934.4609919443238
3818.5623,0.6455733741642549,728.1411695278464
3819.4429,0.6484253244132465,546.6544448272494
3820.3215,0.6508515485604296,682.4546750390532
3821.2024,0.6523033935961104,636.5870635779982
3822.0815,0.6525760882755706,762.7992440807644
3822.963,0.6517508453048427,705.2493853632386
3823.8423,0.650082349389257,598.4633513594338
3824.722,0.6479129933198063,765.0035416132168
3825.604,0.6455497654260586,645.4985540831664
3826.4841,0.6431373329289903,620.8182653906646
3827.3665,0.6405768397725079,704.0121833317947
3828.2468,0.6377017114011341,701.9236669662783
3829.1296,0.6344001999040906,608.6577883984464
3830.0105,0.6307179968446125,801.4713412675463
3830.8916,0.6266973147707833,875.4265120357531
3831.7751,0.6223068409355863,841.0769567091126
3832.6565,0.6175455619142015,708.939587155456
3833.5403,0.6125120040354672,811.5414768221017
3834.4224,0.6075779148412918,927.7576935543751
3835.3064,0.6032762788253103,686.4690510971622
3836.1887,0.6003119097471807,793.2883049705256
3837.0713,0.5993308796233279,803.7544670642317
3837.956,0.6006478599077658,627.0536769578689
3838.839,0.6039179129141683,817.6239698950028
3839.7244,0.6082051931773965,756.6732906663566
3840.6077,0.6124370180216688,783.6352169791209
3841.4932,0.6161194812795764,943.0364851025408
3842.377,0.6195062353691917,727.0313573292267
3843.261,0.6232661519246833,1005.6855697206606
3844.1472,0.6278163621514334,772.4673121545197
3845.0315,0.633018362616886,674.900130192331
3845.9182,0.6385421144114874,612.436676911273
3846.803,0.6441529943976203,766.8365305350782
3847.69,0.6498264714587485,833.1830335245875
3848.5752,0.6553756762430846,683.9949748335248
3849.4604,0.6604414368965357,578.7423641947465
3850.3481,0.6646789992567879,591.3052619352883
3851.234,0.6679832313872441,829.39154501858
3852.122,0.6705621690408275,418.51831578086524
3853.0083,0.6726619902386214,521.8683417621603
3853.8967,0.6744317986668708,535.0022321977499
3854.7832,0.6758387319375285,550.7353968829677
3855.6702,0.6767743533825443,775.894615969959
3856.559,0.6771565185282022,533.3260873535987
3857.4463,0.6770261448850374,827.533379532775
3858.336,0.6765407542890144,749.6444034611537
3859.2234,0.6758631280770759,636.6338021446834
3860.1135,0.6750506715830561,649.9394089655706
3861.0015,0.6740999589080168,634.6839496285753
3861.8896,0.6730565852608399,683.9300136028174
3862.7803,0.6720831768767578,554.8681274419653
3863.6687,0.6713932087302874,654.1153544330425
3864.5598,0.6711026150017053,574.4189595641596
3865.4487,0.6711423144114634,662.8813244369311
3866.34,0.6711873401317916,561.9979047722622
3867.2297,0.6706479724243223,506.9380107815015
3868.1213,0.6688124860261097,599.1108387087805
3869.0112,0.6652361444250453,619.0543613969285
3869.9014,0.6601229254928215,760.0539401713038
3870.7937,0.6543669819755711,870.4195837878677
3871.684,0.649130621894276,699.0235877865009
3872.577,0.6450860237005152,689.5378799184518
3873.4678,0.6421426925732848,571.4125587030851
3874.361,0.6394917993505101,626.3965340589123
3875.2524,0.6361446999553295,537.5585882969474
3876.1438,0.6314358168596514,640.7649473889874
3877.0376,0.6253443255815921,561.5398282005294
3877.9297,0.618404841267349,887.6798619563598
3878.8237,0.6111007218474429,785.8319244273382
3879.716,0.60360250742728,684.5754099069432
3880.6108,0.5957893343202428,548.3921830108658
3881.5037,0.5878474276578111,709.5086699414078
3882.3965,0.5803393906790316,793.1571824040625
3883.2917,0.5739143627775298,655.0477279848824
3884.185,0.5687886796134373,1016.4311845216552
3885.0808,0.5644141100788799,837.1909066130773
3885.9746,0.5599676069178078,820.2520102818096
3886.8706,0.5549918435516881,899.3524104194646
3887.765,0.5499864560969486,923.4006406157182
3888.6592,0.5461722175916215,1054.2827148385695
3889.556,0.544792376381154,796.1597193879995
3890.4507,0.5463519296644023,912.4226365758868
3891.348,0.5503649242496111,962.6167053551941
3892.243,0.555717665014583,958.8981947740994
3893.1406,0.5614100105815447,1078.78652105535
3894.0361,0.5669282989908437,936.1811316064446
3894.932,0.572384547726882,964.1877166241528
3895.83,0.578138751496702,1230.845291763834
3896.7263,0.5843470297385432,1142.1392724782118
3897.625,0.5908605817786152,1012.108101540368
3898.5215,0.5972429524737697,777.6242798072944
3899.4207,0.6032794798400124,1090.0904425915076
3900.3176,0.6091771678746869,824.8126104501259
3901.2148,0.615671489922236,935.4763400627537
3902.1145,0.6235521306248751,916.6169317045736
3903.0122,0.6330078809192,905.4665147783828
3903.912,0.6434463549630497,657.7962872768665
3904.8103,0.6535565057608417,572.4186241923671
3905.7107,0.6621413135944954,772.4410446649667
3906.6094,0.6686055860475603,570.5752423615971
3907.508,0.6732905236662579,747.707367467575
3908.409,0.6770506864550532,708.1671812511266
3909.308,0.6806568095963235,580.6581276204842
3910.2097,0.6844809636180295,788.8831408665014
3911.1091,0.6884254007155896,604.198936971991
3912.011,0.6922113629425777,768.6651767902773
3912.9111,0.6955168579874027,447.19006120764743
3913.8113,0.6981935028926052,869.5125061614715
3914.7136,0.7003498517306185,831.3045956693036
3915.6143,0.7023707351362323,537.6315006181995
3916.517,0.7048115150270808,657.9237991599872
3917.4182,0.7080709303308593,603.3380400865238
3918.3215,0.712209605364151,482.3116160453374
3919.223,0.7169122519909047,579.8515272688765
3920.1245,0.7217410319526341,622.4688115260125
3921.0286,0.7262525709372722,401.12569112746263
3921.9307,0.7300328671786043,523.6591914410795
3922.835,0.7328909063825537,466.88165337433117
3923.7373,0.7349309991899406,483.03815350488054
3924.642,0.7365417983854229,541.2003860455344
3925.5452,0.7380313466382981,537.8218020425845
3926.448,0.7393551412850513,681.8554203361717
3927.3535,0.7401199669502142,504.0710517508262
3928.257,0.7398816524860412,560.3689166550319
3929.1628,0.7384765521126502,586.5807642361549
3930.0667,0.7361284397952024,562.5763853727273
3930.9731,0.7332814473476922,432.8553104637517
3931.8774,0.7304308624965546,507.73357112508563
3932.782,0.7279694995018873,506.3960178845186
3933.6887,0.7262032576809702,486.8880896788613
3934.5938,0.7252722221944896,645.7496192596902
3935.501,0.7249573667789426,458.2387104656299
3936.4062,0.7246602795052337,497.62306727765855
