wavl,flux,ivar
3566.9744,6.123718565193585,17.23258395836395
3567.795,6.109574912374364,22.420745730717712
3568.6177,6.097181709479082,16.418916592353785
3569.4385,6.087169600527997,20.91858631084342
3570.2617,6.080097457683752,19.503484764556433
3571.083,6.077682860549099,20.87611079094757
3571.9065,6.08045425869929,14.717562281865302
3572.7283,6.0862594347330035,11.876151044941988
3573.55,6.092412408197997,20.973969426296303
3574.374,6.098614172595977,16.80352423816979
3575.1963,6.10610406466512,22.48564643536451
3576.0208,6.1138727373049715,17.52181463945674
3576.8435,6.116590775537455,23.28231035675985
3577.6682,6.107666468649313,22.740186632206708
3578.4915,6.084277041726322,14.814261548952812
3579.3145,6.049211456661706,20.428443170359966
3580.14,6.0079997129218095,14.846013476832788
3580.9636,5.965789734975665,18.655874850787917
3581.7893,5.92617397768653,27.497633174281617
3582.6133,5.893863171012227,15.048730671787684
3583.4395,5.874484458753523,26.854970026047525
3584.264,5.872724566180465,28.83434504601695
3585.0884,5.88903713902058,26.98521142430065
3585.915,5.918852392277387,16.847609455258254
3586.74,5.953053016735349,18.463667811944074
3587.5671,5.981018190667006,18.380749528110346
3588.3923,5.993910677474218,18.62107681904638
3589.22,5.988502361095947,20.212885990751566
3590.0457,5.967698050945317,22.38142473266711
3590.8716,5.938676233221756,17.113034646897198
3591.6995,5.910468084426995,18.411234633615635
3592.526,5.892198607750213,21.7492232321889
3593.3542,5.890056280690609,16.83154982476613
3594.181,5.904079373231516,16.35521623979382
3595.0098,5.926550419515524,16.188583949237426
3595.8367,5.944835739747653,22.339651631620985
3596.6638,5.948414541471934,16.503337348398848
3597.4934,5.934206921839755,25.7456516321485
3598.3208,5.907185130462788,26.785898338084852
3599.1506,5.875140097609743,20.842674919405223
3599.9788,5.8432701445712985,18.57424691520559
3600.8088,5.811510615355194,20.902793887558065
3601.6372,5.7784563788520265,14.883421536706466
3602.4678,5.746193430337613,23.962145458096536
3603.2964,5.722361455874514,19.567343920573485
3604.1252,5.715005974293282,16.39556907495887
3604.9565,5.7273753154582785,14.253966932171412
3605.786,5.756974790799848,18.344102046397744
3606.6172,5.799442567962255,23.045197455914444
3607.447,5.850439303328024,18.961088622405477
3608.2788,5.9050846657564575,27.703044945631955
3609.109,5.955207526410224,19.385126834153276
3609.9392,5.990846738704946,24.71377890563036
3610.7717,6.003330188847769,18.192748597686172
3611.6023,5.989720305471318,17.166364789521868
3612.435,5.955184677493405,23.828667966438218
3613.266,5.911591188356227,22.671909292131208
3614.0994,5.872165706117851,19.318231259659363
3614.9307,5.846750136654888,24.619537119319684
3615.7625,5.837902638965132,17.040393610886607
3616.5962,5.841853114366386,19.90911899119805
3617.4282,5.852095468739496,21.85047749288824
3618.2625,5.864055587097092,23.15971966148303
3619.0947,5.876865781558511,20.7894319926408
3619.9292,5.891732778122386,20.52141227974282
3620.762,5.908481704665354,20.24597313520549
3621.595,5.924569334846875,17.054839160372435
3622.4302,5.936022045302881,20.259109768469134
3623.2634,5.938455965188604,22.076966503563632
3624.0989,5.927716039538069,29.956562971951513
3624.9326,5.901628445244567,14.347112907063796
3625.7686,5.862574293196016,18.216324696145804
3626.6028,5.817741452078825,18.67702532086927
3627.437,5.77346873032477,27.217150186836154
3628.2734,5.730544841942808,21.495973716569388
3629.1082,5.686209780435362,15.82730032436943
3629.945,5.640199532795212,19.447503637895128
3630.78,5.599195004437451,19.690680102398098
3631.6174,5.571880111997143,21.159810929502434
3632.453,5.5625451467243945,24.12571436602868
3633.2883,5.567868962347583,33.701644801540105
3634.1262,5.580870191867354,24.302200219431334
3634.9622,5.595835659829612,24.686121222480566
3635.8005,5.610354169995759,22.554305941096572
3636.637,5.622835808517301,32.02357462442047
3637.4756,5.630241682058045,18.521241620023577
3638.3123,5.62852425370794,17.013134514714196
3639.1492,5.6162187576843055,17.06328659100706
3639.9885,5.596556783613623,34.09837680873628
3640.826,5.575774536902766,18.2571228762705
3641.6653,5.558048094012047,30.068035653363623
3642.5032,5.5430496244889325,27.77364922110312
3643.343,5.52773099522322,21.15213029891267
3644.1812,5.511503411115332,26.519469906983925
3645.0195,5.498654019475567,33.946183893067705
3645.86,5.496029381516814,23.721607118377545
3646.699,5.50770214390107,18.05485769785691
3647.5398,5.531695467395221,22.426576325446263
3648.379,5.56092865042766,19.764156404165487
3649.2202,5.587267966099473,33.31706942193598
3650.0596,5.6043547745191935,21.37841597647689
3650.8994,5.60969996007004,20.480237992756233
3651.7412,5.604414382991392,26.67163844927861
3652.5813,5.591695083575821,23.067572419197457
3653.4236,5.573625566297539,34.180744380571696
3654.2642,5.549211997423055,41.53369217366511
3655.1067,5.515554378767896,28.44086563827284
3655.9475,5.473106558536924,18.22753363952682
3656.7886,5.428544687725528,21.2558404404795
3657.6318,5.392295696156696,25.07796049338199
3658.4734,5.371559006667963,26.185561608349893
3659.317,5.364981689251644,29.440380282447755
3660.1587,5.365525528261658,24.363551942614173
3661.003,5.367275922825292,15.361403282184458
3661.845,5.3699245796034925,23.140230763526304
3662.6875,5.376996018037569,15.936339986978274
3663.532,5.390491394010062,32.70610247019222
3664.3748,5.4073572071242655,17.06177847984538
3665.2197,5.421377005626588,19.413124966983126
3666.063,5.427804906272601,20.897384049350705
3666.9084,5.426955398811332,40.59911419625217
3667.752,5.423133053358093,19.634404318958378
3668.5977,5.420708093571677,26.349886383383282
3669.4417,5.4208863592487475,31.870417588637494
3670.286,5.421787142695515,20.800921753525923
3671.132,5.421598689739772,30.626186509699412
3671.9768,5.421397262472016,18.618537084062062
3672.8235,5.424391884313141,26.603653143943077
3673.6685,5.432163765806194,29.598526704826615
3674.5156,5.442247846529314,15.810444929952657
3675.3608,5.4495285416030335,36.67814137337515
3676.2063,5.450124204192246,19.512988006691163
3677.0542,5.443688267243232,25.065837321584567
3677.9,5.433434421599319,27.007761015661828
3678.748,5.424060565862331,25.53681602417427
3679.5945,5.418974014259238,19.40881231636591
3680.4429,5.417456449284829,30.257343987055304
3681.2896,5.414578024818219,29.27642829236983
3682.1365,5.404487161550798,28.17155848126618
3682.9856,5.38507222753841,29.304058580542453
3683.8328,5.360612178873709,22.023711087301958
3684.6824,5.339763036610222,23.131899352528674
3685.53,5.331181043385152,25.774945088620747
3686.38,5.337903257200318,25.447131721678982
3687.2278,5.354648423745776,39.78350390602394
3688.0762,5.369591447107769,18.146613238783118
3688.9265,5.370293437215527,29.201856556524607
3689.7751,5.350625979749343,18.20608132657216
3690.626,5.313830248481756,28.32939610206039
3691.475,5.270320680984286,28.87024776213508
3692.3264,5.23142075528611,20.52533483792946
3693.1758,5.2054917759043855,25.119386426967598
3694.0254,5.195764844585246,31.736621150136795
3694.8772,5.200948326369224,27.82752846367987
3695.7273,5.215398766898005,30.887570267550142
3696.5793,5.230720541886801,24.27584150343247
3697.43,5.239142116082608,24.743958262920373
3698.2825,5.237290590833578,28.53574558756158
3699.1333,5.2264845176912536,19.87036436587844
3699.9841,5.210019823749816,22.816206966440326
3700.8374,5.190866859249319,27.29108573098296
3701.6887,5.17230372458995,27.363224736470016
3702.5425,5.1586848871682,25.73171312756103
3703.3943,5.1546372143966,27.353103812445692
3704.2483,5.161597616863945,25.332524204714677
3705.1003,5.175535340688863,22.11018706460793
3705.9526,5.188135316994581,21.815259780822114
3706.8074,5.191112561911136,24.430702973978228
3707.66,5.180970738890894,26.623180356964582
3708.515,5.160843431707847,34.09133202275501
3709.3682,5.138648128859934,32.06321639949691
3710.2234,5.122700754430142,21.44993903582954
3711.0771,5.118099686844279,29.149460394325253
3711.9307,5.1240170764374815,23.38745991105994
3712.7866,5.133751720656039,31.339788479833995
3713.6409,5.137439583004683,33.46045496209109
3714.4973,5.127311603550855,20.04421540325746
3715.3518,5.1023893956781095,32.55314054112736
3716.2085,5.06945325269883,29.622991576108028
3717.0635,5.039953319965269,27.363037462952516
3717.9185,5.023264632719355,139.6676864559059
3718.776,5.022127257669836,25.231130918541048
3719.6313,5.032402025128974,26.30419274229133
3720.489,5.046765606813734,31.94452782820749
3721.345,5.058372671307764,29.324086352076133
3722.2031,5.062887937803454,22.89652198413268
3723.0593,5.059202117671296,23.260463965774967
3723.9158,5.050118107329095,26.48060033306502
3724.7747,5.041388203395274,28.239134181002715
3725.6316,5.038956226555406,19.30035813879399
3726.4905,5.045693308648288,31.913105393840777
3727.348,5.060180318925637,33.73984744098528
3728.2073,5.077710594639638,30.678107947904017
3729.065,5.092106968311705,22.8677880272745
3729.9229,5.098313051347341,29.96848248104061
3730.783,5.094474804619212,24.35611379577691
3731.6414,5.0831118836197575,33.92805519726923
3732.5017,5.069579799814724,30.285279919789268
3733.3604,5.058874713504935,26.055577102608748
3734.2214,5.052841458150613,23.790560698399545
3735.0803,5.050222649430748,22.590772721358423
3735.9417,5.047952309434695,27.22483831325771
3736.8013,5.042446614534859,20.541786076274935
3737.661,5.030415972125717,32.24682282967841
3738.5227,5.010391273612112,29.840907753973905
3739.3828,4.985028483791601,31.19176077115998
3740.245,4.9611762183706345,25.995958532359452
3741.1055,4.947248684206389,32.43106675570565
3741.9683,4.947887114967433,29.183508067145567
3742.829,4.9609769836908715,38.39256136465883
3743.69,4.978380339173707,27.408620917685273
3744.5532,4.9898424704488304,34.79229515607968
3745.4148,4.987422620140688,28.324518960949593
3746.2786,4.969028905026432,22.75841417936458
3747.1404,4.939331448282463,33.842601658262815
3748.0044,4.9072458998154325,26.01876539921229
3748.8667,4.882574037932811,28.906107118999326
3749.729,4.872324171082289,23.262693504220298
3750.5938,4.879355417216155,42.85826658941744
3751.4565,4.901460496773529,27.7400327242389
3752.3215,4.931866056082525,24.443347853553384
3753.1848,4.96118558957852,23.444820845016988
3754.0503,4.981602532708033,30.43125063034843
3754.9138,4.989327055892448,40.036483882008255
3755.7776,4.985358409146374,22.874650085685012
3756.6438,4.973613157960961,27.188363042679363
3757.508,4.959121593035011,27.010789868304947
3758.3745,4.946264700743269,38.21076754903516
3759.239,4.937887801629897,41.768752536555546
3760.106,4.93437388113052,23.990291580541328
3760.971,4.934066030335028,23.162886516728218
3761.8362,4.934592339287288,29.996923985150744
3762.7036,4.934348815726273,31.286027796370515
3763.5693,4.932716974434187,27.190468835795016
3764.437,4.929443851632794,33.5285182251042
3765.3032,4.924531599403844,25.066857916687745
3766.1714,4.9186222536718205,32.840761598870124
3767.0378,4.913026118512834,25.15262809483125
3767.9043,4.908845658239873,29.99964843143204
3768.7732,4.906325205944835,29.92575812990968
3769.6401,4.9047907896051886,32.44697957538895
3770.5095,4.90293552475883,30.457235168291216
3771.377,4.899390139330338,25.104295515675
3772.2466,4.893252635763548,38.23887277684392
3773.1145,4.884441397203744,30.500749914177966
3773.9824,4.873520336025443,25.9305479606953
3774.8528,4.861731492004153,34.38967778336885
3775.721,4.851455363347187,23.880847502260124
3776.5918,4.846086159629072,31.056489778201414
3777.4604,4.8494419416315,32.99210302553245
3778.3315,4.8640735983627685,25.961495249727484
3779.201,4.889374928307106,43.532902820294936
3780.0703,4.9209069732879245,28.14028559900234
3780.942,4.951614067903417,34.552464936091766
3781.8118,4.974475450958127,23.608173025329123
3782.6838,4.985559150138631,33.9610148903032
3783.554,4.984367775714959,34.179162155915066
3784.4265,4.973184894108988,39.15545931952565
3785.297,4.955745297636187,26.222094715468916
3786.168,4.935672586447253,35.338898965662125
3787.041,4.915392482534482,32.96521313070956
3787.912,4.8963626845131,30.729855478479887
3788.7856,4.880282846662792,33.195467859296635
3789.6572,4.871217217550518,36.751723377523504
3790.531,4.87539418681412,29.518290454769353
3791.403,4.898232376690278,31.966723865861805
3792.2754,4.938006944338167,23.67452450867347
3793.15,4.980036257323204,28.304864985245295
3794.0225,4.998409880632504,20.35245415146328
3794.8972,4.970668689489243,35.621360893331534
3795.7703,4.894839300822545,30.91774140558791
3796.6455,4.79315809763444,28.4393455793625
3797.519,4.699407212879709,44.87208152763229
3798.3926,4.6381639520543025,37.29078420015527
3799.2686,4.6160241000422255,33.862685283577584
3800.1426,4.624579216927331,29.51909656815802
3801.0188,4.648766483702124,40.9824954296321
3801.8933,4.674457546144758,34.24683999737466
3802.77,4.693081850819782,32.92387649112389
3803.6448,4.70254001033083,34.91216574058178
3804.522,4.706256289335371,31.579888967941006
3805.3972,4.709924244769616,25.59749564145332
3806.2727,4.718158383358817,25.274133833739782
3807.1504,4.732344390186723,35.62166606698269
3808.0261,4.750827232405401,31.27790952104089
3808.9043,4.771398918765852,32.28054606704923
3809.7805,4.792633567850771,33.55533315896488
3810.659,4.813438562067399,29.31588664619183
3811.5356,4.8304951409813075,38.551293002240456
3812.4126,4.838492287260373,28.906828556821562
3813.2917,4.833266305192934,30.24018251830197
3814.169,4.8159416002404365,26.614848744943888
3815.0483,4.7933516596455705,35.33676079470609
3815.926,4.774543717725411,31.620931852662338
3816.806,4.765548236626564,26.097586015892936
3817.684,4.767098730440867,31.076444141110485
3818.5623,4.77507962732031,44.50906126896554
3819.4429,4.783036655464118,30.90397299080311
3820.3215,4.7846702382763615,30.3789739096414
3821.2024,4.77600171287904,30.493589219906145
3822.0815,4.75637783136517,28.82263723105273
3822.963,4.728027572805527,32.55732794815275
3823.8423,4.695110430422855,29.68444411060033
3824.722,4.661762368146137,36.26721919923339
3825.604,4.631270349326412,28.670737889760083
3826.4841,4.60595741154672,35.10263300244843
3827.3665,4.586452421015114,30.816096788714567
3828.2468,4.571387551506072,40.03628553115453
3829.1296,4.555967962110686,34.43094683634935
3830.0105,4.5325290294309495,30.885080417627314
3830.8916,4.493037621649848,28.486544356058182
3831.7751,4.433424410481106,35.96217710375167
3832.6565,4.3570698850850125,36.60177943308302
3833.5403,4.272685814549256,41.297879698934814
3834.4224,4.192160352192859,33.3896775139571
3835.3064,4.1257517606226335,51.37334382747618
3836.1887,4.081457094911618,53.18657921823265
3837.0713,4.062764209371118,49.071648085988514
3837.956,4.068717521957271,49.20734165736738
3838.839,4.094736995161312,38.783698110275765
3839.7244,4.135524121002313,45.07519594017878
3840.6077,4.186790647398386,36.297027995251
3841.4932,4.245651195656258,35.48360611330408
3842.377,4.307814466756464,35.68808920769611
3843.261,4.367975468433429,43.785389340942714
3844.1472,4.421900784262039,29.67735599456684
3845.0315,4.469397058640463,49.99993744281944
3845.9182,4.515448169399359,32.70735512550587
3846.803,4.565372425291355,30.40628598412379
3847.69,4.621175077872191,30.436349932950886
3848.5752,4.679666531631891,24.988934803821152
3849.4604,4.736479592066958,30.5108806638006
3850.3481,4.78920178813967,26.974807589401017
3851.234,4.837112749746956,29.045146090736743
3852.122,4.879717014067755,24.422071194196217
3853.0083,4.914504902239768,23.212021539218437
3853.8967,4.939419294305423,31.027888696547482
3854.7832,4.9547801988376445,25.335054974291772
3855.6702,4.964092991040917,29.4648112600498
3856.559,4.971627731349192,30.936611587781496
3857.4463,4.980258923629459,27.64532378103105
3858.336,4.991152006287565,22.383316658935158
3859.2234,5.004072594955029,28.00571971278871
3860.1135,5.01747030628584,26.35559505827185
3861.0015,5.027774647239828,23.974486622388227
3861.8896,5.030373433162133,32.36665407897873
3862.7803,5.021459030784507,30.522579779154878
3863.6687,5.000098630766641,26.511901712620112
3864.5598,4.968424397694765,33.9421319179406
3865.4487,4.93098060584249,27.234936946990125
3866.34,4.892343919413932,26.879609666630195
3867.2297,4.856429138664991,29.234661653290967
3868.1213,4.825171006686687,28.206118028094963
3869.0112,4.7990390376782095,42.71315364946
3869.9014,4.776660061917895,34.69380961155884
3870.7937,4.755063148622164,31.015708993233147
3871.684,4.729974287917088,30.24528050048843
3872.577,4.696560800265551,32.89568871380436
3873.4678,4.652377339145443,35.043084207346226
3874.361,4.598842580508563,29.71822441626652
3875.2524,4.541595739949893,44.166492906512325
3876.1438,4.486361002384092,32.65707833218751
3877.0376,4.436159784521753,44.456895646245826
3877.9297,4.391291183601152,32.82904105425847
3878.8237,4.350049451090035,34.357055598302686
3879.716,4.310348105225178,47.05124280168791
3880.6108,4.268558657004222,34.393062037059565
3881.5037,4.2204013213888505,36.36139481068616
3882.3965,4.16203444548586,41.53252637492531
3883.2917,4.0920714798890465,49.87436575819075
3884.185,4.012228811460963,35.375657956982984
3885.0808,3.924401619139976,46.35792941349739
3885.9746,3.8308600926831913,42.14626106953705
3886.8706,3.732879722195752,49.28785450171461
3887.765,3.6340371068607893,50.73102811258149
3888.6592,3.5403352759573523,75.73572692559824
3889.556,3.4612577821882873,58.78792907782716
3890.4507,3.408834549665169,57.45473836580572
3891.348,3.392686965835884,62.05969308967766
3892.243,3.4163654496583127,67.07145251920319
3893.1406,3.4745745392924996,86.15312948529554
3894.0361,3.5546025393985894,49.86473599000143
3894.932,3.6427693380568438,55.8493354372007
3895.83,3.7296296890911615,44.0665158110338
3896.7263,3.8113026778113355,45.968344287367586
3897.625,3.889065118560952,56.360763648173325
3898.5215,3.964434101597091,41.30035442958217
3899.4207,4.0386823215769345,38.150431760467555
3900.3176,4.110933160515565,41.25587402828591
3901.2148,4.180391361160801,34.49514191583892
3902.1145,4.246738823165591,48.733885843641154
3903.0122,4.310365090652659,29.233156429520264
3903.912,4.3732483841701395,39.1835440707586
3904.8103,4.436639657393425,29.451219137776263
3905.7107,4.500935221312793,36.808456087072784
3906.6094,4.564207378660416,35.331254921558774
3907.508,4.624121986816478,30.59673058200204
3908.409,4.679197684821123,26.558145540036932
3909.308,4.729513429094535,31.125179562862982
3910.2097,4.777214082569225,26.764115287165342
3911.1091,4.824124195029166,33.05215048590709
3912.011,4.871383387361482,34.02609918451494
3912.9111,4.918174289919098,29.12170150942523
3913.8113,4.9631249721867725,32.49030366090495
3914.7136,5.004918905249887,31.696979644962962
3915.6143,5.042754645408976,26.97930921209354
3916.517,5.077433159035,28.980520591907958
3917.4182,5.110475524969334,31.02415422551262
3918.3215,5.143523229339096,22.018650210820297
3919.223,5.176289372898866,27.158705394846457
3920.1245,5.206903109297926,27.840278087047334
3921.0286,5.23322412726255,25.940287170826593
3921.9307,5.254700338705503,22.098697949154605
3922.835,5.27340911159983,21.364946828055214
3923.7373,5.292183663530613,22.24700434713172
3924.642,5.312639221805931,21.001784388314032
3925.5452,5.333508608329907,27.545857657061312
3926.448,5.351761828645537,26.383164442233962
3927.3535,5.364586089928932,21.880238981338763
3928.257,5.370923884579728,20.62208713298333
3929.1628,5.371755502655538,25.235215652887046
3930.0667,5.36866679384017,23.646791410634545
3930.9731,5.3623857925064575,37.79775333633527
3931.8774,5.352412608210971,24.940390080565244
3932.782,5.337980719683766,19.683437467339733
3933.6887,5.319615561931646,23.114719700666225
3934.5938,5.299664400269384,29.245052625365304
3935.501,5.280838974807039,27.474648839786155
3936.4062,5.265180098066012,24.312315730078176
3937.3142,5.253325881645679,24.87741564575974
3938.22,5.244781312703417,24.43976123331999
3939.128,5.23716427371191,27.41835152579157
