wavl,flux,ivar
3566.9744,1.2418799252370185,153.64504701516992
3567.795,1.2435437351025216,193.68732183280787
3568.6177,1.2436704726492749,170.9604902579567
3569.4385,1.2416600790454126,203.53044619076323
3570.2617,1.2379949522412412,192.4528568566652
3571.083,1.2339032534121204,202.65545366142948
3571.9065,1.2304212519066635,165.46890106686283
3572.7283,1.2279491381251113,177.61428236708247
3573.55,1.2264075019769094,158.81350390659006
3574.374,1.2257633284928788,192.65165698363953
3575.1963,1.226197381445032,200.3395680295156
3576.0208,1.227863876980989,180.95734639573993
3576.8435,1.2305541556215813,178.55260835878732
3577.6682,1.2335932720600133,206.97944736386995
3578.4915,1.2359817920748641,171.6992383450869
3579.3145,1.2369177785363523,131.1585656080107
3580.14,1.236296681609143,207.64313012226413
3580.9636,1.2348106978065099,175.12781271253687
3581.7893,1.2333196842411394,164.61440741549578
3582.6133,1.2320471605717642,154.13014732625203
3583.4395,1.2304407937908906,198.36238400328764
3584.264,1.2279992304724607,201.82764746077703
3585.0884,1.225048328156188,264.14385002556776
3585.915,1.2225702432788652,205.41148433498688
3586.74,1.2212441729826369,182.14545301223527
3587.5671,1.2206879685172924,169.31156979854677
3588.3923,1.2196721940672481,231.19064455172347
3589.22,1.2168993712374219,178.7400261432453
3590.0457,1.2119455414673812,168.85079394921632
3590.8716,1.205883259531856,189.47290808572228
3591.6995,1.2011894207691234,231.5491232205182
3592.526,1.2004217607120224,201.11060333934753
3593.3542,1.2042064554378347,191.3393732933802
3594.181,1.2104275481363007,157.19701028916222
3595.0098,1.215579839505501,138.37600889066562
3595.8367,1.2170124933234858,169.5674943786901
3596.6638,1.2143912581135756,192.67844274025313
3597.4934,1.2092905656081756,191.9090769315172
3598.3208,1.2040137132011726,190.04024296758485
3599.1506,1.2002789174560922,204.66165366155522
3599.9788,1.1985642871256077,226.12369687887806
3600.8088,1.1979216693018468,156.7385218874957
3601.6372,1.1967313398692283,231.90655824036634
3602.4678,1.1938953558663459,170.52372897261387
3603.2964,1.189681952397706,214.43781134092575
3604.1252,1.1854209182842894,183.64215174401357
3604.9565,1.1825479879257417,175.57558681988195
3605.786,1.1817915785771542,217.90574833493264
3606.6172,1.182890112911743,177.87021248976754
3607.447,1.1848455255172003,143.53584082845444
3608.2788,1.186388081100243,191.21193224070683
3609.109,1.1865107583322916,166.93712641882527
3609.9392,1.1849462700667917,239.7176747482925
3610.7717,1.1822303988085603,233.90949842863313
3611.6023,1.1794163866375955,221.36236718950423
3612.435,1.177566365652473,168.1433172817411
3613.266,1.1774206948092825,214.1316248668444
3614.0994,1.1790801900427086,199.8203749009014
3614.9307,1.1818172024381761,142.34116518121024
3615.7625,1.1842280763453972,221.064614445254
3616.5962,1.1848236258701934,168.09843949904058
3617.4282,1.1828846424338588,219.27088665941724
3618.2625,1.1789617630242333,190.36828881454366
3619.0947,1.1746080857904106,197.47809810728134
3619.9292,1.1714091019296478,242.06012398901476
3620.762,1.1702695087727606,183.5837822547804
3621.595,1.1712381239603438,185.13255432401556
3622.4302,1.1739298099580298,217.9355615071866
3623.2634,1.1778197392032403,240.99378214975178
3624.0989,1.1823130102325705,214.60452504737532
3624.9326,1.186542314206097,193.9877546478019
3625.7686,1.1894814101682867,179.28139686292658
3626.6028,1.1901949930181777,223.60983797927378
3627.437,1.1882903879454119,152.05362995913572
3628.2734,1.184025911601332,205.43808117806364
3629.1082,1.178152084343029,188.65124684475037
3629.945,1.171497375500842,208.4577567960209
3630.78,1.1649644953975893,209.60160876347737
3631.6174,1.1595154595064345,164.44808740187943
3632.453,1.1561675373786005,174.3819344917878
3633.2883,1.1552931666975053,224.56841891427038
3634.1262,1.1561651815970406,228.50526312165948
3634.9622,1.1572593319824747,181.98820173780646
3635.8005,1.1573968189210597,166.61530884897599
3636.637,1.1566061866102302,171.7176518591369
3637.4756,1.155867889528734,181.4741286482418
3638.3123,1.1560333769724198,185.96041183061817
3639.1492,1.1569562262182285,235.4074947244886
3639.9885,1.1575433947091887,224.0996694110516
3640.826,1.1565183753082857,232.49633955972135
3641.6653,1.153317207444013,151.31782839270443
3642.5032,1.1485604167071983,198.618794772518
3643.343,1.1437733544139619,182.44453631033426
3644.1812,1.1406983218983626,200.8012631878532
3645.0195,1.1404582289606573,263.2839218489168
3645.86,1.1432641325317865,211.06286269603729
3646.699,1.148445294634974,187.23477372027358
3647.5398,1.15470412831582,240.33357128689985
3648.379,1.1602127807289777,255.4696375560414
3649.2202,1.1630594743594214,235.03867938363393
3650.0596,1.1619228569160915,189.5515838427706
3650.8994,1.156964213454509,178.24917161662756
3651.7412,1.1499248590832576,187.10935204054942
3652.5813,1.1433145985023994,192.96575277734965
3653.4236,1.138976502069515,269.4512896797144
3654.2642,1.1373814046201383,225.46277995457314
3655.1067,1.1376906237007933,178.59320212464337
3655.9475,1.138586757664304,329.6815681054939
3656.7886,1.139100741565207,301.5403362786478
3657.6318,1.138933598707835,164.66865833010874
3658.4734,1.1381557917390124,239.43393075524654
3659.317,1.1367236268916374,209.77838130545854
3660.1587,1.1344874905317388,157.98486959090204
3661.003,1.1316983229787596,236.09305512106906
3661.845,1.1294150612372194,201.4182887438613
3662.6875,1.128982509290711,196.25164467709928
3663.532,1.1310301349605951,244.7734403847814
3664.3748,1.134829062808407,215.56163999123402
3665.2197,1.1388011999685865,172.9786701712897
3666.063,1.1415718853790122,225.98710018517633
3666.9084,1.1427128434307328,175.54839986971524
3667.752,1.1424126299244157,227.50294678248537
3668.5977,1.1407695206848238,179.55700739437123
3669.4417,1.137528617404502,172.16011809819517
3670.286,1.132484014822757,219.07707151998014
3671.132,1.1259802639109109,205.44357158685176
3671.9768,1.1189991458248478,178.86793079451695
3672.8235,1.112728439559846,211.00181700479797
3673.6685,1.1083172902855742,206.85691827327918
3674.5156,1.1065123965058332,208.8622429717443
3675.3608,1.1074812103923493,229.57448233144603
3676.2063,1.1106642737125008,202.47258392362914
3677.0542,1.1149971293767953,302.03978735513215
3677.9,1.1192339982081168,211.40316435995473
3678.748,1.1224152181561247,222.66880944797282
3679.5945,1.1240968495722772,200.7164817137072
3680.4429,1.124548067467269,203.79507180530433
3681.2896,1.1244665921320807,204.24116014333993
3682.1365,1.1243761814346407,153.7555118807385
3682.9856,1.1241334497339845,146.63969705401797
3683.8328,1.1230653732725548,214.05662188402601
3684.6824,1.1206133029195369,143.31315525881215
3685.53,1.1169320386799724,243.9569797238727
3686.38,1.1128434224954202,206.44318719173182
3687.2278,1.1093580726050933,236.10356514064128
3688.0762,1.1069527693025403,228.06134605074107
3688.9265,1.1052938392323388,214.76158788546525
3689.7751,1.1034516799304492,194.22873712522434
3690.626,1.1005440766251284,194.61862032064082
3691.475,1.0965926743350365,223.37241522150407
3692.3264,1.0928699726983746,221.2619357811721
3693.1758,1.0913722450571224,469.16714786691
3694.0254,1.0933244388295937,280.81968464099555
3694.8772,1.0981038903732288,240.51541378885358
3695.7273,1.1034317569360075,173.0796153116308
3696.5793,1.1068690869116624,188.1499036205024
3697.43,1.1070598543456653,234.05582201405787
3698.2825,1.1041142140357771,358.51110145433796
3699.1333,1.0991855942217172,196.30495122725165
3699.9841,1.0938318866106398,201.3152271440704
3700.8374,1.0894935226418119,201.97440155017185
3701.6887,1.087142505616667,188.18441411702003
3702.5425,1.0870410699498567,268.692574656058
3703.3943,1.0888057983136186,262.45920927917916
3704.2483,1.0914945764605546,213.77201619566083
3705.1003,1.0938405083047678,201.46668582963954
3705.9526,1.094824792284634,309.52619323669296
3706.8074,1.0941446863586461,222.3158283799276
3707.66,1.0921946867610532,212.28961450522354
3708.515,1.089521360188466,222.9275532000819
3709.3682,1.086478834219229,218.37241466836366
3710.2234,1.0832992858557295,245.78796011383363
3711.0771,1.0804026801333124,269.6129658939903
3711.9307,1.0783149692842244,246.70650024119414
3712.7866,1.0774240216301214,213.3995582974084
3713.6409,1.0778165309238907,286.5798289015309
3714.4973,1.0792622302074077,278.76971014820873
3715.3518,1.0812387990926715,234.1655430257389
3716.2085,1.0830299273336383,203.80801839193077
3717.0635,1.0839404113466002,223.68199371729287
3717.9185,1.0836584313645803,197.09265292499347
3718.776,1.0823472013758817,238.6063037337701
3719.6313,1.0803981627819872,252.79925957768174
3720.489,1.0779666538981416,304.56930700633836
3721.345,1.0748136203437684,242.12232882677688
3722.2031,1.0705252796961533,241.0513580313679
3723.0593,1.0651105509554137,222.1827077454883
3723.9158,1.0592868572843277,292.70135118399514
3724.7747,1.0543544544740229,240.98227572007588
3725.6316,1.0516228054516839,229.7255964177871
3726.4905,1.0516405204124513,236.1812118815099
3727.348,1.0538962160473506,250.47182558899553
3728.2073,1.0570232428784927,255.87566905826353
3729.065,1.0594449906477872,279.5533831345979
3729.9229,1.0601610990374817,230.0922457755849
3730.783,1.0590948926485158,228.7266387299103
3731.6414,1.0569433522351448,229.97139383019342
3732.5017,1.054636038983198,189.1640603074094
3733.3604,1.0529168554620076,243.44585428831996
3734.2214,1.052194749871565,241.12362230063036
3735.0803,1.0526515824556872,212.37394815404502
3735.9417,1.054258730998004,229.48689951584902
3736.8013,1.0567317960323461,235.81649357737157
3737.661,1.0596110812438053,209.5775529942646
3738.5227,1.0624174965851512,222.33150841304456
3739.3828,1.064696798749592,275.30858352694116
3740.245,1.0660189880428095,296.3294368210735
3741.1055,1.0660173341284211,216.6907485817544
3741.9683,1.0646866988394423,209.21547904579114
3742.829,1.0625509645293634,251.15316498978615
3743.69,1.0603710160509252,197.46010879745464
3744.5532,1.0586080708990595,248.54748143491602
3745.4148,1.0571709355365997,227.73423948572403
3746.2786,1.0556398212786144,246.9824879058505
3747.1404,1.0537654998580241,246.66066237109325
3748.0044,1.0516764162541106,266.1646665854138
3748.8667,1.049778014166891,213.98779072234888
3749.729,1.0483284775876898,220.86133859681797
3750.5938,1.0470560763055345,240.4906647707847
3751.4565,1.045128311354614,264.21913471179494
3752.3215,1.0416320956512353,261.2034045803511
3753.1848,1.0363377213957283,286.55017345934914
3754.0503,1.0299685226194024,260.26150734098604
3754.9138,1.024023943344964,236.6498675767023
3755.7776,1.0200580622019242,233.80062724373312
3756.6438,1.0190759300780572,254.99752717718584
3757.508,1.0210103593017865,286.72278344564944
3758.3745,1.0246314938073813,240.3298310353474
3759.239,1.0280798800687085,261.12625728023386
3760.106,1.0299229337838895,212.3277891356178
3760.971,1.029932650506446,251.57016968827176
3761.8362,1.0291644838006382,234.76314896935534
3762.7036,1.029120826960952,312.8638510303182
3763.5693,1.0306796712651114,268.1459183154319
3764.437,1.0335390901596095,227.69113141869767
3765.3032,1.0364865431389656,236.6604703790837
3766.1714,1.038214467784217,254.14379615905077
3767.0378,1.0379219342875563,252.97132539462626
3767.9043,1.0355247184716891,237.83176311502487
3768.7732,1.0315329336759842,255.013072299689
3769.6401,1.0269943583520793,215.55557662010438
3770.5095,1.0232009631949213,253.5794033503389
3771.377,1.0212151387985393,264.4754676826574
3772.2466,1.021165188712791,256.68782787178304
3773.1145,1.0221923646398754,225.55269783714462
3773.9824,1.0230971423972994,231.24198547663946
3774.8528,1.0231606112484872,249.1895907834007
3775.721,1.022435878405654,325.64907188770076
3776.5918,1.0214590428121864,254.99419948616435
3777.4604,1.0207858890395411,248.10993067828247
3778.3315,1.0205860637351196,257.58904265678416
3779.201,1.0204467458281807,273.43171515291505
3780.0703,1.0195350160494774,301.2661911536792
3780.942,1.0172461471075689,261.4785565239503
3781.8118,1.0139252010039732,246.55031676348779
3782.6838,1.0107775166867106,304.07074419269736
3783.554,1.0089483876331373,318.25278978079706
3784.4265,1.0085258205909076,208.71634417817367
3785.297,1.0086845258845942,216.82548876728237
3786.168,1.0086750426221796,232.70659272528857
3787.041,1.008559363552767,275.11516327984106
3787.912,1.008958828424468,228.7761467304449
3788.7856,1.0102866191615762,229.79911547765894
3789.6572,1.0123183942051872,307.6065503039918
3790.531,1.0144338699082531,322.8021990137843
3791.403,1.0160778833795685,235.06300249066572
3792.2754,1.0170971281069094,239.21617442958325
3793.15,1.0176294664700154,335.4154874442206
3794.0225,1.0177490665760383,283.63984648792933
3794.8972,1.017243891344917,265.01865824647024
3795.7703,1.0158236618883976,270.43084442445524
3796.6455,1.013579820812064,282.2896589819234
3797.519,1.0111997996323008,334.9527316524624
3798.3926,1.0095478232660269,294.76094928610166
3799.2686,1.009058251715883,241.09505154373642
3800.1426,1.009482053642803,254.20869217003542
3801.0188,1.0101972152303886,256.5539542060458
3801.8933,1.010696785207256,296.49206949692854
3802.77,1.0107748920688198,258.8589254571397
3803.6448,1.0103508885943646,268.38513280926577
3804.522,1.009285832510542,258.38183201866826
3805.3972,1.0074500199366512,284.01033783746425
3806.2727,1.0049172395802297,229.38098010426015
3807.1504,1.0020370679997002,195.71126475076113
3808.0261,0.9992526116847698,283.6477891090069
3808.9043,0.996781399754192,290.72793898042687
3809.7805,0.9946512700949866,295.5927125554923
3810.659,0.9928327381013612,267.58784861129055
3811.5356,0.9912968028386037,288.44182991060023
3812.4126,0.989793402040501,240.670789431168
3813.2917,0.9878647488831968,218.97636341041485
3814.169,0.9852251480285094,221.63576759041155
3815.0483,0.9820448673863867,330.25258873925844
3815.926,0.9788755583889645,300.96757390611816
3816.806,0.9762291687632342,278.111287930276
3817.684,0.9744479805248766,274.1889365519067
3818.5623,0.9737365207200631,413.0645820018554
3819.4429,0.9742547282764125,309.29584823601766
3820.3215,0.9759921046278042,292.98821878830375
3821.2024,0.9785794708695839,237.81965409053515
3822.0815,0.9811956547026224,236.08878611810337
3822.963,0.9828674325242339,286.52677610363185
3823.8423,0.9829950378899951,262.2233822424825
3824.722,0.9818885797201781,264.78136256220495
3825.604,0.9807276351816924,288.1150282723999
3826.4841,0.9809077748070152,287.63695989870405
3827.3665,0.9830931802801631,273.41786061260285
3828.2468,0.9866519625936943,246.64071041226202
3829.1296,0.9899184800813516,298.4380903839925
3830.0105,0.9910668241251557,251.7465792820374
3830.8916,0.9892424891654062,285.32073650770366
3831.7751,0.9850127452019625,283.21091414898876
3832.6565,0.9799972892579923,293.5775738275939
3833.5403,0.9757796382606092,306.6224639384039
3834.4224,0.9731890174743044,254.3156776148196
3835.3064,0.9720744836263733,344.18982165378225
3836.1887,0.9716688476259817,309.8751148306895
3837.0713,0.9709771984611539,320.0038174847274
3837.956,0.9692089037453819,298.15310163864757
3838.839,0.9662671260391672,210.1248674052683
3839.7244,0.9629535406684779,289.93079208152545
3840.6077,0.9605794591129141,323.25757742844274
3841.4932,0.9599599204028711,267.6483852198221
3842.377,0.9608213987620808,287.8595725837789
3843.261,0.9621123469593835,277.8306547440845
3844.1472,0.9629129866876466,269.27782863752805
3845.0315,0.9629753512889931,283.1290677839472
3845.9182,0.9625581884145656,287.4742974164051
3846.803,0.9619529983683728,290.2134751155705
3847.69,0.9612762639416359,287.562431858916
3848.5752,0.9606336043228848,295.08846549878206
3849.4604,0.9603025001226011,285.8709632615155
3850.3481,0.9606992306871809,314.51384264466066
3851.234,0.9621542611831824,233.4150893415968
3852.122,0.9647628693063917,315.93160445646765
3853.0083,0.9683393936842972,314.479193271339
3853.8967,0.9724952594975921,322.02982969324347
3854.7832,0.9766041206791662,299.42982816277885
3855.6702,0.9800064179593095,335.81792961218196
3856.559,0.9822742685661291,260.5091356233369
3857.4463,0.9834831876873064,252.07150596534512
3858.336,0.9842121771333022,297.28194098815663
3859.2234,0.9851635928827049,277.92595438383506
3860.1135,0.9867406321973492,279.1181654750527
3861.0015,0.9887589047768783,256.6259594318674
3861.8896,0.9905438668715411,289.8542282234208
3862.7803,0.9912921660728661,262.2171897149117
3863.6687,0.9905301979755177,242.8121243540883
3864.5598,0.9883404879074016,269.20657083575816
3865.4487,0.9852067935999561,285.13585344625204
3866.34,0.9816015345449909,240.01299375268462
3867.2297,0.9778215610042345,293.12722250863607
3868.1213,0.9739711595101742,261.97351611680426
3869.0112,0.9701360885233539,333.4301538435197
3869.9014,0.9663285557178214,273.2295089967311
3870.7937,0.9625262772286318,262.58134342405356
3871.684,0.9589067262454594,321.7525230151505
3872.577,0.956011248517231,307.89840757471757
3873.4678,0.9546122553247072,346.97009742992657
3874.361,0.9549619254765372,374.32368779297946
3875.2524,0.9562202684444782,337.49654785369154
3876.1438,0.9567289617402454,268.69628345986956
3877.0376,0.9551119777370278,349.78530178951416
3877.9297,0.9512551170841755,265.02998830394273
3878.8237,0.9461808914393413,301.2828733373359
3879.716,0.941124394455316,324.1564832950871
3880.6108,0.9366084125337085,293.40039992421214
3881.5037,0.9325176628979017,322.58079285063525
3882.3965,0.9286271199485475,280.8678516147511
3883.2917,0.9251077475486852,314.87734532083766
3884.185,0.922412521748897,319.75731784273535
3885.0808,0.9206842290361517,368.7279889018569
3885.9746,0.9195241688701232,397.3990982949123
3886.8706,0.9182973614703057,314.59711774253236
3887.765,0.916773928123043,341.9918927931373
3888.6592,0.9153059233971768,325.35670507503835
3889.556,0.9144133087309179,342.0994205757209
3890.4507,0.9142580182884672,269.6351789412676
3891.348,0.91455708298229,309.0628225268774
3892.243,0.9149744165489839,407.4624121619103
3893.1406,0.9155250428420462,285.3548876888682
3894.0361,0.9166337909318758,323.39516905380515
3894.932,0.9188492924188476,336.3015334907845
3895.83,0.9223797483468263,261.694157894365
3896.7263,0.9267251906937879,351.37501044733006
3897.625,0.9308675316554681,298.41796226655913
3898.5215,0.9337851623886821,349.4641736422513
3899.4207,0.9351496870098027,266.7120311839227
3900.3176,0.9354373040002276,287.82607743408715
3901.2148,0.9356181146567826,281.68904114586354
3902.1145,0.9366160676186962,311.69961237559977
3903.0122,0.9388851507068443,227.03884156805668
3903.912,0.9421854364770107,382.021409883431
3904.8103,0.9455464512830296,317.0318469066053
3905.7107,0.947769259055761,263.8841851554146
3906.6094,0.9482567982939714,294.0808896884074
3907.508,0.9477547416699783,237.75118915476094
3908.409,0.9480700835879103,386.07238848267247
3909.308,0.9507781243889205,353.02798712619267
3910.2097,0.9558893824487652,357.59407911752413
3911.1091,0.9616360730064878,265.97414344852234
3912.011,0.9658082642775954,233.86295602136465
3912.9111,0.9672282947269485,227.08563341851297
3913.8113,0.9664014267702296,277.62968816146264
3914.7136,0.9647719401501079,392.7828300484109
3915.6143,0.9636272499485071,287.52802463556753
3916.517,0.9634661454161061,294.5419273644355
3917.4182,0.9641167623998462,262.1895819795507
3918.3215,0.9651200857492925,241.92748870393612
3919.223,0.9660139954427818,303.61476589200123
3920.1245,0.9664900004762839,286.7141830424996
3921.0286,0.9664460562408526,321.5257403344042
3921.9307,0.9659884307439641,328.4426571464148
3922.835,0.9653868494338399,254.40926178221824
3923.7373,0.9650444379310718,285.39033421061316
3924.642,0.9654065194927626,270.6492982425149
3925.5452,0.9667278247815474,259.340269661286
3926.448,0.968797781548429,311.6317556484778
3927.3535,0.970940438169574,236.6933318430704
3928.257,0.9723539191831894,234.2857935781649
3929.1628,0.9725929392794883,268.914649656987
3930.0667,0.971683153185797,293.8217431754918
3930.9731,0.9698982711491936,351.62901643144227
3931.8774,0.9674999309395362,291.56917040389294
