wavl,flux,ivar
3566.9744,7.404283455657814,63.126951088632126
3567.795,7.406201932095586,67.67442407534125
3568.6177,7.4018784111056,56.775794517492336
3569.4385,7.3918061074745784,64.97604284014422
3570.2617,7.378729188882767,61.97158830421024
3571.083,7.366052713063757,67.86828714596358
3571.9065,7.356014305897447,63.736096359849036
3572.7283,7.349383970611202,64.81327019791267
3573.55,7.345747309373887,61.25378040263429
3574.374,7.3443776830461625,65.9296860552515
3575.1963,7.3447530636621465,66.92013943711542
3576.0208,7.346771284208608,74.41552245881314
3576.8435,7.350699157779972,66.08791062178946
3577.6682,7.356690778109086,63.70154293401717
3578.4915,7.363712049855305,68.54415077840171
3579.3145,7.368875798972903,66.90042956105482
3580.14,7.368034266368299,62.41207773770545
3580.9636,7.3580182541864,62.07256205626307
3581.7893,7.338957084789552,58.42878416176283
3582.6133,7.314833468789556,65.31890535707345
3583.4395,7.290927521995174,66.57039851796867
3584.264,7.271140954922898,65.85850652574757
3585.0884,7.256302272010969,62.69255162154433
3585.915,7.245441108339953,69.46651283563317
3586.74,7.237524176618532,66.56993983488019
3587.5671,7.231795147042953,70.77258851335085
3588.3923,7.227416272578055,69.7445790843358
3589.22,7.223105005570085,67.68814332388406
3590.0457,7.217836885641784,68.64997003160774
3590.8716,7.211570828999272,67.933432162544
3591.6995,7.205461615394128,66.30238500908946
3592.526,7.201235564521161,67.57529106670543
3593.3542,7.199995190557439,61.44678432178366
3594.181,7.201390143790248,67.78977602303986
3595.0098,7.20352740688244,72.56162167540882
3595.8367,7.203852040227034,61.41786652554935
3596.6638,7.20050396691367,66.31764931052459
3597.4934,7.19320053787371,65.7723817342425
3598.3208,7.1834097265518375,74.65269637253849
3599.1506,7.1734615272088265,64.67804626814797
3599.9788,7.165544287745228,67.38894599648158
3600.8088,7.160419002753103,66.72329570546162
3601.6372,7.157207451145188,69.57667359601287
3602.4678,7.153973061164744,69.33214217889268
3603.2964,7.1489706983127315,74.79331070089735
3604.1252,7.141355069047278,67.56732549725737
3604.9565,7.131212334786276,74.24376842824371
3605.786,7.11935924041152,69.8974162931884
3606.6172,7.106830470684718,65.82403107949087
3607.447,7.094572541777948,70.65904170905883
3608.2788,7.082509149184676,67.73957114181698
3609.109,7.06949659313617,66.54467175383306
3609.9392,7.053958731052519,64.22524418720356
3610.7717,7.035307576886874,76.94869493231255
3611.6023,7.014856647237793,67.40865589395037
3612.435,6.99509309855908,69.29955388797863
3613.266,6.978895813094854,72.09794530798699
3614.0994,6.968063574964639,79.01596451117648
3614.9307,6.963125382396266,68.10648403746289
3615.7625,6.963414180660186,75.23550848739286
3616.5962,6.96782952383926,75.84237325208356
3617.4282,6.97520858310758,69.79108106669403
3618.2625,6.984550408729579,66.79680235162604
3619.0947,6.994777629636188,72.81770802565075
3619.9292,7.004693477878814,73.40155398485263
3620.762,7.012787062366684,67.80940843955419
3621.595,7.017893315050451,69.00363460531193
3622.4302,7.019764340441593,71.19565536905733
3623.2634,7.019120975715454,73.10306282885045
3624.0989,7.016848400595712,76.59209144690531
3624.9326,7.013150510420588,70.78474515219342
3625.7686,7.007519515467718,67.10022297879625
3626.6028,6.999590328316104,72.19063523050906
3627.437,6.989839449647296,72.28800715072876
3628.2734,6.979802188262538,82.92935690839987
3629.1082,6.971699034729692,72.41863722067781
3629.945,6.967348567766081,75.73816383648692
3630.78,6.967334955780157,73.76991914633817
3631.6174,6.970510227308487,72.17572523382444
3632.453,6.974340072964321,67.36418900776287
3633.2883,6.975723422848505,77.98635120643868
3634.1262,6.971801089665229,72.04281886961377
3634.9622,6.960902891951013,69.83588200156116
3635.8005,6.943225952864107,68.95970120715825
3636.637,6.921135575870418,76.39014259838751
3637.4756,6.897851740801066,71.89826032195526
3638.3123,6.876515199231553,72.31405374807814
3639.1492,6.859184472166899,73.35858103226171
3639.9885,6.847261553227703,75.45686868053686
3640.826,6.841599683439313,78.04638746167765
3641.6653,6.841741557325312,74.23176355015895
3642.5032,6.845613323040131,78.7379851020443
3643.343,6.85022622199959,73.57219824474817
3644.1812,6.853259578566962,68.32560894239761
3645.0195,6.854132906176292,73.73594122970113
3645.86,6.853370410908934,73.31379787899891
3646.699,6.851246767222761,64.0680572864166
3647.5398,6.847321755621598,69.24130247557619
3648.379,6.841462361391582,82.69464677579637
3649.2202,6.834826204743951,73.62485791117719
3650.0596,6.829640153465455,70.02907933251795
3650.8994,6.827546273525847,76.76741523788874
3651.7412,6.828300354830027,78.03061396361838
3652.5813,6.829631600947117,77.52438665815035
3653.4236,6.828446560202147,82.5450683326018
3654.2642,6.822474303965031,71.5089479741049
3655.1067,6.811350501847347,76.08310059098329
3655.9475,6.796876484808414,73.48245475031754
3656.7886,6.782150091369992,80.00606135868108
3657.6318,6.770431632159314,75.3001393769805
3658.4734,6.7639569200841905,74.27289058445585
3659.317,6.7629254937581,71.88309232383017
3660.1587,6.765579240600482,71.69627649400326
3661.003,6.768949419911074,80.2518681451543
3661.845,6.769990920920525,80.35497145159299
3662.6875,6.766596666407388,74.99454320350782
3663.532,6.7580332542896855,80.7086507139879
3664.3748,6.745198886740302,80.85415676589466
3665.2197,6.730355271527728,78.52579264122868
3666.063,6.716673672978176,73.35694318191852
3666.9084,6.706606163373217,79.2344135279669
3667.752,6.70067709981573,79.84060500961031
3668.5977,6.697035347584383,78.00563272441372
3669.4417,6.6929781690909005,73.62232720352822
3670.286,6.686799602861959,79.55416369138608
3671.132,6.678676088199768,76.41073582922532
3671.9768,6.670191945371878,79.11382829857205
3672.8235,6.663191286648219,78.31071481617931
3673.6685,6.659083536412713,82.22841066862144
3674.5156,6.658120164336298,73.83764428966045
3675.3608,6.659133492209314,80.9034218428999
3676.2063,6.659970500038306,84.83344206226603
3677.0542,6.658770566117744,74.29082577057358
3677.9,6.655181037857698,79.4711018710931
3678.748,6.650535661883856,78.2945459549539
3679.5945,6.646987392436271,76.41934934329116
3680.4429,6.6459532278193585,80.67682075819391
3681.2896,6.646972401130311,72.65974237336019
3682.1365,6.6475553628035104,78.22821530287648
3682.9856,6.644383477315716,78.08725104584798
3683.8328,6.635350196618254,69.98789927574565
3684.6824,6.621080922877582,79.36551422470181
3685.53,6.6051604152628265,87.18623732586377
3686.38,6.592182533778345,93.8241808153366
3687.2278,6.585677348647583,80.65748027084607
3688.0762,6.586424701802399,82.16676416930524
3688.9265,6.592671647229676,81.48171056538166
3689.7751,6.601167261782071,80.21734487748286
3690.626,6.608741169002865,81.48246482041677
3691.475,6.61336437030043,76.4347605217325
3692.3264,6.614705956184924,77.03098326559835
3693.1758,6.613562101154196,82.53543575322259
3694.0254,6.6108660069984415,76.66589165833201
3694.8772,6.6068970833292395,74.69619441155508
3695.7273,6.6013641239307645,79.340626156078
3696.5793,6.593994969062415,80.8739317048248
3697.43,6.585262701167072,81.35289360214996
3698.2825,6.576324051849345,82.81891821729636
3699.1333,6.568574210214415,88.26243217328624
3699.9841,6.562778557159273,79.01589782030382
3700.8374,6.558858475685326,83.44544470918024
3701.6887,6.556262752031367,79.21483392650308
3702.5425,6.554445967500792,83.22242566945805
3703.3943,6.553072422566941,79.03623178607431
3704.2483,6.55164184798408,82.33265446391488
3705.1003,6.549208462405868,80.59503863382145
3705.9526,6.5445542393537774,81.57171513817146
3706.8074,6.536859927826545,84.61809928193692
3707.66,6.52643900764076,81.02787739536679
3708.515,6.514620236958053,85.75664479966602
3709.3682,6.503262873821063,84.62468679427774
3710.2234,6.493600968536066,84.67117207685487
3711.0771,6.485965195483154,85.60795050064547
3711.9307,6.4799957406318285,85.67177487639613
3712.7866,6.475461022676234,79.99673174662578
3713.6409,6.472672173675161,87.59005736524152
3714.4973,6.472029947858578,88.71759758332978
3715.3518,6.473286768508162,87.67336783273869
3716.2085,6.475101879465034,83.01384870286422
3717.0635,6.475412160271622,79.73508207879074
3717.9185,6.4723614970668635,80.20256225654596
3718.776,6.464949631845892,84.99834916993731
3719.6313,6.453256336715027,84.69860580169235
3720.489,6.4381611585132985,81.93977800749877
3721.345,6.421548714605634,83.49296323342286
3722.2031,6.405951889488211,81.18428682440101
3723.0593,6.394078340891528,91.37127601434747
3723.9158,6.387208583279564,92.4815170517092
3724.7747,6.38444473100745,80.57645729445257
3725.6316,6.383213847626249,82.90002741157888
3726.4905,6.380978374898053,87.01952624912022
3727.348,6.376798402996181,85.96896888312996
3728.2073,6.371322890673492,88.26779319699372
3729.065,6.365685739399191,86.80488144247003
3729.9229,6.360434302412172,88.36139276986086
3730.783,6.355639878345827,80.4888515638431
3731.6414,6.351605968774695,92.11615604146768
3732.5017,6.34898311476737,82.79685528020357
3733.3604,6.34814095581928,87.96624679052582
3734.2214,6.348354432235554,88.52908812020384
3735.0803,6.348079006016857,87.21624214366733
3735.9417,6.3463016615330154,86.38717843195218
3736.8013,6.343695523518567,91.43122950820438
3737.661,6.3421448440821395,86.12652745891677
3738.5227,6.3430428301526405,86.65561371022271
3739.3828,6.346109239369419,86.52455021493131
3740.245,6.349977026824718,87.38395158873902
3741.1055,6.353655058150496,86.88315987802353
3741.9683,6.357323008385841,90.42238950736595
3742.829,6.361540780467405,91.8924763407903
3743.69,6.366065307631642,89.84061190245244
3744.5532,6.369421999699074,85.07044341015167
3745.4148,6.369769485179864,89.3488930597488
3746.2786,6.366272199763275,84.23767753974028
3747.1404,6.359589664526079,91.06126824927563
3748.0044,6.351119012441187,92.0132684851527
3748.8667,6.342105693790548,86.18051874268387
3749.729,6.333169645515321,83.21054713543019
3750.5938,6.324629186592417,88.15170111816782
3751.4565,6.3168315720511305,90.83916186833652
3752.3215,6.309925171884414,88.71278993237797
3753.1848,6.303809088509592,78.63174324647834
3754.0503,6.297932441338541,86.87763551535805
3754.9138,6.291593981360764,84.03267373152285
3755.7776,6.284366920658248,82.50112878792497
3756.6438,6.2767462117653805,87.47182144900378
3757.508,6.270223236017843,86.40536136531117
3758.3745,6.266255323842473,89.8066625340436
3759.239,6.265250005531287,89.5937115155569
3760.106,6.266162369761898,87.96180799888943
3760.971,6.267200712581095,93.12698152967452
3761.8362,6.266855010001489,87.89442010896327
3762.7036,6.264533451144747,88.13920561476208
3763.5693,6.260664953824095,88.29057550387269
3764.437,6.256308604885884,85.8885605967549
3765.3032,6.25262559061739,87.01781088984272
3766.1714,6.250143739678383,89.29372516979112
3767.0378,6.248263165892875,90.79252868690158
3767.9043,6.245203795443354,88.31885554217152
3768.7732,6.2388367329464,88.2403318782575
3769.6401,6.228163603896868,88.54851114010008
3770.5095,6.21428985879962,94.91776125972063
3771.377,6.200640116089184,92.48634277173194
3772.2466,6.19157307141202,96.9300291750765
3773.1145,6.190789769643351,87.95512965331785
3773.9824,6.199339838404775,90.81360698524306
3774.8528,6.21482191022493,96.30471110017073
3775.721,6.232031779915481,88.51880292844247
3776.5918,6.245862744052497,84.76287955730207
3777.4604,6.2536071061665774,88.3991407224048
3778.3315,6.255823100756261,98.55663477694273
3779.201,6.254619601744351,88.21843003672788
3780.0703,6.251967839940082,87.39219585897837
3780.942,6.249105675625094,94.0836401944896
3781.8118,6.2467004592950754,91.22636147965329
3782.6838,6.244547780463856,90.39501754410645
3783.554,6.241247397618609,86.56247667024417
3784.4265,6.234701419257184,86.23060665646322
3785.297,6.223684357827059,88.85197657962782
3786.168,6.208862913238991,89.77489886299352
3787.041,6.1925148610880205,87.57126528888695
3787.912,6.177207571645039,86.96221004316531
3788.7856,6.164044508112688,92.0380756140698
3789.6572,6.152438740710083,88.76170811591578
3790.531,6.140479306330688,97.9002234255457
3791.403,6.126416978091709,92.76239559636075
3792.2754,6.109545068114894,95.96027368062072
3793.15,6.090620604146504,94.51538192298183
3794.0225,6.0715889151185936,101.66880559042492
3794.8972,6.054404586091187,95.88202848374235
3795.7703,6.040637972015373,93.71424144856189
3796.6455,6.030973087306248,100.5119853684505
3797.519,6.025678770924504,98.66277253296475
3798.3926,6.024738120326768,96.8963174779192
3799.2686,6.0280835140454325,97.20381878104021
3800.1426,6.03551379943351,97.34812424581362
3801.0188,6.046779593115642,95.21462192300318
3801.8933,6.061519900323457,94.92130403825036
3802.77,6.079446808545507,97.77982995131934
3803.6448,6.099869682861045,98.78772040268314
3804.522,6.121733124891971,96.3331650603278
3805.3972,6.143120770527915,98.24973588945895
3806.2727,6.161988407533179,91.12304950703255
3807.1504,6.176807236566951,91.54939456384815
3808.0261,6.187383886775305,86.93697211371426
3808.9043,6.195252638833129,89.38574628819346
3809.7805,6.202454386035898,89.65984869229743
3810.659,6.210142847028329,90.74437245412784
3811.5356,6.21757998435548,88.5477818622403
3812.4126,6.222858249571528,87.37500550273845
3813.2917,6.224291576541954,87.6687408236264
3814.169,6.221482610208179,82.55343515597605
3815.0483,6.215264032160784,91.81109240437772
3815.926,6.2069196223324505,91.04935842180137
3816.806,6.1972683435611975,96.51506943133151
3817.684,6.18641752840081,90.02393944987278
3818.5623,6.1737283711873125,97.86723398805917
3819.4429,6.158379441025947,96.0181375838285
3820.3215,6.140218583808302,95.17877701015227
3821.2024,6.119799690516927,96.3188687011636
3822.0815,6.09826469540158,95.4455489490572
3822.963,6.076134822637828,95.29289908833684
3823.8423,6.053232042842051,98.65348452686996
3824.722,6.0285961756610495,98.98079481191701
3825.604,6.001297683981597,96.97421652053083
3826.4841,5.971241291002972,99.24780346051217
3827.3665,5.9388931382528645,93.46634715074853
3828.2468,5.905567648852493,99.75131214675604
3829.1296,5.872146454689311,101.09090581609482
3830.0105,5.839095757839738,104.45560703508937
3830.8916,5.8058863056403585,107.92412968000349
3831.7751,5.772005648536622,110.26136595116445
3832.6565,5.738204105170392,107.54508595983725
3833.5403,5.7063214853448105,105.20916194229189
3834.4224,5.679593324506588,115.48738592318085
3835.3064,5.661262091909263,107.12714216851698
3836.1887,5.65422090820658,107.00477291750532
3837.0713,5.660069475921196,115.27855339075528
3837.956,5.6788548162628585,115.74917485567701
3838.839,5.708730941928263,104.22747912925429
3839.7244,5.746841921616049,116.36621480706408
3840.6077,5.789739929816453,101.89060745342998
3841.4932,5.834785839222156,106.1650294922976
3842.377,5.879639116286229,103.19756798037932
3843.261,5.923009588222679,99.75969094476405
3844.1472,5.964426329372112,103.54355074978753
3845.0315,6.003832967072431,96.94370983423441
3845.9182,6.041699094533355,94.92927592116975
3846.803,6.077590274875215,94.04938844528255
3847.69,6.1107942522158245,93.2350026909812
3848.5752,6.140292847080261,91.98923139850523
3849.4604,6.166175235216669,91.3039644323839
3850.3481,6.189750203595014,95.26559993309338
3851.234,6.212753780280826,92.17458517655069
3852.122,6.236598822883116,91.60233561381632
3853.0083,6.2612076985269365,87.9831492745278
3853.8967,6.285892167212389,88.2038975712771
3854.7832,6.309886089038596,86.01128465993152
3855.6702,6.333145425789485,87.29015810089504
3856.559,6.355518467662033,87.08000314583413
3857.4463,6.375884972120586,88.55887432424474
3858.336,6.392544927219581,86.23062189091797
3859.2234,6.403745467481786,82.81951081184909
3860.1135,6.408768666300179,84.13014083802739
3861.0015,6.407798305931048,82.57747216127213
3861.8896,6.401799034534191,80.15289452561541
3862.7803,6.3922483825144,82.66997324350456
3863.6687,6.380985808182942,85.74482191044272
3864.5598,6.369277222213495,81.82298147693427
3865.4487,6.357230383691868,84.92294344710915
3866.34,6.343431055503262,83.19627920416451
3867.2297,6.325905553733256,90.20957546209371
3868.1213,6.3028468275723135,87.82408502236547
3869.0112,6.273765234202558,84.20149812140404
3869.9014,6.239507501720535,88.10224400144911
3870.7937,6.201771098604809,93.6748077540016
3871.684,6.162094451763219,88.93670639745625
3872.577,6.120251254571127,89.95292271159569
3873.4678,6.075304336744496,87.81833215949794
3874.361,6.02589818123865,96.13077912009891
3875.2524,5.971988727706289,93.42503476269698
3876.1438,5.914013861088029,98.34403257697134
3877.0376,5.852648790593847,103.7009538924654
3877.9297,5.7888524788263656,99.29531655417131
3878.8237,5.722693655774276,107.75042251816481
3879.716,5.654551538431021,114.38190531172759
3880.6108,5.58422748228798,112.37956606384293
3881.5037,5.512295913824647,120.23972915920942
3882.3965,5.4388787857956995,121.4178330971613
3883.2917,5.364090983389997,131.89113843759847
3884.185,5.288984229065248,126.43132371828
3885.0808,5.214811495283692,120.84025848219015
3885.9746,5.144888930430097,135.36470593913205
3886.8706,5.083044233273792,142.55502894410705
3887.765,5.034229678144114,134.5255103681638
3888.6592,5.002665559326027,142.91548993656835
3889.556,4.991445416147102,145.7804464986773
3890.4507,5.001487606403803,150.3560655666347
3891.348,5.030826905134592,140.30645644816468
3892.243,5.07495937034977,134.82886034257152
3893.1406,5.1292028772148255,132.1423434616173
3894.0361,5.1898514127890625,136.03391490344183
3894.932,5.256032582032109,129.13616691260117
3895.83,5.328375128997361,133.97942096925564
3896.7263,5.406493576336593,122.93879875657704
3897.625,5.489099721249569,115.32866093079552
3898.5215,5.573008467101059,116.50483359453607
3899.4207,5.656250410847651,107.83409026088728
3900.3176,5.737107599279553,103.04301886056756
3901.2148,5.815303924531185,102.50400084268598
3902.1145,5.890360357591419,95.23598938493254
3903.0122,5.960682150296754,93.75568492760416
3903.912,6.025272183461124,97.74578363789436
3904.8103,6.083341541175066,92.41325452840972
3905.7107,6.135991907038911,88.62838376085874
3906.6094,6.184975763013311,90.41666472155988
3907.508,6.232639964642937,87.98535627437445
3908.409,6.28053991983165,88.0577498303338
3909.308,6.328468970492551,88.50702379965081
3910.2097,6.375435057558412,86.94643941661603
3911.1091,6.4196538978407975,85.95591682332912
3912.011,6.460261995571506,81.15518350272235
3912.9111,6.496687185791806,83.65630764023575
3913.8113,6.5292400325363475,81.42239632684752
3914.7136,6.558709075944324,82.72485993811979
3915.6143,6.58601182787687,78.24208366022347
3916.517,6.612300680652263,80.29775839823775
3917.4182,6.638102555515016,77.5120501207994
3918.3215,6.663612110926364,76.95003290168933
3919.223,6.688327615359803,74.55842294308668
3920.1245,6.711672695079644,76.26491737551335
3921.0286,6.732982676554052,77.77658464758342
3921.9307,6.751455216851735,75.04526529558628
3922.835,6.766616660239742,74.09185431070338
3923.7373,6.778304122562708,78.36189098675845
3924.642,6.787247163192161,75.88009910598775
3925.5452,6.794573082662518,77.38009956377631
3926.448,6.801051132269411,81.11741390985036
3927.3535,6.806297613443204,75.31135469542646
3928.257,6.809070746981611,74.01517421906547
3929.1628,6.808559048526915,76.67546214392695
3930.0667,6.805150794559598,76.57664540993316
3930.9731,6.799917784413242,79.28051203199796
3931.8774,6.793370135712802,78.3431402671295
3932.782,6.784712617627925,77.22348017012577
3933.6887,6.772541036885105,74.14138721607571
3934.5938,6.756114029643223,78.16359292293455
3935.501,6.735572168636349,78.86757856858442
3936.4062,6.711688156351431,75.75049915869013
3937.3142,6.68477048367051,75.44136260639522
3938.22,6.654934533411356,79.47205917672568
3939.128,6.621813062861677,79.7883510657472
3940.0342,6.585499601129255,80.35524112054583
3940.9407,6.546268810149932,78.36305445917094
3941.8494,6.504734291236665,81.90482946370426
3942.756,6.461824800525137,86.26719475416017
3943.6653,6.417536588055452,85.46069664882253
