wavl,flux,ivar
3566.9744,0.6867164200824911,925.7008386404276
3567.795,0.6842316562881873,741.2944904506489
3568.6177,0.6815684301901821,1283.7032745828246
3569.4385,0.679943015136694,903.1641505224644
3570.2617,0.6800092339647863,1179.7552158827457
3571.083,0.6818675782795901,674.5456714747535
3571.9065,0.6853871703436243,1033.4255679225096
3572.7283,0.690364240987511,584.2362299661866
3573.55,0.696388180585863,1553.7582037202687
3574.374,0.702503148795591,670.2671037504135
3575.1963,0.7071424646183195,1027.7838857838653
3576.0208,0.7087867017847206,817.2085768049093
3576.8435,0.7067511923468783,836.596972790522
3577.6682,0.7017074460030495,712.8164924161292
3578.4915,0.6954103221345862,759.4562590798039
3579.3145,0.6897897304099814,901.9139831963805
3580.14,0.6861848063347838,891.4768333816903
3580.9636,0.6850218660338588,905.330932917739
3581.7893,0.6858265784505144,1335.5954302219072
3582.6133,0.6876884636323165,1839.2856639468393
3583.4395,0.6899246564849568,674.5206772871837
3584.264,0.6924688905599449,1309.0494980512444
3585.0884,0.6956044020678368,1007.9420733152181
3585.915,0.699157412514218,775.3466559644262
3586.74,0.7020155997491068,782.3189370216077
3587.5671,0.7025995941888576,783.0256116450528
3588.3923,0.6997642099300699,656.0359417178199
3589.22,0.6935125079628908,748.2513775505174
3590.0457,0.6851526413880007,983.3894146349737
3590.8716,0.6767455463795297,874.0613582306905
3591.6995,0.6704295099537153,659.0782970809873
3592.526,0.6677176337510374,946.0071140612648
3593.3542,0.6688964802869237,1069.3732970072435
3594.181,0.673001307702653,931.2775978357113
3595.0098,0.6783300090056156,797.1555788020681
3595.8367,0.6831787919514664,953.7189512571831
3596.6638,0.686524846793777,850.5629893816052
3597.4934,0.688072775073447,865.134946245835
3598.3208,0.6880117462142102,811.9492040205037
3599.1506,0.6867795291389686,737.5052115967416
3599.9788,0.6849606343377316,1179.8414256760886
3600.8088,0.683219547166627,746.1925479704317
3601.6372,0.6821414282697095,1264.3205512292288
3602.4678,0.681938464819599,832.4324744366664
3603.2964,0.6823880466193691,1110.4376469262577
3604.1252,0.6830895863791432,631.2049728973026
3604.9565,0.6838412739204797,1070.1905669907667
3605.786,0.6847264509684013,1031.2506653044406
3606.6172,0.6858817471867442,914.7087882367604
3607.447,0.6872187024251746,822.0988132032875
3608.2788,0.6884609734214684,505.47249884818734
3609.109,0.6893396963616564,678.6411401740447
3609.9392,0.689751309563914,1501.9593711341117
3610.7717,0.689721901783355,823.7819846940089
3611.6023,0.6893413753389304,686.7373287534417
3612.435,0.6887245978832874,1285.8175871696374
3613.266,0.6880238851197124,815.6329556076887
3614.0994,0.6874767911435367,1045.4096405135901
3614.9307,0.6874405682531344,762.0318270705494
3615.7625,0.6881810308066678,990.9826091234956
3616.5962,0.6894947888459637,1084.5907502911045
3617.4282,0.690554828114506,536.1081797846314
3618.2625,0.6903661213302063,929.2101740512475
3619.0947,0.6884692891894992,654.1999770329902
3619.9292,0.6852779563395043,1040.3816058801756
3620.762,0.6818505774857276,1021.7808641185339
3621.595,0.6792629972781166,807.5604595685387
3622.4302,0.6780971024401897,978.0019699882405
3623.2634,0.6781525327234921,843.4388427106206
3624.0989,0.6785709016135074,918.348842086805
3624.9326,0.6784336311985174,1043.9479595856437
3625.7686,0.6774027031273022,882.0910749076409
3626.6028,0.6758480193647514,1461.4249901614712
3627.437,0.6743607459392096,869.0184497364382
3628.2734,0.673263095069663,757.7001514548544
3629.1082,0.672603816492415,1155.8451108941492
3629.945,0.6724474992021076,1248.6973327599492
3630.78,0.6729965537277636,909.7215143053082
3631.6174,0.6743438472295694,743.7474580263657
3632.453,0.6761742593537897,809.9165216142338
3633.2883,0.6778052686860202,851.3543691455787
3634.1262,0.6785165660899006,806.6240278756908
3634.9622,0.6779371173160227,1028.7930544111753
3635.8005,0.6761832709946451,875.2275909193207
3636.637,0.673630978634295,1060.403578900326
3637.4756,0.6705324623157907,728.0839150838494
3638.3123,0.6670268114283161,797.8770351966955
3639.1492,0.663423207348241,722.0807037973817
3639.9885,0.6604358081158858,1019.4544468949117
3640.826,0.6588583858027403,1387.4072695135753
3641.6653,0.6588758095494438,997.0924865796893
3642.5032,0.6598486435755982,1266.015054794109
3643.343,0.6606936114629068,1155.9332839370547
3644.1812,0.6604756672876103,1013.6169709391137
3645.0195,0.6587517124713397,1059.8027454678631
3645.86,0.6555964754138337,823.4384414121189
3646.699,0.6516148986406107,1017.4410004214188
3647.5398,0.6478310505655781,1135.991414031221
3648.379,0.6454853134670067,1063.0193970240296
3649.2202,0.6454526179475822,1125.9381839434373
3650.0596,0.6477338948801765,1452.4997054347923
3650.8994,0.651317428914572,1196.414691363676
3651.7412,0.6546753276538417,1262.3240195909436
3652.5813,0.6565656187525852,834.4134934142722
3653.4236,0.6566642189551828,896.4864512373329
3654.2642,0.6555163613772744,988.7537152999604
3655.1067,0.6540688345948515,903.7442882334692
3655.9475,0.6531626501378532,985.4990305256812
3656.7886,0.6532248583747425,787.7470909753888
3657.6318,0.6542748851311502,1222.0166298267245
3658.4734,0.6561350746292168,996.6113547492637
3659.317,0.6587683354110961,1121.070289297831
3660.1587,0.6623316868532712,881.8851911160473
3661.003,0.6669000770889058,828.7420764485454
3661.845,0.6719811965056552,1088.4453885307887
3662.6875,0.676627481096881,1046.184001511828
3663.532,0.6798845214836456,1273.6831288193948
3664.3748,0.6812460726976449,713.7172066356821
3665.2197,0.6807368262383179,1020.5822330090224
3666.063,0.6786702397105354,1039.794468885702
3666.9084,0.675496845414547,759.847174683997
3667.752,0.6718215987287001,1693.7797371262964
3668.5977,0.6682725989287426,902.2377738174577
3669.4417,0.6653614588914578,799.3810850854134
3670.286,0.6632720365158732,1390.176487958765
3671.132,0.6619538333032151,766.6934338664844
3671.9768,0.6612772913599253,937.8615411386385
3672.8235,0.6610119051181803,792.8585916046177
3673.6685,0.6606897592078781,791.6379480659797
3674.5156,0.6596381618112276,949.9842492634622
3675.3608,0.6573922752444155,1232.0803818300449
3676.2063,0.6541078180645811,906.1023824836268
3677.0542,0.6505460966247442,988.7012472375957
3677.9,0.6476118396861635,1127.2131488179855
3678.748,0.6457454425949553,877.2280130175293
3679.5945,0.6448478461330529,1036.8752842927104
3680.4429,0.6445568217471066,833.9997811431004
3681.2896,0.6446850383429654,1006.1804968152165
3682.1365,0.6453423571220223,1708.0371890179063
3682.9856,0.646699398697178,1090.585880187438
3683.8328,0.6486357139703565,899.5241065329923
3684.6824,0.6507034429590012,1130.5576920336591
3685.53,0.6523680554518079,1086.5085639418935
3686.38,0.6533917290697886,1063.1116235941533
3687.2278,0.6539333408352429,1514.1854358803769
3688.0762,0.6543992123410433,1433.496114128487
3688.9265,0.6550919449649115,715.8936927550784
3689.7751,0.6559658511587352,801.4426644580218
3690.626,0.6567280233999547,1150.985078258972
3691.475,0.6571598931642071,781.0609900384529
3692.3264,0.6573353377163788,1489.0631314155032
3693.1758,0.6574747809308074,992.0405914877023
3694.0254,0.6576778428711978,1074.8466489492384
3694.8772,0.6578381505586397,885.9201568748774
3695.7273,0.6577634441066612,1355.6370291023954
3696.5793,0.6572751667750355,789.7679371419763
3697.43,0.6561874871201955,1378.4962104802557
3698.2825,0.6542900717099988,965.8240760052547
3699.1333,0.6514962751700013,784.0678566863077
3699.9841,0.6479832037069104,1115.3624931755685
3700.8374,0.6441904437336032,1022.8877862903726
3701.6887,0.640637302834892,961.41657822333
3702.5425,0.6376085351599107,910.2936695184343
3703.3943,0.635198430310966,999.0673648160813
3704.2483,0.6334241692166088,1189.8676347700325
3705.1003,0.6323766323736565,961.6716050276019
3705.9526,0.6320871590519201,974.0062468659878
3706.8074,0.6324385666451778,1117.7902283203218
3707.66,0.6332347489801323,1223.47209674297
3708.515,0.6343752830603236,1109.1700546263905
3709.3682,0.6358342570778173,883.0122239513121
3710.2234,0.637487889655842,753.6676711949849
3711.0771,0.638967639543686,931.0664967396277
3711.9307,0.6398050694378442,827.8631596349569
3712.7866,0.639668674591886,1185.968733627739
3713.6409,0.6385356648058048,1301.9157950898189
3714.4973,0.6367253537735141,1096.7415085698667
3715.3518,0.6348617352124682,1413.4993646101243
3716.2085,0.6336481933186905,1048.7906173894592
3717.0635,0.6335415930169499,2251.8349115083406
3717.9185,0.6344455089122322,931.8404320605522
3718.776,0.6358275180527609,1354.7787474565034
3719.6313,0.6371418786465556,828.2578859833679
3720.489,0.6382163492181483,1405.9583286265135
3721.345,0.6391799934141134,770.2327148930658
3722.2031,0.6401547421419433,1416.406616887226
3723.0593,0.6409932931815706,1146.868250466492
3723.9158,0.6413253542889527,1129.3342900170085
3724.7747,0.6407551134574887,1208.381180723882
3725.6316,0.6390846557218629,1317.470129627331
3726.4905,0.6364111671997459,1156.458189311322
3727.348,0.6331615985331126,835.8042069665308
3728.2073,0.6299797173285224,1018.9515536628425
3729.065,0.627594161260419,6075.372464889585
3729.9229,0.6264872992427731,1239.4725715383079
3730.783,0.6266669374282922,1026.4633188093972
3731.6414,0.6276425453092941,926.8292965846408
3732.5017,0.6287521209262422,1428.4163748831586
3733.3604,0.6295974043251298,1217.6273819448015
3734.2214,0.6302714414088642,1338.7812543170537
3735.0803,0.6311474909754651,867.289455547626
3735.9417,0.6324798766101926,1345.9943466539091
3736.8013,0.6341164602363436,953.3122073303061
3737.661,0.635599012787393,1008.3243111519804
3738.5227,0.636455108762339,1197.912735641316
3739.3828,0.6364685941332453,995.5134483772609
3740.245,0.6358026126539702,976.2621252482438
3741.1055,0.6349096930336383,1242.2675448947145
3741.9683,0.6342687005184188,1473.4865332682057
3742.829,0.6341589973966607,1077.6961520809282
3743.69,0.6346354644673364,1292.3015959362701
3744.5532,0.6356986769666828,1237.923692428366
3745.4148,0.6373245430190221,689.3327969789017
3746.2786,0.6393310072189029,1207.6276552885972
3747.1404,0.6412693365149402,928.9389831027629
3748.0044,0.6426611611801647,997.2617081941044
3748.8667,0.6432833053911047,1618.682338861324
3749.729,0.6432955785606375,1083.030442211368
3750.5938,0.6430299680353172,1064.0085641993896
3751.4565,0.6426967171981537,853.1048946028261
3752.3215,0.6421907620140874,1359.5837530691012
3753.1848,0.6411175475555414,1308.7593460806079
3754.0503,0.63901284332464,1030.8858377071388
3754.9138,0.6357412066026441,1083.921299318911
3755.7776,0.6317357154810058,884.8012988102423
3756.6438,0.6278865316706518,1096.8130493184792
3757.508,0.6250910908243794,815.3028854097764
3758.3745,0.6237639559814108,1044.0010227353503
3759.239,0.623852994733305,1105.3237904055331
3760.106,0.6250405292204132,914.2702269791056
3760.971,0.6268998444179691,905.357771484304
3761.8362,0.6289411019144995,863.4146388227801
3762.7036,0.6306867496183026,1329.243264496421
3763.5693,0.6318389599210512,1092.1776022873014
3764.437,0.6324198036513841,1160.684134292509
3765.3032,0.6326497971457291,997.7432302886206
3766.1714,0.6327042579182077,995.3724813257118
3767.0378,0.6325201473174585,1185.8971994580843
3767.9043,0.6318509089184329,1048.0880766904634
3768.7732,0.630529053581152,944.8584522083079
3769.6401,0.6287607179123187,1226.4877360758494
3770.5095,0.6271427756900271,1165.902619401554
3771.377,0.6263999593829269,1133.873094694668
3772.2466,0.6269084881887568,1143.897719140472
3773.1145,0.628432742847545,985.7517601081831
3773.9824,0.6302345550991948,1275.6616372181643
3774.8528,0.6314915167735383,985.6628342641806
3775.721,0.6317489721235953,968.6230794582527
3776.5918,0.6311748228143829,1018.8319278009625
3777.4604,0.6304068069087473,1008.3890882662947
3778.3315,0.630110534434711,1034.073843058911
3779.201,0.6305822169620419,1221.1338304317383
3780.0703,0.6316432654256968,1010.7038452582718
3780.942,0.6328438989424405,1314.1337131444973
3781.8118,0.6337106072626318,1069.2193155584723
3782.6838,0.6339256089755726,1006.1120103553369
3783.554,0.6333594216353086,1159.3874499283847
3784.4265,0.6320425171326454,1194.3548618543716
3785.297,0.6301433221914133,997.3736015800557
3786.168,0.627978509396461,1294.997211361689
3787.041,0.626060541924668,1242.3241963250375
3787.912,0.6249927577792277,918.8869340888144
3788.7856,0.6251198030024823,1176.1871534407803
3789.6572,0.6262381431269153,1138.5287089072983
3790.531,0.6275832065825508,1051.627943595187
3791.403,0.6281456313953948,1141.6000870865164
3792.2754,0.6271435944765511,1155.4331836423285
3793.15,0.6243109221609247,782.2715492143367
3794.0225,0.6199616751810567,1026.95426458013
3794.8972,0.6147275263209557,1145.721884877379
3795.7703,0.6093543032118771,1057.0216342249732
3796.6455,0.6044522422508364,1266.9304460779106
3797.519,0.6005849561113078,1181.5003704752535
3798.3926,0.5981973070743705,1298.0747404588087
3799.2686,0.5975025385613995,1182.0002125662354
3800.1426,0.5982360891851753,1328.9900773587563
3801.0188,0.5996398546349089,1464.8661904511991
3801.8933,0.6008588555624835,1187.0929692440143
3802.77,0.6015168790095992,1794.6983761341553
3803.6448,0.601951921972968,1166.3436774142579
3804.522,0.6029765157840815,1841.5959316136514
3805.3972,0.6053225991401778,1205.1826154042778
3806.2727,0.6092028254843,1279.89501146957
3807.1504,0.6141650784038305,1190.4732591797076
3808.0261,0.6192471128967761,1136.947533308139
3808.9043,0.6235421690668379,757.2309368842541
3809.7805,0.6266110959815497,1039.8790257627772
3810.659,0.6287159153303967,1152.0237812346043
3811.5356,0.6304239397599318,1031.8109389947704
3812.4126,0.6321135308856468,928.170927538335
3813.2917,0.6336667778242822,901.0271229176686
3814.169,0.6345984372484194,1166.9673300010759
3815.0483,0.6345004089531352,790.6034172109455
3815.926,0.6334434962046549,1301.1850718619535
3816.806,0.6320967211490044,970.7165442774768
3817.684,0.6313870181854145,1152.9286549925139
3818.5623,0.6317979689702097,1372.2642251548593
3819.4429,0.632895625011577,1055.8415216431094
3820.3215,0.6335182706355394,1053.2002174031147
3821.2024,0.6326089470363636,862.8279184498364
3822.0815,0.6299428622730653,1043.0091480804056
3822.963,0.6261287245107086,905.7001849050754
3823.8423,0.6220576208750186,1399.9378538283843
3824.722,0.6182735437790002,1132.714294964008
3825.604,0.6148998432755803,1197.4370093871146
3826.4841,0.6118912109315293,1093.8145704063431
3827.3665,0.6091228845820145,1118.2792712908013
3828.2468,0.6063783147054723,1169.452490392694
3829.1296,0.6032475285214728,1216.6457551606297
3830.0105,0.5993705162844031,996.1635246974786
3830.8916,0.5946612627267371,1490.4296924427022
3831.7751,0.5894102632360585,1370.3976767980198
3832.6565,0.5841707633671209,1239.349422554315
3833.5403,0.5794353799974257,1522.7167802302274
3834.4224,0.5756144181703633,1218.5305195666167
3835.3064,0.5729419579808719,1210.252388977823
3836.1887,0.5716009774895738,1525.4003153734673
3837.0713,0.5717673989189589,1260.018201116434
3837.956,0.5736725416105691,1561.4696308629327
3838.839,0.5774461659932952,1205.6420475415348
3839.7244,0.5829086831867103,1103.8214561427749
3840.6077,0.5893806628971334,1374.7189043922035
3841.4932,0.5959743626132156,1380.5532545556375
3842.377,0.601901618460542,1242.5738368675784
3843.261,0.6069115248696344,1093.8089508184628
3844.1472,0.6112479534799443,1487.617791616201
3845.0315,0.6152964119537566,1182.9851669770492
3845.9182,0.6192302371418836,962.7286699298982
3846.803,0.6227723221189131,1044.8994669421388
3847.69,0.6255256419480122,744.5444700775399
3848.5752,0.6273363312148019,989.6488075828859
3849.4604,0.6285567958173169,964.8068271923765
3850.3481,0.6299040406103905,1047.7152315420797
3851.234,0.6321501749005163,1088.8661402291193
3852.122,0.6358445943638588,1743.3771720139544
3853.0083,0.6410330573340295,1076.8320556789968
3853.8967,0.6472465663488025,962.0352664907222
3854.7832,0.653564427545583,1145.3092374228634
3855.6702,0.6590733128148122,868.1121590406143
3856.559,0.6631501837608493,902.5805057281732
3857.4463,0.6655406703999663,1121.9558610248043
3858.336,0.6662602306427328,844.5573860147036
3859.2234,0.6654468585571919,876.22371858045
3860.1135,0.6634754830951196,880.015800716591
3861.0015,0.6610999982671268,1147.2569250006281
3861.8896,0.65927592640206,1057.1091475643864
3862.7803,0.6587398256850803,941.5870782020103
3863.6687,0.6595664900532211,1165.905351850874
3864.5598,0.6610482757745372,889.021738247477
3865.4487,0.6619977987228134,1031.218687190492
3866.34,0.6613452651522035,832.1315652637433
3867.2297,0.6586322405719395,885.3521159389086
3868.1213,0.6541383975902252,991.9486164038085
3869.0112,0.6486678837165629,1168.8681550483166
3869.9014,0.6430652930959821,1187.339461441838
3870.7937,0.6379303466556522,1085.1298425343166
3871.684,0.6336201919956483,877.644364465874
3872.577,0.6303095662280969,1447.5266342062923
3873.4678,0.6280974740450084,1274.7681951363136
3874.361,0.626744142659931,1002.0326049048418
3875.2524,0.6255624816846026,1228.1966838175108
3876.1438,0.6235931330020249,953.1810662202481
3877.0376,0.6200830515570257,852.6165569379424
3877.9297,0.6148790362161903,1142.0367998284473
3878.8237,0.6083444771144066,894.7086808319003
3879.716,0.6011182466826517,1393.1057222070015
3880.6108,0.5936483708177052,1412.6345823724255
3881.5037,0.5861331987770957,1113.9576912443742
3882.3965,0.5784556632425029,1179.8302860613103
3883.2917,0.5704459394171274,1344.0593132330507
3884.185,0.5621347346160124,1218.18075666147
3885.0808,0.5536269502322575,1447.441805169703
3885.9746,0.54513498111204,1741.6911585626601
3886.8706,0.5366986025883359,1362.6685804550414
3887.765,0.5283859375333039,1608.714719843828
3888.6592,0.5203936030050097,1751.1608593531323
3889.556,0.5133357167846467,1848.212357865177
3890.4507,0.5082597800537791,2825.038088438041
3891.348,0.5061219340084397,1605.7670424185853
3892.243,0.5073614806756032,2473.610966137019
3893.1406,0.5116495222238402,2016.0144514190376
3894.0361,0.5180646317284092,1553.5944835138957
3894.932,0.5255697309394372,1613.1400143009353
3895.83,0.5333423413216924,1428.6084933689795
3896.7263,0.540857809907317,1540.1282494272984
3897.625,0.5479961884904451,1390.6450980007296
3898.5215,0.554805592499078,1300.5722734655599
3899.4207,0.5615848301455001,1843.7641691927847
3900.3176,0.5686437048231425,1115.5545764062574
3901.2148,0.5762235471113165,1351.9428067953393
3902.1145,0.5842151945521343,1254.9003361114408
3903.0122,0.5921317470119536,1014.0130965830322
3903.912,0.5996362001331096,1357.554966139837
3904.8103,0.6068182587305493,1071.7516687363511
3905.7107,0.614321800234627,1156.8252122533913
3906.6094,0.6227287411855903,1363.197449783508
3907.508,0.6321353572774422,941.5168341720756
3908.409,0.6420150780698222,877.726732258323
3909.308,0.6515175920762016,1020.8720639039016
3910.2097,0.660094259933188,1029.8276287470944
3911.1091,0.6675314269429728,1005.9687684066769
3912.011,0.6740553300066011,723.803637503655
3912.9111,0.6800410573625935,1006.5366546536916
3913.8113,0.6859621296940042,1053.7917843587184
3914.7136,0.6921271777556991,877.0880817921219
3915.6143,0.6984589752361001,889.3577352368582
3916.517,0.7046161694400465,862.3202692211219
3917.4182,0.7100821611098171,862.2945429019085
3918.3215,0.7144345163781071,849.7809814786084
3919.223,0.7173159709060586,792.8550997686509
3920.1245,0.7185568372875971,969.5063444466402
3921.0286,0.7181651852998037,797.2712886724509
3921.9307,0.7160898009123194,784.2173286725728
3922.835,0.7112352480756822,832.0584725881077
3923.7373,0.6998081257959085,870.5713098235955
3924.642,0.6739011064133804,872.8030105595998
3925.5452,0.623692323165149,817.7926167289723
3926.448,0.5446528887431105,717.6069455038628
3927.3535,0.4475626970050625,880.6485437530296
3928.257,0.36269730454810617,667.7114227454757
3929.1628,0.32522310049423603,58.05035914214963
3930.0667,0.3532392247427656,810.5095809127271
3930.9731,0.43391108791371136,877.0445726820195
3931.8774,0.5323834316808759,849.7170834256814
3932.782,0.6161171208069798,744.3311570488992
