wavl,flux,ivar
3566.9744,7.355946372777526,4.120727728722522
3567.795,7.363205789699645,4.708691983213507
3568.6177,7.370315451417774,2.5546772194782097
3569.4385,7.377953478520268,3.1212854682584172
3570.2617,7.3931869845387155,5.097864397830898
3571.083,7.423459346029084,3.0360817843784833
3571.9065,7.469179537956619,3.8179684619957728
3572.7283,7.520419891553893,3.1438272663757814
3573.55,7.561650247538339,4.160312979645994
3574.374,7.578225120544309,4.297013493720644
3575.1963,7.562263727672076,4.119509217222668
3576.0208,7.51617542136273,4.159213947180236
3576.8435,7.45206097537778,3.7332197104236755
3577.6682,7.384851496426432,3.636259325508252
3578.4915,7.325220503428303,2.9218260083113687
3579.3145,7.27481529775338,3.739675512760832
3580.14,7.229841858579217,4.8636077568924785
3580.9636,7.188378608979645,3.974766722711498
3581.7893,7.1540920554367675,6.67199094364606
3582.6133,7.13553644028639,3.8874979803596825
3583.4395,7.139735662620727,5.2329677691273
3584.264,7.166848201173493,4.622860256207754
3585.0884,7.209022930476227,4.793435416106121
3585.915,7.254345541331772,3.7243328116146364
3586.74,7.291682688392174,4.599934577979682
3587.5671,7.314887935468225,4.635130531215347
3588.3923,7.322985548728334,4.33799713215876
3589.22,7.319677590184692,3.7486426973262774
3590.0457,7.310861221395402,4.063930072218607
3590.8716,7.301172401613629,5.739254667430728
3591.6995,7.291149745832605,4.999699322023097
3592.526,7.277940337359274,4.063892263074106
3593.3542,7.259449848965984,3.126613414490555
3594.181,7.238483047022794,4.359754178358952
3595.0098,7.221475033610181,3.9473676071766968
3595.8367,7.213636275526513,4.641661498749717
3596.6638,7.214264465024954,4.554319578483537
3597.4934,7.216679782967934,5.398768483099002
3598.3208,7.2108064467741055,3.6782708192475537
3599.1506,7.186574836263182,3.3280365318556253
3599.9788,7.13823789728217,3.16379848329894
3600.8088,7.068601311729461,3.763528881780117
3601.6372,6.992311807750831,4.0672528427514365
3602.4678,6.931048116629016,4.76409547376514
3603.2964,6.9043833188435295,5.02216417634453
3604.1252,6.916646911426448,6.543310502490873
3604.9565,6.951767516020184,3.6690372391637975
3605.786,6.9782638238447525,3.6852768007755516
3606.6172,6.966313269373069,4.773109748900879
3607.447,6.906684309825489,2.99158669606735
3608.2788,6.819761941703174,3.7143412169787626
3609.109,6.746503651378362,5.3658212742144675
3609.9392,6.722137850967742,4.516316210939113
3610.7717,6.755357543641142,3.3515310264797744
3611.6023,6.82628522714317,5.180386708337659
3612.435,6.904722186223318,4.128540568307011
3613.266,6.967605628538625,3.514080278531738
3614.0994,7.006270724941803,4.975100353080044
3614.9307,7.0209982735157705,3.797024647131617
3615.7625,7.016293997805122,4.326965908632179
3616.5962,6.998475774286596,4.631361084251752
3617.4282,6.975947274946944,3.8827992228457626
3618.2625,6.9580663184969325,4.64933980140521
3619.0947,6.953327820246749,5.07044577750619
3619.9292,6.9662580383568535,4.943496541648402
3620.762,6.994889307698208,6.09572753958097
3621.595,7.030443523537672,3.44598614501913
3622.4302,7.060830221555847,3.7851442817015575
3623.2634,7.076431451207819,3.4830144297267
3624.0989,7.074204475442839,5.111631705630032
3624.9326,7.055555707163729,5.190801922797129
3625.7686,7.022055989408757,5.279616301949711
3626.6028,6.974641792847001,3.9684473114785748
3627.437,6.91588941195526,8.988512951286069
3628.2734,6.85230032989836,3.797893871018893
3629.1082,6.79372162239192,5.503274704865809
3629.945,6.749388816056823,3.7955260259297448
3630.78,6.726753045251444,4.2522137576271595
3631.6174,6.729499072616654,4.094543942178686
3632.453,6.7571803129646515,4.639250432918011
3633.2883,6.805484016847435,6.342144065732135
3634.1262,6.868247803722118,4.956935856678719
3634.9622,6.938068460354744,4.587862209394555
3635.8005,7.006999740854486,5.314995398301819
3636.637,7.064524361416702,6.527302589063696
3637.4756,7.101087292381049,4.393989696192505
3638.3123,7.111584791383034,4.483456436773845
3639.1492,7.098419175722275,4.566813543122235
3639.9885,7.068345346920463,4.2405424354712755
3640.826,7.028505217555891,4.489589548121167
3641.6653,6.984277625880182,3.4071722301215974
3642.5032,6.9410071024694835,4.303810197610421
3643.343,6.903183869090803,4.017353795435391
3644.1812,6.873154302810852,5.901505242240063
3645.0195,6.850270759084565,3.68751364299359
3645.86,6.834296053447156,5.610619666029546
3646.699,6.828469574385823,5.812841218419771
3647.5398,6.8381200854403374,5.818576067087549
3648.379,6.865665796511919,4.990791720306651
3649.2202,6.906516729935177,4.162539294392647
3650.0596,6.949055384886321,4.303260898380155
3650.8994,6.980248327614417,4.857317179859516
3651.7412,6.991072791911835,5.393456552748403
3652.5813,6.979897145005879,3.7326827566521845
3653.4236,6.951666619887357,4.2133994808935995
3654.2642,6.914287306595383,5.696644761582541
3655.1067,6.8744380892904555,3.7530374526097985
3655.9475,6.8365869835281865,3.7765011403826585
3656.7886,6.802646094776521,5.246406994630243
3657.6318,6.773167642085899,3.994230954357152
3658.4734,6.7489672273564185,4.357272024174488
3659.317,6.7318472199935675,5.616921706199893
3660.1587,6.723511103645562,5.110960089956195
3661.003,6.721435465612354,5.5785796602488205
3661.845,6.717937983272011,6.1340170073290725
3662.6875,6.70523485009198,4.344838728577516
3663.532,6.682439526169162,5.475149069462907
3664.3748,6.657294165533668,4.438764420680089
3665.2197,6.640376124865109,6.8513055091072825
3666.063,6.638317941967159,5.141211447606605
3666.9084,6.650135127795088,5.451084600337857
3667.752,6.66905802392989,4.636624071403822
3668.5977,6.687871071310249,4.973054453116092
3669.4417,6.703081445172932,5.046101181474048
3670.286,6.715233680704955,5.61320636975166
3671.132,6.724799136208484,4.014150291235574
3671.9768,6.728983543853189,5.786495628153862
3672.8235,6.723125850586277,4.982434190321383
3673.6685,6.704998184122643,4.143238311338484
3674.5156,6.677566275741384,4.827321065245148
3675.3608,6.6482360594323255,5.537091402674303
3676.2063,6.6245679626865375,4.133067324379656
3677.0542,6.610728713128206,4.015007163535889
3677.9,6.605746627819272,5.7087345749332785
3678.748,6.604226517543541,5.186741705366244
3679.5945,6.599912096491069,3.635659203572341
3680.4429,6.589762349978111,6.417230051573599
3681.2896,6.57602583758953,3.6731793390028886
3682.1365,6.563977336435742,7.024482614743053
3682.9856,6.557416977236362,4.457363128960494
3683.8328,6.555715849911023,4.8332719462469855
3684.6824,6.554711523889622,5.106553273948817
3685.53,6.550164974926993,5.701856784832122
3686.38,6.540320945971108,5.732342968418945
3687.2278,6.526634913941926,4.94571120110349
3688.0762,6.512682482777124,4.154672753373716
3688.9265,6.50202406160786,5.516806436481676
3689.7751,6.495598184511676,6.993929723328481
3690.626,6.490971772197487,5.3562053618710355
3691.475,6.485335605807699,5.835124258100356
3692.3264,6.479126226413983,6.539791101073941
3693.1758,6.476485835504496,3.7642895033108794
3694.0254,6.481279739601013,4.620618277666706
3694.8772,6.492707061051681,5.223598999318506
3695.7273,6.504223774745964,4.954280806466801
3696.5793,6.507179030147827,4.222307222313166
3697.43,6.495848753657729,4.680916880687292
3698.2825,6.47097626484957,4.1560980664052085
3699.1333,6.440069904806059,4.534794281393367
3699.9841,6.413541532830826,6.443914203282571
3700.8374,6.399032495928767,5.328754216357329
3701.6887,6.396803678688355,5.6395719450898705
3702.5425,6.399671428911599,4.973854137202615
3703.3943,6.398573032616901,8.146548900257672
3704.2483,6.389147934933018,4.686214014872762
3705.1003,6.374353557379806,4.857604493149492
3705.9526,6.361124840335772,5.3611119713126705
3706.8074,6.354721684477397,6.206315015098427
3707.66,6.355377605959909,5.803910078485874
3708.515,6.359013553130412,5.1676656224001185
3709.3682,6.360169644625578,4.800080148288594
3710.2234,6.35455572399599,4.593555920796843
3711.0771,6.341044481107105,5.609411892375076
3711.9307,6.323059319233796,6.816791110513008
3712.7866,6.307640027313046,5.5787942265788395
3713.6409,6.301268979055733,6.197549644022422
3714.4973,6.3047107803079365,6.322909228116026
3715.3518,6.312393407292085,3.8708628102682714
3716.2085,6.316700037800517,5.804803295328012
3717.0635,6.312993896403357,5.461938896777604
3717.9185,6.301728691527111,4.938844741013634
3718.776,6.287287735931853,6.923753159706609
3719.6313,6.275694590454494,5.233109705443914
3720.489,6.2714423162516955,5.1601674475981785
3721.345,6.27527865400472,6.051936785196164
3722.2031,6.283911320143267,5.7585317679623955
3723.0593,6.2923576152084895,4.3017262887176635
3723.9158,6.297094867132765,6.130914807084442
3724.7747,6.2969991738514075,4.175559315187994
3725.6316,6.292011864202856,7.534417827920487
3726.4905,6.281710558619758,4.742200798936538
3727.348,6.266226725012563,4.88207029553303
3728.2073,6.2481391132421455,5.385801418583373
3729.065,6.232581313417062,4.651331745033064
3729.9229,6.223580067576792,5.185660504562568
3730.783,6.220807967706384,4.555673317909548
3731.6414,6.219918458373581,5.077165172722606
3732.5017,6.216159312128367,5.242297458263824
3733.3604,6.2072434007769335,5.807362427915264
3734.2214,6.192984688384848,6.125076868894101
3735.0803,6.174251608262256,4.42770727825001
3735.9417,6.152994616932329,5.977376443121855
3736.8013,6.133447248311226,6.853905310706219
3737.661,6.120484845433835,5.922264848491552
3738.5227,6.116646055138163,6.528497157076718
3739.3828,6.120189654988094,5.916726787833305
3740.245,6.1263891252284255,5.310219864218422
3741.1055,6.130701858743026,7.979134542009623
3741.9683,6.131027124131889,5.577368866935264
3742.829,6.127478683850682,5.317237440648377
3743.69,6.1206964058217075,7.239662632314122
3744.5532,6.1102725307851244,5.412472569792846
3745.4148,6.094961384998957,5.2172867738720035
3746.2786,6.07427216770546,5.001349238622977
3747.1404,6.050574426583095,7.421057290219526
3748.0044,6.028597586217065,8.3605283933186
3748.8667,6.013651141760205,8.043583490673269
3749.729,6.008630291051779,6.445843666992455
3750.5938,6.01263404522715,6.748970017086327
3751.4565,6.020922328656525,5.666897709454172
3752.3215,6.02697462604571,6.527921645415467
3753.1848,6.0256315168217425,5.515194852646688
3754.0503,6.015673529655618,6.956412520590066
3754.9138,5.999936866908404,6.391800131534776
3755.7776,5.982892131190872,8.081340574780368
3756.6438,5.967685417171433,7.636274046907134
3757.508,5.954501367727569,6.40474482051126
3758.3745,5.94122943025986,5.808112479192165
3759.239,5.926946141691899,6.52870853906854
3760.106,5.914231979744872,6.718426733541561
3760.971,5.908513254997976,6.847392332347763
3761.8362,5.913874860645629,8.243671540777443
3762.7036,5.929681780270117,5.833358659102989
3763.5693,5.949973405925284,7.724611862981548
3764.437,5.9665050318666975,4.743573195770555
3765.3032,5.972575150677018,7.211256036363791
3766.1714,5.966458030158244,7.026287796714818
3767.0378,5.9519651872409005,6.476682452370466
3767.9043,5.935872987573058,5.924339647722756
3768.7732,5.923752482767894,5.897186612064756
3769.6401,5.917321307419172,5.997116965810834
3770.5095,5.9147275078587915,7.64728499318652
3771.377,5.913209176883538,6.173527681921101
3772.2466,5.910782422149879,5.435134853627941
3773.1145,5.906200427894495,7.193624125137112
3773.9824,5.898223465106788,7.383242557500864
3774.8528,5.885825690106187,7.3973948257396
3775.721,5.869422847458915,5.914251977641813
3776.5918,5.851142359067461,6.307116271307096
3777.4604,5.834100197256339,6.280762413296587
3778.3315,5.8199733761129995,4.96606258940792
3779.201,5.808172631284082,7.431586379620766
3780.0703,5.7967257411286965,5.195837493855894
3780.942,5.785130893637589,6.842957868094223
3781.8118,5.776193959742521,6.688827870119255
3782.6838,5.774510594103224,6.670722954297912
3783.554,5.78292456723355,6.1948295120251995
3784.4265,5.799758711923114,7.273470466952218
3785.297,5.818951854237045,6.159578073936769
3786.168,5.832999026471812,6.159398485129728
3787.041,5.835846620715414,7.007584025669335
3787.912,5.82501882881536,6.2425276717609
3788.7856,5.802055800308459,6.486899325698617
3789.6572,5.771307141767495,5.599697638398414
3790.531,5.737101397729707,8.22044144072398
3791.403,5.702833235130774,6.030538570079487
3792.2754,5.670952838214205,6.998856827606874
3793.15,5.644129011890283,6.401578917428911
3794.0225,5.6246905769631095,7.258034963759741
3794.8972,5.612508081162549,8.431704216389537
3795.7703,5.605334035018083,6.509017079685245
3796.6455,5.601032529481858,6.281143802116177
3797.519,5.600067270498602,5.719559073624967
3798.3926,5.604715767766107,7.370841719728672
3799.2686,5.615939093407849,6.062589797972027
3800.1426,5.630772474411461,6.7476004349606855
3801.0188,5.643291179354926,7.631065029336117
3801.8933,5.647923785396159,7.247862909396393
3802.77,5.64322817769796,6.110451577319909
3803.6448,5.632847202255971,6.023285503035567
3804.522,5.623181403409268,8.077665045791639
3805.3972,5.619551445786013,6.364903403460568
3806.2727,5.623024778078803,8.384571287262869
3807.1504,5.630258449422486,6.238102109447343
3808.0261,5.635335846128292,8.17636627770556
3808.9043,5.6322359330102225,6.563148721522205
3809.7805,5.616808043755845,6.003370101731461
3810.659,5.588831007598274,5.912076471242048
3811.5356,5.553955163233063,9.602133464314871
3812.4126,5.522018596632789,6.944754301735778
3813.2917,5.50199524925386,7.886465211504323
3814.169,5.496328960484491,6.7061561747304355
3815.0483,5.499622332727961,5.833992376938996
3815.926,5.503612834817292,6.04700233287271
3816.806,5.503091379744359,7.438693486482871
3817.684,5.497635668345869,7.341525698405801
3818.5623,5.489004066241587,7.066742538261695
3819.4429,5.478232678961493,7.33077764853094
3820.3215,5.465550780727333,7.954052278613982
3821.2024,5.4517146631543225,7.707242718511012
3822.0815,5.4390826036875595,6.923171907370975
3822.963,5.430483853120536,5.710061153683378
3823.8423,5.427506092239272,7.11743783232499
3824.722,5.428987100983224,6.51765215527125
3825.604,5.431474484785016,7.448657371822206
3826.4841,5.43117384171216,7.2127363457807805
3827.3665,5.426243201814357,6.141859268849143
3828.2468,5.417581770035123,8.011406686345781
3829.1296,5.407460541441508,8.613473653578634
3830.0105,5.397741715661939,6.513497912386353
3830.8916,5.389088064518822,7.906118135798186
3831.7751,5.381976284446719,7.5332057311114555
3832.6565,5.377572729030005,7.635927735860912
3833.5403,5.376941877717897,7.420088397301909
3834.4224,5.379382202384892,6.523080252563131
3835.3064,5.38132689201222,7.841544614605019
3836.1887,5.377370844054881,5.8881931007171495
3837.0713,5.363352421875226,7.007857867508949
3837.956,5.339545015740456,6.553500319021243
3838.839,5.312014609012538,8.925068973040187
3839.7244,5.289965529297486,6.705851347004102
3840.6077,5.281549417271469,8.887440354889325
3841.4932,5.289347010325548,9.472904402061538
3842.377,5.309228952531651,6.01867425820532
3843.261,5.332743827677388,5.710077540754775
3844.1472,5.351361744658516,7.122786260865589
3845.0315,5.359703384204275,8.301124920697244
3845.9182,5.356811251195509,9.472568443433268
3846.803,5.3454002362093975,8.978253774247046
3847.69,5.330900490380662,6.216272429377953
3848.5752,5.320462079302331,9.205646947813822
3849.4604,5.320747559924233,7.097638744708844
3850.3481,5.335192133554274,7.168006737489951
3851.234,5.36101671435605,7.514084698625722
3852.122,5.3888697843412166,8.05183129064058
3853.0083,5.405845689539846,5.939077747543619
3853.8967,5.402680922684122,7.374180418280575
3854.7832,5.379026147995567,6.2906247741468695
3855.6702,5.342925400273627,8.876823410368509
3856.559,5.30482747426902,7.391049604253039
3857.4463,5.2720874087679,7.78717677583076
3858.336,5.24685431777546,8.613807956540995
3859.2234,5.228376720881426,7.271584277918791
3860.1135,5.21450242916791,11.25221030116309
3861.0015,5.203276293874325,6.825892933205202
3861.8896,5.193548639700923,7.836631635044838
3862.7803,5.185716547749152,8.399636250901706
3863.6687,5.1813076748729285,9.394274704204516
3864.5598,5.181532851734683,7.3629911024665455
3865.4487,5.1863383902219,8.610147011395794
3866.34,5.194329079963739,7.499519978079329
3867.2297,5.203097253087312,8.9870137703038
3868.1213,5.2097819056255625,11.367477815939253
3869.0112,5.211671227807772,8.383702165693762
3869.9014,5.207346637895355,8.778539325145937
3870.7937,5.1972208110548115,6.503383498323167
3871.684,5.1833303972719085,8.30242848149021
3872.577,5.16824424080176,10.37178120488492
3873.4678,5.154390225263194,9.432514491417981
3874.361,5.1427905686364275,10.59721145174134
3875.2524,5.132497453235754,7.676621328797244
3876.1438,5.120900518273944,7.625534175828732
3877.0376,5.106093157593434,10.469982967301531
3877.9297,5.089189527726909,8.388906035981913
3878.8237,5.073621437943533,8.834489313208389
3879.716,5.062381688447934,10.309172380010033
3880.6108,5.055293657613873,8.264744674690931
3881.5037,5.049611877122349,9.026493691428474
3882.3965,5.042399686333748,7.706954400479941
3883.2917,5.032797976622007,9.682751294864408
3884.185,5.022739496824989,7.270641255160405
3885.0808,5.0157473879591,8.23575705116759
3885.9746,5.0146604998753475,10.12957706722817
3886.8706,5.018868343666095,8.480627881047926
3887.765,5.023837527212401,8.41062771006864
3888.6592,5.024084987436267,8.987728509817659
3889.556,5.017330944734966,8.078228165810147
3890.4507,5.006148216889057,9.583233262255629
3891.348,4.995308829482359,8.60966287286034
3892.243,4.988016039643206,7.839991480171425
3893.1406,4.984105376136631,8.664990885430825
3894.0361,4.981872419734918,9.56874846431527
3894.932,4.980565648040492,7.132946746429566
3895.83,4.981041314272852,9.53267306888398
3896.7263,4.983920891946489,8.928708886576127
3897.625,4.987742633301965,7.861422076989436
3898.5215,4.989562103697084,8.141517812872067
3899.4207,4.987781916701664,10.418170265440796
3900.3176,4.983962309857716,9.287973657636469
3901.2148,4.981556533697251,11.254138969703384
3902.1145,4.9831267221526225,7.387486295410292
3903.0122,4.9890861932680535,7.796604462990768
3903.912,4.99878676591048,7.95018181909075
3904.8103,5.011443808650562,9.35995029254224
3905.7107,5.0255389389497225,6.80066989709516
3906.6094,5.037372746910139,6.917001880924227
3907.508,5.041944633375672,7.939484516252716
3908.409,5.03556711807199,9.169048838224471
3909.308,5.018571195074536,8.375670666354058
3910.2097,4.995484646546446,10.566686709005443
3911.1091,4.973315082028451,10.3829609580666
3912.011,4.958372078341922,12.642736848863887
3912.9111,4.954517749542191,7.548515842028124
3913.8113,4.961773259264479,9.702959319142947
3914.7136,4.976475262949229,9.568959067767718
3915.6143,4.992480849905968,7.5750852603790095
3916.517,5.004037404857417,7.8617630893748505
3917.4182,5.007851634106741,7.18909741755312
3918.3215,5.003566018138751,8.62367583409967
3919.223,4.992542579273009,9.217329938179107
3920.1245,4.97702752931573,8.774672038352392
3921.0286,4.96021307289184,9.82110162803697
3921.9307,4.9461953377474215,7.400835865725526
3922.835,4.938390896686986,8.826769974637305
3923.7373,4.938048871260771,7.187412546544353
3924.642,4.943281176484362,9.524127665355392
3925.5452,4.9498121368931125,7.886297041401937
3926.448,4.953186841419678,8.460744947581755
3927.3535,4.951244555690457,7.838519414168016
3928.257,4.945268717935758,8.30210507577945
3929.1628,4.9384617913260636,7.968754022023205
3930.0667,4.93286251999035,9.052451459701164
3930.9731,4.927154552749689,8.26007956771066
3931.8774,4.917863155544139,9.193731934027394
3932.782,4.902747947354271,9.86997961604077
3933.6887,4.883653116342723,8.707577685234716
3934.5938,4.8661004436505655,10.22542427141981
3935.501,4.855254138284572,10.242034138887922
3936.4062,4.852481216544692,7.784479375058576
3937.3142,4.854720432815175,9.420138592057734
3938.22,4.857119342155159,9.101190273349989
3939.128,4.85571492729252,12.33774030559495
3940.0342,4.848160217021439,7.528132799652219
3940.9407,4.8331229031348295,9.397852752801112
3941.8494,4.810047401823329,10.770181338788461
3942.756,4.780224545995652,10.5080266427643
3943.6653,4.747310692627976,8.637747221144792
