wavl,flux,ivar
3566.9744,11.345650107104632,36.58522777598422
3567.795,11.342500221096325,33.969620914898215
3568.6177,11.328905609537294,35.93756827035963
3569.4385,11.309667429087614,35.69639351460673
3570.2617,11.290721615964552,36.036050997069445
3571.083,11.2765972608856,36.44297235335609
3571.9065,11.268783114797323,35.30913791992479
3572.7283,11.266364384702808,36.61360107750665
3573.55,11.266999758383877,37.364445410158005
3574.374,11.268339746567078,37.36213920730263
3575.1963,11.269023497667558,36.446510725935475
3576.0208,11.268766460454003,37.85763108789544
3576.8435,11.267323636506436,38.54037318873932
3577.6682,11.263475071013739,36.077254783575796
3578.4915,11.255421441602413,36.42466207063743
3579.3145,11.242399614024128,36.93812888330759
3580.14,11.22597383106355,38.21746307183024
3580.9636,11.209745998365877,34.67110403706303
3581.7893,11.196904340602176,40.17863058450191
3582.6133,11.188459671554174,36.22763501067574
3583.4395,11.182941526003136,40.4636434972599
3584.264,11.178307893819548,36.605328577285086
3585.0884,11.173462140485743,39.03525450672081
3585.915,11.168293926173416,39.11733810383207
3586.74,11.162703501033276,37.528474464371314
3587.5671,11.156102280884868,36.84191860033373
3588.3923,11.148089658344057,36.30504633636014
3589.22,11.13864595390677,40.73018152104581
3590.0457,11.127677126946578,38.25856165627649
3590.8716,11.114321533800577,37.0430323450379
3591.6995,11.097874021048934,36.59093802671529
3592.526,11.079454570459884,36.42665371182015
3593.3542,11.061760555780475,37.96316424539572
3594.181,11.04703931965251,38.76743104720325
3595.0098,11.034492319880519,38.65068034127636
3595.8367,11.021072172572145,38.62727915490909
3596.6638,11.004281464759229,38.91696342225879
3597.4934,10.984601946537444,38.47149013783155
3598.3208,10.965196309059193,38.544543343543324
3599.1506,10.94919767560783,41.72352386731914
3599.9788,10.938374986027238,40.30412116643698
3600.8088,10.932732918104367,40.62743988918529
3601.6372,10.931387838477855,39.84428047872776
3602.4678,10.93270946101747,40.673387991751355
3603.2964,10.934150130901521,37.946150038416896
3604.1252,10.932592870843065,40.425927757729404
3604.9565,10.925849182054748,37.358494273851214
3605.786,10.914607604962493,38.32281782553167
3606.6172,10.902493847878974,40.182620717267596
3607.447,10.893815104481865,39.832421197530856
3608.2788,10.889977319623233,39.27523983785463
3609.109,10.888204370274018,39.56313006158531
3609.9392,10.883476612671972,38.39733472675582
3610.7717,10.872267924763525,39.32127374896965
3611.6023,10.854941512928123,38.30837234464629
3612.435,10.834669287651803,39.74158195704255
3613.266,10.814976333847145,40.192197809280984
3614.0994,10.797392192918037,38.95602482646392
3614.9307,10.781923529545022,40.056578828554876
3615.7625,10.767972629018686,39.73010135030892
3616.5962,10.755140645426247,41.551594461120416
3617.4282,10.7429808714913,41.61275828839882
3618.2625,10.730706525434664,41.408494451934075
3619.0947,10.718257918533412,39.4332048177611
3619.9292,10.707016748011736,40.70491229691521
3620.762,10.699659688141281,41.36470904913751
3621.595,10.698030455989011,43.5227847288797
3622.4302,10.701351805672735,43.45227462454395
3623.2634,10.706068431677691,39.5201045816881
3624.0989,10.707818913185438,40.95954818292517
3624.9326,10.703658898206328,43.483453950052656
3625.7686,10.693117085782392,44.37438417723897
3626.6028,10.677920189546425,41.885828072303894
3627.437,10.660802608675876,41.67171051194116
3628.2734,10.644342767263216,40.80573368188698
3629.1082,10.630014769325399,42.42696127727893
3629.945,10.617245999020465,41.7495081375037
3630.78,10.603814625650715,41.63355537072875
3631.6174,10.58665759737733,41.581217444293216
3632.453,10.563908127074045,41.75221112550242
3633.2883,10.535972335836549,42.689599151247684
3634.1262,10.505453662000598,43.39150389375541
3634.9622,10.475771343445798,43.80207057394619
3635.8005,10.448704536150979,44.74237550263383
3636.637,10.42445416980536,46.52315036487855
3637.4756,10.402134904209744,43.19091471140148
3638.3123,10.381691304546923,41.94425535863437
3639.1492,10.363875489980927,45.42206206805803
3639.9885,10.349537108930281,45.0319755631653
3640.826,10.338541346423831,44.68669514033759
3641.6653,10.329365125459942,44.845028682688074
3642.5032,10.320383478064432,44.00159119484192
3643.343,10.310951662870446,42.28647825709477
3644.1812,10.301730616415453,43.532021753735904
3645.0195,10.293391723795082,44.78515185537
3645.86,10.28536146197546,46.238592329763804
3646.699,10.275809880763276,47.50880658699342
3647.5398,10.262901075804628,43.6655185757144
3648.379,10.246492394467033,44.076058545064136
3649.2202,10.2281011900312,44.44308316364788
3650.0596,10.210055347831041,46.356583870307254
3650.8994,10.193904434568983,44.24769571856308
3651.7412,10.180155326466464,44.93641367586803
3652.5813,10.168667754777903,47.53267407483396
3653.4236,10.159069284321987,45.29896534137244
3654.2642,10.151413658088948,45.98880492000691
3655.1067,10.145990924953665,46.33392259288851
3655.9475,10.142946686580608,45.39293628841747
3656.7886,10.141716654410168,46.87035443830456
3657.6318,10.141321728245051,45.449515789438685
3658.4734,10.141176331835299,46.068273646990725
3659.317,10.141612272143163,47.2270480130889
3660.1587,10.143547109073506,45.49958404488936
3661.003,10.147657483990168,45.77036835443609
3661.845,10.153744671724054,45.110201314397564
3662.6875,10.160923786470766,46.10389730875834
3663.532,10.168103712794736,44.21347364837771
3664.3748,10.174081025881884,46.44245581494932
3665.2197,10.177127595407045,46.82997244374486
3666.063,10.174627742580457,44.56829492890191
3666.9084,10.164190128793855,48.35038890910274
3667.752,10.14578199707517,45.825111616979065
3668.5977,10.122638463832459,47.42007420474071
3669.4417,10.100354913608545,48.37842376481191
3670.286,10.083678116079557,47.02883551248432
3671.132,10.074195122099418,45.417364136892395
3671.9768,10.069674249998503,46.59969123763171
3672.8235,10.065464862515098,46.434428403409065
3673.6685,10.05752521411042,47.018314507490345
3674.5156,10.044835846508803,45.25514775249243
3675.3608,10.02983974765927,48.77510251404499
3676.2063,10.016009365220153,49.59961272718548
3677.0542,10.00512565059477,46.88533353711113
3677.9,9.996371378138024,49.585803767716456
3678.748,9.987557842288517,46.70037221225597
3679.5945,9.977510137355692,50.302750204611065
3680.4429,9.966863597359765,46.30776556610627
3681.2896,9.95763787102516,45.70526649106752
3682.1365,9.951790739387091,47.20880802208482
3682.9856,9.950173922881921,48.79135557609087
3683.8328,9.951895650045524,47.311818755485966
3684.6824,9.954621958356766,46.919686755713315
3685.53,9.955905303642867,47.85875788367351
3686.38,9.954741039841867,47.194893120322696
3687.2278,9.951985847759468,50.35900769312739
3688.0762,9.949352744713536,49.380748582299965
3688.9265,9.948007689781718,48.01893370992474
3689.7751,9.94795032275808,47.804118439582744
3690.626,9.948386678212445,51.111781673855766
3691.475,9.948382528142947,48.15041787603532
3692.3264,9.947109684729341,49.12125353163253
3693.1758,9.943862745304333,46.42147591940895
3694.0254,9.938319621645435,45.979531855215484
3694.8772,9.931047068447528,47.34628953236512
3695.7273,9.923676841058647,46.773001330211336
3696.5793,9.918050103928666,50.61403783201863
3697.43,9.915147558460879,47.2644403224409
3698.2825,9.914289262681516,49.66482161439865
3699.1333,9.91346501575443,50.73702870899766
3699.9841,9.910384572947617,48.64343102467049
3700.8374,9.90364004003306,47.930186916328104
3701.6887,9.893398029163325,47.04426483341405
3702.5425,9.881038738316201,48.04605390258917
3703.3943,9.86859504559444,49.45722086178543
3704.2483,9.85771866142556,48.60243996962064
3705.1003,9.84921305046035,50.1137650753969
3705.9526,9.842332137725721,48.31562197970079
3706.8074,9.835004207047392,49.30492322833111
3707.66,9.825074859055132,49.23169823546479
3708.515,9.811851611542565,48.50116319221
3709.3682,9.797115402485558,51.31470077550886
3710.2234,9.783932886491938,48.83788515778489
3711.0771,9.774823463651389,49.81749926386258
3711.9307,9.769953424739493,50.97572712937921
3712.7866,9.767145624610299,50.258661710139855
3713.6409,9.763192961613619,49.59034414483516
3714.4973,9.75554145548401,49.0950607421958
3715.3518,9.743600653541842,48.38514906486423
3716.2085,9.728793427348386,51.05886557164588
3717.0635,9.714088313836953,50.63481783993908
3717.9185,9.702693626902683,49.31491365208874
3718.776,9.697171085060459,49.16563920195024
3719.6313,9.698662175743234,50.27497805438498
3720.489,9.706220211857637,52.86098971288741
3721.345,9.716755599113746,49.72944636803333
3722.2031,9.726138642058087,49.09251481491921
3723.0593,9.73080295283089,48.47184193601167
3723.9158,9.729225701882067,50.039919960499276
3724.7747,9.721902157285443,49.49120634325601
3725.6316,9.7107604280583,50.257203490262015
3726.4905,9.698272240442629,51.82970498019355
3727.348,9.686931207293437,52.83890376816862
3728.2073,9.678212307372702,51.45559630861703
3729.065,9.67209636640161,51.07347704968628
3729.9229,9.667213735974638,48.64532005787224
3730.783,9.662050908250206,51.41267762628844
3731.6414,9.65601178916514,52.850876543877135
3732.5017,9.649490192097122,49.820754527001355
3733.3604,9.643379841658158,50.03624309854501
3734.2214,9.638256828240989,52.32532243476035
3735.0803,9.634029501447744,51.276767056966854
3735.9417,9.629718587554038,52.371005297667665
3736.8013,9.623885053268216,50.76548776405325
3737.661,9.615300103711974,51.31599985984659
3738.5227,9.603783998705048,50.2178295394867
3739.3828,9.590796664156887,49.7061568078911
3740.245,9.5789721353982,49.26299119126693
3741.1055,9.57109967851173,52.10397857262144
3741.9683,9.568242172751557,52.502934091333266
3742.829,9.568982118341482,52.350149080687764
3743.69,9.570221475667177,51.490824993166285
3744.5532,9.56935111966704,50.260158414062765
3745.4148,9.565847307033366,51.56615016687621
3746.2786,9.560929997942967,51.19179458233939
3747.1404,9.555851152620047,51.78529059505724
3748.0044,9.550576110422124,52.725173340296045
3748.8667,9.544529155591555,52.3279122051758
3749.729,9.538183576567825,53.036560807776986
3750.5938,9.53364335377683,52.65085144055432
3751.4565,9.53324230603433,51.6692733956222
3752.3215,9.537482793442424,54.49785525995075
3753.1848,9.544494024327117,53.89978880657103
3754.0503,9.551423497949724,50.382940855524204
3754.9138,9.55626585125738,54.362497569247985
3755.7776,9.558959852798168,53.244842679252606
3756.6438,9.560769221545995,48.11458016062571
3757.508,9.562666230321302,53.40073761445087
3758.3745,9.563834355691881,52.37610470830711
3759.239,9.561496488524247,49.918184482754036
3760.106,9.552544574496299,54.28924429022524
3760.971,9.535898076531586,50.1830180291683
3761.8362,9.513380846650524,53.42548884223086
3762.7036,9.488634399319965,52.85278009876209
3763.5693,9.465224955151115,54.68138795538594
3764.437,9.444848700930368,50.8187733921471
3765.3032,9.427440917839064,50.6385727504297
3766.1714,9.410591465922426,54.116924255226486
3767.0378,9.388639673130088,51.887841591221324
3767.9043,9.351313532786154,53.51712327271019
3768.7732,9.285732528768904,53.340735767516996
3769.6401,9.18527759509172,54.745438690866095
3770.5095,9.060144326238392,53.39557075124521
3771.377,8.94457489491915,52.5211354271464
3772.2466,8.882352094351672,53.02710131900762
3773.1145,8.901933244388648,55.451229591703935
3773.9824,8.9954177324924,53.36430583923003
3774.8528,9.12540404881855,53.13411215818769
3775.721,9.24876969146332,53.48058293390315
3776.5918,9.341313590349646,55.72136403906138
3777.4604,9.399443158614433,52.28707074556708
3778.3315,9.43275651389407,54.33029966434732
3779.201,9.452149715416715,52.0309251093433
3780.0703,9.465399417104493,51.66946717743322
3780.942,9.476035068159947,52.62385974300079
3781.8118,9.484157373654376,53.123273348483124
3782.6838,9.487914682921657,50.32442216119598
3783.554,9.485077042449994,52.22072231145795
3784.4265,9.474632682799937,54.374085601880815
3785.297,9.457406401201315,53.967450398314476
3786.168,9.4352135883726,54.67000886954641
3787.041,9.409702794009219,52.188666418754224
3787.912,9.38200365823463,55.34609853168079
3788.7856,9.352716328260001,52.55467209841401
3789.6572,9.323194816013665,54.72873051854806
3790.531,9.294948393286077,54.17594802930172
3791.403,9.269226901363064,55.804097313745196
3792.2754,9.245656691673725,56.340450700775975
3793.15,9.222524973315831,53.30896311882719
3794.0225,9.19792316873708,56.1951976163603
3794.8972,9.1705931407173,56.4327304036881
3795.7703,9.141348788393655,55.29514053377997
3796.6455,9.112889270469772,55.19743971591051
3797.519,9.08956084914319,55.095498025913
3798.3926,9.075246042227063,57.20349232558849
3799.2686,9.07201450074448,58.2833847524062
3800.1426,9.079575857475142,58.99019285163288
3801.0188,9.09595734293936,58.02395334282628
3801.8933,9.118493043913663,58.4971943137448
3802.77,9.144944053812717,59.03074740113756
3803.6448,9.173651901749027,57.06023506201452
3804.522,9.204205259292,54.85124681113077
3805.3972,9.236392223385112,55.72159611109169
3806.2727,9.269586594294813,53.767904051623944
3807.1504,9.301547181769733,55.527145889622105
3808.0261,9.328528099425755,53.590479013120095
3808.9043,9.347612486700186,53.72630262001757
3809.7805,9.358239131479126,52.2382616264135
3810.659,9.362950814654326,52.65944917578983
3811.5356,9.365329292234966,55.866537282184
3812.4126,9.367582041136757,55.07503685356692
3813.2917,9.369462279707529,52.58256212080072
3814.169,9.369442898132668,51.88766178805429
3815.0483,9.36675966054067,51.14958531251225
3815.926,9.362279540059946,53.92009700079542
3816.806,9.357473644222539,53.73799400275598
3817.684,9.352735148939644,55.263175387418514
3818.5623,9.346457141048834,52.398996434806925
3819.4429,9.335781957653055,54.525460570260094
3820.3215,9.31835424867101,54.36280856924445
3821.2024,9.29332174639507,56.107881114098824
3822.0815,9.261662092396632,53.49928627900353
3822.963,9.22477968804891,55.631662909810714
3823.8423,9.184005094307603,57.586898704066094
3824.722,9.139583092440319,57.5768028667861
3825.604,9.0912600014695,56.06993484938736
3826.4841,9.039431133942664,58.942259997188025
3827.3665,8.984696117810513,57.780202382502495
3828.2468,8.92857254739587,60.93992789069089
3829.1296,8.871938548831567,57.48577614073164
3830.0105,8.815849430394227,60.67020447430151
3830.8916,8.760510206555985,60.40502211409055
3831.7751,8.705772977282285,60.14566223049896
3832.6565,8.652084863911785,58.31426952838502
3833.5403,8.600741194587133,62.45340720685087
3834.4224,8.556128489204593,65.04786388388132
3835.3064,8.52446638154447,64.24292898714505
3836.1887,8.512271008221225,69.94348896987485
3837.0713,8.522915325382613,67.78488202546882
3837.956,8.55539724112903,64.94290866335595
3838.839,8.604643038658365,66.29983296528174
3839.7244,8.664567941764828,64.73241017601715
3840.6077,8.729806880003713,63.125990001639586
3841.4932,8.797920839875129,63.45814624898334
3842.377,8.867624965435718,61.35327211358423
3843.261,8.93843822120789,58.711864478542985
3844.1472,9.009368848139653,58.85755479957847
3845.0315,9.07863920773243,57.42725269923154
3845.9182,9.145522596405629,57.767524501972275
3846.803,9.209042977669712,57.274158227435095
3847.69,9.26856482766471,54.50258571018789
3848.5752,9.322281783803678,51.252486952050425
3849.4604,9.369099861422333,52.44328747738174
3850.3481,9.409533842593504,53.38380776060981
3851.234,9.445355581206005,52.96611847672098
3852.122,9.478681805885461,52.95600496125715
3853.0083,9.509836779737176,49.94149557855627
3853.8967,9.538154004503717,53.858143425071006
3854.7832,9.562501918306841,50.73890332624216
3855.6702,9.582551837131971,52.27192262677484
3856.559,9.59864685498124,50.07732007119805
3857.4463,9.611686076325718,50.522112024267734
3858.336,9.623021279408027,52.78822360803116
3859.2234,9.633359251432822,52.31168353754772
3860.1135,9.641990110693133,51.88942502589809
3861.0015,9.646410021789599,49.99821455036615
3861.8896,9.643641715788197,50.808660699636114
3862.7803,9.631758619848688,51.66571371483752
3863.6687,9.611033966509149,51.55527590736337
3864.5598,9.583345967661023,50.28572790511123
3865.4487,9.551395234196665,51.424250908487444
3866.34,9.516928325663725,53.85167528381449
3867.2297,9.480820980395626,51.218319262037205
3868.1213,9.44259847839849,52.4717469866232
3869.0112,9.401429241546216,55.598608746377586
3869.9014,9.355856875204088,51.72947846527895
3870.7937,9.304362860759756,54.44302889272304
3871.684,9.24646296677969,53.07111479097828
3872.577,9.182432769957243,55.79993722796148
3873.4678,9.11419823682929,55.86026567842792
3874.361,9.043010971072345,57.3090062797671
3875.2524,8.969794387596066,57.36504012900572
3876.1438,8.893892841155361,56.452101076980604
3877.0376,8.814141177083611,61.69480945970699
3877.9297,8.730099980208804,62.666126293735594
3878.8237,8.640960025776215,61.419868549628596
3879.716,8.54705378686415,63.82770457938964
3880.6108,8.448476937817862,67.6281158603486
3881.5037,8.346792417329796,65.97783649053586
3882.3965,8.243063427135459,69.75708016804559
3883.2917,8.137998194953592,71.3407316597159
3884.185,8.032676388769467,74.15318413259759
3885.0808,7.927150990707753,72.96154905101476
3885.9746,7.823457829229165,77.43836941902522
3886.8706,7.7246794698354515,79.00966853298159
3887.765,7.637523233578197,80.26780025567172
3888.6592,7.5703663488052815,83.96954873102538
3889.556,7.532117465925043,85.71867925104027
3890.4507,7.529354278046591,85.3477706058604
3891.348,7.563160643532725,82.63470653871205
3892.243,7.628504305550586,83.70506968972363
3893.1406,7.716826290754625,80.82322136757398
3894.0361,7.818115210315192,75.64154862159299
3894.932,7.925374095041944,71.71722532054775
3895.83,8.034941582230768,73.23718564591104
3896.7263,8.144698163755859,73.4519160114368
3897.625,8.254466042239196,69.74552746165345
3898.5215,8.363150444762958,68.26181719149413
3899.4207,8.471184468687381,65.70629444490157
3900.3176,8.578298401697058,65.17406236046064
3901.2148,8.685001778010527,60.24403823561474
3902.1145,8.790885375082263,63.361930310523036
3903.0122,8.893824096430238,60.274484982748035
3903.912,8.992683544164711,59.28532134932306
3904.8103,9.08664670987454,56.41009753999734
3905.7107,9.177380765504813,58.21626226662646
3906.6094,9.266579446751791,54.40787915667282
3907.508,9.355816311937886,53.79519752051306
3908.409,9.444849189111585,52.448942720006485
3909.308,9.53096496908315,50.087538574834134
3910.2097,9.611560098471836,50.50959987426753
3911.1091,9.684215285073863,49.99154977414042
3912.011,9.749286805825179,49.06948879383492
3912.9111,9.808212136443165,49.595363400943945
3913.8113,9.863485006190206,49.28044556753546
3914.7136,9.917010553722417,47.27303932537425
3915.6143,9.969065895607542,46.40807395534455
3916.517,10.019065424173345,46.447758805093684
3917.4182,10.065134379280847,44.51114763988983
3918.3215,10.105781799387874,45.96699207498346
3919.223,10.139953161125572,46.04580869635646
3920.1245,10.168125599612514,46.56601321804933
3921.0286,10.191721629806471,44.41970333415351
3921.9307,10.212200184192017,45.2222616490442
3922.835,10.23053795239536,46.724779141096676
3923.7373,10.246484329754159,47.43135685179632
3924.642,10.259460536497269,44.45498876391205
3925.5452,10.269271235442513,46.15966778453326
3926.448,10.276735361688134,43.86506901232667
3927.3535,10.282846927144252,42.70165201393773
3928.257,10.287521409335108,44.90122584686768
3929.1628,10.289281126323102,46.15821374195381
3930.0667,10.286050672197536,44.44355518942872
3930.9731,10.276474335620675,46.15588385535029
3931.8774,10.260552581544617,44.4117019200332
3932.782,10.239001536936868,46.46617888786598
3933.6887,10.212539086993594,45.495919378949544
3934.5938,10.181914498551825,46.36042536379313
3935.501,10.147750557976595,46.084472762149986
3936.4062,10.1110830777918,47.423675677328994
3937.3142,10.072138163110203,45.95359691342123
3938.22,10.030493043514639,47.73657218427844
3939.128,9.984599407690993,46.50553687032646
3940.0342,9.933781207935118,45.9408454884116
3940.9407,9.878302735680844,47.76845232754056
