wavl,flux,ivar
3566.9744,1.733310381281036,110.3124736440061
3567.795,1.727843954938033,142.13419966922493
3568.6177,1.719593634986317,119.47408338527266
3569.4385,1.709394621923688,141.86939507887416
3570.2617,1.6984689394433956,110.04417890944264
3571.083,1.6882840124241416,139.08579063895755
3571.9065,1.6798568358592243,153.49661507323415
3572.7283,1.6737778473051792,126.32962210238159
3573.55,1.6703187184345203,120.46172565662734
3574.374,1.6696860576801298,131.60354387858212
3575.1963,1.6716110061380418,129.88814262421107
3576.0208,1.674821109247323,149.11194854487667
3576.8435,1.677312839202185,131.614368041148
3577.6682,1.6776658571176941,118.47750647241074
3578.4915,1.676151159234476,120.2962873776902
3579.3145,1.6745796868031115,137.34004384415522
3580.14,1.674928800109809,114.98161706056464
3580.9636,1.6779845334069163,122.32543320918626
3581.7893,1.6829833414637911,117.4957707181623
3582.6133,1.688164118416824,122.14531654178597
3583.4395,1.6917839360525855,110.64251397139856
3584.264,1.692791652154965,146.26307054848579
3585.0884,1.6911523278305265,128.48987975730364
3585.915,1.6874822489533232,141.1529011763263
3586.74,1.6825558955537827,104.42877265919776
3587.5671,1.6770052070611645,115.19451798593923
3588.3923,1.671595396469277,115.02325768867973
3589.22,1.6672271189159575,110.95978737923268
3590.0457,1.664643700648053,128.66943942940446
3590.8716,1.6637574246369429,124.121744002711
3591.6995,1.663596384437753,121.54053732251153
3592.526,1.6628778844565326,110.38931489990269
3593.3542,1.6608131561530286,138.6451344213588
3594.181,1.657560787783978,131.4192821272583
3595.0098,1.6540265986836327,128.23801747965493
3595.8367,1.6512907697379897,132.710291208565
3596.6638,1.649786309684917,130.9092139979716
3597.4934,1.6488941229308496,118.13852039366871
3598.3208,1.6471649680375975,138.02307418938773
3599.1506,1.643008980688172,143.37107145905884
3599.9788,1.6353462693601335,123.59359527470349
3600.8088,1.6236769932608153,129.96404369739864
3601.6372,1.60833345573467,145.92070417128357
3602.4678,1.5908432376975588,112.55973539713682
3603.2964,1.5748258935871249,164.06232037512262
3604.1252,1.565066210557546,152.03157579949868
3604.9565,1.5652282637105994,7553.9616090140025
3605.786,1.5750777274799592,108.74144766112231
3606.6172,1.5903273733601144,133.38349185553417
3607.447,1.6054240431211602,166.45793937657297
3608.2788,1.6170803032158012,131.12720873725442
3609.109,1.6249017770315917,146.0786085178784
3609.9392,1.629953113284611,147.03865424708982
3610.7717,1.6328335733102126,145.94555374140717
3611.6023,1.6333006130418675,125.49028446399655
3612.435,1.6310626037537996,142.41040712761293
3613.266,1.626547605674446,112.17429946738059
3614.0994,1.6210022236170318,145.4898635022951
3614.9307,1.6160846998191647,143.16980640161046
3615.7625,1.6130147642018824,129.82791027440325
3616.5962,1.612020457377429,130.51332890293912
3617.4282,1.6122838948871998,123.25258016242296
3618.2625,1.6126264481965262,121.89701104187459
3619.0947,1.6124547124910256,135.50648708395812
3619.9292,1.6121091530755915,145.20107252429185
3620.762,1.6122723162940544,131.2696868593777
3621.595,1.6130532164678193,128.26983601681545
3622.4302,1.6137424642377265,124.53676266598002
3623.2634,1.6134819359199428,114.5140246344093
3624.0989,1.6121152222872566,159.68018083324813
3624.9326,1.6102849803558197,161.43178005116619
3625.7686,1.608756152262396,126.23835751015065
3626.6028,1.6078935026461356,118.16443283717284
3627.437,1.6077509626174584,152.30392766755617
3628.2734,1.6084532977399872,142.0983491009715
3629.1082,1.610117200798058,150.55734085997392
3629.945,1.612445450848023,126.99035350836469
3630.78,1.6146314402022985,131.99405115550613
3631.6174,1.6159874279688344,117.63789110191328
3632.453,1.616585454073197,145.7681066326653
3633.2883,1.6173098117521254,132.10924612926794
3634.1262,1.6191757797785886,154.78363684838212
3634.9622,1.622543350032995,153.6206197863856
3635.8005,1.6268785646779944,131.9224220315821
3636.637,1.6310372246176599,136.3310956631767
3637.4756,1.6340185902734292,123.47311824364392
3638.3123,1.635386443937203,113.59992154744354
3639.1492,1.635300088812688,146.42778104781704
3639.9885,1.6340810409388795,125.40875421127546
3640.826,1.6319382941551284,151.98824123189345
3641.6653,1.6290050924501982,114.04573047815887
3642.5032,1.6256008295331745,155.0081714679958
3643.343,1.6221962221700543,116.21924029723195
3644.1812,1.6191882468494947,150.86024507552705
3645.0195,1.6166175308878985,132.3117741511214
3645.86,1.6143318439098824,145.83698150851666
3646.699,1.612363467564375,124.90241388942813
3647.5398,1.6110122118345531,140.88752541134673
3648.379,1.6105523676852653,133.99898798296664
3649.2202,1.610808815682638,131.70306143860932
3650.0596,1.6111366415119015,120.98362315027222
3650.8994,1.6107829542937426,134.07710059030774
3651.7412,1.6093082489193518,129.69157724182355
3652.5813,1.606825317469569,142.0030733756358
3653.4236,1.603879268659684,141.35142606517505
3654.2642,1.601129919413834,162.97296255123453
3655.1067,1.5989100660850906,141.21484603874953
3655.9475,1.597146453820448,116.34935524602888
3656.7886,1.5955657580716984,161.29819573026927
3657.6318,1.5940925094067018,144.68001319516367
3658.4734,1.593035770320942,140.07063511278082
3659.317,1.5928919035354456,159.77741345301948
3660.1587,1.5939850825107351,160.08980557375764
3661.003,1.5962181974790595,121.89939678367355
3661.845,1.599101233960533,124.39176932103818
3662.6875,1.6020719812338196,124.7384598400822
3663.532,1.6047840005725234,162.40211408028418
3664.3748,1.6072229143895256,122.4508137558305
3665.2197,1.609559999763637,140.92851339740236
3666.063,1.6117169715792932,125.03407278431698
3666.9084,1.6132428305815996,171.69982133394865
3667.752,1.6136196485088161,115.52575958713261
3668.5977,1.6127631594988614,130.40742061646134
3669.4417,1.6109866790262086,141.68527886162536
3670.286,1.6084861282860696,155.37914844573456
3671.132,1.6050898017285755,133.37772671655006
3671.9768,1.6007096448667146,147.60847590946184
3672.8235,1.5958521451903371,141.22387011298596
3673.6685,1.5916135545495709,140.20038255473668
3674.5156,1.5888736231415792,144.6434733402287
3675.3608,1.5876515382256728,141.15336664398612
3676.2063,1.5869615722226087,169.65321329574138
3677.0542,1.585392385585186,136.56718307155475
3677.9,1.5819324044639362,141.5623355533041
3678.748,1.576529899419385,151.35007624328617
3679.5945,1.5702349036259942,149.61811381922215
3680.4429,1.5646242754941033,130.74881642284112
3681.2896,1.561097450228637,139.43865944723058
3682.1365,1.5600708299572215,145.58289100594678
3682.9856,1.5607978610942252,155.0712192176553
3683.8328,1.5617768260118736,121.13714081158003
3684.6824,1.5616095577796447,136.39425253380784
3685.53,1.5596878785167732,153.84305795737765
3686.38,1.5563501865763363,150.03462794958145
3687.2278,1.5526349966084856,111.79516363649704
3688.0762,1.5497621349097623,178.8963752692983
3688.9265,1.5486752692572785,132.2383730192581
3689.7751,1.5496498788350657,156.60768625998955
3690.626,1.5521937536470463,144.66826493922625
3691.475,1.5553242782499859,143.12417585924447
3692.3264,1.558168647491501,131.3822557661666
3693.1758,1.5604447565921071,125.88218942274997
3694.0254,1.5626108657772424,157.28981526589246
3694.8772,1.5653412160646958,181.9895460133739
3695.7273,1.5687381067805573,127.96982086245958
3696.5793,1.5719882639199678,140.1352801734005
3697.43,1.5736638120842077,133.6502416612055
3698.2825,1.572591754932171,142.16349559472215
3699.1333,1.5685374234887652,152.79113252802577
3699.9841,1.5623254148038441,147.12149373862732
3700.8374,1.5554122999586082,138.23320863286185
3701.6887,1.549368707794977,169.2217574846492
3702.5425,1.5452357966510417,129.03012418294094
3703.3943,1.5432835328928884,147.26565494837712
3704.2483,1.5428891927290365,165.81200177795537
3705.1003,1.5429702390949498,129.72090158752908
3705.9526,1.542554504734612,137.90556160672222
3706.8074,1.5411408495626502,150.09926533019913
3707.66,1.5387026734318536,152.6444462903293
3708.515,1.5354671521910113,154.38716170086101
3709.3682,1.5317888232544794,159.2796457670376
3710.2234,1.5279736866417006,159.56585592501878
3711.0771,1.5243266802393125,146.57661078418536
3711.9307,1.52121027246292,134.71483046956138
3712.7866,1.5190855063991882,146.37281203163016
3713.6409,1.5182115952941673,145.77005339526244
3714.4973,1.5181485115487463,163.16660017023008
3715.3518,1.5177557028865305,141.81863220864565
3716.2085,1.5158678370508483,151.60037852823737
3717.0635,1.5122320439387873,148.44914784867208
3717.9185,1.5078461573861328,156.66765840521734
3718.776,1.504412132316326,174.96357430508726
3719.6313,1.503248448193189,159.47598002696284
3720.489,1.5043272576656799,189.54770332430886
3721.345,1.506318760317891,139.34432102833767
3722.2031,1.5075829069174889,132.48622392166962
3723.0593,1.5072914368620087,151.33640445410364
3723.9158,1.505811019782673,179.78092381225522
3724.7747,1.5041416542104902,144.47587638229376
3725.6316,1.5031638369535494,183.68647354610255
3726.4905,1.5031848481825167,145.3370667438668
3727.348,1.5038982277148012,167.10569117874246
3728.2073,1.5045217102308095,173.55930136202448
3729.065,1.504126454645814,143.03135011379388
3729.9229,1.5021068229235581,145.5407891926319
3730.783,1.4984725776054315,144.10370114295787
3731.6414,1.4938730746513362,163.28080645995936
3732.5017,1.4893044472268473,155.27118445803063
3733.3604,1.4858857469831381,147.6676971735139
3734.2214,1.484457718261238,156.3099939028513
3735.0803,1.4852920462323167,190.59276436279367
3735.9417,1.4878864962850602,145.91236404173242
3736.8013,1.491113685113006,152.74443061843917
3737.661,1.4937463094650374,157.1291048283379
3738.5227,1.495029051632965,175.37208748581847
3739.3828,1.4949904321763718,148.98996061342402
3740.245,1.4942505812191824,170.1906377465257
3741.1055,1.4933960477928094,151.28321905319473
3741.9683,1.4924047884356166,167.27316451843592
3742.829,1.4905923112544497,154.58985733021396
3743.69,1.487077995341974,169.64417773934304
3744.5532,1.4814694186761586,164.85042451150997
3745.4148,1.4743832783177606,152.97905578643986
3746.2786,1.4672919051817814,136.87354532905303
3747.1404,1.4620730521845586,183.29517119320764
3748.0044,1.4600798713313332,208.37436530632056
3748.8667,1.4615797483252468,174.92413637134868
3749.729,1.46561396025445,159.7571476167248
3750.5938,1.4705917977792367,149.1029307132001
3751.4565,1.4750389121569802,141.73844247446735
3752.3215,1.4782070435672963,166.27860076924867
3753.1848,1.4799909597443646,171.11353774428494
3754.0503,1.4806422181214485,175.56597441529837
3754.9138,1.4804184889856125,133.0912928255993
3755.7776,1.479547542544746,151.88060649395064
3756.6438,1.4783653678987294,142.0580918403886
3757.508,1.477375004139219,180.18428140173654
3758.3745,1.4769447463451264,174.923739379022
3759.239,1.476926147295351,148.75596983640528
3760.106,1.4766098435637498,154.55410059326897
3760.971,1.4752362195846533,155.54850385518623
3761.8362,1.4726120377685912,167.68483841884347
3762.7036,1.4692787105274283,149.50755402096536
3763.5693,1.46619467518415,159.27220077655568
3764.437,1.4641787028564177,174.80774987163684
3765.3032,1.4635724853705878,169.85559253439342
3766.1714,1.4639889332935974,168.22331998368787
3767.0378,1.4644030429313883,159.2699780930421
3767.9043,1.4637357526069235,155.28413266368875
3768.7732,1.4616767260646835,156.54195390950707
3769.6401,1.4590714314430537,158.761679276589
3770.5095,1.4573513666389897,179.33452729446574
3771.377,1.4575520203178551,184.37651083343468
3772.2466,1.4596151192783187,138.1312767169347
3773.1145,1.462500205473976,167.23614312684398
3773.9824,1.4648798992970995,162.62404911787613
3774.8528,1.4658034226912513,142.67735182252753
3775.721,1.4649691766756623,197.67595399356904
3776.5918,1.4626028066018006,173.09443095653415
3777.4604,1.4592371823712813,163.53791127980787
3778.3315,1.455566088634115,176.20686495913742
3779.201,1.452439980010122,157.8880044539265
3780.0703,1.4505334362217377,173.3874299202134
3780.942,1.44997847266182,158.6936432655466
3781.8118,1.4502836822605114,176.4056894416791
3782.6838,1.4508398541282665,180.33841524946303
3783.554,1.451608601955962,219.2307189920668
3784.4265,1.4532415963263017,152.49849650737
3785.297,1.4563514702611742,163.98371430417347
3786.168,1.4606481137757334,185.5019956003098
3787.041,1.4647275353236593,145.45819032576577
3787.912,1.4667363149498662,120.30738979746015
3788.7856,1.465463731720704,167.80766485294652
3789.6572,1.46093799122708,153.9381928602109
3790.531,1.454287658818336,163.88863124499557
3791.403,1.4471927867572014,168.28674907877456
3792.2754,1.441123848639733,164.2218686919023
3793.15,1.4369884543125921,160.0736594900272
3794.0225,1.4350185082386988,193.87610177667398
3794.8972,1.4347229049169767,143.1762230888064
3795.7703,1.4350782416715264,188.00730253984594
3796.6455,1.4348935523028838,159.18210044918126
3797.519,1.433358288677258,165.2587826414323
3798.3926,1.4304200261059568,182.38111821234375
3799.2686,1.426726293449493,148.99072872321426
3800.1426,1.4232651116624528,202.26543726203846
3801.0188,1.4208369538319194,166.007299355543
3801.8933,1.4198393139491368,189.33479743172944
3802.77,1.4202106605886176,180.30844653374476
3803.6448,1.4216183398848394,165.68252028409898
3804.522,1.4237059447444715,191.66397784018466
3805.3972,1.4262658223019424,168.45267691471955
3806.2727,1.4293134352303545,182.78242917079126
3807.1504,1.432927496462925,153.60199450594837
3808.0261,1.4369616190017929,146.3880906099432
3808.9043,1.4409007350121985,171.38048184206366
3809.7805,1.4438263875009776,151.97738107215736
3810.659,1.4449047699940172,132.71201182921146
3811.5356,1.4439765074034625,162.6635357570943
3812.4126,1.4418977830501947,171.77641553265386
3813.2917,1.4400603507525267,155.336074569111
3814.169,1.4394448431715559,178.32522575106793
3815.0483,1.439990069819405,155.14891987589237
3815.926,1.440873641196707,170.81906272722773
3816.806,1.4412706233059671,162.8664162724389
3817.684,1.4408418860858418,165.88826159342108
3818.5623,1.4396632068696962,164.5696514587513
3819.4429,1.4378135753309593,162.02262619199465
3820.3215,1.4351307186974094,177.05011752046377
3821.2024,1.4313151781971236,168.596948500148
3822.0815,1.4263852022398888,193.50698783018947
3822.963,1.4207906684074585,161.09540842359232
3823.8423,1.4151529284799584,169.9030216051099
3824.722,1.4095918446355251,182.904859491106
3825.604,1.4035373374702433,168.37620742927515
3826.4841,1.3961665133113743,170.697335130965
3827.3665,1.3869954826507382,177.44983805869336
3828.2468,1.3765083096567825,182.60039806813003
3829.1296,1.36591520442548,174.58703085427294
3830.0105,1.3567359666047571,181.40407755048557
3830.8916,1.3498266908281351,273.4262174253215
3831.7751,1.3450541852964628,201.09200489547217
3832.6565,1.3416061227499705,197.05338404270705
3833.5403,1.3386918764055844,215.99273624482663
3834.4224,1.3361946217819847,202.72300934663937
3835.3064,1.3345234747572343,214.3728153612811
3836.1887,1.3341486878043514,194.3464512707729
3837.0713,1.3352403862397508,225.33523598491888
3837.956,1.3377677919010453,192.89644740677787
3838.839,1.3416853203068435,183.14550519584344
3839.7244,1.3470076247401883,214.81958340819645
3840.6077,1.3535921510415287,196.7747752747541
3841.4932,1.3611832097344616,188.7858929542456
3842.377,1.3694283042296833,216.41943544353856
3843.261,1.3780736523418904,188.11540868322774
3844.1472,1.3867472468891906,179.8733462993253
3845.0315,1.3946972053423812,179.41739927465218
3845.9182,1.40109432202852,161.33403993781747
3846.803,1.4053976850165255,168.90760714049497
3847.69,1.407880533022549,179.56651242776934
3848.5752,1.4095071867416231,167.98425470307814
3849.4604,1.4116014271136752,219.51109281808215
3850.3481,1.415354311384372,195.8553779756457
3851.234,1.4213340020915888,161.74221596107012
3852.122,1.429260559310383,171.8554814029894
3853.0083,1.4379479947543006,172.55400333775245
3853.8967,1.445943489785637,151.04859145537839
3854.7832,1.4520706755866701,173.8505282458859
3855.6702,1.4560069100226156,168.98092272997715
3856.559,1.4581076476123767,179.85087511906366
3857.4463,1.4589475959310882,157.7254549605973
3858.336,1.4589634568048617,172.1441199848532
3859.2234,1.4584432229194022,168.96497985357053
3860.1135,1.4577132268082333,166.59160394131004
3861.0015,1.4571200853545354,158.49589587068954
3861.8896,1.4567502191397703,152.40459064797477
3862.7803,1.4562604851069705,164.77117917658688
3863.6687,1.4550364046460786,156.55133979018228
3864.5598,1.4525442899832441,154.5077150459883
3865.4487,1.4486476420603527,158.5591993899631
3866.34,1.4435698026877786,151.84209645515105
3867.2297,1.4377390934983214,173.27182068234697
3868.1213,1.4314009192875683,179.93042807732027
3869.0112,1.424584663561322,185.03861710570754
3869.9014,1.4171716174438407,153.77855304293897
3870.7937,1.4092100070487907,186.30942500864353
3871.684,1.4010862725445814,192.8510071963685
3872.577,1.3932336269311407,186.98191595130834
3873.4678,1.3860396266594655,191.82735518120975
3874.361,1.3795889698733133,172.45935278348395
3875.2524,1.373833898533416,177.86791219577321
3876.1438,1.3684676031486405,189.59726776230204
3877.0376,1.3628730696478426,207.8710214434744
3877.9297,1.3562134825768533,198.38542258337472
3878.8237,1.3477163535992862,172.06064621449286
3879.716,1.3372499120310242,202.96724665336768
3880.6108,1.325229735862718,269.2478778577222
3881.5037,1.3123820096475844,205.33771361592957
3882.3965,1.2990762017137925,205.84401527244844
3883.2917,1.2852545346794946,220.90848933791
3884.185,1.2707192470775237,203.76832137832847
3885.0808,1.2551817046837934,217.37048315186772
3885.9746,1.2388683139251204,212.71122743877942
3886.8706,1.2224343268920108,225.29018388964153
3887.765,1.2071905909288247,265.0051595084745
3888.6592,1.1945102857014391,269.86163143283056
3889.556,1.1855792499241944,235.2511501950899
3890.4507,1.1812566978925203,292.1805979470103
3891.348,1.1818990021670117,250.6067149017282
3892.243,1.1874191071513542,259.02666494885085
3893.1406,1.1972878268748672,255.67121652137078
3894.0361,1.2104595212408065,252.9150602065908
3894.932,1.225650703448308,254.21661332928346
3895.83,1.2414676378301222,223.83307510937377
3896.7263,1.2565488893747376,225.81291737519018
3897.625,1.2701910432342514,219.18703819916996
3898.5215,1.2823397501811065,204.86410146414488
3899.4207,1.2937971957845167,224.1076111650013
3900.3176,1.3054410943266561,215.950672803637
3901.2148,1.3178401161973903,217.45784396367267
3902.1145,1.3309601419239587,191.80777242486127
3903.0122,1.3443691490084648,203.17173066000623
3903.912,1.3578670701831317,198.1130652901127
3904.8103,1.371329203722312,200.5110782769863
3905.7107,1.3847056906181876,184.1535081963886
3906.6094,1.3975569744918752,173.40912808550937
3907.508,1.4093266403224058,161.49335403715492
3908.409,1.4196253875534355,172.05015520369832
3909.308,1.4285286716399186,190.18733262167572
3910.2097,1.4367365109306374,156.19443286919795
3911.1091,1.4449843769251716,179.53667324032793
3912.011,1.453713325233705,162.761965144301
3912.9111,1.4627369673836867,181.2370547564999
3913.8113,1.47164112614743,144.89562113588377
3914.7136,1.4800814775384856,170.10924957611715
3915.6143,1.4877959355713688,146.01047159095614
3916.517,1.4945618467315964,164.2196142677745
3917.4182,1.5000324644787868,162.4040237670788
3918.3215,1.5041536304230574,136.460409187139
3919.223,1.5073928876167322,150.06745518954457
3920.1245,1.5106868413745755,146.9899034786657
3921.0286,1.5148274312299392,158.43891342050705
3921.9307,1.5198988707936458,162.2846583732861
3922.835,1.5253379865173438,145.61373346032326
3923.7373,1.5302863498533739,178.48487039511866
3924.642,1.5341289508696723,154.97240732073323
3925.5452,1.536568885460668,145.12441033942133
3926.448,1.53763829850379,148.19785423289315
3927.3535,1.5375564782954032,146.510982465302
3928.257,1.536636303143324,135.76078299865293
3929.1628,1.5351474276702812,143.25529358457038
3930.0667,1.5332162576595734,149.69971003146136
3930.9731,1.5308099770692754,149.1861123970647
