wavl,flux,ivar
3566.9744,2.067398182361431,96.59497131402958
3567.795,2.0726885790138616,94.66908260216512
3568.6177,2.076186189217096,98.23347313098984
3569.4385,2.0764355256882663,86.23342490143153
3570.2617,2.073032127965144,82.60349742234408
3571.083,2.0662407745932576,86.01485898472527
3571.9065,2.0566988558696804,96.2436325288082
3572.7283,2.0456263100122323,107.52157895552703
3573.55,2.0344335523110777,94.27055109085012
3574.374,2.0239442667773138,106.00983931451977
3575.1963,2.013983766225792,106.95676296667585
3576.0208,2.00398156602048,91.89792491411902
3576.8435,1.9947155631456788,117.42546961772472
3577.6682,1.9887709274063605,159.5529179512263
3578.4915,1.9893812638250379,99.47297182279289
3579.3145,1.997936826504887,90.73853104992153
3580.14,2.0125664253659035,96.67658457507594
3580.9636,2.0283576814587043,93.04776228642183
3581.7893,2.039545509229689,75.56801177651417
3582.6133,2.0416514636433596,90.2249839829654
3583.4395,2.0335122518963704,80.57049071070593
3584.264,2.0178792777464083,122.63893288320189
3585.0884,2.000201915840593,148.14448994943012
3585.915,1.9861292632998948,149.9411919357862
3586.74,1.97906442584995,128.04650904552807
3587.5671,1.9786258760771094,113.20781862623318
3588.3923,1.9813192006653708,114.1614958471942
3589.22,1.982710257295149,99.7580064516011
3590.0457,1.9801792237707447,104.03007182242486
3590.8716,1.974444798973003,129.98351278653803
3591.6995,1.9685531339213884,134.06567075548665
3592.526,1.965315330941981,78.54106250705188
3593.3542,1.965259016837509,148.10890986967922
3594.181,1.9668570898210753,111.16331924604347
3595.0098,1.9681464288515649,118.25132802799446
3595.8367,1.9680691000623147,119.0864197815668
3596.6638,1.966728734324633,85.2949143548605
3597.4934,1.9648625452656316,109.14093249566581
3598.3208,1.9632769824722638,110.57636974820329
3599.1506,1.9624941779193417,121.73957819055775
3599.9788,1.962744221574212,137.05641572729752
3600.8088,1.963947178826606,113.90612770173493
3601.6372,1.9656175488187926,134.1790175383614
3602.4678,1.9669626174732617,135.25141248698952
3603.2964,1.9673237115948912,119.27796662600814
3604.1252,1.9666159987203136,130.46272892191726
3604.9565,1.9650637375075637,145.94165420403178
3605.786,1.9625221726286253,81.76453385931991
3606.6172,1.9582616347148878,97.93913526991491
3607.447,1.9518543028435884,90.06267317887166
3608.2788,1.9441724109075036,81.1760216463569
3609.109,1.9375377851576174,98.28722773872612
3609.9392,1.9342961037062063,136.89363572521387
3610.7717,1.9351746637578437,135.25459825277946
3611.6023,1.9385817118851651,123.90355315893449
3612.435,1.9417459713810474,99.1503354145647
3613.266,1.9427093630507954,98.49794226590559
3614.0994,1.9415126720226297,149.16081989665864
3614.9307,1.9395206970491292,117.24144409325434
3615.7625,1.9378229879338746,131.28449322919306
3616.5962,1.9362949201996276,107.9309132011804
3617.4282,1.9339658572648624,110.1934258385474
3618.2625,1.9301083435522273,119.44939091559354
3619.0947,1.9251354143775723,146.9834818828465
3619.9292,1.9204576906706534,147.5384280294059
3620.762,1.9177221376600797,126.70359881736321
3621.595,1.917783339073774,99.11891658683855
3622.4302,1.9202725955998308,170.02382387038944
3623.2634,1.9236859417729517,134.0571645540386
3624.0989,1.926044676238141,92.86360755934452
3624.9326,1.9256497846427711,135.98585700335948
3625.7686,1.9218073092111059,75.43872898783704
3626.6028,1.915246044995255,85.31903654936849
3627.437,1.9079440503308416,93.69547167827619
3628.2734,1.9021863612527086,97.14653635930739
3629.1082,1.8991031570328418,112.76397775044586
3629.945,1.8976575089254266,118.58958829165401
3630.78,1.8954100170193955,134.10429419734527
3631.6174,1.890379557576549,130.0440837201
3632.453,1.8826146694558281,118.89425993622694
3633.2883,1.873978287557874,144.69823236228189
3634.1262,1.866668057656466,128.4839714198922
3634.9622,1.8617578557527465,118.84179912443521
3635.8005,1.8585797118969238,121.21999649066419
3636.637,1.8554270051425445,117.06827312217825
3637.4756,1.8504801006737097,101.9399918272608
3638.3123,1.8427888047239844,129.46776949179335
3639.1492,1.832770726608357,147.55959320998082
3639.9885,1.8222367196340472,115.04153074545513
3640.826,1.8136434893963311,145.2864830378706
3641.6653,1.808482454962768,139.3594282439111
3642.5032,1.8064357982722377,120.12434380669652
3643.343,1.805592309295416,127.86667805368602
3644.1812,1.8039051129113766,107.3595783727399
3645.0195,1.8005379624693514,160.99277080255774
3645.86,1.7962271815371187,108.57247392309674
3646.699,1.7926128982980039,141.0074459907385
3647.5398,1.7909821744348335,137.38304241083122
3648.379,1.7913785639831767,129.69962384761985
3649.2202,1.792402020635928,134.65330875774458
3650.0596,1.79189240760094,128.01363788045904
3650.8994,1.7880688470369677,146.82761737903095
3651.7412,1.7804659934251266,186.7362419574508
3652.5813,1.7703828817463247,160.44082252709347
3653.4236,1.7603232188202775,115.71546191458155
3654.2642,1.7529703060523072,118.37056532295817
3655.1067,1.7496150796647902,141.72037924044315
3655.9475,1.7495649609472472,193.1977962976986
3656.7886,1.7506944468581946,148.42412961511505
3657.6318,1.7509898786898783,127.44203305295585
3658.4734,1.7497680948605057,173.82077409270624
3659.317,1.7477717217080564,136.42448944520982
3660.1587,1.7462823199914579,166.08546576125076
3661.003,1.7460245379472916,126.22567516304841
3661.845,1.7466813760077067,151.23923657605638
3662.6875,1.747209325746904,175.57702246503044
3663.532,1.7467444471092373,137.55514068740993
3664.3748,1.7454367331913256,148.50373648362313
3665.2197,1.7444429503474794,146.37628108211956
3666.063,1.7449491003516209,152.33958774150304
3666.9084,1.7470097581597324,140.82052286864322
3667.752,1.7493518796561982,117.22523889253341
3668.5977,1.7503589493609049,165.6466879205515
3669.4417,1.7491266385507866,115.70596212652372
3670.286,1.7456846058176207,159.59165267026148
3671.132,1.740359975107289,185.01196780231672
3671.9768,1.7332961682429522,146.48549709649552
3672.8235,1.7245365799131516,110.79536303863253
3673.6685,1.7147758556544506,138.70031341494155
3674.5156,1.7055921827263802,158.49453221197638
3675.3608,1.699250498348837,139.5933582070433
3676.2063,1.6975317216049162,165.7414457082048
3677.0542,1.7007188515693634,163.8862459404229
3677.9,1.7069953428886542,155.5572208049146
3678.748,1.713198113530122,133.7367708354378
3679.5945,1.7164735789876957,188.47069240680509
3680.4429,1.7159957020019725,138.5948369295147
3681.2896,1.7130134634143097,113.81026601812835
3682.1365,1.7093857499125504,153.18357084077763
3682.9856,1.7060093323688228,116.3428144761085
3683.8328,1.7025260038754895,146.28201551307228
3684.6824,1.6980815383127486,120.97690203623344
3685.53,1.6923493580189508,139.58446361789828
3686.38,1.6857720696579874,168.44424952464257
3687.2278,1.6793894413141883,146.65861111771346
3688.0762,1.6742287072468527,124.04746284424893
3688.9265,1.6709842336471141,141.71373453118028
3689.7751,1.6697789322575303,151.94175339009067
3690.626,1.6699723262192396,171.238845469195
3691.475,1.6703086012729618,180.0046290463817
3692.3264,1.6695869495015392,160.0283002368351
3693.1758,1.6675837838199914,178.6467333213354
3694.0254,1.6652543316229018,136.1126495406841
3694.8772,1.6637993091514218,142.0040544461137
3695.7273,1.6634429893102183,188.51181095228435
3696.5793,1.6631713671096138,162.70641564132424
3697.43,1.6617118624719847,119.65345315118458
3698.2825,1.6586331893854753,181.49175180300688
3699.1333,1.6546364382897818,134.32542319170958
3699.9841,1.650911529975559,164.21679839251925
3700.8374,1.648330056110093,185.9650895427946
3701.6887,1.6469689163895207,151.26940933890603
3702.5425,1.646117102007019,148.77163471346321
3703.3943,1.644833115251461,154.1232384772997
3704.2483,1.6425607250468215,169.59938583525485
3705.1003,1.639476532364085,153.4894072420132
3705.9526,1.6362556024630108,168.21183697848184
3706.8074,1.6336080374948843,121.62477160491586
3707.66,1.6319595670647133,160.02800724982356
3708.515,1.6313878885170048,126.09608922998392
3709.3682,1.6317611157835812,195.6575702586874
3710.2234,1.6326935575092143,150.25514921905184
3711.0771,1.6334716431682672,208.8140025505574
3711.9307,1.633262780381292,168.04981370926146
3712.7866,1.631567564523066,148.95429118974184
3713.6409,1.6285004960713927,175.75477189500307
3714.4973,1.6245035230548694,197.9349018787256
3715.3518,1.6199957899570727,223.1127311183094
3716.2085,1.6152699447949006,121.95191572271689
3717.0635,1.610790226566739,189.5471869861547
3717.9185,1.607076803809057,142.07435233657847
3718.776,1.6044141735427984,130.14201727859972
3719.6313,1.602705715389454,247.15556790662984
3720.489,1.6016530307665866,127.81579977351538
3721.345,1.6011348011455526,218.17262804529562
3722.2031,1.6012808307997188,146.15731383725247
3723.0593,1.602271499863066,144.9136073508085
3723.9158,1.6040978918258515,159.3995844630774
3724.7747,1.6065472104027732,155.35185790654128
3725.6316,1.6092559113744949,185.43142229162032
3726.4905,1.61168165426245,147.62071864515647
3727.348,1.6129533749167633,159.13515791378794
3728.2073,1.6121204633677777,161.41171560645847
3729.065,1.6086609186843177,163.22431321405327
3729.9229,1.6028561603243638,184.738562916607
3730.783,1.595738319811746,158.67741600331954
3731.6414,1.5887678538762162,161.93908502917452
3732.5017,1.583109634263212,246.75339740420966
3733.3604,1.5791606161014158,200.71885546514488
3734.2214,1.5763805376298972,149.02567733165125
3735.0803,1.5739944998584536,170.57311848855937
3735.9417,1.5717518533975556,195.42323415875157
3736.8013,1.5702819903075345,174.8777584326757
3737.661,1.5706259565290597,170.43729675587733
3738.5227,1.5734347300190554,164.1939453036759
3739.3828,1.5782155863905314,186.16317455363068
3740.245,1.583332108641756,160.8357562723085
3741.1055,1.5868068391572003,111.24290552012812
3741.9683,1.5876511927899615,235.4169870961669
3742.829,1.5863462806588025,184.94899711010882
3743.69,1.5841616389121809,233.04784811918987
3744.5532,1.58187720708174,181.29518278233894
3745.4148,1.579214000775365,148.0389514492637
3746.2786,1.5753053125651248,180.66291526953907
3747.1404,1.5697386493579637,259.5102002677884
3748.0044,1.5629757413149272,191.64268165249877
3748.8667,1.556156374635314,197.37964883069156
3749.729,1.5503419813758386,195.17975033033252
3750.5938,1.5461002803773363,188.68720987393885
3751.4565,1.5434688869733448,225.1513990921839
3752.3215,1.5421065666961928,181.871714319173
3753.1848,1.5416170380982734,198.18275440811698
3754.0503,1.5416153601989924,181.5939247033105
3754.9138,1.5416749216556138,259.55032867626693
3755.7776,1.5413698493352859,146.2336079329455
3756.6438,1.5405486178315477,174.2786054573829
3757.508,1.5395063417476884,215.4279254638256
3758.3745,1.5386471311493761,188.9094332039284
3759.239,1.5379287370209374,198.13991071738664
3760.106,1.5366918415622544,169.48921414874758
3760.971,1.53422976242716,167.56254954068007
3761.8362,1.530527638719232,241.49969371908145
3762.7036,1.5264213764243506,207.62468500449802
3763.5693,1.5228935084363402,139.9428017086979
3764.437,1.5200038203088075,219.5952224714986
3765.3032,1.5167513845458418,201.49102805290943
3766.1714,1.5120109330095057,148.9777515188871
3767.0378,1.50591602312758,175.33991266728492
3767.9043,1.500134217082079,206.40122693385783
3768.7732,1.4968521337332859,233.48567707109495
3769.6401,1.4972450660641996,166.98972252043157
3770.5095,1.500620649881178,225.59425609819476
3771.377,1.5048886603574223,246.8189659543529
3772.2466,1.5079439107291026,193.4284531522122
3773.1145,1.5088728271986174,148.79396109881682
3773.9824,1.508310482221485,299.94194049699126
3774.8528,1.5074995221714165,191.73808341165477
3775.721,1.5069901646831025,207.69168067684984
3776.5918,1.5061832851046406,170.9757546179668
3777.4604,1.5041889103383013,165.5258916466206
3778.3315,1.5009106782845045,213.61961057663322
3779.201,1.497254111811211,219.2327047342879
3780.0703,1.4942953800733303,160.47660603394334
3780.942,1.4925841973843257,170.3108605809299
3781.8118,1.492160398644509,173.46344791911426
3782.6838,1.4928994167957963,175.65672761679494
3783.554,1.4945474935402456,197.53398127034694
3784.4265,1.4963928988910014,197.29387023300154
3785.297,1.4971537594248534,236.45001118451424
3786.168,1.4955453405486208,214.27858587667762
3787.041,1.4910144758090174,215.2310720236146
3787.912,1.4841278992314915,157.37981137859379
3788.7856,1.4761419297661003,197.62097775135712
3789.6572,1.468441140921437,197.0963493503757
3790.531,1.4618260161032064,188.5572972423713
3791.403,1.456434135593514,207.23234438444604
3792.2754,1.4517795959452717,225.3298362820216
3793.15,1.4472506314957776,240.28918439605707
3794.0225,1.4426416225300787,225.57167355948363
3794.8972,1.4382424070631483,192.90689169842167
3795.7703,1.4345852811138553,242.53806459938886
3796.6455,1.4319440657932434,182.5044918664048
3797.519,1.430382068383061,243.501827946849
3798.3926,1.429996522041654,179.67279198806904
3799.2686,1.4309889460964846,225.00224194870336
3800.1426,1.4332641443497383,214.9343928506407
3801.0188,1.4361450523256774,194.1233253953504
3801.8933,1.4385824176073152,130.24566667971987
3802.77,1.4397882289255872,177.34174769404126
3803.6448,1.4395981424530457,242.9723120581844
3804.522,1.4385612057676627,233.09092261336292
3805.3972,1.4378794175291603,161.2379531770609
3806.2727,1.4390684504213604,257.0402466427858
3807.1504,1.4430974816898858,262.07951368737537
3808.0261,1.449371183146309,266.8093637818631
3808.9043,1.4559068144951437,201.56020358299384
3809.7805,1.4606982176748393,164.03670320983795
3810.659,1.4633017703198337,240.74447789199357
3811.5356,1.4646900644208758,174.37513725125882
3812.4126,1.4658949719679468,184.92445717677865
3813.2917,1.4668719889206683,191.44355747056707
3814.169,1.4667887986721222,186.63159572872138
3815.0483,1.4651808319756614,198.0786864965314
3815.926,1.462596918648244,242.51236082427738
3816.806,1.4600552117295367,240.91176853680236
3817.684,1.4580217524923569,267.24762250908157
3818.5623,1.4559438274442618,208.40058926179265
3819.4429,1.4529017360133036,186.05757971001947
3820.3215,1.448575391550089,242.12209813858695
3821.2024,1.4433506774789044,203.60216855405062
3822.0815,1.4376832459781457,200.34434946197194
3822.963,1.431355567291143,195.23445339001543
3823.8423,1.4237486641002288,230.53595860625313
3824.722,1.4144843240800204,212.05154436061815
3825.604,1.403983265930182,217.35442922130693
3826.4841,1.3934105236437713,236.28063152522532
3827.3665,1.383794407042439,204.81264435897688
3828.2468,1.3754612326670956,276.6369411058116
3829.1296,1.3676037446639764,249.38852252204202
3830.0105,1.3589869057248731,204.7891177093418
3830.8916,1.3488077237776475,206.72851361723178
3831.7751,1.3373765945519955,262.1832549574602
3832.6565,1.3258619044465647,253.8587570962394
3833.5403,1.3150485262147713,242.95473751556142
3834.4224,1.3049550552175957,219.68824693845215
3835.3064,1.2951305461308946,245.43211014775846
3836.1887,1.2858576298767461,216.47338393633024
3837.0713,1.2783619070967147,312.93778671946836
3837.956,1.2742132163666957,279.49261813106415
3838.839,1.2743977370825652,282.34564163834386
3839.7244,1.2789508608447349,209.76610684560083
3840.6077,1.2872852825161758,339.407449736917
3841.4932,1.298701022862877,231.26377464924713
3842.377,1.3123454633464666,291.13728228539946
3843.261,1.3272568482667866,233.21646692848066
3844.1472,1.3423086899804269,228.3474070720783
3845.0315,1.3563454034544469,199.49023800173543
3845.9182,1.3686957947711336,229.68543280322166
3846.803,1.3789620494603787,205.7810092777618
3847.69,1.3871657365742927,235.04900253211645
3848.5752,1.393521035690763,205.7526648974549
3849.4604,1.3986128345370687,226.26730553182537
3850.3481,1.4032796903441818,242.25201651895134
3851.234,1.408379493149069,204.37099676324823
3852.122,1.4146240429835324,203.83274652650329
3853.0083,1.4222266459242525,295.1963514233548
3853.8967,1.430823279963542,231.6611457105246
3854.7832,1.4393892621062823,256.67076563521437
3855.6702,1.446849427158942,194.81584391717686
3856.559,1.452550109530258,232.71282970772498
3857.4463,1.4563068275083806,204.24914865307298
3858.336,1.4580371502335896,198.57535309451524
3859.2234,1.4574479962308708,144.20424076912323
3860.1135,1.4544645327397612,198.07240006068346
3861.0015,1.4498493465937605,231.93624199483742
3861.8896,1.4451390777589146,168.90050266163965
3862.7803,1.4418264350043863,229.57113573662
3863.6687,1.4403665918720434,188.97007971540918
3864.5598,1.4397678872905888,201.42487158091456
3865.4487,1.4382830044756079,210.5687787186224
3866.34,1.4345901444241405,140.9857657902777
3867.2297,1.4286656485980613,217.80499061265675
3868.1213,1.4214896616244161,213.23460897946782
3869.0112,1.4141390048460927,258.6039696578097
3869.9014,1.406922167310503,205.84088261822438
3870.7937,1.3994983006187616,251.9368798605338
3871.684,1.3915197005707165,252.42490278835143
3872.577,1.3829313207879588,195.4232785703638
3873.4678,1.3741191155610524,221.79031039364713
3874.361,1.3654536043531276,223.83672881399266
3875.2524,1.3570445175206025,288.89838015630045
3876.1438,1.3482443561459605,248.43499157439743
3877.0376,1.3377910199596745,279.6069719966566
3877.9297,1.3246308696743603,261.175454251706
3878.8237,1.308626032811881,260.9464854830618
3879.716,1.2909441822757626,287.42120089216695
3880.6108,1.273046031546573,318.27440473864687
3881.5037,1.2560842606472762,260.1967726495784
3882.3965,1.2403087224548766,227.90157032175026
3883.2917,1.2254227718348074,355.01492386152637
3884.185,1.2108807068220995,255.27336409559348
3885.0808,1.1956273056713953,329.07789342863725
3885.9746,1.1786157877951815,346.99968960902964
3886.8706,1.1591806062304242,288.09388903628
3887.765,1.1380983629307677,309.54447477247925
3888.6592,1.1174589957728596,485.15002152604984
3889.556,1.100142629817128,435.9235137291541
3890.4507,1.0889377393936135,474.0696792206397
3891.348,1.085399715669109,301.41563556382613
3892.243,1.0896335690320658,334.62701687796255
3893.1406,1.1003349390326378,407.1257961618507
3894.0361,1.1152819940315646,398.63278603570024
3894.932,1.1323072768015818,274.8025593824212
3895.83,1.1498758277100711,297.0543498977493
3896.7263,1.167112613247202,336.0756383583233
3897.625,1.1838265776169183,320.7955320782768
3898.5215,1.1997281527090615,315.63475890450866
3899.4207,1.2145349844565385,342.2957511469958
3900.3176,1.2278123676442156,236.9834770344346
3901.2148,1.2397269253820593,222.4051984878898
3902.1145,1.2512630962924767,236.38020176578604
3903.0122,1.2639821782800913,238.89125086918628
3903.912,1.2794344470389771,312.4798661515051
3904.8103,1.2979279278684641,279.9070518302635
3905.7107,1.3183605737676267,309.7770633286762
3906.6094,1.3384163567929546,206.04378637832866
3907.508,1.3559861356538985,214.85617707425058
3908.409,1.3700094356634254,233.87587181709716
3909.308,1.3807361750639087,214.7711801793911
3910.2097,1.3896732515805073,214.48845195689756
3911.1091,1.3987054554989315,221.5109030976847
3912.011,1.4094222177113842,223.6423455991249
3912.9111,1.422176191767068,210.82616588258642
3913.8113,1.4360849083264664,188.48494067132654
3914.7136,1.4495375496505518,187.21354766615414
3915.6143,1.4609556838209645,219.41664758400105
3916.517,1.4695979744641918,225.9552286193157
3917.4182,1.4755326897891436,202.93892153102095
3918.3215,1.479702094297275,189.00088175826141
3919.223,1.4835977091325576,229.7866603756922
3920.1245,1.4888668921181718,205.06501287582606
3921.0286,1.4965035155105224,227.66187273644215
3921.9307,1.5060398427485133,195.66782543233577
3922.835,1.5156279686185854,196.12412920770328
3923.7373,1.5227615363081932,178.04387802186037
3924.642,1.5257225977180962,210.66055825531186
3925.5452,1.5243302574191944,187.45600715001902
3926.448,1.5199827744196022,187.31837030594502
3927.3535,1.5148094016338431,190.13243200983027
3928.257,1.5107263540549356,177.408347153448
3929.1628,1.5086206168456466,215.5379766715634
3930.0667,1.5082578670063655,179.27051929581967
3930.9731,1.5085712005249339,242.7916782769151
3931.8774,1.508223700887665,176.07768005269378
