wavl,flux,ivar
3566.9744,15.819996846498661,13.623598816133212
3567.795,15.774842287987845,14.689364089313361
3568.6177,15.730768317684845,15.519814271613686
3569.4385,15.695937289389773,17.472802820988576
3570.2617,15.67227199832203,16.185525870714933
3571.083,15.656460925493075,15.473601271683718
3571.9065,15.642650007671106,14.359417911985128
3572.7283,15.627973912798188,15.696361318444886
3573.55,15.615902844118018,17.89992789517019
3574.374,15.614123253445918,14.354729861025362
3575.1963,15.626907681215659,14.969792049506742
3576.0208,15.649155816712753,14.816481974235247
3576.8435,15.668018171776545,13.02071384308865
3577.6682,15.67074690122936,16.183184174314697
3578.4915,15.650493888906917,18.435854742726427
3579.3145,15.607377319207501,16.330009401236957
3580.14,15.54658274588146,14.487543786030999
3580.9636,15.47832342189142,13.93622117776552
3581.7893,15.41610523258245,13.088866883387777
3582.6133,15.374442955980038,16.92294892514689
3583.4395,15.361962457812428,17.002344694222067
3584.264,15.377781824594887,14.605919221587767
3585.0884,15.412070791742401,19.335804878210766
3585.915,15.451058020319879,16.468171629482605
3586.74,15.48104042965699,15.868707173598567
3587.5671,15.49197288884272,16.177241184420524
3588.3923,15.479610454860596,14.196193899265442
3589.22,15.447250233503661,16.417965988264665
3590.0457,15.404092921414804,12.919089871601821
3590.8716,15.359424725225413,16.727282182099476
3591.6995,15.318174107878137,16.62769711821423
3592.526,15.281236701782909,14.03762746440975
3593.3542,15.249080636564505,13.923860489007795
3594.181,15.225555507666183,16.235805566320845
3595.0098,15.21539722682375,16.08307047892974
3595.8367,15.219201273895441,16.935268666992197
3596.6638,15.23037023010076,13.190642919221084
3597.4934,15.238078430231246,15.775997010848009
3598.3208,15.23198457905288,17.810903498648624
3599.1506,15.204116665652249,13.888444511952757
3599.9788,15.148747833544924,15.023939221566602
3600.8088,15.06480637274417,15.720225835411851
3601.6372,14.96436170522483,14.111205892212267
3602.4678,14.875528197160698,15.237342542173302
3603.2964,14.835231829988045,16.75192985824569
3604.1252,14.8669464395692,19.295458182841774
3604.9565,14.965280192996484,13.789450869396667
3605.786,15.097286874811507,14.695892993406652
3606.6172,15.224902631565072,15.233323115365591
3607.447,15.323211288085902,15.148300517753093
3608.2788,15.387361861436489,15.730369375545159
3609.109,15.421851972289545,14.903136568582337
3609.9392,15.430547483266963,16.185159333753496
3610.7717,15.413161199905517,15.631877626252667
3611.6023,15.37136019035913,14.461474477701826
3612.435,15.314095858022462,15.562573766993083
3613.266,15.256306451380492,15.987000015367439
3614.0994,15.209536247018862,13.9394670064792
3614.9307,15.176699179359757,15.642500927026015
3615.7625,15.153032020424288,15.513893369348503
3616.5962,15.13310242008708,15.618311753469683
3617.4282,15.11507750622509,16.960891378693677
3618.2625,15.099935403116055,15.69220120104827
3619.0947,15.089164011626368,17.933902800897307
3619.9292,15.082286219279638,14.373105176702513
3620.762,15.075507006854638,17.47512458066771
3621.595,15.061412021036046,15.070606832823941
3622.4302,15.032168203027453,15.674440604979182
3623.2634,14.98534534826621,15.728076125915095
3624.0989,14.926030818138651,16.791131827679088
3624.9326,14.86475640377161,16.359379748868832
3625.7686,14.811507828479627,16.192959856320066
3626.6028,14.774373324271314,17.522768347539415
3627.437,14.758192813929845,16.762651649069657
3628.2734,14.763578754009067,18.038747953203604
3629.1082,14.784925119726232,15.62160570160373
3629.945,14.81215184344573,15.143458822581586
3630.78,14.83539906481592,12.809456570257538
3631.6174,14.849699015664982,20.513261321325086
3632.453,14.855575482162278,14.415607832981287
3633.2883,14.858431311882967,16.23960162436525
3634.1262,14.866429379002556,17.73540776054596
3634.9622,14.885984885857631,19.159156087867885
3635.8005,14.915832602371431,20.629499689691432
3636.637,14.944332361686826,15.488985421695936
3637.4756,14.955898219515172,13.287140042371593
3638.3123,14.941349562466268,15.710462409975976
3639.1492,14.904995465211515,14.55346987002586
3639.9885,14.861861626495285,14.907997808619045
3640.826,14.828551506854767,15.295302618275981
3641.6653,14.812516686177966,17.22673322580603
3642.5032,14.809021122000576,16.181439004637586
3643.343,14.805980952337569,16.408637187788212
3644.1812,14.79417833548387,17.112922820476552
3645.0195,14.774449150170286,16.97747271558977
3645.86,14.756927226066644,17.010353056331343
3646.699,14.754061081457905,17.85864472067357
3647.5398,14.772725900092993,14.98731738168746
3648.379,14.810577302795215,19.436086125395487
3649.2202,14.857133827610634,15.644094538608709
3650.0596,14.896852313910967,14.00855828745074
3650.8994,14.915545882728134,14.773061502556924
3651.7412,14.905970220368868,19.17212895680716
3652.5813,14.871447122354143,17.583410244316557
3653.4236,14.823008037428385,18.80536570257916
3654.2642,14.772825539639411,17.810881000432612
3655.1067,14.727075136496147,16.05943797179929
3655.9475,14.685709994646805,15.451508282810503
3656.7886,14.646212008967652,16.295083919051354
3657.6318,14.610038515679742,18.712469758088073
3658.4734,14.585270469849082,18.156090686457677
3659.317,14.58157747126747,20.735856882310838
3660.1587,14.601796656737163,15.971764782681577
3661.003,14.637019780125389,14.20563629671877
3661.845,14.670732803890573,17.771795357343564
3662.6875,14.689594368001794,17.087758737204762
3663.532,14.689888714186797,16.783597727780133
3664.3748,14.676939100367107,15.122880716972896
3665.2197,14.659415526815655,17.333241284504137
3666.063,14.643721185335053,16.97631671316928
3666.9084,14.630424414358327,14.755900321804505
3667.752,14.615029135906791,15.468977703806917
3668.5977,14.592209580625006,16.36564928229914
3669.4417,14.56176130891282,17.274737848051657
3670.286,14.529863848165315,17.991388217723323
3671.132,14.505045698041293,18.01752819195018
3671.9768,14.492258920726437,16.198694839399987
3672.8235,14.489836483203728,15.506322656713326
3673.6685,14.49162870011829,17.494709525203977
3674.5156,14.490861738036251,14.735342597242562
3675.3608,14.483368495992995,20.34708474085912
3676.2063,14.469024846182592,17.95729056849058
3677.0542,14.451513898805338,16.677067751219784
3677.9,14.436905301619994,19.275312948406178
3678.748,14.430549524874989,21.250041277371107
3679.5945,14.434267019470084,16.437449833268243
3680.4429,14.444435022564747,16.898546752687178
3681.2896,14.453114152837255,18.585025693704782
3682.1365,14.452488803893788,18.563640150848393
3682.9856,14.439959298385656,17.963943674988684
3683.8328,14.420526691502745,15.35944678362369
3684.6824,14.403558280600755,16.86567452686794
3685.53,14.397168583481252,17.602251693399868
3686.38,14.403957162016484,19.111157105518295
3687.2278,14.421315459674467,17.9408058737943
3688.0762,14.443758667992476,17.191263665062536
3688.9265,14.464400094744088,19.536196589262765
3689.7751,14.475747838628292,22.866988843468803
3690.626,14.472247775988533,16.2407211582766
3691.475,14.453350991823118,17.921156646759314
3692.3264,14.424399314298077,17.615348847035893
3693.1758,14.393729677317113,18.716710575189847
3694.0254,14.36729322506081,17.63104526130492
3694.8772,14.346549029150053,17.639728444663294
3695.7273,14.330325794024736,18.094441459459095
3696.5793,14.318022412989333,16.105151392921314
3697.43,14.31154283191339,18.161504654825368
3698.2825,14.313282073640814,18.688493447802212
3699.1333,14.322483074174631,15.997650856366674
3699.9841,14.332994805851454,18.15267482346516
3700.8374,14.33500240152336,17.01354691016332
3701.6887,14.320390646786405,20.684525713043502
3702.5425,14.288638139984132,17.47065171412507
3703.3943,14.24948530779532,19.82978389242696
3704.2483,14.21866934135818,18.33606225570348
3705.1003,14.210062585044751,18.75397841836533
3705.9526,14.226674845452886,16.242707963876146
3706.8074,14.257767230818173,17.190508041361742
3707.66,14.282338370557568,18.69269511885548
3708.515,14.279289406473598,15.397709193280843
3709.3682,14.237677959744873,18.30196157755441
3710.2234,14.162379594537928,16.95955972088497
3711.0771,14.07210298116192,20.513950824203405
3711.9307,13.989271528127519,19.216621683402842
3712.7866,13.930742971725131,17.873593667304977
3713.6409,13.903917667039968,18.005310666531006
3714.4973,13.906768819742094,18.40011549422651
3715.3518,13.931266824497255,18.793266570697465
3716.2085,13.966068261789601,17.37636166425026
3717.0635,13.99942982998223,17.90670175396756
3717.9185,14.023799878290387,17.100094090459297
3718.776,14.038214003281597,20.13271789001706
3719.6313,14.047029357289457,19.321648741954316
3720.489,14.055917393680467,19.486688563599095
3721.345,14.067683811773803,18.15868251512048
3722.2031,14.081314020050161,18.087988330243512
3723.0593,14.092989205554229,15.892506702409978
3723.9158,14.097865632596568,17.01355488940845
3724.7747,14.090840963652624,19.562390510697412
3725.6316,14.068047075681404,19.335907195194014
3726.4905,14.029171418832213,19.50005716381844
3727.348,13.979654128827296,18.159531293677645
3728.2073,13.928492552568468,18.866961747118754
3729.065,13.884143353918262,18.532093324118485
3729.9229,13.849873140618048,18.978897302788894
3730.783,13.824707307537976,18.504843573987817
3731.6414,13.807289912989384,17.56508444649689
3732.5017,13.798282916994076,19.271309915064354
3733.3604,13.799954476995481,18.840774565662095
3734.2214,13.813290873421932,16.324994188641732
3735.0803,13.835751240086097,19.19713945467095
3735.9417,13.861242095323847,16.409073841285604
3736.8013,13.881458581795659,19.06325674276029
3737.661,13.889638909295044,21.216938260101024
3738.5227,13.883739198072231,16.228457263296512
3739.3828,13.867858789355527,19.197999172500502
3740.245,13.849763222168763,20.020848076319385
3741.1055,13.835923841350404,18.141076438414448
3741.9683,13.826482707632383,19.54882350641341
3742.829,13.815071355958848,19.703378765952746
3743.69,13.793523634128434,22.404520673830007
3744.5532,13.75833896554611,19.695398034928438
3745.4148,13.7134444511093,17.01381604477062
3746.2786,13.665917712639276,20.87769611901652
3747.1404,13.621121644595735,24.006533469201948
3748.0044,13.580111951424124,19.628374316952907
3748.8667,13.543763643762274,18.538682433486525
3749.729,13.515923681626374,18.729734795583106
3750.5938,13.503429803806624,17.916629796153085
3751.4565,13.511841826849315,18.61343295885339
3752.3215,13.541320592081911,19.226226893574534
3753.1848,13.586252662789235,22.7673378988045
3754.0503,13.638500198357546,16.538819934791928
3754.9138,13.689325300231163,21.761559839633136
3755.7776,13.731339112128198,18.634088592589453
3756.6438,13.758900462154312,16.755137524617414
3757.508,13.769636030204984,18.630830949998433
3758.3745,13.76563242673912,17.99343126215906
3759.239,13.751335559432704,20.72305897061907
3760.106,13.730262574519074,18.96349389044504
3760.971,13.70389877191284,19.119718997708695
3761.8362,13.67307673157767,18.308536639690384
3762.7036,13.640199066248046,19.876424050887024
3763.5693,13.60861579329673,21.143307364524908
3764.437,13.578472278223789,19.490537882371413
3765.3032,13.544727120761708,20.717875164983322
3766.1714,13.498374838825782,19.51797734877994
3767.0378,13.432111049396603,19.15399586723567
3767.9043,13.344601500091414,23.432278878003967
3768.7732,13.242930217951995,20.74380978674142
3769.6401,13.1432748585735,22.132161090557144
3770.5095,13.065912575223436,20.541463847884575
3771.377,13.030933935927793,21.02846029871781
3772.2466,13.049706447505626,24.27718838007023
3773.1145,13.120835115920773,23.13702252085828
3773.9824,13.231012751967423,19.26376397479902
3774.8528,13.361138045556496,19.041287895502066
3775.721,13.491675631977484,17.627473331298336
3776.5918,13.609761751916833,17.259614614803446
3777.4604,13.70791711916741,19.028101168681687
3778.3315,13.785759525757516,19.35725533684406
3779.201,13.845950404620012,17.626780885339965
3780.0703,13.893478206862223,18.293398197362457
3780.942,13.933081703425604,18.10865699180615
3781.8118,13.96718575136666,18.922223413356797
3782.6838,13.994637810424669,16.26971293805183
3783.554,14.009381591054549,20.31122491996103
3784.4265,14.00274041002588,18.27099533052826
3785.297,13.967461833663366,18.70930517814822
3786.168,13.902251995289996,16.63804486077251
3787.041,13.813527210935368,19.89483788349999
3787.912,13.71378293565749,18.244494756435934
3788.7856,13.613719834321154,22.40892261686145
3789.6572,13.518127293845708,18.89805352822629
3790.531,13.422896878380518,19.643060111871122
3791.403,13.321017680789911,19.99807548709285
3792.2754,13.205683927545838,20.809748290702267
3793.15,13.071835979833835,19.639577433937706
3794.0225,12.916487033189235,20.01949822809482
3794.8972,12.739164368400267,20.84476512493508
3795.7703,12.55189375074457,24.97289447523341
3796.6455,12.380431886960414,24.91874730420329
3797.519,12.260888978926934,27.330893663830633
3798.3926,12.221126943229061,29.282514550041224
3799.2686,12.268457099871634,24.392904107286117
3800.1426,12.386691599414764,24.422380709747
3801.0188,12.547832956038295,24.973169412211497
3801.8933,12.724105783406108,22.403337747106278
3802.77,12.898286382881624,20.6620722644987
3803.6448,13.06016274346337,22.62759936637261
3804.522,13.205826648960953,19.286097006437302
3805.3972,13.332419850380886,19.603199186905595
3806.2727,13.440883938882392,18.7352783607859
3807.1504,13.534303683109046,18.349333787850743
3808.0261,13.615601791388364,16.727648680396253
3808.9043,13.687524820224349,18.907744888717836
3809.7805,13.751497930920127,18.413846231588202
3810.659,13.809903959318243,18.11473570668845
3811.5356,13.863419650514954,19.112662965084407
3812.4126,13.909023307914081,18.80690325279395
3813.2917,13.939055644392162,19.96834142863286
3814.169,13.945702624330965,18.68574193604535
3815.0483,13.928048029604701,17.939798624653434
3815.926,13.894298544968281,20.283613812915892
3816.806,13.856445191451435,18.512407110226473
3817.684,13.822384428806716,19.882392844836772
3818.5623,13.791165373230143,18.611477664437917
3819.4429,13.755894954662926,19.35468761576758
3820.3215,13.709797388006773,18.461080233961848
3821.2024,13.649349937091674,19.053418030862858
3822.0815,13.57535514208089,18.34830731222926
3822.963,13.489744759656308,17.990230652551958
3823.8423,13.394346798565556,19.6448060900367
3824.722,13.288061444829724,21.996615240316707
3825.604,13.167824868388353,20.66294880826582
3826.4841,13.031674557755224,24.298455324211922
3827.3665,12.878458512737188,20.533339116022002
3828.2468,12.710191122399454,23.906705840899185
3829.1296,12.526418540443283,26.44116289000605
3830.0105,12.324537054250555,22.79305239949508
3830.8916,12.096984736843616,24.058356148978085
3831.7751,11.838026473384527,24.74310744867776
3832.6565,11.555448975453823,24.715155614396267
3833.5403,11.27338958942418,29.156616802179318
3834.4224,11.036879677324784,32.288714036652365
3835.3064,10.893761413441618,36.65356748752176
3836.1887,10.877386025807724,38.47193499599813
3837.0713,10.988055415750303,36.69549128889184
3837.956,11.195809880155638,26.95412799612974
3838.839,11.455448379387086,25.979002669711672
3839.7244,11.731200989260579,23.870880425427693
3840.6077,12.002270105600534,23.342937398977533
3841.4932,12.262952979716149,21.489139214137293
3842.377,12.50765096525403,22.28074608698629
3843.261,12.730405464068856,21.621685442570147
3844.1472,12.926037088759518,21.099993383287774
3845.0315,13.094123124199875,19.97857137405316
3845.9182,13.243086135912502,21.22954452065902
3846.803,13.382718300946665,20.510539883245507
3847.69,13.521239146684314,21.795772235358505
3848.5752,13.658702324445661,18.768265201499748
3849.4604,13.78924362534501,18.843270638645606
3850.3481,13.903809855682498,20.48028381822111
3851.234,13.994539024451795,16.547434257879388
3852.122,14.061200956027925,19.233200336744737
3853.0083,14.110370355899883,17.56068917352711
3853.8967,14.152658156788943,17.8163793563247
3854.7832,14.19467457711595,18.6553542982388
3855.6702,14.235610671146048,18.01814163595924
3856.559,14.269412512953176,16.693741831806776
3857.4463,14.291611583681474,18.297249609384338
3858.336,14.304342137927714,17.807631358814795
3859.2234,14.314103312394458,17.352118104825003
3860.1135,14.326372578597502,16.812980386961485
3861.0015,14.341245225738357,17.853664594978014
3861.8896,14.35390285059179,18.274013688777607
3862.7803,14.357656663502302,18.375159327342175
3863.6687,14.347335405186657,17.65735550343482
3864.5598,14.320833390174592,17.99282234233289
3865.4487,14.278669887952393,17.212675650266828
3866.34,14.221789814204186,19.59770769491163
3867.2297,14.151942360782769,17.26018274096849
3868.1213,14.071744796260454,18.23906940854076
3869.0112,13.9860860507816,18.676356114847
3869.9014,13.898771926219826,17.617595527729513
3870.7937,13.810128770245646,18.633124462833955
3871.684,13.717320300792355,17.521288372974432
3872.577,13.615238502853884,20.084935760162157
3873.4678,13.500497142962645,19.519740023652155
3874.361,13.369441757286824,18.882532770991986
3875.2524,13.219827499958006,20.857946729982714
3876.1438,13.04938588562465,22.64615952865133
3877.0376,12.857994608089298,21.63799054748392
3877.9297,12.649749994328655,22.290437684644274
3878.8237,12.428169934026318,22.279386572422116
3879.716,12.197172120175415,26.067601827606467
3880.6108,11.955717559896133,26.109852803950346
3881.5037,11.701831694643118,23.96154386695152
3882.3965,11.42931249869069,26.712479951999672
3883.2917,11.130326808443638,30.240736492377817
3884.185,10.800494613350153,27.77245028294054
3885.0808,10.43802822713017,32.35530666826192
3885.9746,10.056416907852379,36.84440771378371
3886.8706,9.682835027312017,42.999061211376905
3887.765,9.364457826345816,41.546353541294984
3888.6592,9.152348851094931,48.407604447157816
3889.556,9.08616834963068,57.49392866144139
3890.4507,9.176770230463932,43.06643736844042
3891.348,9.402057413899644,41.59277923373565
3892.243,9.717836791030246,40.21778203937442
3893.1406,10.081276392565805,38.033023787508334
3894.0361,10.457380311449445,33.08655766009455
3894.932,10.827032934293568,32.609906813319114
3895.83,11.179114475125651,28.00113884147442
3896.7263,11.503946733336406,28.226817868666014
3897.625,11.798221175384283,24.696165707346395
3898.5215,12.058965075988207,25.27542195194634
3899.4207,12.289230642228858,23.726429168937262
3900.3176,12.491800187241552,23.49586069917819
3901.2148,12.67352747652566,22.84256746596463
3902.1145,12.842727729365812,21.709056086370072
3903.0122,13.0065530615124,21.847163272035413
3903.912,13.171299228520635,20.789206218301274
3904.8103,13.337624144922009,18.58354511891725
3905.7107,13.503518343446144,18.999775682698992
3906.6094,13.662804858996001,18.861621356265363
3907.508,13.80961808225756,18.132119655503324
3908.409,13.93949618416474,16.902336615730928
3909.308,14.050119725308475,17.935018124562767
3910.2097,14.143315853854315,19.19921208539269
3911.1091,14.221716114967101,18.28810633876669
3912.011,14.289534980676017,16.97565527824336
3912.9111,14.350929819449258,17.667229630099296
3913.8113,14.411017854368525,15.716051669385196
3914.7136,14.473410415723862,16.7371139748324
3915.6143,14.536838951489871,17.296358513303037
3916.517,14.595550387560621,17.389959690856042
3917.4182,14.641751523493555,15.582425518624772
3918.3215,14.671569342354195,17.366068622876774
3919.223,14.686741777703714,16.618229226352145
3920.1245,14.693760001399076,15.502884187123307
3921.0286,14.70041690645265,16.99037610288028
3921.9307,14.713314901971291,17.78348238777274
3922.835,14.736627577332127,16.293583378902976
3923.7373,14.77104247463981,16.750430947787237
3924.642,14.813886821146024,16.735973287826443
3925.5452,14.859157873305342,16.62567595589856
3926.448,14.900058877092043,15.626369538834348
3927.3535,14.931109123766046,16.646643803150646
3928.257,14.949184390090725,14.388086953227582
3929.1628,14.953679780425096,16.595227244070585
3930.0667,14.944975766396848,17.84942807309381
3930.9731,14.923901096744585,14.921927527472766
