wavl,flux,ivar
3566.9744,0.3892562548001447,1385.3791569064642
3567.795,0.3923818851706447,1000.5912971389428
3568.6177,0.3977543093956872,1380.4634069805127
3569.4385,0.40376060031776834,1868.036563906171
3570.2617,0.40832879969004543,914.5736443896362
3571.083,0.4097023948188566,1203.8646232398185
3571.9065,0.4071955567895944,562.4442095978142
3572.7283,0.4012930314451631,1156.9799268113509
3573.55,0.3933599430715533,1498.2237838894769
3574.374,0.38524567983323116,906.478017662632
3575.1963,0.3788817164222095,933.9134632211633
3576.0208,0.37550737152273594,1276.6499739940832
3576.8435,0.3752618961230627,1909.072496555444
3577.6682,0.3772000677555744,5857.601598979769
3578.4915,0.3799862869901188,983.0354183551236
3579.3145,0.38262652374585965,1099.7483365017808
3580.14,0.3847106675213399,829.3192180563735
3580.9636,0.3861816429678273,1015.3766246321377
3581.7893,0.38706354630519624,1797.0207853983445
3582.6133,0.38731705842377434,990.3017781071275
3583.4395,0.38695728351191305,664.6016517736124
3584.264,0.3861891134436013,1082.1334641287237
3585.0884,0.3853870661161243,693.5447773588637
3585.915,0.38489451591637935,1611.2073689625995
3586.74,0.3847939258841328,1517.7420619994546
3587.5671,0.3848288878032418,976.334485629784
3588.3923,0.38459719485035404,1525.4837964985095
3589.22,0.38390633303091026,1523.221770808482
3590.0457,0.3830609826567777,1021.0832119203263
3590.8716,0.3827885917391618,1202.2074446650693
3591.6995,0.38377875795496524,1058.6098556977342
3592.526,0.3860835622767504,1146.1966055964144
3593.3542,0.3889271730013662,671.1385572684391
3594.181,0.391073753429399,3449.3862484624588
3595.0098,0.39154825534805665,679.8656129522788
3595.8367,0.3900447158147658,1106.9250864333078
3596.6638,0.38693446346437016,807.1938142025851
3597.4934,0.38298982232672124,859.780541237996
3598.3208,0.37911953271146515,945.2403365303861
3599.1506,0.3759023375691897,1090.198853076404
3599.9788,0.37320211014509813,1287.2491348068831
3600.8088,0.3698278248361354,756.1253060787883
3601.6372,0.3639338692833646,1013.6729497793035
3602.4678,0.35407239047917805,3258.677728732935
3603.2964,0.34086163389737534,1390.1885988572685
3604.1252,0.32767054400338175,1075.5720211988573
3604.9565,0.3196138578915006,1098.168952302608
3605.786,0.32062560748337865,1389.9527716451282
3606.6172,0.3306350829162706,1415.2801301083703
3607.447,0.3456446068351534,924.6700082301227
3608.2788,0.3606588283953086,717.8029585229101
3609.109,0.3723618381450238,1194.2307603575186
3609.9392,0.3800696276855729,1464.723838227433
3610.7717,0.38450975639846297,753.1628064567551
3611.6023,0.3866165351341481,562.565068198251
3612.435,0.38717261673802666,1919.2379468259783
3613.266,0.3867901998561487,844.8352367042387
3614.0994,0.3858442147004554,993.7931290131058
3614.9307,0.38431005880417546,1886.7457626743983
3615.7625,0.3819008050616785,879.0566689963324
3616.5962,0.37856662501261573,602.9164338160384
3617.4282,0.3748762241954695,1687.8696597660414
3618.2625,0.3717528226297679,1358.581859243847
3619.0947,0.36993518975300155,2294.4159142897965
3619.9292,0.36952259026250117,1471.980377071778
3620.762,0.37013689456628107,909.5863573049513
3621.595,0.3713463392986629,1137.1139726164135
3622.4302,0.372962382813675,718.5267911315352
3623.2634,0.37493298945737025,1464.2361330931512
3624.0989,0.37710349823478717,3284.8889189910788
3624.9326,0.37908428334885896,1819.3403336813121
3625.7686,0.3804980773467883,1126.6997636449423
3626.6028,0.38126698046433827,1173.6182014448004
3627.437,0.3817707675235226,1214.1778243137717
3628.2734,0.3826388206931805,1169.151182422447
3629.1082,0.3843159988937883,1476.4452203207566
3629.945,0.3866896447430209,796.2057446287615
3630.78,0.3889689398578877,1103.4440473256047
3631.6174,0.3900048216572264,707.7278725708468
3632.453,0.38876139051265657,870.5594044863183
3633.2883,0.38482546073372664,1051.0765136523898
3634.1262,0.378583106517684,938.566902972823
3634.9622,0.37112308929926,907.7573992608102
3635.8005,0.36365501105785725,1481.7442129685014
3636.637,0.35720999671263043,591.8533171550276
3637.4756,0.35231589781511863,2396.216805110743
3638.3123,0.34914103517988787,851.8371371892285
3639.1492,0.34744503098410007,1247.359396709727
3639.9885,0.34671670145405625,3608.898083170486
3640.826,0.3464285239452277,1677.339779644823
3641.6653,0.3463759823348107,4252.198939323043
3642.5032,0.34677959694113886,1694.328577659908
3643.343,0.3479876289643498,2066.161515105794
3644.1812,0.35008862943560093,1043.2804409882774
3645.0195,0.3528767948437238,3277.4706626441766
3645.86,0.3561189018894351,1509.7836994770164
3646.699,0.359712439019547,965.0705267387561
3647.5398,0.3635842243042968,1276.5810603124658
3648.379,0.3673485062719094,1422.6912241255154
3649.2202,0.370370191891851,2571.287840340736
3650.0596,0.37204633431600187,1438.1192448522459
3650.8994,0.3722287286099412,1294.6621943878622
3651.7412,0.3712868028619747,2418.70481874059
3652.5813,0.36998335152336537,858.2293993482174
3653.4236,0.36921757154622614,1758.201907811648
3654.2642,0.36971790682015765,1273.3058768543444
3655.1067,0.37161668324191266,1815.5911346317152
3655.9475,0.3741478802976055,2910.1732277627884
3656.7886,0.3758459001552984,924.0773775674022
3657.6318,0.37522167155603137,2578.764858970473
3658.4734,0.37163372634706376,622.0752701648837
3659.317,0.3657407297474464,2363.2135958043787
3660.1587,0.35928164678483426,1185.6418122092696
3661.003,0.35405629098753844,2538.0103310944933
3661.845,0.35104562215652607,855.5205656834335
3662.6875,0.35000074898915484,1028.9765945208842
3663.532,0.3500553815277865,1195.7042104643178
3664.3748,0.35051715227705327,2784.4258891501217
3665.2197,0.35120342761141826,1276.8091797241393
3666.063,0.3521650886359076,1786.108490799462
3666.9084,0.3533661947962392,824.2736449650325
3667.752,0.3546931718031504,875.1003159208063
3668.5977,0.3561883362234669,1676.0510099321848
3669.4417,0.3580243272611552,1310.8834123971772
3670.286,0.3602881628115733,1016.9866929367156
3671.132,0.3627866381682467,900.5052220133571
3671.9768,0.3650544263033178,1331.486159560728
3672.8235,0.3665200835463496,974.593340780581
3673.6685,0.36661126158780755,1199.5450738666414
3674.5156,0.3649622064756945,766.3299914695563
3675.3608,0.3616777310897587,1059.604151668199
3676.2063,0.35746912964098043,2006.7632369917214
3677.0542,0.3534975284384729,2081.7209227322064
3677.9,0.3509434201163895,876.9911037227552
3678.748,0.3504283149273386,1447.6075017424603
3679.5945,0.35184219434659497,1773.6647981394763
3680.4429,0.354503701848327,850.1562689302202
3681.2896,0.35748890745320777,2477.028410756956
3682.1365,0.35987501122881205,1527.6873427021308
3682.9856,0.3608275918550979,621.7358712414684
3683.8328,0.3598825219649281,1258.724663144545
3684.6824,0.3573233634717163,2911.1629350564244
3685.53,0.35419286963724517,2249.532758661028
3686.38,0.3517210010702541,2813.205898667351
3687.2278,0.3507690216271919,755.5591138616926
3688.0762,0.35152873521405725,953.377914782172
3688.9265,0.35357445745974053,1032.0372527109894
3689.7751,0.3559786685942706,2293.5924932807366
3690.626,0.35770314969173556,1331.9787893354505
3691.475,0.35811835647180784,2128.8386281557855
3692.3264,0.35740614480668476,1696.82869455745
3693.1758,0.35643295311137485,906.7140894261568
3694.0254,0.3562502188018491,1365.427149441675
3694.8772,0.3575888752946136,859.3388918439749
3695.7273,0.3605109517539246,961.0870614354468
3696.5793,0.36436113450165986,1008.379323659652
3697.43,0.3679715072946785,776.4072289793394
3698.2825,0.3702509023344942,1776.2441011331869
3699.1333,0.3706929668795389,878.0198639036647
3699.9841,0.36960574329449863,2305.337749181052
3700.8374,0.3677833611316894,1243.4892337274712
3701.6887,0.366023644193947,1696.8414729927777
3702.5425,0.3647554196775976,1634.9838265114636
3703.3943,0.3640352673116208,1243.8778789260798
3704.2483,0.36365698744518804,1753.1035276813043
3705.1003,0.3633200844735295,1643.7559317022858
3705.9526,0.36274900225582046,1862.83924588279
3706.8074,0.36178023853466584,1729.2046660404287
3707.66,0.36036347043558775,1049.413589217542
3708.515,0.3584514703294684,1581.4578450250315
3709.3682,0.35603733079623545,654.31868870478
3710.2234,0.35335686695783086,827.8530773849013
3711.0771,0.35116858842696225,1320.2317056772906
3711.9307,0.35050488203587254,3296.152398385114
3712.7866,0.3519836893927558,1821.4867409428516
3713.6409,0.35517544594098827,1669.9204285398462
3714.4973,0.3587406941754939,2371.700439998983
3715.3518,0.36113318762888275,924.8651521004799
3716.2085,0.36139602262222614,1106.2908204367964
3717.0635,0.35941259774069123,1094.5261679605278
3717.9185,0.35580746104289673,1500.8452605051154
3718.776,0.35165166756982413,2313.7350667130754
3719.6313,0.3481953913863253,1254.8934940216234
3720.489,0.3464472736337909,2155.1337481420906
3721.345,0.34692680809923043,2373.8313043184
3722.2031,0.34948949206635027,3355.954299785356
3723.0593,0.3533659069192149,1403.5608733368642
3723.9158,0.35740033336070964,820.8558713952121
3724.7747,0.36036252079885167,1265.0314072597125
3725.6316,0.3613368146598009,692.6402913864782
3726.4905,0.36010613732989194,1186.3852089808183
3727.348,0.35718820587771694,1485.014765611534
3728.2073,0.3535338453779321,879.0091229539169
3729.065,0.3500981648678966,1462.9190656927535
3729.9229,0.3474147676746391,995.2173068511257
3730.783,0.34555136797374403,1387.1380008156445
3731.6414,0.3443594322875398,1770.3729520188447
3732.5017,0.34375255624949064,1115.6613778668805
3733.3604,0.3437630956196601,1849.2832853614216
3734.2214,0.34429261521262516,1483.9779808237208
3735.0803,0.34497041966401865,1838.9925920620904
3735.9417,0.345393709174353,1294.53660592103
3736.8013,0.34552786938244195,1247.0026092367275
3737.661,0.34586745800807234,891.9912912764721
3738.5227,0.3471287165669647,1000.3648546552042
3739.3828,0.34966895298641315,1152.2697457239983
3740.245,0.3531035388582483,1572.6305786475498
3741.1055,0.3563602327424077,1567.6243459632838
3741.9683,0.3583050928351352,1179.8234060335276
3742.829,0.358299089662625,1933.8536899752094
3743.69,0.3564454029660806,1245.2977436150438
3744.5532,0.35332441075811866,788.76380346308
3745.4148,0.34970309839839947,1097.226880594635
3746.2786,0.3463097942771133,1617.833343689934
3747.1404,0.3438426678347522,934.5436667563392
3748.0044,0.342788499877076,1250.5146392916397
3748.8667,0.34323273082463557,3158.7031315599424
3749.729,0.34472741052988465,1578.3724673141726
3750.5938,0.34656314657368487,949.5077997190947
3751.4565,0.3482444268797208,835.4380099493479
3752.3215,0.3498322152338178,3876.584613814352
3753.1848,0.35172859397302086,979.7922248459674
3754.0503,0.35421622176356987,1056.8688859572587
3754.9138,0.35707598201009855,1176.17453235012
3755.7776,0.3596893039126874,1208.9253450831743
3756.6438,0.3613618631586875,704.983645874734
3757.508,0.36165350262427676,2695.5209080083578
3758.3745,0.3605509964627495,650.7146313927639
3759.239,0.35840706372010406,1202.696868469044
3760.106,0.3557353403905661,1378.6488829521707
3760.971,0.353027257776973,1923.5164779149818
3761.8362,0.35056607640686804,987.6626392082687
3762.7036,0.34846415865935504,1158.2798398399884
3763.5693,0.34679561825841454,1160.7126722364371
3764.437,0.34565305294232224,1449.597674222347
3765.3032,0.3451505577941227,1314.3785049698772
3766.1714,0.34530370852478554,1665.8830404122955
3767.0378,0.34592348727271066,1034.7296436372937
3767.9043,0.34656378934900567,1389.5726361074203
3768.7732,0.346629996178459,1669.3070695109632
3769.6401,0.34567556254590925,981.4897525311603
3770.5095,0.34370901558434086,2354.7036569960587
3771.377,0.3412861576741416,1247.304879533374
3772.2466,0.3392521509822456,1062.9545376284177
3773.1145,0.3384347509849567,974.5195357841791
3773.9824,0.3393394462386983,1323.9534394274244
3774.8528,0.3420417608425437,1628.3956696686284
3775.721,0.3461440607251808,1108.1341520253745
3776.5918,0.350981960027557,1945.7922222907837
3777.4604,0.3558271922650619,2458.244608010201
3778.3315,0.3602903474194429,890.8891539412054
3779.201,0.36433257286239507,888.1664577616951
3780.0703,0.3681057763774874,944.476645069265
3780.942,0.3714729516544319,1442.903462403917
3781.8118,0.3737640823348837,1295.7919537281514
3782.6838,0.3741622556485823,641.4893067596214
3783.554,0.37236151565233955,1033.0917040499426
3784.4265,0.36897443745344827,2230.439537981166
3785.297,0.3652623926495188,2300.3120048934998
3786.168,0.36232798717587034,1726.5615927094373
3787.041,0.3605977548187554,1078.902865352571
3787.912,0.3598796767894677,995.2089596482713
3788.7856,0.3597640227601652,1276.3273483475787
3789.6572,0.359916848105407,1854.706903471311
3790.531,0.3599940465363939,957.7336791344679
3791.403,0.3594682379664376,1382.2106699381452
3792.2754,0.35768901904812345,1272.2220064137268
3793.15,0.35416109029375564,1293.8971570915996
3794.0225,0.34883384476439794,1063.98343738961
3794.8972,0.3420634427599279,1229.669538060979
3795.7703,0.3345919682167592,1393.0149616465008
3796.6455,0.3273331544539817,1096.0163010992487
3797.519,0.32140844687020376,1250.1050291140168
3798.3926,0.3178225702602552,1664.3136228020333
3799.2686,0.31719890448866744,1466.2001968552113
3800.1426,0.31952927021592803,1576.6293611751269
3801.0188,0.32423681031817236,2403.4191657202546
3801.8933,0.33044524055149654,1049.4391543829292
3802.77,0.33734264267891956,2044.0738621203075
3803.6448,0.34417797495251506,1791.4661198976646
3804.522,0.35035125507535686,2216.783383727907
3805.3972,0.3553014638242411,1123.2355947805156
3806.2727,0.3587805349293502,751.3744170683522
3807.1504,0.36099479529625267,1069.895302738762
3808.0261,0.3626315650731092,956.1071162363643
3808.9043,0.364618358049183,1463.507704232054
3809.7805,0.3676168217551539,869.9270734218354
3810.659,0.37169500008741285,1623.4530950741098
3811.5356,0.37623526864710427,998.8785805266716
3812.4126,0.3803440589147184,920.7881718680478
3813.2917,0.38333249920960527,1319.3016378117638
3814.169,0.3849857306629079,1276.593445613915
3815.0483,0.3854550279943564,878.8743295138765
3815.926,0.38487879748465775,990.8724574146073
3816.806,0.38328603816132933,1428.787633895987
3817.684,0.38082927623683854,1081.6776572302933
3818.5623,0.37796291174080177,1797.410340722679
3819.4429,0.37528549490933794,1780.5072602220678
3820.3215,0.37316280896856824,1188.193417292342
3821.2024,0.3714650977865688,1022.6887336599387
3822.0815,0.36982338828412026,1626.6446322190566
3822.963,0.3680222154625361,1169.7624608082833
3823.8423,0.36621677630780264,1279.2594530490783
3824.722,0.36465236036695675,1896.5203432653843
3825.604,0.36325689040375214,1157.4224335138829
3826.4841,0.3614803878051072,1049.1417479958077
3827.3665,0.35850590343636435,1098.4788915328363
3828.2468,0.3537336998443478,1383.5281951543943
3829.1296,0.34705053354426024,1276.4498616310564
3830.0105,0.3389681963324487,1218.1626049556353
3830.8916,0.3302610867730246,1959.2789626684494
3831.7751,0.32161558036013743,1195.5467311143968
3832.6565,0.31345327325091926,1816.4994718078533
3833.5403,0.3058866054338241,1970.416185851701
3834.4224,0.29926698706153776,1501.6335379364907
3835.3064,0.29430729062560307,2317.836319389003
3836.1887,0.29200538019558064,2628.410852192581
3837.0713,0.29302179050022814,1608.2169696681472
3837.956,0.29728801319364345,2213.3742351661845
3838.839,0.3039647795772148,2090.110543799414
3839.7244,0.311961670950015,2708.702494370871
3840.6077,0.3203364144733357,1452.6308844665232
3841.4932,0.3286951562060515,1124.0549345127754
3842.377,0.336988673306242,2128.4520153256103
3843.261,0.34539432700359385,2137.7515294187456
3844.1472,0.3540038576014087,1445.879808061887
3845.0315,0.3626351819196321,1003.6876198047174
3845.9182,0.3709660464371582,984.2050946205686
3846.803,0.3783984586525498,1110.8116472144306
3847.69,0.3843137506068432,832.5705233443484
3848.5752,0.38819391891790955,1366.3839601262125
3849.4604,0.39003138225670947,1959.051725468235
3850.3481,0.39037217423296294,1038.0515586164715
3851.234,0.3901170291750406,1310.7508790864413
3852.122,0.3901707233601297,1132.291536064808
3853.0083,0.3911268837460369,1616.8927516402607
3853.8967,0.3930604445876374,979.5331631450734
3854.7832,0.39545451072386417,1353.8143126455648
3855.6702,0.3974643302038823,1084.8891666464033
3856.559,0.3984011059355804,1168.8569074468978
3857.4463,0.39819033544672944,1040.706075458479
3858.336,0.3974408103136778,1078.9973150928809
3859.2234,0.3970775762172409,914.3374651384852
3860.1135,0.397827702711005,1278.2783248675787
3861.0015,0.39986786411166836,887.2715438448382
3861.8896,0.4027594075125369,1007.4734247896021
3862.7803,0.4056578050620192,914.1855842871101
3863.6687,0.4077008998258762,1175.2381440825773
3864.5598,0.4084838315936179,1249.4637142809001
3865.4487,0.4081705885641855,1145.6297912024786
3866.34,0.40727811281427195,997.9821173839309
3867.2297,0.4062654179372558,1022.8801304841445
3868.1213,0.4052627566265544,1189.9356468240107
3869.0112,0.4040973627200856,884.791566597184
3869.9014,0.4024335070234786,1349.072561429111
3870.7937,0.39992647433530115,820.773057522528
3871.684,0.39635046433195015,1481.4530991015392
3872.577,0.39158624545851184,1287.6881873648326
3873.4678,0.3856600117279432,1298.7111671276784
3874.361,0.3786526623424068,734.3959027911054
3875.2524,0.37093390680638477,1558.612989316708
3876.1438,0.36313902573665024,1794.9961483832153
3877.0376,0.3560293273436115,1243.4188706335733
3877.9297,0.3501018756321714,881.6045434881802
3878.8237,0.34511513890538204,1198.1496391261385
3879.716,0.34026369606051887,1407.3524817003674
3880.6108,0.33457937459675763,1593.308438687825
3881.5037,0.3275846530212228,953.6931678647816
3882.3965,0.3194166718464534,2854.805295868153
3883.2917,0.3106065211782612,1942.1017958331145
3884.185,0.3016997944812646,1578.1236994744245
3885.0808,0.2928173898941963,7070.301265089367
3885.9746,0.2839336499027282,2418.985531327303
3886.8706,0.27509016214603543,3351.291416725792
3887.765,0.26691861127189576,3102.113091757949
3888.6592,0.26054212786147185,2303.390424953898
3889.556,0.25726011124342646,3124.7525707388268
3890.4507,0.25794657388968073,4289.694438461977
3891.348,0.2625846523735114,2812.4318317595366
3892.243,0.270318025779285,2342.988345635017
3893.1406,0.27998455668353234,1838.7895971354371
3894.0361,0.2903975406291933,2142.244446853603
3894.932,0.30072822888175316,1861.4576236856278
3895.83,0.3105002417473656,1341.0624812123062
3896.7263,0.31957174481029815,2336.7709846407765
3897.625,0.3282442412656844,1731.180423016518
3898.5215,0.3367910588340125,996.353830381537
3899.4207,0.34522864913396123,1653.8776416195124
3900.3176,0.35296129176152685,1670.6027575868986
3901.2148,0.35927789479721184,965.6273262417801
3902.1145,0.3639179016512237,1161.1703070911292
3903.0122,0.3674311416800561,1018.6627962943081
3903.912,0.3709316419079289,1978.910683446829
3904.8103,0.37524377067709663,1195.321688287247
3905.7107,0.3804581054563099,1050.6614246432266
3906.6094,0.38602393345050096,856.2774444777285
3907.508,0.391372935446348,1182.4104203370894
3908.409,0.3962439147287487,680.1441857980969
3909.308,0.4006202673803083,1150.266906970604
3910.2097,0.404624508283763,684.6513171688298
3911.1091,0.40831905885467673,1108.7817853751503
3912.011,0.4117548757667352,952.3857427047438
3912.9111,0.4149208852938983,1214.7077685212157
3913.8113,0.4178614793399818,1109.6895199575013
3914.7136,0.4206766330164969,1482.2551454032744
3915.6143,0.4234490089350061,1111.859894622056
3916.517,0.42623515524379374,959.038198183456
3917.4182,0.4290290393165072,1086.660367084411
3918.3215,0.4318187806747037,1185.7551372991832
3919.223,0.4345171006321992,1018.7027975281378
3920.1245,0.4371146008178413,729.3909132020942
3921.0286,0.4400830636074659,751.8593704281938
3921.9307,0.44513609862213294,841.516046825913
3922.835,0.456323107205215,758.5326230652042
3923.7373,0.4804991142042905,697.4519351177444
3924.642,0.5260402519734219,865.8479728818836
3925.5452,0.5965760649700793,682.8749485212463
3926.448,0.6832056132362143,816.648096104402
3927.3535,0.7612237447547566,677.0481525241041
3928.257,0.7989870160789604,11.507408196475152
