wavl,flux,ivar
3566.9744,1.0233100701578839,170.77212679056578
3567.795,1.0210481480873053,116.5706668531856
3568.6177,1.0177368234080373,129.60635506505332
3569.4385,1.0128419279338097,129.3052818328056
3570.2617,1.0063588647729553,148.95393505357347
3571.083,0.999190233351638,162.45578341153762
3571.9065,0.9928414460486207,182.76279149469312
3572.7283,0.9889278253721505,182.93681274745074
3573.55,0.9883125870460133,130.37020063377338
3574.374,0.9907552286894212,165.51561207236048
3575.1963,0.9950302275869767,156.64965766325471
3576.0208,0.9996001536225906,158.71054062872093
3576.8435,1.0032553056629567,119.80648068624161
3577.6682,1.0056462785861184,210.2057144746459
3578.4915,1.0072974856250059,167.29408337436197
3579.3145,1.0092885506696163,163.86949106441844
3580.14,1.0125547935792165,164.3082046006738
3580.9636,1.0172048216507403,151.78168732146653
3581.7893,1.0224261776579187,119.11704625714125
3582.6133,1.02683921509521,142.29739021755037
3583.4395,1.0292271308665744,138.9323461199959
3584.264,1.0289357167172986,143.65547644162055
3585.0884,1.0260846745622445,132.39412724419773
3585.915,1.0214411528496303,160.50497268755345
3586.74,1.0162301987010198,145.674353415003
3587.5671,1.0117204291146022,149.320132435928
3588.3923,1.0089283243551823,152.33903153505133
3589.22,1.0081355092971709,177.96978838928808
3590.0457,1.0086837817107015,129.03469424585873
3590.8716,1.0091903853211572,149.8994696053876
3591.6995,1.008396336390081,121.10395527109121
3592.526,1.0060529701595282,147.2416855345227
3593.3542,1.0030229184184605,129.62693869218302
3594.181,1.0005102849982628,172.60489612592073
3595.0098,0.9990604807580031,159.49572585989722
3595.8367,0.9983498775921641,116.27470028340866
3596.6638,0.9977006557566223,145.63299817109018
3597.4934,0.9967545172748533,150.82336258201676
3598.3208,0.9955739634331972,163.5394544288232
3599.1506,0.9941409104931158,140.68441894486935
3599.9788,0.9919860205134233,119.82200728453715
3600.8088,0.9884252442861953,143.59066740220376
3601.6372,0.9833185381084906,160.06919620114
3602.4678,0.9773943119538038,216.28432310153224
3603.2964,0.972024003338504,163.83641757390396
3604.1252,0.9684827954995535,153.27111106373246
3604.9565,0.967584092192043,172.3200068094304
3605.786,0.9694774853522872,127.59975554879475
3606.6172,0.9734661389670632,130.0190671808364
3607.447,0.9779200898471874,185.8116908595069
3608.2788,0.9807500313063939,125.1630145036124
3609.109,0.9802628934775997,186.6399090189679
3609.9392,0.9760360715142443,187.51949262923767
3610.7717,0.9690950364480713,124.54077969422717
3611.6023,0.9615659079708712,218.47476956978142
3612.435,0.9556790840656333,153.89542520808556
3613.266,0.9529019060942436,184.40474002863132
3614.0994,0.9532145833981173,190.17717723866576
3614.9307,0.9553334228370175,159.08764137540624
3615.7625,0.9575945916311587,144.61794179270944
3616.5962,0.9589264896788127,136.6478905478658
3617.4282,0.9592500282148044,161.4842116658189
3618.2625,0.959203703954936,181.4567587816685
3619.0947,0.9595099643084667,110.46256297276953
3619.9292,0.9604710556349477,140.19142908444894
3620.762,0.9617424873868597,211.53244265715603
3621.595,0.9624307748868594,152.36871854084947
3622.4302,0.9614617142029508,110.316375136039
3623.2634,0.9581180886143693,185.0556409964897
3624.0989,0.9522697279885303,142.4978277419989
3624.9326,0.9442285318960094,158.31477827583245
3625.7686,0.9343326040736184,140.51127406649223
3626.6028,0.9231793757010726,145.29325526825474
3627.437,0.9118593647760621,210.05084352480606
3628.2734,0.9020944479092667,213.95998101373448
3629.1082,0.8957163181213912,328.3353216329379
3629.945,0.8935042795209293,190.63491985884073
3630.78,0.8946349841448518,122.1710622731799
3631.6174,0.8970846804118914,171.44858873205922
3632.453,0.8990868680095535,149.54293944594195
3633.2883,0.9005020297085926,176.73853826681338
3634.1262,0.9028500582860797,150.80087871058012
3634.9622,0.9079582952893825,168.58727271855747
3635.8005,0.9162043384864742,216.53199242138274
3636.637,0.9253506133320689,192.57146038019576
3637.4756,0.9314209078672081,173.27889119154304
3638.3123,0.9310025857274843,308.1108931817683
3639.1492,0.9237124899355219,321.67181345416935
3639.9885,0.9122210056059684,120.48834706785591
3640.826,0.9002934364940773,200.87599198504915
3641.6653,0.8903060834420528,154.46155048712575
3642.5032,0.8827994852328043,164.24503061244897
3643.343,0.8771031562557186,264.1337190002048
3644.1812,0.8724531981376843,210.52229990137369
3645.0195,0.8683511343839202,245.53332721734577
3645.86,0.8645893722442983,258.0181604644987
3646.699,0.8610915311306943,246.88308884657476
3647.5398,0.8577237528021978,230.70029284796414
3648.379,0.8543733741099976,146.70889163076657
3649.2202,0.8510044855137153,205.63235647984433
3650.0596,0.8477625521760861,240.34957943459307
3650.8994,0.8447901390151239,192.68047095524366
3651.7412,0.8421281913424946,162.54375868521205
3652.5813,0.8398241131187083,165.79043135514735
3653.4236,0.8381661869321049,250.3088157519693
3654.2642,0.8377765356519168,262.5716085163636
3655.1067,0.8391543655760194,223.8544849439924
3655.9475,0.8420617506113527,158.83696208217955
3656.7886,0.8453818776738135,195.9782417638163
3657.6318,0.847676612941051,213.27017903910354
3658.4734,0.8480108710169297,196.70048462825474
3659.317,0.8464221462568412,283.28523263798564
3660.1587,0.8436728359899036,163.84551797690173
3661.003,0.8405914153033208,222.46306241356066
3661.845,0.8376069129660365,175.65818195898373
3662.6875,0.8346582926254277,126.696949106091
3663.532,0.8316149435225522,287.01922799911756
3664.3748,0.8287129778181959,209.7364491565629
3665.2197,0.8265925343076099,170.9788196150982
3666.063,0.8260416380511548,217.84851317147601
3666.9084,0.82751678088016,454.4038924486849
3667.752,0.8308025131031326,241.8112417487881
3668.5977,0.8349500665672176,330.7643335046905
3669.4417,0.8384898842971522,232.3883067390197
3670.286,0.8400721620255339,225.38784745346464
3671.132,0.8390291818352192,204.58722900820212
3671.9768,0.8356634414396471,231.36723808547308
3672.8235,0.8310149258701508,209.48657728395855
3673.6685,0.8264381788080895,223.54434638991538
3674.5156,0.82311391297871,193.2396629278182
3675.3608,0.8218699913888199,416.9981135054687
3676.2063,0.8229493472776286,335.76283001099114
3677.0542,0.8259187743833333,191.3231938110688
3677.9,0.829680041476152,265.3476284184745
3678.748,0.8329457186997761,199.49534995007403
3679.5945,0.8347445022450658,255.49287284340352
3680.4429,0.8347912872654527,262.46995891405516
3681.2896,0.8333943092529827,186.84977169805467
3682.1365,0.8312478172215886,201.5260125778177
3682.9856,0.8291681156405425,210.38837470258343
3683.8328,0.8277102462642725,176.0088803656642
3684.6824,0.8267190156661033,201.35252282663026
3685.53,0.8254185428381576,154.34977731127452
3686.38,0.8230741023642708,211.65948120189947
3687.2278,0.8197327073659337,170.83451767866288
3688.0762,0.8161593715660006,235.58900521638273
3688.9265,0.8131676562929646,216.6616642296832
3689.7751,0.8110649991091959,245.14970795283864
3690.626,0.8096535635105477,212.1943514094203
3691.475,0.8086267583105683,465.1308437281547
3692.3264,0.80774073769384,238.33652434323753
3693.1758,0.8068590846939061,204.4325347894316
3694.0254,0.8059860151621616,312.2178948180496
3694.8772,0.8053189778663007,233.6020793120937
3695.7273,0.8051420228015603,169.0726129561806
3696.5793,0.8056163774703724,224.7418153101127
3697.43,0.8066825814364532,231.49146689614122
3698.2825,0.8080818674443465,232.02400434024287
3699.1333,0.8093517661914041,298.2484775444179
3699.9841,0.8098986808965127,175.9965640044161
3700.8374,0.8092429767712299,163.69547557228452
3701.6887,0.8074147758421473,190.8162001574995
3702.5425,0.8050711874420314,199.46627071988627
3703.3943,0.8032073281135433,225.6919365332349
3704.2483,0.8025684870169928,273.00308788309246
3705.1003,0.80324281653836,264.5221101842228
3705.9526,0.8045063358292995,219.30463099179
3706.8074,0.8050640790425188,236.39233573255206
3707.66,0.8036513728812666,178.254862562055
3708.515,0.7997543274143345,263.51606036049486
3709.3682,0.7939910059188495,204.99041872276976
3710.2234,0.7877597294866818,291.7775317757279
3711.0771,0.7826555075954623,243.5248681518964
3711.9307,0.7798139793334671,222.85482186569942
3712.7866,0.77969580705371,460.30634015493234
3713.6409,0.7820217207457282,255.076527451754
3714.4973,0.7858324612170353,178.73650430216048
3715.3518,0.7897122935231211,234.54819516902307
3716.2085,0.7923788107639024,182.21252558207553
3717.0635,0.7932312548979802,224.43128943695652
3717.9185,0.7926845827504264,296.2169125345775
3718.776,0.7918628724959051,196.9627827519995
3719.6313,0.791919088008648,238.48928083880992
3720.489,0.7932758003989806,249.92700666399946
3721.345,0.7952740564567403,302.2937071311969
3722.2031,0.7965840177269343,180.4967311706282
3723.0593,0.796152716594517,284.2608822633689
3723.9158,0.7939921893020145,189.82571861706887
3724.7747,0.7910381776923204,314.76627678047953
3725.6316,0.7884029176807209,228.900206320197
3726.4905,0.7866709645057088,220.2931888146203
3727.348,0.7858301903735813,226.02877685495744
3728.2073,0.7854096791240337,352.45198717408067
3729.065,0.7846563574700813,227.05986934816835
3729.9229,0.7827831890778663,247.95497449392803
3730.783,0.779440506778044,219.73290456919835
3731.6414,0.7751401090503409,377.5685531584315
3732.5017,0.771014166510518,258.7128603239138
3733.3604,0.7681154467252008,285.72974569747066
3734.2214,0.76666777849792,236.112483488903
3735.0803,0.7661233423552708,263.69866583051424
3735.9417,0.7657720984051553,218.59008003410185
3736.8013,0.7654198459081383,213.09752529638249
3737.661,0.765519193568073,236.5865894395124
3738.5227,0.7667495590559147,241.79754218030044
3739.3828,0.7693429674159857,329.21334715269995
3740.245,0.7726819053625834,278.24412575452897
3741.1055,0.775433903271055,182.70763233257867
3741.9683,0.7763469463898218,214.36214677720946
3742.829,0.7749868923773058,225.6594251021984
3743.69,0.7719654059654274,258.5718983271674
3744.5532,0.7684173676542995,284.7885307042869
3745.4148,0.7652821133475225,290.87251502026555
3746.2786,0.7627925579029278,251.57798932872694
3747.1404,0.7607117721903964,338.5238977575475
3748.0044,0.7588837355806041,344.7894732559881
3748.8667,0.7576614314016157,277.0041273932286
3749.729,0.757633202362297,284.52159408849917
3750.5938,0.7590646524780538,211.64728742469904
3751.4565,0.7615931715241392,313.956218893258
3752.3215,0.7645145055064663,220.39828420591334
3753.1848,0.7672266346446545,247.48506574877388
3754.0503,0.7695673065670181,334.72664893692047
3754.9138,0.7716830314687924,301.99197945777564
3755.7776,0.7736958398556152,308.0781985152237
3756.6438,0.7753184652258305,230.50928242390995
3757.508,0.7758511625844929,206.77697668410104
3758.3745,0.7746536141498191,279.8680391879907
3759.239,0.771644408476347,254.24718474734914
3760.106,0.767360130987811,238.0649833567823
3760.971,0.7626401638117314,268.7254643772256
3761.8362,0.7581180731576393,267.066081282133
3762.7036,0.7540956218806861,231.47278345439923
3763.5693,0.7506921822212849,287.7380721200828
3764.437,0.7479881471906906,311.82059651792315
3765.3032,0.746200477145333,214.64133310378543
3766.1714,0.7455799697365886,278.108615122178
3767.0378,0.7461378113666487,243.41644005006336
3767.9043,0.7472495011400366,267.9286362625987
3768.7732,0.7476501747430943,213.1711244896971
3769.6401,0.7460898727334123,230.6840304425384
3770.5095,0.7422612818578032,215.26219617352555
3771.377,0.7371633249921865,279.93770450470083
3772.2466,0.7323920942114283,388.9086470585301
3773.1145,0.7292049806840778,339.88185285985145
3773.9824,0.7279390974947861,222.1180092650045
3774.8528,0.7282973360080262,255.18787670126875
3775.721,0.7298532732862826,412.2435686527209
3776.5918,0.7323786402041423,264.61225330224903
3777.4604,0.7358100898508833,216.90549537224186
3778.3315,0.7401303101575627,314.3263243538024
3779.201,0.7450954431701293,245.29613961727077
3780.0703,0.7502173517645404,319.2043398369269
3780.942,0.7549121210774649,289.6977116615477
3781.8118,0.7588026247374241,227.48828027015645
3782.6838,0.7619265759450681,312.5696993067459
3783.554,0.7643510209903364,429.2511034469877
3784.4265,0.7657809735640788,271.08999370707517
3785.297,0.7655397314729874,230.15833142248303
3786.168,0.7631857187188226,449.9991997967607
3787.041,0.7589769503655995,303.82866426732346
3787.912,0.7537630505678193,349.9041075274477
3788.7856,0.7483504737557479,224.79600236846645
3789.6572,0.7432866074073856,198.15932072590218
3790.531,0.7388549427313393,283.3502914124014
3791.403,0.7352957289692156,276.4941358244794
3792.2754,0.7326487963829559,301.7847281108755
3793.15,0.7307110061877495,286.8345692718286
3794.0225,0.7292116142785289,250.51811374211383
3794.8972,0.7280466920837171,265.0846985263228
3795.7703,0.7272996993399967,352.07924677842396
3796.6455,0.7269209628230178,229.4267803706353
3797.519,0.7265772249640007,226.08234665941131
3798.3926,0.7259284557548272,269.186450310953
3799.2686,0.7250833148541164,251.15509796969678
3800.1426,0.7246399707837321,320.8452896572246
3801.0188,0.7251115284615429,237.40498947481575
3801.8933,0.726333652311591,287.3455160058477
3802.77,0.7275338685004425,219.80242332270322
3803.6448,0.7280174543563003,332.5980814438782
3804.522,0.7277918850642261,404.81488391711736
3805.3972,0.7275179173565981,195.4292454122947
3806.2727,0.7279883620570509,249.50318912243668
3807.1504,0.7296161413966229,235.85254741301435
3808.0261,0.7321186697885347,268.313940941664
3808.9043,0.7345148605277809,363.23158555234704
3809.7805,0.7354533855853963,256.27432591280717
3810.659,0.7340224209060207,289.79109820547734
3811.5356,0.7304653891539028,270.40751897917227
3812.4126,0.7262220570680782,225.33887545091406
3813.2917,0.723195467375143,233.8817631354218
3814.169,0.7227585679153036,268.9824886579102
3815.0483,0.7250696565727273,250.88241092683114
3815.926,0.7291136683461276,202.25675593049425
3816.806,0.7333189918510766,250.87889169640655
3817.684,0.7362521584935067,334.02461156541136
3818.5623,0.7372259691713386,309.6243863515456
3819.4429,0.7364372863210173,246.84475377777892
3820.3215,0.7347809837915377,221.98743858024162
3821.2024,0.7332888348408851,432.3126374362945
3822.0815,0.7325206886509283,273.5232456037994
3822.963,0.7322883204739817,287.12755119088456
3823.8423,0.7320358705635478,234.45394304384328
3824.722,0.7315246630245935,256.83365572953284
3825.604,0.7312202548712396,295.42372781016223
3826.4841,0.7319383932278241,306.0653088591567
3827.3665,0.7339215249900731,352.22551932833346
3828.2468,0.7361522945460179,256.9128653105723
3829.1296,0.736772845667714,238.4230466727721
3830.0105,0.734382116044284,294.41018155103654
3830.8916,0.7291214213672566,236.26017899717587
3831.7751,0.7224466412189662,352.5576493733628
3832.6565,0.7160391716102745,297.10497535326334
3833.5403,0.7107545449528181,245.64233254297244
3834.4224,0.7067861875688747,334.38993802785564
3835.3064,0.7041712770477345,304.86459288097
3836.1887,0.703180208353294,312.185856691684
3837.0713,0.7040218596879702,286.32286598921945
3837.956,0.7064947575365005,260.3758649344623
3838.839,0.7099234162859116,290.53619008485845
3839.7244,0.7134892551490707,250.26276868600567
3840.6077,0.7164327790622058,337.4771181619748
3841.4932,0.7181762078688886,332.8130630359879
3842.377,0.718302142539961,284.96768698134986
3843.261,0.7167221267182152,277.2084189136072
3844.1472,0.7138164410402199,261.33747073373036
3845.0315,0.7104806650864565,343.3428263357521
3845.9182,0.707789574358393,317.8227453400747
3846.803,0.7065350239766375,332.8367778889236
3847.69,0.7067996738870642,291.80879959017915
3848.5752,0.7081179943365261,288.58463375489464
3849.4604,0.7099980351127408,263.0629774550444
3850.3481,0.7122165692056188,244.69180446404346
3851.234,0.7145089837692574,287.0883122280648
3852.122,0.7162113440753962,265.99247583340195
3853.0083,0.7163856021785958,203.17990880097713
3853.8967,0.7145259213499764,294.3730319883897
3854.7832,0.7110478037834316,335.5853626006233
3855.6702,0.7070809620851387,240.64954057307494
3856.559,0.7038552870675169,264.26813310356886
3857.4463,0.7021590078431124,341.57457938647354
3858.336,0.7020559984378894,231.59752354274573
3859.2234,0.7029657417394621,252.0388460826149
3860.1135,0.7039827349681753,232.65767094518105
3861.0015,0.704396054260763,352.2362304075572
3861.8896,0.7041537137743761,300.07338049850694
3862.7803,0.703859182459748,376.7175056936061
3863.6687,0.7043099854446798,300.4239027573924
3864.5598,0.7058809122153457,275.1233716868677
3865.4487,0.7081535662258643,277.57680192951176
3866.34,0.7100644263372499,292.0684553976096
3867.2297,0.710414882470784,278.53176134704626
3868.1213,0.7085566134699279,280.2377221576025
3869.0112,0.7047435678656624,388.19132732246374
3869.9014,0.6999579823567321,392.35975901179387
3870.7937,0.6954178978570337,228.68575493633256
3871.684,0.6921106759049652,374.87720252416557
3872.577,0.690419971861633,326.5139152532873
3873.4678,0.6901397924441766,314.7544844856225
3874.361,0.690639133720104,366.7645811020134
3875.2524,0.691237182627511,278.52619465096666
3876.1438,0.6915397581483815,324.9152386773752
3877.0376,0.6915241557319858,514.8634247328197
3877.9297,0.691348950399395,257.470587305443
3878.8237,0.6910881318730525,459.8647643452645
3879.716,0.6906524296014214,308.0837804631727
3880.6108,0.6899037154703475,277.32553189540675
3881.5037,0.68876390444203,261.6087051754456
3882.3965,0.6871561106417795,231.65872427491257
3883.2917,0.6849526979082972,263.0096231893458
3884.185,0.6821158990535908,413.9045486201301
3885.0808,0.6788720296104136,344.03426783945525
3885.9746,0.6758397034888821,279.3817012948905
3886.8706,0.673758585153416,425.2763579412433
3887.765,0.6731061043185985,435.479473689782
3888.6592,0.6736915808658502,353.2511069968794
3889.556,0.6746989729359453,306.72995983905395
3890.4507,0.6751088389232036,327.45489217122264
3891.348,0.6742242732513345,518.360220912463
3892.243,0.67188272504249,376.2533930151002
3893.1406,0.6683319898374074,303.66780826436656
3894.0361,0.6640891180407966,259.40506646149333
3894.932,0.6597319594609243,308.2962419490982
3895.83,0.6558437611674428,379.85008982561817
3896.7263,0.6530532310281697,326.80329359401463
3897.625,0.6520140264747126,423.61041520153765
3898.5215,0.6533072483821456,268.83508180511774
3899.4207,0.6570707432699735,554.269098652914
3900.3176,0.6627380531574056,306.68994017849514
3901.2148,0.6692994635313532,249.8666617230102
3902.1145,0.6757627344058678,286.7437129711165
3903.0122,0.6814199113055666,252.79954651267576
3903.912,0.6859338085304133,323.79606432308964
3904.8103,0.6890991149010438,304.05103456953344
3905.7107,0.6909233684399138,389.33041022150053
3906.6094,0.6916713760641423,291.1489434601177
3907.508,0.6918616974289683,306.8838897559254
3908.409,0.691987018550824,326.7857110524262
3909.308,0.6922070086533707,260.9832953406054
3910.2097,0.6922415501688853,307.903364324331
3911.1091,0.6915785650063675,265.75222501701694
3912.011,0.6898834269814282,310.74333766017924
3912.9111,0.6873773645019102,260.44195803015606
3913.8113,0.6848620988643553,378.46003968177337
3914.7136,0.6833396069917262,321.6715278002994
3915.6143,0.6833906478224001,312.3106497874101
3916.517,0.6847717746066442,379.3395774591369
3917.4182,0.6866412188488162,297.49427857625136
3918.3215,0.6882038416540587,310.5747474280897
3919.223,0.6891423347197533,355.5188326272377
3920.1245,0.6896153204163104,259.85441600508915
3921.0286,0.6899133810284206,309.3328245609134
3921.9307,0.6901510066290149,263.08151515716463
3922.835,0.6901566187289772,280.241609363581
3923.7373,0.6895889480923636,323.90309289109956
3924.642,0.6881956502511709,310.9083074840946
3925.5452,0.6860383426339389,329.3832016521881
3926.448,0.6835072055221658,234.89932522702665
3927.3535,0.6812001248902894,277.2634307074475
3928.257,0.6797257907797897,429.6740517321134
3929.1628,0.6793384017991227,302.5922677322094
3930.0667,0.6796796846032311,284.58341111448357
3930.9731,0.6798498436322381,323.05733055939845
3931.8774,0.6789729343681757,277.5968622881309
