wavl,flux,ivar
3566.9744,1.5880032383139762,163.96132539663984
3567.795,1.5873074331412178,148.5678594414407
3568.6177,1.5823235312311668,160.74053376358506
3569.4385,1.57448890895667,231.5854159355078
3570.2617,1.5659459481941047,197.3244317090453
3571.083,1.558521734162556,194.37725479185568
3571.9065,1.5528820840973347,257.6673007478093
3572.7283,1.548816933489155,225.81089800415825
3573.55,1.5457882330440291,169.3299231665609
3574.374,1.5435222723925401,155.45866538501267
3575.1963,1.5420965822640318,194.24300061038355
3576.0208,1.5416666617667694,181.70604691148293
3576.8435,1.5422416598152793,198.2658488285984
3577.6682,1.5435225056789879,178.00609665231883
3578.4915,1.5448675405161276,190.81280287501235
3579.3145,1.5455619929403033,181.18433507230384
3580.14,1.5453454550802495,195.1692227540576
3580.9636,1.544792136068001,177.62702118012822
3581.7893,1.5450561649050591,223.5159472111063
3582.6133,1.5471414960280894,168.72171864401554
3583.4395,1.551299096182278,182.62886477225754
3584.264,1.5568029988894385,241.3393597204592
3585.0884,1.5622421505984256,171.78970007617087
3585.915,1.566123764033963,180.6568981838211
3586.74,1.567723151411667,213.21585020815056
3587.5671,1.5676900238522553,258.85288031687224
3588.3923,1.5675767242977294,156.57402807961196
3589.22,1.568564226024709,232.74315170504684
3590.0457,1.570391703187662,143.40589718972439
3590.8716,1.5715877900998605,199.142956895898
3591.6995,1.5708346833039195,168.22218056977965
3592.526,1.5682507090747966,187.40154750619246
3593.3542,1.5653546554255924,170.71414044988128
3594.181,1.5638091997584809,141.60101644580618
3595.0098,1.5640032454431567,159.09513629233325
3595.8367,1.564810351549678,173.8263541302181
3596.6638,1.5646511527868787,164.27028707760797
3597.4934,1.5628927876039869,157.8872037855085
3598.3208,1.560370003077702,167.54273450203982
3599.1506,1.5586145571143453,167.54269178777565
3599.9788,1.5587598269678908,182.6810077433507
3600.8088,1.5609380048006125,215.04597716644253
3601.6372,1.5644279834428265,152.78416576645762
3602.4678,1.5680861521194709,191.14960640728336
3603.2964,1.57053825472123,206.984529041592
3604.1252,1.5704052919460618,161.03782748057853
3604.9565,1.5666246935010637,180.97023673195292
3605.786,1.5591314363897244,174.81776840326773
3606.6172,1.549214287676666,213.24247712022054
3607.447,1.5393898786084135,166.15222663887528
3608.2788,1.5322299502144343,194.1514423718479
3609.109,1.529192525058781,265.14671349665673
3609.9392,1.5298468192170551,170.4486511943824
3610.7717,1.5324917691483613,239.75156700883466
3611.6023,1.5353144321037844,204.16996286203118
3612.435,1.5371929331461458,247.8714742212283
3613.266,1.5376002858743263,140.75262621561816
3614.0994,1.5364819103417733,197.0529375463844
3614.9307,1.5344323274347362,204.85907380346265
3615.7625,1.5326320649869791,217.759222286956
3616.5962,1.532120430449636,128.49501114404882
3617.4282,1.5329893631720728,155.83849974835854
3618.2625,1.534376409213069,186.20123415272514
3619.0947,1.5351456410553124,173.2041031781808
3619.9292,1.5345509960201262,210.9013561959524
3620.762,1.5325137106971445,184.30360764416665
3621.595,1.52963758597232,196.94977272789174
3622.4302,1.526861123028932,163.9264330019495
3623.2634,1.5246878468835354,183.51555479458767
3624.0989,1.5224480934090658,205.0625078474846
3624.9326,1.5185740715948988,170.94095961146448
3625.7686,1.5116423555733107,189.35532583712336
3626.6028,1.5015655678452073,181.46432874124037
3627.437,1.489987705747982,188.36287457508072
3628.2734,1.4800728698172825,192.1550861856361
3629.1082,1.4753525009485182,152.35328105475438
3629.945,1.4773755641731883,197.55059583006553
3630.78,1.4840822432312382,163.49081963719667
3631.6174,1.4906441441388054,202.25299306117094
3632.453,1.492513397721359,206.9427362955429
3633.2883,1.4883956521153126,175.12038324708624
3634.1262,1.4805662181771226,177.9576596630431
3634.9622,1.4732184625925453,169.5498720606818
3635.8005,1.4698941368830114,252.46045051207946
3636.637,1.4717523387799565,235.7632125251428
3637.4756,1.4770310234463278,201.7703759435802
3638.3123,1.4822288171332032,222.7374224854104
3639.1492,1.48439692835419,206.08273563977983
3639.9885,1.4827808015550215,185.9841701567663
3640.826,1.4789395297240662,244.88824194674032
3641.6653,1.4754126672022787,169.33577289796915
3642.5032,1.4742228995396254,192.65608167894788
3643.343,1.4758749424558453,164.59238512287766
3644.1812,1.4792089526205139,192.00531722233686
3645.0195,1.4820976146049938,204.61074650696588
3645.86,1.482735135363413,214.67330866526197
3646.699,1.4807162379173457,189.14318460148215
3647.5398,1.4769105696400056,288.9169179729131
3648.379,1.4722778312943838,223.59085255586487
3649.2202,1.4668950690176785,197.12256352537827
3650.0596,1.460507150211639,258.2088208343154
3650.8994,1.4536691288179349,224.8633072634593
3651.7412,1.448233457846198,317.4512457002662
3652.5813,1.446434484961068,256.4025401735671
3653.4236,1.4494961740670356,198.44584330157795
3654.2642,1.457066738533618,258.1474419904369
3655.1067,1.4674387757865017,190.21607783739086
3655.9475,1.4778153708697128,204.0903031252045
3656.7886,1.4851117446998332,187.27009646270898
3657.6318,1.4871129432050632,218.3173284672987
3658.4734,1.4837864641174743,217.08929349159447
3659.317,1.4774040425106327,253.74001276100464
3660.1587,1.4711606553641792,300.10695207872243
3661.003,1.46727902593934,232.46994532726862
3661.845,1.4662697083701408,203.47903226264077
3662.6875,1.4673010127694157,156.21971541047077
3663.532,1.4691816457997489,218.5021023252669
3664.3748,1.4708430955695,193.6352133360924
3665.2197,1.4713448812360204,224.7724699625276
3666.063,1.4698775724008293,249.4255932190057
3666.9084,1.4662339851620683,259.1045240703921
3667.752,1.461333459983582,190.55266613052672
3668.5977,1.456919169636764,168.41150891916712
3669.4417,1.4545820139747547,255.26922618590615
3670.286,1.4546451684374622,244.93494999240554
3671.132,1.4560348273942632,210.94518901227516
3671.9768,1.4569989817314317,251.65298765111083
3672.8235,1.456168071424819,155.04557471548964
3673.6685,1.4532672630724814,220.8214479226666
3674.5156,1.4492272049275294,178.21696729378584
3675.3608,1.4458000082715066,212.42170596335328
3676.2063,1.4446685695113415,225.72381745104565
3677.0542,1.4466035734499567,210.77751566192322
3677.9,1.45095902786379,202.05463350157197
3678.748,1.4560903780219119,205.47538143941946
3679.5945,1.4603129146546945,200.09244892846078
3680.4429,1.4628559315292662,192.26251286544007
3681.2896,1.4637672669513102,204.02607690002458
3682.1365,1.4632034735435364,200.88221502110798
3682.9856,1.460863308291254,179.64724285479602
3683.8328,1.4563899030584562,257.41940310732565
3684.6824,1.4502196180993223,263.76703592967203
3685.53,1.444069436580746,255.28236519448254
3686.38,1.4401620066513863,320.13425348434913
3687.2278,1.4401151772849416,202.74593766804733
3688.0762,1.444113860960595,213.76073816780433
3688.9265,1.4510530003547053,267.55719383250016
3689.7751,1.4590488304772333,239.52533147851958
3690.626,1.4663017543864518,220.72302619000791
3691.475,1.4717464439383507,212.36019778528762
3692.3264,1.4756282293149063,212.99281926312733
3693.1758,1.4790347985581938,235.8482888668711
3694.0254,1.4828976950664519,166.17751753138705
3694.8772,1.4870347760133247,247.0524004100455
3695.7273,1.490087141759745,225.26176760087634
3696.5793,1.4904423875514314,285.4566408440168
3697.43,1.4873579315131449,166.11161124563577
3698.2825,1.4816358917744108,313.80523030629706
3699.1333,1.4753196893432985,217.00022032019578
3699.9841,1.4704518292358382,207.20008187604566
3700.8374,1.4680606545284458,181.16373684347482
3701.6887,1.4679667037510833,267.2882041690765
3702.5425,1.4692238177315777,191.11516395863748
3703.3943,1.4706481153910493,167.36793393723852
3704.2483,1.4711301215172452,264.7937204269118
3705.1003,1.4698641630382776,235.40486872898148
3705.9526,1.466591029234308,213.07094362687644
3706.8074,1.4615910262959446,220.4696578488226
3707.66,1.455449248092788,233.83335022845748
3708.515,1.4486016034470588,218.0757571787167
3709.3682,1.4414524233405959,208.6156522084322
3710.2234,1.4346445656657028,238.70699738513176
3711.0771,1.4295020202629454,247.69565588244694
3711.9307,1.4276176958879614,271.1703036321854
3712.7866,1.4299627017449434,200.27268325599334
3713.6409,1.4359219417844562,261.6700425602011
3714.4973,1.4432512127094093,210.00991423340437
3715.3518,1.4490381147207523,197.17112131482995
3716.2085,1.4514407944579766,163.92124026206116
3717.0635,1.450687001255253,190.30311076417436
3717.9185,1.4488772782133759,161.22850186165883
3718.776,1.4486049751585244,206.5616591078395
3719.6313,1.4515446005125558,164.75082180688432
3720.489,1.4577836665004535,193.16626729742572
3721.345,1.465929675843324,191.83001186352928
3722.2031,1.4738498717518476,290.07542986894936
3723.0593,1.4793195390919924,199.2743477290542
3723.9158,1.4808330831473664,169.8484956422015
3724.7747,1.477911473674889,232.14246111207098
3725.6316,1.4711664037976477,205.6548711858466
3726.4905,1.4618499554791855,209.0829226759827
3727.348,1.4514613696246812,221.34530827814197
3728.2073,1.4413415328322492,201.2795330027352
3729.065,1.4328280624557108,198.03566521825806
3729.9229,1.4270705974996671,258.84668462324584
3730.783,1.4248377921664241,220.45387115664485
3731.6414,1.4262139584594549,159.61438942936906
3732.5017,1.4306494911919478,204.46698924133594
3733.3604,1.4372850192530215,200.76338281918427
3734.2214,1.4451896306237841,237.14502286910755
3735.0803,1.4531164583488596,211.90350025790335
3735.9417,1.4596406636568966,204.61953863129713
3736.8013,1.463438762386245,204.9755002251547
3737.661,1.4641062401353169,200.9157497265162
3738.5227,1.462479000779087,220.12390671834225
3739.3828,1.4603382936341922,282.0594154213082
3740.245,1.4594755395502226,255.42082831489572
3741.1055,1.4608451692911424,194.14867458257797
3741.9683,1.4642603648942707,160.63932960692767
3742.829,1.4686379332958754,199.54428714731927
3743.69,1.4726156384875644,180.8140731016318
3744.5532,1.4751559753292858,201.1879420892557
3745.4148,1.4759765024856226,223.2029528986074
3746.2786,1.475614316610367,207.54266041718842
3747.1404,1.4750266086176842,161.66793366775048
3748.0044,1.4751269894045944,227.8704377280456
3748.8667,1.4764759222186485,219.40722877797867
3749.729,1.4791104677906453,195.06542076337493
3750.5938,1.4824718392276222,224.07698712263286
3751.4565,1.4854652838841182,190.95193541737925
3752.3215,1.486954515646699,239.5351864290672
3753.1848,1.486367208141682,175.50848956655057
3754.0503,1.4841006335827533,249.13038687126118
3754.9138,1.4812811338408614,176.89973362027743
3755.7776,1.479071614387086,186.8676180173075
3756.6438,1.4781304816751648,205.35343292450327
3757.508,1.4783900830069459,182.4400228364304
3758.3745,1.4791066764773744,184.70974157108895
3759.239,1.4792033858217037,197.2225322187974
3760.106,1.4778843822379033,209.56222755800158
3760.971,1.4752133655270405,181.75136385485698
3761.8362,1.4720773362899877,211.46976473409566
3762.7036,1.4693966658792816,203.46471422374208
3763.5693,1.4671727744146477,250.28123873550769
3764.437,1.4642671893432087,211.61755117811367
3765.3032,1.4594366316767682,197.18077770695072
3766.1714,1.4526246159502334,205.65043517861832
3767.0378,1.4454232152816218,183.76838925884562
3767.9043,1.4399219398887526,204.222213064317
3768.7732,1.4372127317447114,258.3456826393852
3769.6401,1.4367465203113166,189.41677625781824
3770.5095,1.4369464189245928,187.74910353757878
3771.377,1.4364486688294125,238.89829870607716
3772.2466,1.434917805435498,187.46417460962513
3773.1145,1.4331361842511607,180.0853607169785
3773.9824,1.4324896306579475,215.49919051242986
3774.8528,1.4342584789159905,180.54357165336208
3775.721,1.438964927185643,164.9372801343698
3776.5918,1.446173056480808,184.58332741621902
3777.4604,1.4545900272954144,172.64499412928183
3778.3315,1.4626993391211114,241.5050551492504
3779.201,1.4691374257728247,211.6959259098652
3780.0703,1.4732548541710098,149.66062271885605
3780.942,1.4751928453648921,201.5874597072852
3781.8118,1.4755908782945044,177.8240754662517
3782.6838,1.4749901003092112,223.79357385136595
3783.554,1.473433651350138,217.91845121254357
3784.4265,1.4707304021723553,155.9636129782213
3785.297,1.46708025972482,207.784215481554
3786.168,1.4631593109705892,224.201990322592
3787.041,1.4596129772965745,214.2767762134094
3787.912,1.4565826343298178,224.45522523788378
3788.7856,1.4537688983395165,182.75697551580367
3789.6572,1.450939417901833,194.07432978568147
3790.531,1.4479909585321808,219.46555454305496
3791.403,1.4447763526356667,177.6741784762942
3792.2754,1.4409594145398772,265.13264571142946
3793.15,1.4362105185833725,252.33952137646463
3794.0225,1.4304258786568447,251.7242868685246
3794.8972,1.4236844908262465,246.04103148493982
3795.7703,1.4164247360236741,245.76540834365122
3796.6455,1.4094686112384538,223.17618700196402
3797.519,1.40408548881549,215.70601716418665
3798.3926,1.4014179713197672,185.45612987803074
3799.2686,1.401887376998287,206.5321779247398
3800.1426,1.4047947170469914,270.87855861377886
3801.0188,1.408647869448614,203.58703085615932
3801.8933,1.4120594840279108,203.29843890090967
3802.77,1.4147386465194673,233.91676403875147
3803.6448,1.4175934533443624,205.50004463589974
3804.522,1.4219816475199312,245.76838069590903
3805.3972,1.428556064989291,223.16023443746164
3806.2727,1.4369285336039512,177.5603371975659
3807.1504,1.4461692996566005,183.60168151864195
3808.0261,1.455491029360195,198.87849807757712
3808.9043,1.4646242508701481,203.13260846983027
3809.7805,1.4732579603450664,159.66914769955218
3810.659,1.4808550853500253,188.32791056743122
3811.5356,1.4866137736150338,176.41094615348663
3812.4126,1.4900232943187168,154.30011575939568
3813.2917,1.4910940299026676,198.52801726384521
3814.169,1.490399922536518,186.79542232982314
3815.0483,1.4889701630955954,173.94946095486605
3815.926,1.4880647501873105,180.80120314394728
3816.806,1.488714394740902,192.00252595372075
3817.684,1.4911713134038194,197.05237820419384
3818.5623,1.4946845451416924,163.7294527487458
3819.4429,1.497891746167285,235.1435257921993
3820.3215,1.499495913108709,200.77569749400283
3821.2024,1.498781557887359,259.4778933117175
3822.0815,1.4955882080459963,185.05254809463847
3822.963,1.4900895640710725,182.58663344044257
3823.8423,1.4827165395308857,202.52829423940662
3824.722,1.4739700182581121,198.47543270775125
3825.604,1.4642598354412772,198.14557815656934
3826.4841,1.4538611628121043,181.2082923732166
3827.3665,1.4427981697849872,220.77704575710092
3828.2468,1.4311394848887322,188.72879631612727
3829.1296,1.4187359667610384,213.4829374258914
3830.0105,1.4053650781349147,210.3765366052964
3830.8916,1.3906604344828928,233.3417964687653
3831.7751,1.374563623215935,244.27025672917478
3832.6565,1.3577807949859269,221.7351955587776
3833.5403,1.3415122774254704,269.4866136848696
3834.4224,1.327525276903135,301.74585970568637
3835.3064,1.3174313577973669,246.05096318913166
3836.1887,1.3124085583028275,336.44148905624985
3837.0713,1.312659194920506,229.00720254224152
3837.956,1.3175878040193414,215.2384672804109
3838.839,1.326317153164242,290.9684948893771
3839.7244,1.3384626991872386,233.65190392517607
3840.6077,1.354130146380452,256.6998906594173
3841.4932,1.3736934249003554,271.3159326176863
3842.377,1.3969286803223273,208.3965497698858
3843.261,1.422958076212222,205.50252200754107
3844.1472,1.4499644670089988,236.97857803487153
3845.0315,1.4749528788705566,208.0102260973713
3845.9182,1.4947483568450475,172.55791934398042
3846.803,1.506932227602717,192.2850279405015
3847.69,1.5116150739525334,131.2985999883871
3848.5752,1.5112946745226037,189.84390091837423
3849.4604,1.509448634639017,257.2998909807136
3850.3481,1.508604311069833,229.7330485739218
3851.234,1.5096464121352258,170.30210922259803
3852.122,1.5124652017849773,186.8701006879168
3853.0083,1.5168633942740093,166.38195239001553
3853.8967,1.5228224261197267,163.54595092520708
3854.7832,1.530065565136609,191.2314294279518
3855.6702,1.5379651343595502,180.2689559475066
3856.559,1.5457512882263944,203.44782926664655
3857.4463,1.5528151525077565,188.48574883778895
3858.336,1.558914681375555,178.0402217259871
3859.2234,1.5639505967657836,175.11741779007517
3860.1135,1.5680304277612125,184.27237846032898
3861.0015,1.571395019764932,194.611865713004
3861.8896,1.5744393901709877,159.67839135628878
3862.7803,1.5773714924963405,163.57464843807443
3863.6687,1.5799007255970645,213.60246294635803
3864.5598,1.5813991947786812,179.03594211111366
3865.4487,1.5813127091240764,153.88932866055683
3866.34,1.5794480900758825,164.78118690415727
3867.2297,1.57575868590532,176.75533844050764
3868.1213,1.5699892209519644,180.78339887667914
3869.0112,1.5617717963450735,231.35325230506896
3869.9014,1.5509343878849344,163.94242369781924
3870.7937,1.5378889158731297,195.84492443994077
3871.684,1.5238104342750818,219.14673398633764
3872.577,1.5100830714788367,192.5187833898162
3873.4678,1.4979774395584458,181.34990662386008
3874.361,1.4878935774282758,197.1311530113614
3875.2524,1.4794404138849078,206.26275004428655
3876.1438,1.471450728652201,199.63257113743063
3877.0376,1.462429665762888,215.61452101724964
3877.9297,1.451070668201314,229.84028087131648
3878.8237,1.4365536503056342,224.6391743458812
3879.716,1.4189732701205406,231.73268677180016
3880.6108,1.3988591343201835,267.2851066811292
3881.5037,1.376957417992661,238.9481839770581
3882.3965,1.3536034234014505,218.59957001309402
3883.2917,1.3290627817343035,248.71659126040643
3884.185,1.3041752755299854,326.6010145405509
3885.0808,1.279987464383484,193.0577840711198
3885.9746,1.2577904566676668,249.48084285512854
3886.8706,1.2381788754553662,272.9300300421898
3887.765,1.2214639690847322,302.856369473409
3888.6592,1.2078774310740679,344.66025558269496
3889.556,1.1981961534157384,362.7879667484588
3890.4507,1.1936355575698612,297.8997289370053
3891.348,1.1949352769972799,302.5824426334329
3892.243,1.20174405578085,382.976793302268
3893.1406,1.2127446477773955,295.90385227878915
3894.0361,1.2264568743892195,288.21916822305826
3894.932,1.2424528448843226,303.06321699609896
3895.83,1.2614191577227818,305.1234853155878
3896.7263,1.283888068682658,271.49794795467056
3897.625,1.309189128540279,280.286034786658
3898.5215,1.3348203244603105,210.00558810521005
3899.4207,1.3583622793557286,221.2895378126259
3900.3176,1.378647724248531,320.51825375528443
3901.2148,1.3965522453777401,220.38543248422303
3902.1145,1.4136373316902837,242.94961827209627
3903.0122,1.430762933878767,203.22340164245114
3903.912,1.448014500943146,214.02113200638456
3904.8103,1.464819347212362,205.91328165754436
3905.7107,1.4807557609138748,210.5156877648396
3906.6094,1.4955642325750989,164.10850564774947
3907.508,1.509572113446117,191.4108186394623
3908.409,1.523572332712898,278.00882055363144
3909.308,1.5383595920452253,270.16615858038745
3910.2097,1.5544763470792602,155.58606947535753
3911.1091,1.5716714226988124,168.67413505240893
3912.011,1.5891471642180668,233.10029506689153
3912.9111,1.6052733302116804,177.09437022582628
3913.8113,1.6183871615033054,172.8497370470187
3914.7136,1.6277476867966842,148.4178575674426
3915.6143,1.6343313812215032,185.15792226965172
3916.517,1.6405659360137181,191.1031213900344
3917.4182,1.6486940827940888,181.98047967474494
3918.3215,1.6595508620391577,164.49520649748118
3919.223,1.6721680071218343,155.4767727122395
3920.1245,1.6846086531599258,183.31686724702163
3921.0286,1.6947220692645697,152.07319915392262
3921.9307,1.7007387855577498,131.43024051375718
3922.835,1.7020287694689022,148.5536809728101
3923.7373,1.699419193336611,153.9917260915407
3924.642,1.6949768849869231,202.32689112890293
3925.5452,1.6910279926530398,148.95818983817762
3926.448,1.6890125974778882,148.78408256751803
3927.3535,1.6891395669533549,178.86533479420805
3928.257,1.6907473039510745,161.3309979860748
3929.1628,1.6929031455786088,156.34716435753538
3930.0667,1.6947655988606987,159.07653823761555
3930.9731,1.6957371025490726,168.77558395529164
3931.8774,1.6954538740497795,143.97288227148474
