wavl,flux,ivar
3566.9744,0.6330594846421507,903.6467681876965
3567.795,0.6306678233633899,1099.678684447906
3568.6177,0.6276707467540523,990.6378547988554
3569.4385,0.6245822069183491,1950.380165144867
3570.2617,0.6219747462684363,1093.1175882997245
3571.083,0.620193397092231,1267.7061988132257
3571.9065,0.6192198457255352,1460.3461439139878
3572.7283,0.6189199873902802,1283.0192127469504
3573.55,0.6191837082147074,1090.0320239769842
3574.374,0.6198519153964859,1344.4417967945628
3575.1963,0.6206327962160156,1421.8486385461426
3576.0208,0.6213822425701778,974.4472550888613
3576.8435,0.6225213654263311,1440.271681192807
3577.6682,0.6250389017327462,1359.2168271452776
3578.4915,0.6297101892391401,1090.2505391451161
3579.3145,0.6361631418668483,1006.8536212693332
3580.14,0.6426344025035331,1332.5599859023896
3580.9636,0.6467473719909874,1328.7221039407334
3581.7893,0.647038613186814,1191.644685129885
3582.6133,0.6438118875814736,1302.148109027107
3583.4395,0.6388766391821928,1084.7047333303644
3584.264,0.6344249249249206,1604.3492738043597
3585.0884,0.6318028695498185,1076.6178923584869
3585.915,0.6310902214669094,1595.1455770033845
3586.74,0.6313538399337831,1126.2755325466205
3587.5671,0.6312510048381167,1025.8538880218525
3588.3923,0.6296728140797495,946.4121931979487
3589.22,0.6261968473884619,1130.7488463066136
3590.0457,0.6213102775581939,1005.4908186911608
3590.8716,0.6161870948680536,926.3452717035758
3591.6995,0.612237921137669,1192.348351052888
3592.526,0.6105117389328792,1270.8352532595286
3593.3542,0.611139742201037,1714.3280908172421
3594.181,0.6132625667028809,1019.2672900668797
3595.0098,0.61546690419923,1047.438416158494
3595.8367,0.6165001232534573,1100.7255548818514
3596.6638,0.6158779489065709,1321.5134597664103
3597.4934,0.6138914991042056,1429.9558402563762
3598.3208,0.6112179062332811,1508.894511533898
3599.1506,0.6084204654926567,1054.548270413049
3599.9788,0.605881483427208,1507.2388218183532
3600.8088,0.6039298950049395,1349.8601594649047
3601.6372,0.6030212470071449,1086.967615978645
3602.4678,0.6035813677027871,1383.7357281929317
3603.2964,0.6057380669603073,1499.3122985031664
3604.1252,0.6091500666056934,1135.8510842671283
3604.9565,0.6130575956085704,1692.145076776015
3605.786,0.6164465751474698,1124.4673628252858
3606.6172,0.6184214317007045,1007.0634938548154
3607.447,0.6184970514074916,1065.1895076037758
3608.2788,0.6168890910252467,1131.7749788844021
3609.109,0.6144697749942831,994.9797604685696
3609.9392,0.6123377424358275,1765.9273368033569
3610.7717,0.6112679066818979,1309.2499539462701
3611.6023,0.6113667647549531,1577.9743433354834
3612.435,0.6121351803763233,1499.8569012337227
3613.266,0.6128960152184597,965.4021833102415
3614.0994,0.613288921909065,1285.6823629414841
3614.9307,0.613493445932827,1122.8698677479445
3615.7625,0.6140578296989669,1046.3829583596732
3616.5962,0.6154397514038671,2000.5077901944526
3617.4282,0.6176046920659282,1191.273031671337
3618.2625,0.6200260837740807,763.5299940921728
3619.0947,0.6219878164090514,1029.3722590562056
3619.9292,0.6230417187839895,1410.219839596448
3620.762,0.6231671332013644,955.7450415570031
3621.595,0.622670792315101,1202.4042454676917
3622.4302,0.6218857865318456,1395.3093087669204
3623.2634,0.6209746771840485,1052.514790520715
3624.0989,0.6199179563322158,1452.4156078052993
3624.9326,0.6186700847510784,1348.0481339006133
3625.7686,0.6172512113961527,1014.7098371645228
3626.6028,0.6158056361647791,686.6596716581286
3627.437,0.6145589018485788,1131.4470988561684
3628.2734,0.6137039090645449,1312.283995405069
3629.1082,0.6131773621893211,1302.891857365213
3629.945,0.6125451220906398,1162.864405543258
3630.78,0.6113004081585323,995.5859289923566
3631.6174,0.6093523172492161,1070.702685950936
3632.453,0.6072526359430483,1300.7850902891041
3633.2883,0.6057803679203323,1071.2094805363772
3634.1262,0.6053526182303607,1198.2367533636668
3634.9622,0.6057716905360756,1440.2315041351221
3635.8005,0.6064781807270364,1113.353381181479
3636.637,0.6069686883156972,1499.368433780064
3637.4756,0.6070117224629051,914.4029809682413
3638.3123,0.6065922216744833,1164.9295901260307
3639.1492,0.6057756754857897,1178.0159504502558
3639.9885,0.6045998530059368,1521.6684294414763
3640.826,0.6030761679394793,1322.3969165605668
3641.6653,0.6012761915557494,1085.3086865679898
3642.5032,0.5995019082110585,1053.8718945381672
3643.343,0.5982163502355173,1221.5081332243
3644.1812,0.5977595200722102,1361.8071189652721
3645.0195,0.5980251573689629,1405.9621664431534
3645.86,0.5985391623303729,1030.9994425077127
3646.699,0.5988740944867706,1142.08627929532
3647.5398,0.5990343032996374,1236.737654477508
3648.379,0.5994123413903689,1498.3605412264933
3649.2202,0.6003828398100693,1645.2113903960885
3650.0596,0.6018853733246281,1749.9084919342843
3650.8994,0.6034069664985173,1343.5056528619193
3651.7412,0.6043443139894766,1233.2672736407515
3652.5813,0.6044403520865821,984.5421460205505
3653.4236,0.6039133993819483,1190.4520881080164
3654.2642,0.6031956184993987,1240.3661130556816
3655.1067,0.6026057979527724,1777.6200940672516
3655.9475,0.6022684588304109,1509.7504249435576
3656.7886,0.6021961809989196,1335.8349595333761
3657.6318,0.6023307493862787,1692.79079191019
3658.4734,0.6025144632142754,1333.7168466324395
3659.317,0.6026463106835905,1432.9010934466614
3660.1587,0.6029856972375249,804.8126310124096
3661.003,0.6041503726451236,1380.7008158332105
3661.845,0.6065402426008293,1349.167688324441
3662.6875,0.6097915043320481,1718.3795954780192
3663.532,0.6129328386789772,930.8368605758495
3664.3748,0.615158086486648,1141.9637474318104
3665.2197,0.6164362125131896,1655.8777978642672
3666.063,0.6172737727315661,1171.2263983191524
3666.9084,0.6181291329731174,885.3564220412611
3667.752,0.6190329352037022,1360.5619252058468
3668.5977,0.6197227451383529,1182.5190788418188
3669.4417,0.619927771884531,1042.951921108644
3670.286,0.619517288969293,1013.9184977621492
3671.132,0.6184461157647553,889.5968619437044
3671.9768,0.6167644314495523,1062.3941893307874
3672.8235,0.6147168243289085,1045.48360955751
3673.6685,0.612786095185189,1521.611389574506
3674.5156,0.6113922413116265,1228.3997479310947
3675.3608,0.610546372563453,1390.1357940913053
3676.2063,0.6097490141463545,1311.20703048099
3677.0542,0.6083857688044948,1493.61428680602
3677.9,0.6062763858953856,1082.263169924524
3678.748,0.6038433668462786,1116.7745376210282
3679.5945,0.6018124444765616,904.2906292064743
3680.4429,0.600593415043672,1498.607606937712
3681.2896,0.6000170398287359,1754.370310680542
3682.1365,0.5995682530169318,1111.212572961124
3682.9856,0.5989515775564564,1297.6499576202173
3683.8328,0.5984281323533351,920.4594370344969
3684.6824,0.5986077286887195,1947.5598197855848
3685.53,0.5999001433605614,953.0233103899624
3686.38,0.6021221184303689,1138.4527300974385
3687.2278,0.6045671272667098,1917.64985680041
3688.0762,0.6064436731727498,1151.2743885267248
3688.9265,0.6071273958493999,1327.7652160106813
3689.7751,0.6061990480184359,1147.5888419965577
3690.626,0.6035155259549159,1220.7760203263929
3691.475,0.5994766812670508,1073.994164129805
3692.3264,0.5951021426704179,1202.633593943514
3693.1758,0.5917677144635282,1889.5554635336578
3694.0254,0.590487885660038,1035.2022633104743
3694.8772,0.591486026974459,1272.480086169749
3695.7273,0.5941772840085081,1379.3514669178212
3696.5793,0.597613700755621,1347.0759340428735
3697.43,0.6009750307816168,923.0480535493316
3698.2825,0.6039727772361827,1190.8012573925394
3699.1333,0.6068264993592298,2386.7753631072565
3699.9841,0.6099729170036124,1272.1941318234944
3700.8374,0.613546116713271,1127.7467611824384
3701.6887,0.6170355943657169,1399.078879971488
3702.5425,0.6194853296274974,1164.5982755564196
3703.3943,0.6199290291925122,1003.4185356737471
3704.2483,0.6179660066461709,1062.5263292721463
3705.1003,0.6140066031955429,1143.8139368771092
3705.9526,0.6090850461363104,1150.6324222786345
3706.8074,0.6044155320458013,1380.3061617647304
3707.66,0.6009949669763545,1258.4302167298974
3708.515,0.5993021350089718,1288.6516739434649
3709.3682,0.5993600884096442,1226.4782852520016
3710.2234,0.6007644614209554,1634.0468976567176
3711.0771,0.6027526156679546,1036.95193932254
3711.9307,0.604331241642909,987.380895309013
3712.7866,0.6044968658288756,930.7790259090872
3713.6409,0.6025454162550955,1252.6596021420041
3714.4973,0.5983667083185867,1559.1411295824596
3715.3518,0.5926264177075705,1370.2210494198625
3716.2085,0.5865366212445094,1412.376739041674
3717.0635,0.5815047790768286,1319.6465874219516
3717.9185,0.5785448970775415,1770.0139456913628
3718.776,0.5780717276149401,1313.511033417897
3719.6313,0.5798901029630354,1209.5740979959342
3720.489,0.5833540801912985,1121.6908796246414
3721.345,0.5876151657353209,808.2600510318822
3722.2031,0.5920090443107023,1010.9481748862567
3723.0593,0.5961439281137739,2030.6744398832059
3723.9158,0.5998114817363798,1473.7631457616797
3724.7747,0.6027207605840467,970.5312672808734
3725.6316,0.6045506688618659,1077.1414580677429
3726.4905,0.6052934699449365,1262.1813167516611
3727.348,0.6053219849912593,1091.1876289867032
3728.2073,0.6051445431509476,1074.5569498360906
3729.065,0.6050585429673272,1313.6608744994248
3729.9229,0.605030307243924,1138.7520803882778
3730.783,0.6047873497184884,1401.0034542669714
3731.6414,0.6039806920846836,1102.833865751703
3732.5017,0.6023701643840212,1048.8360622776854
3733.3604,0.6000405365752247,1523.9546157405996
3734.2214,0.5974453189437329,1306.5010306419217
3735.0803,0.5952671437243667,1497.9489993599075
3735.9417,0.5940198496939071,1483.3084510932042
3736.8013,0.5938206846955687,1515.4077659191823
3737.661,0.5943510513393749,1394.9555118405888
3738.5227,0.5950812495939902,1099.3080198096568
3739.3828,0.595510260324251,1188.4431367841455
3740.245,0.5953282251703185,1320.8057717566373
3741.1055,0.5944551576700434,1230.016262418435
3741.9683,0.5930336784232104,1459.077231817705
3742.829,0.5914090588083946,1330.3417617553182
3743.69,0.5899819235545104,1200.8817262263938
3744.5532,0.5890261804210289,1644.9339548838198
3745.4148,0.5885779663394927,1095.0209606248322
3746.2786,0.588484434696184,1137.3284888430496
3747.1404,0.5885798686086234,1046.3132045572484
3748.0044,0.5887784273258817,1492.741900489344
3748.8667,0.5890322350095049,1503.6742436743407
3749.729,0.5892438981015318,1460.822026812773
3750.5938,0.58927106109644,1303.4496016928056
3751.4565,0.5890976947412067,1089.6961349529472
3752.3215,0.5890372186405197,1284.3433328126039
3753.1848,0.5896705155654811,1585.203938109319
3754.0503,0.5914156210268987,1296.5177087009745
3754.9138,0.5940665697516075,1410.7347230939422
3755.7776,0.5968668340164064,1162.9457041948544
3756.6438,0.5990446686286425,903.3416837488593
3757.508,0.6003022144602915,919.4175488983988
3758.3745,0.6008748415065034,1692.8995060840432
3759.239,0.6011476047270283,1327.645941272003
3760.106,0.6013358016622168,1253.1070254737028
3760.971,0.6014062717148615,1281.900393032638
3761.8362,0.6012372664541833,1170.2161392660857
3762.7036,0.6008040467668522,1013.2201997913733
3763.5693,0.6001996934760542,1274.4457639729703
3764.437,0.5994246051717801,1154.6405094663298
3765.3032,0.5982011424769005,1151.1281880991082
3766.1714,0.596062994686329,1232.5668513546677
3767.0378,0.5927766539135881,940.8482276260476
3767.9043,0.588645536493597,1083.6175835467939
3768.7732,0.5844505203417464,1731.5213452699172
3769.6401,0.5810966226418979,1445.4462113577865
3770.5095,0.5791730954378026,1520.189306813066
3771.377,0.5789210435671712,1329.5556052798784
3772.2466,0.5802912039071995,1328.293762769575
3773.1145,0.583002948354891,1489.45125047398
3773.9824,0.5865247916550995,924.9073039587901
3774.8528,0.5901379230674058,1367.9696349077776
3775.721,0.593153470539344,1037.4810803930318
3776.5918,0.5952934251683687,1206.2513749700363
3777.4604,0.5967558177426253,975.547225363645
3778.3315,0.5980837065317511,1099.5163548511932
3779.201,0.5997465328555782,1610.3381530736567
3780.0703,0.6018454384207552,1251.8976971180798
3780.942,0.6040841081134105,1019.8146668091722
3781.8118,0.6060144540998359,1240.117471712487
3782.6838,0.6073494905834279,1229.343305898885
3783.554,0.6079486555641881,1033.1491435602409
3784.4265,0.6076743229981071,1473.279988227687
3785.297,0.6063782210985118,1324.625192055272
3786.168,0.6041558890857422,1417.1453644081273
3787.041,0.6014947986671256,1644.4320628423575
3787.912,0.5990399485668694,1209.3362995051575
3788.7856,0.597106011333107,1398.2912776144262
3789.6572,0.5955853135006967,1176.764103131384
3790.531,0.5941575936059103,1560.5555247917814
3791.403,0.5925855262888997,1446.892807178394
3792.2754,0.5907198521502509,1450.971709157101
3793.15,0.5884390799251439,1365.3062014444872
3794.0225,0.5856968993811126,1093.8528234541086
3794.8972,0.5825715227961957,1327.8583602722763
3795.7703,0.5793357132383657,1080.5776433259232
3796.6455,0.5763382136123733,1353.5611881413515
3797.519,0.573979389728166,1497.6877206961794
3798.3926,0.5725887228553926,1208.2579607866455
3799.2686,0.5723434053367479,1415.3278568533258
3800.1426,0.5731355540689281,1560.4558625811057
3801.0188,0.5745313338599645,1236.81472733605
3801.8933,0.575880239967668,1510.9398021324328
3802.77,0.5765647114718548,995.5417963126466
3803.6448,0.5762337773740882,1964.766662327461
3804.522,0.5750214742827708,1975.0401606920973
3805.3972,0.5736362777263667,2050.422573992231
3806.2727,0.5731514477208348,1470.3573325610944
3807.1504,0.5745325515840106,1383.462140790607
3808.0261,0.5781159445536206,1323.8938471402137
3808.9043,0.5835225745229233,1366.6838205621766
3809.7805,0.5899210947480416,971.6472644004658
3810.659,0.5965750288965901,978.5948530596876
3811.5356,0.6029157379422675,1012.9840422945168
3812.4126,0.6084962102213096,1390.1781197805997
3813.2917,0.6127489225497256,1217.675922524402
3814.169,0.6150896382020251,809.419040247746
3815.0483,0.6154069231672593,815.4641193141443
3815.926,0.6142985958404216,1236.8448950055013
3816.806,0.6128041607604022,1043.3782649124746
3817.684,0.6117504731357379,1194.272922008548
3818.5623,0.6112861507980389,1176.3633576012237
3819.4429,0.6109999256356851,1134.361098929157
3820.3215,0.6103398246189885,1610.5228164898604
3821.2024,0.608914209415931,1052.9807929346644
3822.0815,0.6065630783668471,1481.24166786923
3822.963,0.6032990803380162,1067.9167823881953
3823.8423,0.5993729147536696,1069.7755957375064
3824.722,0.5952048347872951,1623.638606074372
3825.604,0.5911878978629272,1591.8849237254706
3826.4841,0.5873923892870369,1771.9411889705339
3827.3665,0.5833696329109948,1111.9595555555231
3828.2468,0.5784695111096025,1159.113150864043
3829.1296,0.5721582946733594,1104.7361090419624
3830.0105,0.5643691872229699,1522.756715857957
3830.8916,0.5554246901935688,1554.579728146959
3831.7751,0.5460248543526692,1229.8381808183742
3832.6565,0.5372595293508517,1770.0300801601547
3833.5403,0.5302161261469138,1918.750193405151
3834.4224,0.5257213558609592,1942.447135459545
3835.3064,0.5238144033510826,1883.0746130248435
3836.1887,0.5238217767211585,1823.7426415726156
3837.0713,0.5248260885472267,1238.9755749382534
3837.956,0.5263881597947553,1749.1809954504529
3838.839,0.5288363492143611,1389.8075117970518
3839.7244,0.5329227544008863,2085.722930122257
3840.6077,0.5390697661083667,1901.9386009078503
3841.4932,0.5470921508518417,1677.7134891034984
3842.377,0.5562986348891763,1797.60145669596
3843.261,0.5660063509306896,868.6911113256335
3844.1472,0.5756625584640245,1295.6072400474634
3845.0315,0.5847389322370371,1536.4355006748733
3845.9182,0.592905235215095,1904.6130600089664
3846.803,0.5999558020559429,1472.0123801850812
3847.69,0.6059746025350753,1166.1019458645517
3848.5752,0.6110775861628645,904.334892582439
3849.4604,0.6154315384924927,1063.825402967333
3850.3481,0.6192836819276277,1088.5958213612942
3851.234,0.6230332287203162,1021.1850298441038
3852.122,0.6271943787455746,1182.5027190465403
3853.0083,0.6319496860442969,1155.3809445628299
3853.8967,0.6368858868360044,1063.0132347503227
3854.7832,0.6410064721298362,1287.193812513105
3855.6702,0.6434173619642782,1182.7299557792057
3856.559,0.6439116180570582,1156.0763086308361
3857.4463,0.6431225833679204,1095.0749710619955
3858.336,0.6421044904535929,1194.1772885569126
3859.2234,0.6417344718966311,1068.2198102764762
3860.1135,0.642292473827308,1065.1181070620353
3861.0015,0.6434144250024608,1080.9738906293558
3861.8896,0.6443818505453192,1087.4650182013197
3862.7803,0.6445670020520481,1391.5119186776233
3863.6687,0.6437815872360593,1040.0600178077107
3864.5598,0.6423013591372418,1019.3141799685114
3865.4487,0.6406054446084827,1285.9436073138554
3866.34,0.6390284138173471,1149.3382594074285
3867.2297,0.6376521501340818,1402.2907626559622
3868.1213,0.6363137627148352,1169.1330292766895
3869.0112,0.634708673995457,1396.1739304220082
3869.9014,0.6324626737278305,988.3707250409853
3870.7937,0.6292931627505092,1343.6942108114622
3871.684,0.6251965942637332,1094.1451547307456
3872.577,0.6203915182710624,1193.2804248660998
3873.4678,0.6152313155807917,1006.2471890521357
3874.361,0.6099529958101745,1393.8892204914168
3875.2524,0.6047150089189878,1086.0743880803698
3876.1438,0.599487056062762,1461.7175480825747
3877.0376,0.5940717663540558,1352.5498426813851
3877.9297,0.5882139787308484,1071.1533422981397
3878.8237,0.5816591577514174,1116.209849599974
3879.716,0.5743554710084426,1289.7944100140253
3880.6108,0.5663117846724848,1574.0048690948172
3881.5037,0.5576444517727125,1186.4981024509113
3882.3965,0.5484031761178246,1522.6449817360838
3883.2917,0.5386214932840191,1731.4604815599816
3884.185,0.5284207323363673,1576.6351618634064
3885.0808,0.5178639970227205,1980.4892628714533
3885.9746,0.5071863368916482,1826.8159593838081
3886.8706,0.4966120795203801,1878.5819921419334
3887.765,0.4865816933321547,1711.5274997739973
3888.6592,0.47766895417686017,1481.112678080937
3889.556,0.47072636059688927,2612.474574680891
3890.4507,0.4668474581642785,2132.7579015897054
3891.348,0.4669357128580425,1988.9154242129584
3892.243,0.4713469655654653,2276.79840298287
3893.1406,0.47965174251961484,1935.717861993066
3894.0361,0.4906251538647823,1670.9827146310415
3894.932,0.5027546879280245,1625.9693217416116
3895.83,0.5146898016973434,1366.8553934169643
3896.7263,0.5255885042195286,1999.0207973490096
3897.625,0.535498012195276,1289.8550822458785
3898.5215,0.5449512169530262,1733.2846025341726
3899.4207,0.5547339569045876,1211.7220233116095
3900.3176,0.5652299287707501,1769.5457763547565
3901.2148,0.5763817362020469,1049.4832618697462
3902.1145,0.5876946468984385,1003.4971925835383
3903.0122,0.598469440675956,1002.9089056821883
3903.912,0.6083277379176207,1236.446476915034
3904.8103,0.6171436607823957,1684.9805591874288
3905.7107,0.6251122240890007,980.3342255367345
3906.6094,0.6324425483307076,1349.117597249433
3907.508,0.6394147257197814,1104.3461640848932
3908.409,0.6463063479753576,1144.708383168341
3909.308,0.6532941059688795,928.3977311192943
3910.2097,0.6605002606670706,1113.6001680601303
3911.1091,0.6678509202167656,1137.039291074053
3912.011,0.6752930161150545,1009.5749920193414
3912.9111,0.6827368366764577,1154.8921757758458
3913.8113,0.6901495722869921,891.432698659838
3914.7136,0.6973549386415205,972.6862144843227
3915.6143,0.7039095601639359,766.3868914437594
3916.517,0.7094162698115343,782.2034041553737
3917.4182,0.7137601075631718,887.1551441299558
3918.3215,0.717323787960573,836.2398236708264
3919.223,0.7206380483193364,991.2769555768876
3920.1245,0.7240146040290037,1049.6479067625564
3921.0286,0.7273042932162808,827.4293294313358
3921.9307,0.7300180064716083,913.5171388897866
3922.835,0.7317211943084375,912.1611961716917
3923.7373,0.7322608229855696,717.124746374096
3924.642,0.7318462055505748,767.0352016002544
3925.5452,0.7308923214478035,801.4322764242445
3926.448,0.7297989018601493,664.1047149280317
3927.3535,0.7287754097003699,708.1495509285337
3928.257,0.7278011611751888,899.6576760188381
3929.1628,0.7266863737453727,959.5557426304711
3930.0667,0.7252776818577568,819.079807153698
3930.9731,0.7236374752433293,884.9197090961247
