wavl,flux,ivar
3566.9744,32.85030191539819,1.9091286914872838
3567.795,32.73494912523423,1.8476801502484792
3568.6177,32.615441116149455,1.7623771977744829
3569.4385,32.525020689483036,1.9844508927508921
3570.2617,32.47521286301353,2.0713239232104397
3571.083,32.45451719130692,1.9462338671523967
3571.9065,32.436029473726435,1.831346533526117
3572.7283,32.39632458140057,1.9874383764380612
3573.55,32.330699138736186,2.179608310472005
3574.374,32.25343933355418,2.1403220337479794
3575.1963,32.18372452281779,2.1625045100807228
3576.0208,32.1278238578932,2.0316204110061937
3576.8435,32.07610085240265,1.9372189984752466
3577.6682,32.011524645419236,2.0998932028867827
3578.4915,31.92408528798692,1.860579160097454
3579.3145,31.8157810753273,2.241256082921571
3580.14,31.696673316699744,2.0860972545889687
3580.9636,31.580179382639212,1.9549368834565841
3581.7893,31.48077658740061,1.9766766850036626
3582.6133,31.419402732485818,2.2798036944097437
3583.4395,31.419363732914494,2.09743572700155
3584.264,31.494850866428717,2.2437339256910094
3585.0884,31.636806593449894,1.9214262636901762
3585.915,31.810761796161923,2.1654740884734887
3586.74,31.96719941725473,1.8965672611115763
3587.5671,32.06500497367863,1.9212173291323407
3588.3923,32.08481402078205,2.118483449268304
3589.22,32.03229186626171,2.1111385732258734
3590.0457,31.927007058417438,1.9164032625889211
3590.8716,31.789427987372267,1.948871421221352
3591.6995,31.635619292194686,1.9863292392229421
3592.526,31.48027666647952,2.27732638257894
3593.3542,31.337462376425975,2.103460347197258
3594.181,31.221774515961517,2.116409152647281
3595.0098,31.140536666104023,2.280635938490928
3595.8367,31.091573777537242,2.1647036124865005
3596.6638,31.063183578911982,2.2506322305691264
3597.4934,31.040648914267052,2.046328362310078
3598.3208,31.009875670259518,2.273325308938899
3599.1506,30.956080067462704,1.8348332734756405
3599.9788,30.864431076205864,2.4046848942227967
3600.8088,30.72603400718383,2.1833785579032017
3601.6372,30.552913463888466,2.320462073817194
3602.4678,30.383758289310187,2.1657507932001527
3603.2964,30.276986658150165,2.370528001743704
3604.1252,30.27985228286947,2.4429325400646555
3604.9565,30.402078968627112,2.21835828150085
3605.786,30.6064246608969,2.098899646398819
3606.6172,30.83150395392667,2.0378048935296573
3607.447,31.020508408167075,1.960282267329825
3608.2788,31.144647119304373,2.085365564396594
3609.109,31.199700892359978,2.1353426045592925
3609.9392,31.195547682345676,2.2267320491407605
3610.7717,31.144755190753155,1.878959052854044
3611.6023,31.06170225803124,2.259343470490436
3612.435,30.961614913643828,2.2967339303842644
3613.266,30.858185193146735,2.1312021719689587
3614.0994,30.75735267467012,2.5600778480574897
3614.9307,30.660605414075004,1.9740125835755484
3615.7625,30.56924849667352,2.161154875218929
3616.5962,30.48829376942895,2.4277435636576934
3617.4282,30.423105019417825,2.0101305640415026
3618.2625,30.37301594850217,2.2140069071767186
3619.0947,30.332061419919032,2.1936112747860115
3619.9292,30.2922217796958,2.2861455804425903
3620.762,30.248020481856955,2.3089069953859234
3621.595,30.1954752401927,1.9791292226388075
3622.4302,30.130053146260003,2.296396747926686
3623.2634,30.04758551132761,2.0072679688580153
3624.0989,29.947036563668547,2.37531390291157
3624.9326,29.83610249632714,2.1363680681183
3625.7686,29.728827576201567,2.49756463065109
3626.6028,29.6417198199387,2.330635416829352
3627.437,29.584819932073195,2.2800308806782614
3628.2734,29.558854783149815,2.2893823609551567
3629.1082,29.55606687026876,2.394281871140356
3629.945,29.56360007352536,2.3646671567141087
3630.78,29.568250369264973,2.608859484123906
3631.6174,29.56083630955542,2.356579246490921
3632.453,29.53928174300999,2.25010987369377
3633.2883,29.50859838477674,2.484588967732317
3634.1262,29.47707442513655,2.3231478100333427
3634.9622,29.450427237799975,2.3707928159596743
3635.8005,29.425817837043923,2.369730662771094
3636.637,29.3919428973825,2.1189010792291376
3637.4756,29.335066809155474,2.4557264014808475
3638.3123,29.250179313020254,2.68782191394309
3639.1492,29.14578444654599,2.5777796472893697
3639.9885,29.04001021681985,2.2492780197748052
3640.826,28.951154150930744,2.348429421022403
3641.6653,28.886968694587626,2.5004089596322716
3642.5032,28.843781335937727,2.5165159720888277
3643.343,28.8095125056507,2.4445655801944617
3644.1812,28.772704320750922,2.2648861527732667
3645.0195,28.729054219185265,2.570455791712252
3645.86,28.682322313026773,2.3323644777193016
3646.699,28.63907706939758,2.279996567788414
3647.5398,28.601770901663937,2.4698149590244873
3648.379,28.56773003526953,2.6354232619944513
3649.2202,28.53095849705867,2.2633718351653327
3650.0596,28.486917892929174,2.570418384337288
3650.8994,28.435287695233214,2.499298415981779
3651.7412,28.380504445433825,2.5250165742210893
3652.5813,28.328047024773348,2.6624619411943278
3653.4236,28.2789481213084,2.5218019471601965
3654.2642,28.23132101637538,2.3331354445063983
3655.1067,28.184983598763313,2.4858475535532625
3655.9475,28.14527281748064,2.7968222422794473
3656.7886,28.118047206089262,2.76307931242187
3657.6318,28.103882759686513,2.6751258293310576
3658.4734,28.098211047291286,2.5692841716900974
3659.317,28.097590469414857,2.6412598540651446
3660.1587,28.104663233978506,2.767644287155554
3661.003,28.126275363627606,2.8269304021470365
3661.845,28.167333169948396,2.5348348468786965
3662.6875,28.22613376066161,2.6718952923555928
3663.532,28.29218054157252,2.5278405065244067
3664.3748,28.347542057629116,2.6546568808681195
3665.2197,28.374313991272384,2.5063958247469924
3666.063,28.361910531517562,2.473519970831926
3666.9084,28.311052778253792,2.6222894670756327
3667.752,28.23141089812435,2.670461176093066
3668.5977,28.13692548804161,2.571168567332356
3669.4417,28.04609346014358,2.6385890387426256
3670.286,27.978278511586858,2.6014763787611432
3671.132,27.946572036215244,2.6878051006299217
3671.9768,27.948351093608043,2.377812705639576
3672.8235,27.96446777602862,2.8037834663895804
3673.6685,27.97115214740723,2.5608295003300903
3674.5156,27.954876731875824,2.606873893397935
3675.3608,27.91842903337465,2.924517513013781
3676.2063,27.87496401207631,2.66928036306467
3677.0542,27.837328311010413,2.4951260200846277
3677.9,27.811404365171075,2.603982079718799
3678.748,27.795876388593673,2.653526144271494
3679.5945,27.78771348153617,2.649653840963389
3680.4429,27.784888993836272,2.91320220764657
3681.2896,27.784607551266554,2.4777039647970773
3682.1365,27.779848741560674,2.805760615646393
3682.9856,27.760644962486733,2.401418208370476
3683.8328,27.720706028065518,2.6685174559804548
3684.6824,27.661876326563128,2.501088644348021
3685.53,27.59315436428709,2.9273247391616337
3686.38,27.524278483455394,2.4405751864333416
3687.2278,27.465095501345644,3.011321931663029
3688.0762,27.426420041459053,2.830479259368624
3688.9265,27.42004937491086,2.892035501845285
3689.7751,27.45113460989894,3.0101745985389026
3690.626,27.510364455400037,2.41857590496516
3691.475,27.57438998270186,2.4049324888291013
3692.3264,27.617643342961106,2.8424506210657907
3693.1758,27.624015014505662,2.704445497547464
3694.0254,27.592878458211562,2.7893071822477817
3694.8772,27.535046194023465,2.6764372547806627
3695.7273,27.4663887577616,2.9341589069053287
3696.5793,27.400605841607266,2.9368149165328603
3697.43,27.34655804412379,2.818141099974132
3698.2825,27.305819147456912,2.965969854109462
3699.1333,27.27395610740153,3.022561065861386
3699.9841,27.242198230624087,2.8373711683375333
3700.8374,27.201752243499207,2.9278673955405
3701.6887,27.148742997107927,2.6947729527891955
3702.5425,27.085895262626973,2.808114252809328
3703.3943,27.021923472926858,2.6793597566924086
3704.2483,26.96545711655194,2.7077437001927263
3705.1003,26.92145677353263,2.8201449177921036
3705.9526,26.888031451492132,2.8844346457144123
3706.8074,26.857530566373896,3.076261069154937
3707.66,26.81978024316167,3.033128225556283
3708.515,26.76668782125773,2.813187342307382
3709.3682,26.69783726797391,2.949845746296997
3710.2234,26.619619878478794,2.6613781029712045
3711.0771,26.541098706826222,3.088369586177432
3711.9307,26.467137416119947,2.8116756843200865
3712.7866,26.398157210771213,2.6817566311377408
3713.6409,26.335853154051446,2.7776462034455163
3714.4973,26.286372001499014,3.1052718214001653
3715.3518,26.258482583520934,2.8566330728442137
3716.2085,26.254202094068503,3.355235623189752
3717.0635,26.264944256977515,2.844005499530211
3717.9185,26.27765263364347,2.997717922314979
3718.776,26.286078977944374,3.0156189615008095
3719.6313,26.293948336152095,2.9081647406387283
3720.489,26.30633909299826,2.9838628411128996
3721.345,26.31897578054368,3.1820572269984857
3722.2031,26.31867072274015,2.902194472672331
3723.0593,26.293686983402942,3.1567386731309797
3723.9158,26.242507947687795,3.0358665111620544
3724.7747,26.172361625811067,2.8659184008864407
3725.6316,26.09270080950856,3.210221546805977
3726.4905,26.009439398935882,3.060052642693009
3727.348,25.927681017972198,3.1903381434748748
3728.2073,25.85287803373539,3.2111998448143164
3729.065,25.790842412679265,3.083316780641473
3729.9229,25.743174355615505,3.1044234042048195
3730.783,25.707356250044235,2.8051749463082998
3731.6414,25.68054124229654,2.9175998533286496
3732.5017,25.662527013524116,3.142397347699539
3733.3604,25.655212588171892,3.3643678860753377
3734.2214,25.658152115270493,3.337301292414589
3735.0803,25.666203134237996,3.184780190713691
3735.9417,25.670830285152057,3.352908826531402
3736.8013,25.663256650134112,3.157305006506273
3737.661,25.638011106649547,3.048091276578152
3738.5227,25.595941120757615,3.026993199228905
3739.3828,25.545703532588767,2.8278984969285443
3740.245,25.49898325414725,3.2422447783369206
3741.1055,25.463547387257137,3.1422289954409335
3741.9683,25.437632988539466,3.0772974006038023
3742.829,25.41353643289817,3.3382976299816485
3743.69,25.38477974659831,2.973985110620759
3744.5532,25.351645638313308,3.195281514811045
3745.4148,25.320688053879536,3.227213186575441
3746.2786,25.29947544950001,3.2589518102277197
3747.1404,25.29314117258221,3.2154333640077315
3748.0044,25.30291826479176,3.1345346142228236
3748.8667,25.32608737667565,3.333282040739747
3749.729,25.354933738475346,3.314317869098296
3750.5938,25.376445915085295,3.5054866632418498
3751.4565,25.376109632250397,3.2705740329124424
3752.3215,25.3464838257071,3.4711783399518077
3753.1848,25.293746911146517,2.972720144670081
3754.0503,25.23486280309203,3.020404371550069
3754.9138,25.187062661416107,3.384864377749428
3755.7776,25.155476115810266,3.114775777517417
3756.6438,25.132018072061204,3.085149757915879
3757.508,25.10452036148016,3.5542804017919405
3758.3745,25.067394173652232,3.241965351071995
3759.239,25.02565676811606,3.2539302288060816
3760.106,24.98867840485637,3.440729901740064
3760.971,24.962985207276372,3.418997227624924
3761.8362,24.94815780616526,3.1488635258382316
3762.7036,24.939189199917777,3.163219694238385
3763.5693,24.929993093439872,3.3066945793815465
3764.437,24.915106389736202,3.1331405891000745
3765.3032,24.89020432260732,3.2140363036590016
3766.1714,24.852536251075485,3.4520857833740433
3767.0378,24.802961421027284,3.3165284913978144
3767.9043,24.746252402007173,3.3931540576270125
3768.7732,24.689596892121607,3.3801405862155165
3769.6401,24.639828953322723,3.5326719011164394
3770.5095,24.599800402504258,3.5433362553820116
3771.377,24.569064880553828,3.5002425498908964
3772.2466,24.544676590516772,3.56988814974154
3773.1145,24.52350785847772,3.499662393005719
3773.9824,24.502482228036673,3.384132860702507
3774.8528,24.47889513005328,3.593152206717831
3775.721,24.45125425975973,3.8503844665140794
3776.5918,24.4196869367905,3.6380785436259755
3777.4604,24.386998107777284,3.809314684752387
3778.3315,24.358020615787847,3.2317680916257263
3779.201,24.3397651963315,3.60654544215702
3780.0703,24.33908170805987,3.3403304378450343
3780.942,24.3597663894209,3.404250287702459
3781.8118,24.399196105375655,3.7969726548240454
3782.6838,24.44763162586888,3.371921382805941
3783.554,24.48924011971744,3.4480597323874265
3784.4265,24.507521177184085,3.5099484814215183
3785.297,24.491773538858922,3.318025895780525
3786.168,24.443621323746182,3.4028533151789797
3787.041,24.376267583622603,3.5103519919418966
3787.912,24.306973272808737,3.067093287966453
3788.7856,24.245392789523784,3.398675013271258
3789.6572,24.19060162928424,3.5062871790240835
3790.531,24.134697048194067,3.3248860406537983
3791.403,24.072302271574905,3.62991389825555
3792.2754,24.003900960152894,3.34888977967304
3793.15,23.934155557257025,3.776574006408118
3794.0225,23.868506460726483,3.684827395625714
3794.8972,23.81073669342131,3.6460594468427585
3795.7703,23.765195916344652,3.7181220159382353
3796.6455,23.735870825669398,3.687231264329571
3797.519,23.725152142004372,3.6935277491358143
3798.3926,23.73129309901679,3.9159562484745933
3799.2686,23.748497081089123,3.2408533775993114
3800.1426,23.767523967745273,3.675267543612601
3801.0188,23.777421697565103,3.5554741747533303
3801.8933,23.768019837049323,3.7180743137870524
3802.77,23.733893510389166,3.6984669633294045
3803.6448,23.67730297536448,3.542866608957239
3804.522,23.607040184934057,3.4913218532555454
3805.3972,23.53591438870192,4.040117798329284
3806.2727,23.474593167242777,3.891983546168337
3807.1504,23.42805271638082,3.808247550443956
3808.0261,23.39501248505077,3.8119113316971527
3808.9043,23.37050637786786,3.353148209775618
3809.7805,23.351179230264147,3.8495897485904296
3810.659,23.337011382767958,4.547019972451421
3811.5356,23.330342411955325,3.822159734962884
3812.4126,23.332125194793413,4.043671099320674
3813.2917,23.338943870092518,3.665270524757595
3814.169,23.34265458227776,3.999216078719583
3815.0483,23.334449559001822,3.695291781624803
3815.926,23.310734682904776,3.810263909199066
3816.806,23.27533482480148,3.773428975824855
3817.684,23.236016865882743,4.069151214791486
3818.5623,23.19761006594991,3.7987624319754105
3819.4429,23.159490048391014,3.7214935561613283
3820.3215,23.118707433144664,3.7077885735370173
3821.2024,23.073838255525608,3.9178962762961667
3822.0815,23.02761574719785,4.039765788278591
3822.963,22.984402018675357,3.9913751968430478
3823.8423,22.947819691737823,4.006233602334165
3824.722,22.91808519114808,4.13656574429744
3825.604,22.892793167886477,3.855445457882321
3826.4841,22.869274363413734,3.674475215713092
3827.3665,22.84660636238085,3.689561354646003
3828.2468,22.82699251806772,3.8693578423795025
3829.1296,22.813810917025698,3.9328602664163634
3830.0105,22.80833175366325,4.042324331384796
3830.8916,22.806131337892563,4.039712498619027
3831.7751,22.797771881260168,3.5944692688403133
3832.6565,22.774168452357433,4.24771550066643
3833.5403,22.732073619077187,4.501342073332398
3834.4224,22.67558501822419,4.475990683947326
3835.3064,22.612096802624144,4.0714958860760735
3836.1887,22.549930472588358,4.122842617570502
3837.0713,22.49610581586549,3.754093578013716
3837.956,22.45555020392504,4.436210145526713
3838.839,22.429611606105397,4.29736424819012
3839.7244,22.41570331487621,4.339203355437125
3840.6077,22.410459098764854,4.32389743004707
3841.4932,22.411640973132368,4.179151884226452
3842.377,22.41781540827882,3.857930465205949
3843.261,22.426860392581183,4.2096095207550634
3844.1472,22.43588855351991,4.207631225986786
3845.0315,22.44219128441874,4.309967617154967
3845.9182,22.443855416057453,3.761132496409697
3846.803,22.439313733905227,4.308407338646617
3847.69,22.42734559187008,4.1633137792729755
3848.5752,22.408188520711494,3.946759890043686
3849.4604,22.38452046829154,4.170909474079728
3850.3481,22.360865830700362,3.991626412738392
3851.234,22.34106875093263,3.8699994380120164
3852.122,22.324990861092218,4.464108948336024
3853.0083,22.308236221567277,4.107420140669737
3853.8967,22.28355133670671,4.140432275416261
3854.7832,22.24403723982622,4.410877738723576
3855.6702,22.185743507753422,3.8969463971504643
3856.559,22.110364393013548,4.1973788787486805
3857.4463,22.026704967548785,4.117120989592496
3858.336,21.94728293085982,4.207942577064399
3859.2234,21.88483663813054,4.480000866718417
3860.1135,21.845986573702746,4.40216886173082
3861.0015,21.830551071972284,4.239466497594955
3861.8896,21.832116916091387,3.9734416328005464
3862.7803,21.841388584983395,4.434249031560566
3863.6687,21.84825768772286,4.203567408460449
3864.5598,21.843771227937886,4.157399454121429
3865.4487,21.822244312386022,4.554206388847553
3866.34,21.783363101205655,4.178425691868759
3867.2297,21.733403194307733,4.459022161884576
3868.1213,21.682502087692338,4.455910525818116
3869.0112,21.640588723396096,4.524994545513966
3869.9014,21.611906929219547,4.557432282565523
3870.7937,21.594320771384012,3.961753098853813
3871.684,21.582744871089385,4.425478637579084
3872.577,21.573647490031547,4.371729339721279
3873.4678,21.56715869345778,4.575639227299781
3874.361,21.56499846415141,4.482282575832957
3875.2524,21.567808370977072,4.667996020352716
3876.1438,21.574203780190043,4.627514928719966
3877.0376,21.58169631589761,4.422061458314775
3877.9297,21.587385104459496,4.303924666892105
3878.8237,21.588090061201672,4.340355563582173
3879.716,21.580505082343585,4.349233038261522
3880.6108,21.562186351903634,4.477597600803404
3881.5037,21.532708724281775,4.509687166113118
3882.3965,21.493213299422703,4.226097708780896
3883.2917,21.445205548235105,4.3694076984891925
3884.185,21.390335943695128,4.659614622257491
3885.0808,21.33012491636784,4.578853670720978
3885.9746,21.26770757919876,4.435340246637511
3886.8706,21.205722139753128,4.647610417524945
3887.765,21.145436808238557,4.500498271499358
3888.6592,21.085643663574157,4.723439970411152
3889.556,21.025818873063386,4.610058044968945
3890.4507,20.969601134570016,4.925649545754214
3891.348,20.923177906160632,4.709442715872847
3892.243,20.89215133684983,4.825294300090938
3893.1406,20.877101920356314,4.833359867925826
3894.0361,20.87486718477283,4.497205769059187
3894.932,20.881575124334756,4.952113812448694
3895.83,20.894761833748767,4.522661930646188
3896.7263,20.91179081153646,5.061173582573328
3897.625,20.92801357772546,4.8384636312863325
3898.5215,20.93672041013268,4.534176980192657
3899.4207,20.93201446889413,4.887850805862474
3900.3176,20.91183741656322,4.475602536693083
3901.2148,20.87988513481437,4.901701074229988
3902.1145,20.844875120791954,4.482564653788673
3903.0122,20.8171451590322,4.681806230843825
3903.912,20.80313808033268,4.902736449729198
3904.8103,20.803626631923667,5.005318237382714
3905.7107,20.81555544554193,4.9850605719159224
3906.6094,20.835266001968,4.585842383719482
3907.508,20.858887140181476,4.596121941476278
3908.409,20.880301391222297,5.142142617962176
3909.308,20.890998243223915,4.4515347979478745
3910.2097,20.88415786682008,4.378521761848877
3911.1091,20.8589037329234,4.8149118138581475
3912.011,20.821028851795084,4.604657616590658
3912.9111,20.780312839033698,4.534085531103152
3913.8113,20.745284837787544,4.82279822812749
3914.7136,20.719699423230878,4.6692722692858055
3915.6143,20.701422485448195,4.913641289205374
3916.517,20.683789543676166,4.4504671848293755
3917.4182,20.659834618328162,4.903022464487165
3918.3215,20.62550993156411,4.899203921223187
3919.223,20.581342122278663,4.381323654895412
3920.1245,20.530869728419315,4.967566110410132
3921.0286,20.47955537597453,4.44881631303239
3921.9307,20.43477925718893,4.569961073862839
3922.835,20.403933917025157,5.0036918709735065
3923.7373,20.39178258322724,4.961728015650937
3924.642,20.39569978244664,5.348954722819959
3925.5452,20.405280508384735,4.887526586553239
3926.448,20.40797653870798,4.777896364225909
3927.3535,20.397655051713592,5.041239492684685
3928.257,20.378930025562223,4.827468470428
3929.1628,20.362453436454228,5.4769444116153005
3930.0667,20.35536493163476,5.192948909376564
3930.9731,20.354395494341183,5.001547784962462
3931.8774,20.34805978597634,5.375959037386337
3932.782,20.3252681875975,5.055214266230226
3933.6887,20.283215649690238,5.035029378773935
3934.5938,20.22921502784595,5.731358895918173
3935.501,20.174806249665497,5.188617839203851
