wavl,flux,ivar
3566.9744,0.8006241754800434,136.5723063508733
3567.795,0.8007824303936384,344.26191021193046
3568.6177,0.7965881422496366,206.49620553814415
3569.4385,0.7896166667364515,171.45303645592594
3570.2617,0.7827322692337372,209.91125506597925
3571.083,0.7786664131525961,217.41995596912642
3571.9065,0.7783909684892223,232.15955513050247
3572.7283,0.780839287000072,116.96606652290961
3573.55,0.7839429625983764,151.6465887708283
3574.374,0.7861736846492251,159.7173957838613
3575.1963,0.7873046075628707,316.0203360482467
3576.0208,0.7881523192429278,301.3219820865269
3576.8435,0.7897073877033899,269.0152343829818
3577.6682,0.7924957351575704,200.12379054708111
3578.4915,0.7964095340856947,128.81383726418565
3579.3145,0.8009927680240018,186.72699062906995
3580.14,0.8056808707223476,157.726355781765
3580.9636,0.8097445294040245,172.73266259987804
3581.7893,0.8122922090037951,187.78040982964632
3582.6133,0.8123755417843063,123.16617608401222
3583.4395,0.8095020079678316,130.9658509294255
3584.264,0.8041091532896226,211.14205797052136
3585.0884,0.7975499062279969,195.9477873833257
3585.915,0.7914692858048368,188.77205617243118
3586.74,0.7869722266876507,247.44039645148598
3587.5671,0.7841176838396986,168.78106993261727
3588.3923,0.7824480532442928,213.97777287673094
3589.22,0.7817229553726963,206.64363374849907
3590.0457,0.7822049997922481,217.18875162540792
3590.8716,0.784119211408109,229.03774673909197
3591.6995,0.7870903497326805,128.28449151521457
3592.526,0.7902081105224168,171.66845869225446
3593.3542,0.7927044611497955,179.78289890832866
3594.181,0.7942983683088045,180.58425143988657
3595.0098,0.7950055913509924,193.05648438360555
3595.8367,0.794740499520035,152.75817550090724
3596.6638,0.7934245383019867,283.91274125017515
3597.4934,0.7914018181591608,217.7982525072111
3598.3208,0.7895800415651812,256.9883144916059
3599.1506,0.7888739148243519,242.28419547473607
3599.9788,0.7894986244264568,151.51115965261462
3600.8088,0.7906629495958946,171.22160103016355
3601.6372,0.7909925588429231,161.01705206714084
3602.4678,0.7893834950525956,265.3321108360046
3603.2964,0.7857488991688861,172.74714904506578
3604.1252,0.7812336806391909,145.68169369778218
3604.9565,0.7778113495925972,208.329660336934
3605.786,0.7773555190799813,399.1716959516246
3606.6172,0.7805414714178726,175.87973977826735
3607.447,0.7864336072624702,249.7211838988298
3608.2788,0.7930518719765659,161.5783482734051
3609.109,0.7983332670618075,130.01932039965402
3609.9392,0.8010595274968599,218.91971005479
3610.7717,0.8010738331853602,187.02139846360163
3611.6023,0.7991099931528297,133.18256104185386
3612.435,0.7962993479175448,249.0343473456812
3613.266,0.7936482524893067,335.3877414519185
3614.0994,0.791649990525219,165.60305210866682
3614.9307,0.790318049048349,179.95845652060072
3615.7625,0.7893244797552418,317.47170652734536
3616.5962,0.788166384233387,193.9648708325597
3617.4282,0.7863007474975207,134.97834308341862
3618.2625,0.7833663301608854,144.0517534455733
3619.0947,0.7794668070889271,178.9047426423794
3619.9292,0.7750940766446152,188.19090613172065
3620.762,0.7709654702747144,219.74494678923458
3621.595,0.7678714667386027,157.37685162979872
3622.4302,0.7668775484713601,194.25477600963606
3623.2634,0.7693002398828692,140.22540935215142
3624.0989,0.7761895542028269,334.9363127268602
3624.9326,0.7874957854262579,126.67675101343086
3625.7686,0.8016773175326946,152.7583821496397
3626.6028,0.8156130537213877,140.02928262237631
3627.437,0.8257796653483152,162.81413629948887
3628.2734,0.8298379089763028,184.5466977794789
3629.1082,0.8280710207725176,206.6675324800688
3629.945,0.8232348233304593,204.20844518679058
3630.78,0.8186135771614794,163.65342668529155
3631.6174,0.815876215793831,160.37215152692468
3632.453,0.8146011252163828,128.75960509311642
3633.2883,0.81324684726834,232.20847366492902
3634.1262,0.810622013824722,162.17572819397844
3634.9622,0.8067323877184266,131.6529672153997
3635.8005,0.8026131741451177,206.35074960702764
3636.637,0.7996039983399191,126.06307325114332
3637.4756,0.7983692378365812,186.26244346706028
3638.3123,0.798478187735477,362.0457478232857
3639.1492,0.7986303537488136,298.3417669207438
3639.9885,0.7975475098845078,187.01133992871794
3640.826,0.7949635660392489,217.908923007816
3641.6653,0.7919317813379242,161.49522374281486
3642.5032,0.7902100639676081,165.57330400894148
3643.343,0.7910826407019476,209.0826962255446
3644.1812,0.794586241834322,235.37814298276496
3645.0195,0.7995351099101926,159.60697565607705
3645.86,0.8042049719407701,144.06451820025228
3646.699,0.8071970874059095,174.4204336347332
3647.5398,0.8081747113349778,187.8132681514432
3648.379,0.807830975377686,131.27651074663083
3649.2202,0.8072105279525921,162.26137717078979
3650.0596,0.8068400550977427,202.7776927105758
3650.8994,0.8065007601719023,151.6205253438734
3651.7412,0.8058275883907381,119.69284766121217
3652.5813,0.80494482999308,216.59607054457615
3653.4236,0.8043339700608686,247.61625626636248
3654.2642,0.804178897576332,157.4321300032161
3655.1067,0.8040202426434802,135.93797553467562
3655.9475,0.8031203284611095,139.78243556183128
3656.7886,0.8010233678328197,153.74585147432862
3657.6318,0.7977780387198053,170.96704159390566
3658.4734,0.7938862517935295,193.65165500324338
3659.317,0.7900512823634194,133.85446880372402
3660.1587,0.786902281113699,197.84156394216728
3661.003,0.7845128310952915,240.22093215920057
3661.845,0.7824177665755052,169.33921542093205
3662.6875,0.7801675073377291,183.67879253748384
3663.532,0.7780169258717955,215.54462963583205
3664.3748,0.7768033580855048,160.79225143839824
3665.2197,0.7770357119231013,229.98966806202128
3666.063,0.7782564203711549,207.28070428237166
3666.9084,0.7793799575864528,125.56459562953216
3667.752,0.7797044055715104,138.57569756457664
3668.5977,0.7796356554238792,221.7251210266878
3669.4417,0.780390265646405,193.8491142261295
3670.286,0.7829723190094853,230.29443817968843
3671.132,0.787314256642315,211.2914269016671
3671.9768,0.7922148185320437,157.70475607582142
3672.8235,0.7961899087836851,160.84081302315175
3673.6685,0.7983291836108628,171.32920730916507
3674.5156,0.7986814510994109,157.728727401274
3675.3608,0.797813653251468,198.9819505783718
3676.2063,0.796237644561155,215.55121125774608
3677.0542,0.7942261861072889,230.1435267296409
3677.9,0.7920921160458487,172.76590948992674
3678.748,0.7903450314285191,169.16326536475628
3679.5945,0.789539217471975,139.91942645850733
3680.4429,0.7898942655547607,169.64032734145843
3681.2896,0.7912642982733753,163.41048982135428
3682.1365,0.7934749811124178,193.36942798523003
3682.9856,0.7966305427564102,158.39989776584704
3683.8328,0.8009529229757187,138.0608637757115
3684.6824,0.8063642946326585,148.3881558078408
3685.53,0.8120283473581047,240.07211175144525
3686.38,0.8166274002877488,168.64120606455808
3687.2278,0.8190061076760846,237.51517956853928
3688.0762,0.8190193956435357,125.64322603500828
3688.9265,0.8175818219962206,157.38607089837598
3689.7751,0.8160133350445964,198.12750230632892
3690.626,0.8151455992213936,123.60797393438956
3691.475,0.8149550725868202,160.61231374421448
3692.3264,0.8147341142136302,156.19594256308648
3693.1758,0.8135622264093902,154.14817626741635
3694.0254,0.8107934166534366,167.68079060630518
3694.8772,0.8063747017482485,178.91690031872028
3695.7273,0.8008311461408395,178.3373283279281
3696.5793,0.7947839486472533,213.1081558974028
3697.43,0.7887506865078959,206.8983171707462
3698.2825,0.7832175345384994,161.81413951485445
3699.1333,0.7790025847333106,128.47863368298727
3699.9841,0.7769521994811617,134.90259049579464
3700.8374,0.7773556556611921,129.3577207506749
3701.6887,0.7795924940624385,236.5043545869115
3702.5425,0.7825136913299797,142.45425822790506
3703.3943,0.7849757592993406,187.69844313033283
3704.2483,0.7860644473126968,170.2276719119457
3705.1003,0.7850595852255376,175.0900449942564
3705.9526,0.7818515071121005,229.744698183324
3706.8074,0.7775045203669653,188.0571853471357
3707.66,0.7742050486204386,194.59334992041872
3708.515,0.7740412878733183,234.43306120603526
3709.3682,0.7777273303512774,237.94688368278958
3710.2234,0.7842314817421285,182.62337890233056
3711.0771,0.7914889039544483,177.8680417964749
3711.9307,0.7975856250765666,143.01373844503362
3712.7866,0.8014645855639502,170.296127846503
3713.6409,0.8031078616779196,166.8627331903932
3714.4973,0.8034012073439961,202.47043892303572
3715.3518,0.8035369606012003,145.39184680270336
3716.2085,0.8043189687900868,128.3387756641237
3717.0635,0.8057067553938575,169.49896238329282
3717.9185,0.8069518282933614,174.52169948004135
3718.776,0.8071550498944405,139.5883412328072
3719.6313,0.8058051553581782,175.73326951242896
3720.489,0.8029070941390742,165.92985065593953
3721.345,0.7987607905837187,168.792063466165
3722.2031,0.7936669111508288,185.728099862614
3723.0593,0.7880273742310863,239.29560739157066
3723.9158,0.7824426298308524,255.7660967510555
3724.7747,0.7777900767042664,150.65713885346847
3725.6316,0.7750268219396113,215.52302419660077
3726.4905,0.7746837813867135,178.174210704643
3727.348,0.7764675263622746,189.18099500604882
3728.2073,0.7791223254618473,175.86683578202894
3729.065,0.7809305488816983,138.6907303785555
3729.9229,0.7807428482117847,133.0088010796544
3730.783,0.7786627878507585,233.1751905846479
3731.6414,0.7758735106661448,152.25410675757436
3732.5017,0.7736899799219324,209.56826887022467
3733.3604,0.7728177547488245,215.878745595917
3734.2214,0.7732400056975209,238.83929284375898
3735.0803,0.774627938754435,163.92717090107067
3735.9417,0.7767003378918655,206.42284138046696
3736.8013,0.7792672150757571,205.12968644553231
3737.661,0.7821715614666801,157.46223154394337
3738.5227,0.7852449060949418,193.70148172662712
3739.3828,0.7883596830788846,170.5564924624597
3740.245,0.791544874614708,155.6855530175477
3741.1055,0.7947933533963648,175.17901961801235
3741.9683,0.7978202899372374,147.72138217865745
3742.829,0.799871372530811,185.95286715308595
3743.69,0.8001053829395417,184.54575008054678
3744.5532,0.7981405852018725,154.12670892040046
3745.4148,0.7943922070032446,190.27991891074356
3746.2786,0.7897512629166512,236.5952442558563
3747.1404,0.7850669591642568,184.00169086171553
3748.0044,0.7807553099473616,205.54896336850177
3748.8667,0.7770045273991404,185.69851268957848
3749.729,0.7739269666103481,164.69872809641734
3750.5938,0.7716127244233925,311.3141598638137
3751.4565,0.7700630733954633,215.22255068290488
3752.3215,0.7692180108115093,136.07224770223658
3753.1848,0.7691704620819155,207.9311891533965
3754.0503,0.7701406561649048,173.44839966952097
3754.9138,0.7720980524032914,313.4639451336357
3755.7776,0.774349214724096,207.28536971011164
3756.6438,0.7756350637098474,157.99279010802584
3757.508,0.774889320380301,186.16078625197702
3758.3745,0.7720638039376819,176.4411450423057
3759.239,0.768214730547482,217.32034573596877
3760.106,0.7647373661851896,180.71519884084665
3760.971,0.76262940008517,163.22819925507923
3761.8362,0.7621915219667008,207.7330136912965
3762.7036,0.7633463927031858,217.4056375427141
3763.5693,0.7659198817599436,217.00044144377833
3764.437,0.7697038583616028,272.5544803867002
3765.3032,0.7742449743000231,179.7989191432375
3766.1714,0.7787069213342777,238.5485681599725
3767.0378,0.7818044647811414,251.97760548861936
3767.9043,0.7822776594285978,140.3493512826265
3768.7732,0.7796103932215971,146.9175648537679
3769.6401,0.7746642079580494,116.5998158667534
3770.5095,0.769422632575507,230.48696055778984
3771.377,0.7661475745380032,195.551725323633
3772.2466,0.7663521717601629,185.95213931544453
3773.1145,0.770388547381042,311.4182179996846
3773.9824,0.7773827644855471,174.04272379682817
3774.8528,0.7854855587378236,243.81304265261429
3775.721,0.7923865666255155,150.3848561426674
3776.5918,0.7964536171519156,183.19351433163527
3777.4604,0.7974327235348962,169.6596976748841
3778.3315,0.796493374800721,146.40832403919183
3779.201,0.7952060073850856,136.14674226004433
3780.0703,0.7943678299893393,168.85573929727335
3780.942,0.7935498847470295,154.0757668193493
3781.8118,0.7916457442558652,150.94935835549757
3782.6838,0.787886468557714,170.57995802413015
3783.554,0.7825426676157409,142.3625839341181
3784.4265,0.7766323624680483,211.48568712423221
3785.297,0.7712297107800287,227.9235552611921
3786.168,0.7668055708251055,173.9503525392853
3787.041,0.7633666597350895,238.33173045963136
3787.912,0.760868969226699,222.25145508606755
3788.7856,0.7593405755548992,203.68563189693717
3789.6572,0.7587722148677929,162.3028975440868
3790.531,0.7589128417963907,200.78014170075846
3791.403,0.7593510195086097,222.4176113685483
3792.2754,0.7597409080286761,213.25428429207724
3793.15,0.7599691024801799,221.85382224316658
3794.0225,0.7601615939740927,153.7504193852746
3794.8972,0.7605721682856752,186.85222914582124
3795.7703,0.7613619017690514,191.7052496453934
3796.6455,0.7623598201596946,278.40221940248136
3797.519,0.7630030145274269,177.2569906362264
3798.3926,0.7627122946324548,150.84815237988548
3799.2686,0.7614394012215298,193.5450189488692
3800.1426,0.7599079627135897,288.40093400732735
3801.0188,0.7591874404011354,202.8251031452845
3801.8933,0.7599748807815311,169.92268856262928
3802.77,0.7620755302283301,320.19769704966757
3803.6448,0.7644191206686455,215.88683403169028
3804.522,0.7656198806784196,172.3839631000169
3805.3972,0.7647050247527829,287.1762724384912
3806.2727,0.7617755116101843,251.90976318443592
3807.1504,0.758150622054365,153.87617625921283
3808.0261,0.7559195146894313,154.63061824380685
3808.9043,0.7568319178264378,210.56030680455783
3809.7805,0.7612175846250848,194.48318582395407
3810.659,0.7676105236744162,265.2529619735772
3811.5356,0.7733776316783764,226.81049946516023
3812.4126,0.7761345926466054,203.75488589145505
3813.2917,0.7747237581786828,157.04936691723728
3814.169,0.7694947635699159,215.15971575292053
3815.0483,0.7618503162640801,274.48908666573357
3815.926,0.7537034825057943,184.45291483169427
3816.806,0.746805079601589,164.27056605401359
3817.684,0.7424504603944959,248.82450619589522
3818.5623,0.7410725503609359,307.2282887219558
3819.4429,0.7421884852263763,210.54649917039595
3820.3215,0.7445649308712676,199.93307115142153
3821.2024,0.7468069658130324,240.3872750790477
3822.0815,0.7479975452937012,165.88496999334728
3822.963,0.7480533322303369,251.3611989992848
3823.8423,0.7474885657816467,157.66692770554798
3824.722,0.746905962264322,225.64409878030563
3825.604,0.7466125211814875,220.57809913493944
3826.4841,0.7466087968961335,176.37766371678845
3827.3665,0.7468498315454197,202.1029986214698
3828.2468,0.7474941179430262,186.37491542714784
3829.1296,0.748858502592166,161.41630229196699
3830.0105,0.7510281451722001,236.43841935576248
3830.8916,0.7535492497104856,183.0534411103636
3831.7751,0.7555987184189925,199.38562880707906
3832.6565,0.7566155745963158,171.86750476108804
3833.5403,0.7567999958028346,225.6407098988051
3834.4224,0.7568083749733606,243.61469719367892
3835.3064,0.7570070607214523,186.2807305608002
3836.1887,0.7571013328784848,199.73124563546924
3837.0713,0.7565837653118308,126.42849730057543
3837.956,0.7554159132298387,215.45500395196768
3838.839,0.7541039076943912,158.15732921513873
3839.7244,0.7530561264872173,228.07400093023082
3840.6077,0.7521017847659276,171.7381430953516
3841.4932,0.7507129570019393,222.67012296708327
3842.377,0.7486841687914562,153.8483073978524
3843.261,0.7464251454058038,207.38886156688952
3844.1472,0.7446940080917822,213.24418032756313
3845.0315,0.7441421730429387,218.43449879799877
3845.9182,0.7450222370664399,143.97935887013008
3846.803,0.7471125467389125,256.22695313152315
3847.69,0.7497136845887357,192.20818593158768
3848.5752,0.7517791155132592,199.00904298359552
3849.4604,0.7524162900876725,177.2308624604966
3850.3481,0.7513610394203944,242.7641889782195
3851.234,0.7490834817575073,212.8242754610938
3852.122,0.7463633322322215,201.22622810501952
3853.0083,0.7438742113642787,209.67262615468783
3853.8967,0.7420159226550778,202.68932310639173
3854.7832,0.7410565592539896,204.98744776154334
3855.6702,0.7410959692389261,220.52208599816504
3856.559,0.7419594618177122,166.5547152358887
3857.4463,0.7431911127223785,171.58063959131977
3858.336,0.7443073725343076,182.13661377262275
3859.2234,0.7450329838024677,220.60725365808324
3860.1135,0.7453835450731889,179.0335922724752
3861.0015,0.7455528255302241,221.05848967285627
3861.8896,0.7458080867207831,230.69230489350718
3862.7803,0.7464188525418638,188.5065246670034
3863.6687,0.747581761823223,186.4388909587337
3864.5598,0.7493291345800707,150.9041267079135
3865.4487,0.7514189138004579,163.00002210567834
3866.34,0.7533765794204574,184.36165288936593
3867.2297,0.7545254409998536,176.9174968587129
3868.1213,0.7541189773128802,146.7568924459637
3869.0112,0.7515696458089054,168.66578981499288
3869.9014,0.7468687281851296,280.4763229919338
3870.7937,0.7408561718327141,189.21106181011467
3871.684,0.7349986244144656,188.28511194144588
3872.577,0.7304842823392701,205.16096722519035
3873.4678,0.7276452399649391,220.95852670216135
3874.361,0.7259421860604349,165.49505468494579
3875.2524,0.7247078354949107,235.62908878104062
3876.1438,0.723664122722011,308.192380731252
3877.0376,0.7228905053578676,293.74131018816166
3877.9297,0.722479227372889,157.17898294494373
3878.8237,0.7224437946751888,213.5917834674444
3879.716,0.7229743100112042,256.3642114516581
3880.6108,0.724550902921207,256.8999286308263
3881.5037,0.7275857268019522,214.98774285267086
3882.3965,0.73189964351714,198.07807528932778
3883.2917,0.7365050555609164,208.44071630474292
3884.185,0.7399329790854229,139.98710084440629
3885.0808,0.7410624928269142,182.37000541599812
3885.9746,0.7396807638633034,210.89952738325564
3886.8706,0.7365405845928641,206.79237228887226
3887.765,0.7328594914354492,181.93017805302526
3888.6592,0.7296555172814002,190.6104062199811
3889.556,0.7274564670479223,174.02609549240182
3890.4507,0.7264025320562589,236.4722187937085
3891.348,0.7264836244888138,154.98310715896665
3892.243,0.7277512720748494,218.02779939865357
3893.1406,0.7302830693331962,245.389096830619
3894.0361,0.7339194898254763,218.24334510171892
3894.932,0.7380883510057576,175.88072381774148
3895.83,0.7418211014536454,187.13732559565892
3896.7263,0.7440801971957227,232.4082230959195
3897.625,0.744353638248426,181.66044861789823
3898.5215,0.7429770239125255,162.03416677706514
3899.4207,0.740940709124246,160.48757108330125
3900.3176,0.7391871315946613,218.9847402845056
3901.2148,0.7379763879102264,160.58572229100832
3902.1145,0.7370045175265518,335.8036145329871
3903.0122,0.7359456345696109,189.28397948206361
3903.912,0.7346846679711072,249.31928805132938
3904.8103,0.7331516517984419,196.17849381460567
3905.7107,0.731210903930702,225.6290917488972
3906.6094,0.7289337328939955,195.14638792187918
3907.508,0.7266998024540876,248.45536339059234
3908.409,0.72489155213793,223.32170204428334
3909.308,0.7235367544882233,353.1386414068708
3910.2097,0.7223908491226905,175.95813398590383
3911.1091,0.7214055706813355,173.09123594096187
3912.011,0.7208428802967582,244.77056756006658
3912.9111,0.7209320892264175,200.23550902176228
3913.8113,0.7215360053378201,210.2716231563824
3914.7136,0.7223658501010207,210.20766603156653
3915.6143,0.7234474840841125,243.45762492490235
3916.517,0.7252377165223535,188.61345925898743
3917.4182,0.7281454308392812,209.9435084427597
3918.3215,0.7320327258336164,204.65005385337287
3919.223,0.736086759797236,188.558664266517
3920.1245,0.739299042843288,191.29889183921654
3921.0286,0.7410008632491311,169.89634823617234
3921.9307,0.7412235195780211,167.28401948946305
3922.835,0.7406959211282259,197.1497299051863
3923.7373,0.7404247691366668,211.7956240550318
3924.642,0.7411313058203759,190.9062325427171
3925.5452,0.7429065652416011,196.78663701478598
3926.448,0.7453323243215813,149.91656371413396
3927.3535,0.7478891476072516,166.052939404702
3928.257,0.7501775370675497,255.16294635973244
3929.1628,0.7518688168318172,224.41342009528364
3930.0667,0.7524596546384024,219.36512904613906
3930.9731,0.7512866197414942,205.51533634597448
