wavl,flux,ivar
3566.9744,3.183709860047965,17.448560587201403
3567.795,3.162177360512569,19.204773620766986
3568.6177,3.146512648400104,16.711691302372383
3569.4385,3.1353693447098903,13.410452765472371
3570.2617,3.126710227793226,14.451044165801923
3571.083,3.1198888149126818,16.934641976199114
3571.9065,3.1156991438268427,14.482434778882181
3572.7283,3.115434700325071,18.97886102116918
3573.55,3.119612279655803,14.98206124020053
3574.374,3.1276617709890995,18.178634961659267
3575.1963,3.1380336736181014,17.478801502418502
3576.0208,3.148522110854734,16.51795441620324
3576.8435,3.156328422874087,19.422498549770317
3577.6682,3.1590087432850407,16.18726330828394
3578.4915,3.1554089975281885,21.186239894868866
3579.3145,3.146056456250186,17.301164771597687
3580.14,3.1321015412086006,17.847015349992443
3580.9636,3.1140311946189914,15.688635971450456
3581.7893,3.0911130624179366,14.51178611381361
3582.6133,3.0635389701337745,18.703178258493306
3583.4395,3.034574440046391,15.019897338420202
3584.264,3.011282839100147,15.994254637354041
3585.0884,3.0004777212593696,15.537756143301651
3585.915,3.004243417458367,19.106117486500043
3586.74,3.018187430707011,18.652471197020233
3587.5671,3.0344272622420525,17.19673488049423
3588.3923,3.0459371691682384,16.467984933669154
3589.22,3.049500935543872,14.564735532242095
3590.0457,3.045611501654032,15.560412453136257
3590.8716,3.0372940356379208,16.2504423420096
3591.6995,3.0284980496088676,16.908309158108956
3592.526,3.0227694860917578,16.121505400273392
3593.3542,3.0219644957182346,19.217588998505054
3594.181,3.0256159636559183,19.357404063805
3595.0098,3.030936382925131,17.54318984436922
3595.8367,3.0337831980517422,16.66660990669427
3596.6638,3.030685755352858,16.374000980321807
3597.4934,3.020771711979761,21.406130663201925
3598.3208,3.006647891835092,18.89445987190631
3599.1506,2.99296114088934,24.046721347353895
3599.9788,2.984181533204657,13.815965825177768
3600.8088,2.9821230293129246,26.89157816274008
3601.6372,2.98523763302057,20.99363106780651
3602.4678,2.9894964981926506,14.569777654513947
3603.2964,2.9905455238473473,20.2926876780904
3604.1252,2.9859390459730375,19.5342539859127
3604.9565,2.9761148277290124,23.36597283390279
3605.786,2.964169346248127,17.12096746683589
3606.6172,2.9541880045989077,19.418442582543825
3607.447,2.9493520705633824,16.778109639277307
3608.2788,2.950124218152583,18.97157978846418
3609.109,2.9542795513614992,19.142300492085052
3609.9392,2.9587726475219736,18.963134830976905
3610.7717,2.9620118366165875,16.264675417802405
3611.6023,2.9644166643918894,17.517345777925716
3612.435,2.9670518489306907,21.53305962082012
3613.266,2.9699819612576803,17.853132465704675
3614.0994,2.9723013793626922,15.227816811733849
3614.9307,2.9732264432828672,15.446394607278918
3615.7625,2.9727436868948054,15.4363977128831
3616.5962,2.971010335000749,19.959753110517234
3617.4282,2.967642860063641,18.12846555076747
3618.2625,2.9618836873654524,23.83084701892291
3619.0947,2.9536996287378745,16.086284861404017
3619.9292,2.9444545036616656,23.14640975381108
3620.762,2.936720879125703,16.19638246981969
3621.595,2.9326603923796437,14.709133182952323
3622.4302,2.9324147723697886,21.338705920230147
3623.2634,2.9335507204986766,20.052303581368808
3624.0989,2.932480136295724,18.197089460542713
3624.9326,2.926899709280024,17.217238523792634
3625.7686,2.9170780481942873,18.112150486455416
3626.6028,2.9051090939272193,20.736853905084295
3627.437,2.8928800789188642,16.480164005898658
3628.2734,2.8810639797981743,19.396594060624818
3629.1082,2.869440030950774,17.74193521933876
3629.945,2.857239035922283,22.622105893440633
3630.78,2.843668940596232,15.06616131700855
3631.6174,2.8280164203094578,22.56169236794599
3632.453,2.8103962475623168,21.218473996289383
3633.2883,2.791486237412711,16.891384136765655
3634.1262,2.772091346772001,20.475326211356926
3634.9622,2.753022670040362,19.659979139250265
3635.8005,2.7350647298139097,27.461957078818703
3636.637,2.719607756146909,23.350722175135708
3637.4756,2.707699362421076,22.485988625976113
3638.3123,2.6994191409167656,24.300019891973694
3639.1492,2.6935140274614895,19.608507621859324
3639.9885,2.6884195277365905,28.322180500780945
3640.826,2.683398786122659,25.451296596276684
3641.6653,2.6788868122255893,20.064171422097957
3642.5032,2.676100890778092,24.06076377618314
3643.343,2.676024383143749,20.91281205148925
3644.1812,2.6786597761670885,24.85499934162909
3645.0195,2.682812767989617,22.021328674248874
3645.86,2.6864912576053825,18.297197729315837
3646.699,2.687602553722364,27.166954089147428
3647.5398,2.684809382102411,24.062757566617332
3648.379,2.678095092710605,21.3021547722261
3649.2202,2.66871252730865,26.223238954635775
3650.0596,2.658612178419867,24.55965074173984
3650.8994,2.649313586795861,22.986738337957817
3651.7412,2.641382144116522,20.87559917180159
3652.5813,2.634492366357809,22.15451151134503
3653.4236,2.6277794264196075,23.692918864119655
3654.2642,2.6205396576794633,21.411057979254217
3655.1067,2.6125177647428193,22.028780080132822
3655.9475,2.6040659203394116,21.581620511810883
3656.7886,2.595593169414481,23.854077100280566
3657.6318,2.5870763960014354,30.101575325741106
3658.4734,2.578101042222095,18.63372798483405
3659.317,2.5684879824136977,21.329885858706024
3660.1587,2.559314497793538,24.300966962681272
3661.003,2.552536941457414,25.736599901762684
3661.845,2.5496607345883424,24.009406726789486
3662.6875,2.5502946395656796,24.51135427245091
3663.532,2.5526511100295446,19.80275736213118
3664.3748,2.5552150796410484,27.11004374445092
3665.2197,2.55783381234028,24.302830294568537
3666.063,2.560964500095222,23.838468748345036
3666.9084,2.564336356885022,24.89704192708176
3667.752,2.5664598781004573,24.42231633446941
3668.5977,2.5654607819189392,27.001559089674956
3669.4417,2.5601604158641864,21.1547217806893
3670.286,2.550760475198645,23.03273975251043
3671.132,2.538868037121799,24.640703341571314
3671.9768,2.5270159564556463,19.130274520376364
3672.8235,2.5175168865819475,22.2269987022236
3673.6685,2.511826663803219,24.78516161802003
3674.5156,2.5101212878814416,22.758652455235033
3675.3608,2.511453187259882,25.398820854347086
3676.2063,2.513868832912105,25.71426002598686
3677.0542,2.51486573614744,19.344539722561326
3677.9,2.5122741140090628,23.219698078510373
3678.748,2.5052444154019913,26.028187125696952
3679.5945,2.494690569111439,29.805386423698074
3680.4429,2.4826676512113717,23.197482780771978
3681.2896,2.471560100198018,24.166240290888947
3682.1365,2.4631346389253324,23.499302389582173
3682.9856,2.4583245616312883,24.002446319072785
3683.8328,2.4571395125396505,26.64147522411263
3684.6824,2.4585194984628473,29.556501806411084
3685.53,2.460533912930567,29.547601148894575
3686.38,2.4611552002331316,24.461962394647138
3687.2278,2.4593849220093267,23.247936721209705
3688.0762,2.455989997479006,27.23290984849607
3688.9265,2.4531861143895037,23.615613704401742
3689.7751,2.453466853808502,36.92928510391872
3690.626,2.4581948578921105,22.09282248124397
3691.475,2.466774540602276,25.426479189562613
3692.3264,2.4768875934501096,26.725938216275615
3693.1758,2.4853418290472447,21.550014108474084
3694.0254,2.4895722007368932,27.729348916155008
3694.8772,2.4886173869832255,31.264036151674702
3695.7273,2.483434528793151,32.11200350875738
3696.5793,2.476031328718436,29.643222867083384
3697.43,2.468130333165604,26.210948288461328
3698.2825,2.4601795800605704,27.466227077030144
3699.1333,2.4517144951268137,33.41638244703543
3699.9841,2.442180551119186,26.53935478741258
3700.8374,2.43173136419928,30.38484057491491
3701.6887,2.4214329599162743,29.778182373812445
3702.5425,2.412589633493811,31.62731277918383
3703.3943,2.406248806955718,34.49632377911655
3704.2483,2.402601251408574,27.127553733554898
3705.1003,2.4011844203917505,32.25521622048601
3705.9526,2.4012053163014273,28.851124514902764
3706.8074,2.401914359202781,33.95876667199824
3707.66,2.402675788125563,27.499270125422438
3708.515,2.4029185323923774,28.180376765261386
3709.3682,2.4020367810218355,36.0372110862478
3710.2234,2.3994643365223522,21.282825272368033
3711.0771,2.3951003626530665,30.64709790976703
3711.9307,2.3897656513222434,26.428845374606848
3712.7866,2.3851282896162833,34.142217487902734
3713.6409,2.3829254431679234,24.012211115995292
3714.4973,2.383903355512617,27.85666211080542
3715.3518,2.387438630954516,34.24053614908632
3716.2085,2.391873522220848,30.87604810277414
3717.0635,2.395224483479933,30.193920116862127
3717.9185,2.396107463432233,22.088331256649315
3718.776,2.394301666617043,25.512603657873168
3719.6313,2.3907544762475528,26.55114094794907
3720.489,2.386762355174804,26.367339092051548
3721.345,2.3829658675183927,27.13564773072758
3722.2031,2.3787907036536398,28.75320523194071
3723.0593,2.373114247700827,29.388229795738965
3723.9158,2.3654624732484457,25.88488582952905
3724.7747,2.3568592319975905,28.28799963488148
3725.6316,2.349516975854605,32.11397718292009
3726.4905,2.3453282794678354,32.57261348448246
3727.348,2.3446616815927372,30.45106059647689
3728.2073,2.3458913566781825,28.912519256370498
3729.065,2.3461850060729303,28.866046847793346
3729.9229,2.3430857713679005,26.18226077829819
3730.783,2.3360080465234367,24.65990128289979
3731.6414,2.3267419752935976,27.20886286242382
3732.5017,2.3181484735471702,37.442676520059734
3733.3604,2.312327796949383,32.08097249043353
3734.2214,2.3093405013214308,28.175117748937044
3735.0803,2.307657972093153,29.25486570597764
3735.9417,2.305147235979477,35.50447997780835
3736.8013,2.299890039372135,33.22740104555166
3737.661,2.2905332499198447,28.555397781068194
3738.5227,2.276729039402209,27.84069558990453
3739.3828,2.2598194345557525,30.781047753731755
3740.245,2.242652714306568,25.213221658345088
3741.1055,2.2289838122393983,31.726856152391747
3741.9683,2.221689583669987,34.20357762415694
3742.829,2.221813179202125,25.715738400858204
3743.69,2.2282208500554748,26.868664398525535
3744.5532,2.2384269162450283,28.142631006806663
3745.4148,2.2493359772728354,35.510588356806515
3746.2786,2.258075080589271,37.839715039418465
3747.1404,2.2624038424001975,30.451980828630184
3748.0044,2.261506466229671,27.68505157588563
3748.8667,2.2563353477242853,31.878749210009502
3749.729,2.24929980538558,30.566883682836043
3750.5938,2.2430948732293903,34.17669368741268
3751.4565,2.2394834750914954,32.056066948391965
3752.3215,2.2386390321747744,28.24505466386984
3753.1848,2.239552966595811,38.05210001439098
3754.0503,2.240603195489874,35.220890499939436
3754.9138,2.239936003698939,26.689372857550104
3755.7776,2.2359409428482664,29.879731364665446
3756.6438,2.228088540064751,29.494829646095994
3757.508,2.2178153401811604,31.466302428488042
3758.3745,2.2080653765946803,37.59714481990549
3759.239,2.2017919242674564,41.7356358555293
3760.106,2.1998917853156637,35.77508308575469
3760.971,2.200758088945554,30.9815323500556
3761.8362,2.2015839299794964,34.796478067908204
3762.7036,2.200532501462613,25.679204417098784
3763.5693,2.197869650501591,33.22117948629778
3764.437,2.195259044097715,34.54400869943027
3765.3032,2.194182173341428,29.316941155512794
3766.1714,2.194896140830606,34.25624008630481
3767.0378,2.1966577148110713,33.79455335302402
3767.9043,2.1985066840963197,34.24863495173114
3768.7732,2.1996414521164223,39.97409821123168
3769.6401,2.1991880151576155,29.821304749409563
3770.5095,2.1960196610341405,35.73167980596843
3771.377,2.1891831449066013,33.859341044115226
3772.2466,2.1786208912772773,37.91198494813715
3773.1145,2.1657192376867545,35.03967621631501
3773.9824,2.152698292988369,42.13042321707596
3774.8528,2.14158469797372,44.48776806818812
3775.721,2.1334395978077256,35.36599577357065
3776.5918,2.128134534045769,29.476650853851524
3777.4604,2.12523018036065,37.36121659811056
3778.3315,2.124519076220316,32.85326800236105
3779.201,2.1260446034785363,39.92717111614514
3780.0703,2.12939684894627,40.37822555300034
3780.942,2.1332835512172093,30.716881985284523
3781.8118,2.1359896988428275,37.85377059819865
3782.6838,2.136612809572907,36.92830097966534
3783.554,2.135715251617057,36.58665198113553
3784.4265,2.134717199663038,44.97389414105001
3785.297,2.134502388338878,31.385824321677543
3786.168,2.134623202731424,29.252885146370943
3787.041,2.1338678598559473,37.54623514225459
3787.912,2.1314946860005777,30.4188577948715
3788.7856,2.1278876615026876,31.299820977835626
3789.6572,2.1241972311350286,36.869247812212706
3790.531,2.1213041449312344,26.890821028098625
3791.403,2.119229798147563,39.74473314839202
3792.2754,2.1172320149171435,35.5701100994624
3793.15,2.114494300883952,31.401740163556834
3794.0225,2.110689118619563,36.603600342244
3794.8972,2.1059720656587984,33.7901139375056
3795.7703,2.1007743360302342,35.22334994176998
3796.6455,2.095478646276176,27.320828081511504
3797.519,2.0903571138269044,38.24404742543979
3798.3926,2.08533111492821,37.747609947895256
3799.2686,2.0799685104237735,32.602821517425845
3800.1426,2.0738663926509453,35.83341722525018
3801.0188,2.0670881097757743,34.20935831941262
3801.8933,2.0604430395088715,45.50266018618814
3802.77,2.0548958931245997,42.47684810449935
3803.6448,2.0509805367389875,34.541414211848476
3804.522,2.0484019012741577,42.94823588413055
3805.3972,2.0463376212401596,42.79383720056202
3806.2727,2.0438279853223342,37.07393806942728
3807.1504,2.040263168565112,41.16288126903068
3808.0261,2.035895767074563,40.84393160818996
3808.9043,2.032053145731785,37.42594590599018
3809.7805,2.0308418116548217,34.78775285251796
3810.659,2.033975929331596,41.42049870965636
3811.5356,2.041510739912031,46.06925885844501
3812.4126,2.051394827144678,38.18408771293182
3813.2917,2.06031941612363,46.90905500672639
3814.169,2.0652873882930862,37.87615607593635
3815.0483,2.064970858369522,34.051528918815556
3815.926,2.0597493943243554,38.6343674491351
3816.806,2.051099125462664,34.891182033501124
3817.684,2.0410306220160908,36.47751566362429
3818.5623,2.0314568564191315,37.55927973874377
3819.4429,2.0236986475948227,35.80137705962318
3820.3215,2.018140187120265,43.183285400334505
3821.2024,2.0141569865811593,44.46731074720202
3822.0815,2.010778433274809,37.089914578151976
3822.963,2.0073079487873957,37.01798454041811
3823.8423,2.003807649402771,45.20643672845993
3824.722,2.0008564586539537,42.57824250582556
3825.604,1.9988896252928037,38.429112787370606
3826.4841,1.997613634206605,38.86664277951303
3827.3665,1.9961389029689107,43.87344621442102
3828.2468,1.993898850404741,38.184794350517485
3829.1296,1.9913485982512726,44.5123276588079
3830.0105,1.9897254694006492,42.55420304570203
3830.8916,1.9898485213744237,34.788023286157646
3831.7751,1.9911578661221945,38.97934596014837
3832.6565,1.99174643987711,41.28587411228473
3833.5403,1.989418287136702,39.82850980012032
3834.4224,1.982960981763892,41.926571677382185
3835.3064,1.9728175589224326,43.072756950009214
3836.1887,1.9610412133156154,38.46138466706264
3837.0713,1.9503315370601098,38.290670208717074
3837.956,1.9430625462660374,46.130327222512236
3838.839,1.940483491987753,48.86043950111861
3839.7244,1.9422575806519025,41.022327221364996
3840.6077,1.9467487476715704,41.26394004933368
3841.4932,1.9517867247657366,37.31466475378194
3842.377,1.955477231799161,43.02035106427895
3843.261,1.9568745842349313,42.5771768076269
3844.1472,1.9561121374770323,42.646170046946764
3845.0315,1.9542152833730568,45.75720462849281
3845.9182,1.952547018118225,34.29275255503674
3846.803,1.952135332322941,44.43977525245806
3847.69,1.9530365974184136,49.96914315622328
3848.5752,1.9541211949222577,48.40108922248311
3849.4604,1.9535829468456403,39.11039775870471
3850.3481,1.9501199971321175,37.45985561297582
3851.234,1.9440570155427357,52.733340369878476
3852.122,1.9371822816891484,43.63193776268671
3853.0083,1.9315499634613218,54.570601509331844
3853.8967,1.928066574928473,46.06772151014798
3854.7832,1.9263718302558386,39.387672355195235
3855.6702,1.9254905237586404,47.602224787824625
3856.559,1.924619873668929,44.35042133457895
3857.4463,1.923380256525863,46.82918422929034
3858.336,1.921708122368617,39.487317133667425
3859.2234,1.919727712767162,45.74821079119462
3860.1135,1.9175739165661718,46.939137306432215
3861.0015,1.9153059948376552,46.78011169794902
3861.8896,1.9128373847067721,48.58497753061137
3862.7803,1.9100461463311693,44.9818106483166
3863.6687,1.906922841290655,41.868904044091465
3864.5598,1.9035665782096092,41.38771925554569
3865.4487,1.9001948784246907,43.527531949256115
3866.34,1.896957762129285,41.801014870890256
3867.2297,1.8939424353649796,39.87472496853651
3868.1213,1.8911763625667584,47.367661765121404
3869.0112,1.8887595858055422,42.83743601262451
3869.9014,1.8867148603963277,50.00543193226552
3870.7937,1.884714466283709,49.25999961061233
3871.684,1.8819430930875172,44.76600855499187
3872.577,1.8773779806228552,49.300068270053174
3873.4678,1.870571525762368,48.67655943832264
3874.361,1.862181515400866,51.85862595188812
3875.2524,1.854042180942419,54.58915018909227
3876.1438,1.8481324376691903,57.98582372939416
3877.0376,1.845471338122431,48.46352819026789
3877.9297,1.8455705112430865,39.09703434469044
3878.8237,1.8468658906805184,40.664283484103414
3879.716,1.8477271155566581,46.914887090202484
3880.6108,1.847173244362017,55.93530532022882
3881.5037,1.8450048163411785,48.676445131260515
3882.3965,1.841612681332307,41.38179234152492
3883.2917,1.83768011653607,55.06526800557118
3884.185,1.8338562665027769,44.8724153494714
3885.0808,1.83032984152197,53.30194051930026
3885.9746,1.8268399665288166,56.19009003922801
3886.8706,1.8229652582320626,45.96665764141366
3887.765,1.8186882545872778,45.25465741863776
3888.6592,1.8145134860881542,50.6185201515172
3889.556,1.811184091795591,48.78917274588526
3890.4507,1.8091942420052742,47.42274750754809
3891.348,1.808430582432142,42.24559983926822
3892.243,1.8082856025962373,48.17063698837071
3893.1406,1.8079441789636188,59.203923091685006
3894.0361,1.8067117852062116,48.30960541294283
3894.932,1.8042254968870328,44.03735580699023
3895.83,1.800538255299581,44.662856311565214
3896.7263,1.796079836924919,50.28131846950637
3897.625,1.7913628759685323,46.45232199758954
3898.5215,1.7868609869384007,39.35017569097766
3899.4207,1.7828779416732452,45.71044444791275
3900.3176,1.7797254073558093,43.85928622488542
3901.2148,1.7777650840010766,50.518324399656
3902.1145,1.7775498383131911,42.538654777933665
3903.0122,1.779650606589768,43.14270416864824
3903.912,1.784038713112893,56.53885999223433
3904.8103,1.7893732356610366,60.28424316838869
3905.7107,1.7932617407945406,47.41638596150838
3906.6094,1.7935535006464787,42.84217731240085
3907.508,1.7899024346997576,58.798793460827675
3908.409,1.7840032733770175,43.55182164831346
3909.308,1.7785313625211843,56.94683854313316
3910.2097,1.7754457617943373,59.73428659700026
3911.1091,1.7751086401216996,53.72684547006891
3912.011,1.7764183280038,54.266598645390125
3912.9111,1.7778487326663504,52.43633295590591
3913.8113,1.7784465109597227,48.2839718232706
3914.7136,1.7780774200181335,52.93164731051102
3915.6143,1.7770528293257557,47.735341270389775
3916.517,1.7757403908916072,53.65191595100423
3917.4182,1.774504987641034,49.461458429562455
3918.3215,1.7736494958769706,48.64547777544181
3919.223,1.7732009593133737,53.22187248732896
3920.1245,1.77270953299272,44.12397792887926
3921.0286,1.7714265618479348,55.97276971674551
3921.9307,1.768794943115127,54.51497258915272
3922.835,1.7648617494508063,48.014117036575115
3923.7373,1.7604040309204352,52.19988832057521
3924.642,1.7565146291053915,59.21895192272189
3925.5452,1.754121427450372,48.82581894260182
3926.448,1.7534709417678638,51.918190857352755
3927.3535,1.7539979679453062,53.852012987784725
3928.257,1.7544762769728734,49.389312900787544
3929.1628,1.7535306989138881,45.82086813631539
3930.0667,1.7502949606397888,44.41741059521297
3930.9731,1.7447904166454382,51.98583332057344
3931.8774,1.7379201380553757,55.77916918134657
3932.782,1.7309731167108358,59.617853249058506
3933.6887,1.7252462016480146,54.32352217904232
3934.5938,1.7217614672696793,52.47729290879188
3935.501,1.720971024329357,60.28909174461695
