wavl,flux,ivar
3566.9744,1.5452497287204736,247.80239547338164
3567.795,1.5471834390222388,170.8107248292264
3568.6177,1.5494836450312712,197.37564041243155
3569.4385,1.5514882898395963,189.4282562840618
3570.2617,1.5533119192812301,155.1338464361756
3571.083,1.5551856041335885,208.2179588697623
3571.9065,1.5569242736838664,198.31612019320838
3572.7283,1.558000468917633,177.87056647332818
3573.55,1.5582118492933683,225.0656015383125
3574.374,1.5581028603910205,158.99755522253005
3575.1963,1.558731926756472,210.45868005889287
3576.0208,1.5609100385849817,223.31295819249976
3576.8435,1.564447251606348,171.89046701283965
3577.6682,1.5680426385688535,213.45628800225728
3578.4915,1.5698815716197396,170.5482388732373
3579.3145,1.5687373898653607,168.78610303420174
3580.14,1.5646045146392418,185.751364159384
3580.9636,1.5586471560882298,268.8294573451012
3581.7893,1.5524944803197898,193.29989641423526
3582.6133,1.5476719466174453,220.5800098587228
3583.4395,1.5449977410071383,214.10851328978896
3584.264,1.544332762162284,232.4922274605087
3585.0884,1.5446319125654016,427.9508938366418
3585.915,1.5447007645901198,273.15808064657864
3586.74,1.5440729561402025,170.06843581964569
3587.5671,1.5432443953165635,175.75826794100516
3588.3923,1.5430745238616808,231.17515838121582
3589.22,1.5439981696850462,207.8367697732846
3590.0457,1.5457113889994512,199.84060446768834
3590.8716,1.5473601143485807,200.28828033012653
3591.6995,1.5479725437451202,226.55039415846508
3592.526,1.5470076702193054,175.39890508654528
3593.3542,1.544665628983397,210.94070044031827
3594.181,1.5415475947265254,234.87539855849633
3595.0098,1.5379101716756043,252.11316045207244
3595.8367,1.533614919009607,187.51445566599017
3596.6638,1.528805670335256,210.92982398798856
3597.4934,1.524494660863269,211.89097706500658
3598.3208,1.5220625860356372,172.35144034504918
3599.1506,1.5220394545025562,177.12723009461422
3599.9788,1.5236142494365015,194.34086558707216
3600.8088,1.5251311230224531,185.0736791072188
3601.6372,1.5250857907602908,172.86772237472834
3602.4678,1.522918110901148,253.19584881743606
3603.2964,1.5191828610927252,268.1439204884191
3604.1252,1.5149937202749062,192.47445972893615
3604.9565,1.5112294523209293,251.11918154490266
3605.786,1.5082355991853995,199.27211721770456
3606.6172,1.506189465933898,154.97978850328036
3607.447,1.5056610262675116,246.7837890577735
3608.2788,1.5072999546111228,181.5658736658356
3609.109,1.5109334779588695,226.29178599411847
3609.9392,1.5151274205366678,229.27949562938625
3610.7717,1.5178728329288367,188.1260099271406
3611.6023,1.5179202201573538,239.81787732623266
3612.435,1.515593386721608,185.99909379638203
3613.266,1.5122431933646228,221.41288456359143
3614.0994,1.5089374749288422,246.55844341730455
3614.9307,1.5058257354226163,183.87271705071788
3615.7625,1.5025517655864442,221.17088977941305
3616.5962,1.4991095399040584,246.88045072897492
3617.4282,1.4960103969960634,198.9502302918245
3618.2625,1.4936895163703012,165.40433205277398
3619.0947,1.4921016955801885,210.6760789355657
3619.9292,1.490787727226221,198.41100713148157
3620.762,1.4893413807084592,187.71107411425336
3621.595,1.487595068320078,250.84035764390538
3622.4302,1.4854108813604772,185.10235097592306
3623.2634,1.4824261554617582,290.5699261245374
3624.0989,1.4781757975714291,201.428906057301
3624.9326,1.472713954276564,322.5320625927683
3625.7686,1.4669261694331461,213.58918729515946
3626.6028,1.4624417533032064,201.3786317938986
3627.437,1.4608503203651675,286.2755000324504
3628.2734,1.4628294091948608,190.91812439434773
3629.1082,1.4673485840320029,239.04938338863371
3629.945,1.4717934234658208,198.35470473066547
3630.78,1.473226362776608,218.72190685275035
3631.6174,1.4702394221092197,256.75224994014286
3632.453,1.4636492055040689,264.3156343969736
3633.2883,1.4553671643801942,175.992960303885
3634.1262,1.4466239595133326,200.13542291878065
3634.9622,1.4374521287760575,323.77694043525776
3635.8005,1.4275197333298006,246.4148027498872
3636.637,1.4176434968975191,267.8575817369839
3637.4756,1.4097272524087618,310.1887556832917
3638.3123,1.4057640533087636,223.8184191601765
3639.1492,1.4063502824346665,262.4806269343594
3639.9885,1.4103604144589086,194.73029591653716
3640.826,1.415475344814985,223.73020637847094
3641.6653,1.419342960794851,270.8916671792844
3642.5032,1.4204784113628313,262.861699963763
3643.343,1.4188344316468189,338.01277506766553
3644.1812,1.4156377631289287,260.9477533221133
3645.0195,1.4125684651835189,220.15896491650648
3645.86,1.4107722055291128,247.41034438323632
3646.699,1.4104133911455068,234.02517463196048
3647.5398,1.4110315800316582,200.32709267143827
3648.379,1.412253252028792,273.9848266145416
3649.2202,1.4140099960103911,204.94417183923076
3650.0596,1.4160510585555206,249.25706488038674
3650.8994,1.417493807742533,204.41759873274356
3651.7412,1.4170422682380608,247.62952515341004
3652.5813,1.4139045865397453,201.77618945139125
3653.4236,1.4085456051198049,215.63578256719663
3654.2642,1.4026804641854453,210.7774220936185
3655.1067,1.398325200465694,263.5674627606696
3655.9475,1.3968418652533705,177.4904975054671
3656.7886,1.398371123811143,373.846262690244
3657.6318,1.4021884047069937,344.98612583319334
3658.4734,1.4073938142671765,186.69937128135717
3659.317,1.4134803459707583,313.6587256060307
3660.1587,1.4200462684095176,225.83310158091967
3661.003,1.426297269691248,246.95929606921305
3661.845,1.4308046834299586,194.42781776509221
3662.6875,1.4324401356739294,200.29941379664288
3663.532,1.4313364699418278,181.96887368734062
3664.3748,1.429012531749875,252.66692099570292
3665.2197,1.4272726265115188,229.08376496392228
3666.063,1.4270396235567009,202.7257307642636
3666.9084,1.4280481300542358,205.9752744053075
3667.752,1.4294228439720038,254.84791191125595
3668.5977,1.4303876302996874,230.46193154440047
3669.4417,1.4305822296647008,297.79897477653344
3670.286,1.430079905502609,200.88625879377398
3671.132,1.4292505132199433,221.27741418782782
3671.9768,1.4285884958007864,196.91150657668777
3672.8235,1.4283957224868633,220.60139079197523
3673.6685,1.4284176660247023,231.09569026130012
3674.5156,1.4277194846300216,209.51686414842644
3675.3608,1.4251061615304423,305.7738870185061
3676.2063,1.4198745691366084,225.46281301615164
3677.0542,1.4123656244022393,232.3347897637153
3677.9,1.4040620008884137,234.2472508979685
3678.748,1.3969114943774317,240.39403553636447
3679.5945,1.3926208370489985,242.1589921522182
3680.4429,1.3916544784294427,313.35071923287853
3681.2896,1.3929852025530034,249.85423565157544
3682.1365,1.3947626811594667,207.17896026105691
3682.9856,1.3956540514638296,363.4392070375923
3683.8328,1.3956366863938434,208.4402902078197
3684.6824,1.3955632908521087,359.6557884666883
3685.53,1.3960327695321126,216.78924755219808
3686.38,1.3967970025323186,250.99860867260134
3687.2278,1.3971724601358582,229.29903612346138
3688.0762,1.3969052037022391,185.92854518545738
3688.9265,1.3965540873856974,199.1128840416452
3689.7751,1.3970530177469516,235.0013879486901
3690.626,1.3988355303991338,314.35215043899495
3691.475,1.4013168466036992,193.62872345599197
3692.3264,1.403280993320394,257.62880986510515
3693.1758,1.4038107563818365,259.3102903356439
3694.0254,1.4031060904346873,248.9898560888546
3694.8772,1.4024269442947614,293.4840517465511
3695.7273,1.4032861600630453,252.1254620309862
3696.5793,1.4064816156555273,247.37044213323176
3697.43,1.4116437558891557,241.965519783308
3698.2825,1.4174977429083901,259.33425626518925
3699.1333,1.422308933905294,236.56596818619158
3699.9841,1.4245254760114192,358.66418002158144
3700.8374,1.4232949712513705,201.47374342431578
3701.6887,1.418977615426687,306.71940977049064
3702.5425,1.4131250201627195,234.89111663050048
3703.3943,1.407885881511729,195.97422982917885
3704.2483,1.4048876289671104,256.54902588574765
3705.1003,1.4045971641114312,228.462564858562
3705.9526,1.4062365413064537,234.18006241069992
3706.8074,1.4083832456271894,238.94020776107806
3707.66,1.4097100650605854,296.1181402758675
3708.515,1.4096395420713324,252.9276931053845
3709.3682,1.4084542836984797,219.44926952628745
3710.2234,1.4068614282846683,265.8881860883813
3711.0771,1.405407343109968,254.17669701958502
3711.9307,1.404280691921155,249.34217707863905
3712.7866,1.4035779859248567,280.6402079218075
3713.6409,1.4034479624337488,233.7457544583403
3714.4973,1.4038193707468651,209.54999222973393
3715.3518,1.4041606652235383,225.04936159516595
3716.2085,1.4037712751887252,308.55208584935053
3717.0635,1.4024595743341943,227.34644635098465
3717.9185,1.4008942587327162,188.305388302341
3718.776,1.4001451073591515,333.02898756453146
3719.6313,1.4007223182408077,194.2396428102119
3720.489,1.4019386652222146,245.10812631652266
3721.345,1.4021980036680728,225.9844436780195
3722.2031,1.40000273519039,380.9620223960203
3723.0593,1.3949557349577182,293.11542973373724
3723.9158,1.3880755560220661,213.73017855757746
3724.7747,1.3813059083913857,278.946747645678
3725.6316,1.3765479323304568,278.92277395353346
3726.4905,1.3745984035869059,231.68556705267343
3727.348,1.3749522533151077,235.2838778235982
3728.2073,1.3762624877216407,251.86262757890552
3729.065,1.3771983818260942,218.06374322238466
3729.9229,1.3770759997551894,185.42233766435479
3730.783,1.3759124074317177,227.1700641972222
3731.6414,1.374098145344091,192.74342657108264
3732.5017,1.371992886389845,306.681231523216
3733.3604,1.3697922833419278,244.8937198968416
3734.2214,1.3675287384070336,301.45153750937004
3735.0803,1.3651668445482628,251.6900381372409
3735.9417,1.3625343331815953,250.87662240259343
3736.8013,1.359381184982476,313.80686461394754
3737.661,1.355545313927972,349.7882852458455
3738.5227,1.3513203305665635,280.5146878377923
3739.3828,1.3476483844928844,242.4814298477573
3740.245,1.3457145095523735,316.8007775397679
3741.1055,1.346307038300897,247.97101491012427
3741.9683,1.3492583528961613,266.9867660698747
3742.829,1.3534661822011134,374.89294416950366
3743.69,1.357480471135971,288.99011397846084
3744.5532,1.3601032812011158,221.33532108753084
3745.4148,1.3606690625291515,234.63456383347594
3746.2786,1.3590806923126886,242.28753799942837
3747.1404,1.3557501447497369,331.03845932434797
3748.0044,1.3515396624244596,210.1583264228713
3748.8667,1.3476114232979546,235.65780084076684
3749.729,1.344923722718225,304.71723670577614
3750.5938,1.3438656880918824,256.711915494491
3751.4565,1.344248065336158,246.33649554867443
3752.3215,1.345656916531869,318.86608294745906
3753.1848,1.347785005100456,303.2632055013451
3754.0503,1.3504032635950658,208.96746485529414
3754.9138,1.3530170744482897,259.33324078984634
3755.7776,1.3547988363494667,242.52728190730548
3756.6438,1.354893286041487,234.5937213511862
3757.508,1.352965576252688,198.50605617713163
3758.3745,1.3494787665199164,244.71333435967836
3759.239,1.3455057784699527,318.059117702066
3760.106,1.3421064062367245,321.21206107486444
3760.971,1.339889456953515,272.70041655940906
3761.8362,1.338839168190247,259.5766842073439
3762.7036,1.3386284057206008,319.52828693740565
3763.5693,1.338944165743828,320.44284260746315
3764.437,1.3395571683334202,231.55698077705296
3765.3032,1.3400964191690408,286.6200071575145
3766.1714,1.3398541080351398,340.7416295214807
3767.0378,1.3380084982381202,256.3519989695976
3767.9043,1.3342977588289515,249.20024018233306
3768.7732,1.329513582648291,272.56124716087123
3769.6401,1.3251887309412491,326.01402598267475
3770.5095,1.322437476565632,364.31151067503066
3771.377,1.321326087894637,241.81207459884467
3772.2466,1.3211936197027783,263.84832705230133
3773.1145,1.321563875272121,393.270214739096
3773.9824,1.3225106991495454,256.73735615448606
3774.8528,1.3243456194968113,252.83316607369002
3775.721,1.327129893776944,316.73801904357344
3776.5918,1.3305002826185186,256.2301873420603
3777.4604,1.3336778913345395,247.47881826916654
3778.3315,1.3359125989485285,333.7364241055562
3779.201,1.337035017549939,343.8896386896428
3780.0703,1.337785445440133,257.1594303693068
3780.942,1.3392062102995352,316.0721936067363
3781.8118,1.341604346790881,318.2138771742607
3782.6838,1.3442965273176852,204.57348956910857
3783.554,1.346455272984605,199.62106555384855
3784.4265,1.3481311317158586,307.9318726843147
3785.297,1.3500721378686003,271.2669872500743
3786.168,1.3527038959583646,277.0457631957861
3787.041,1.355414854963687,243.3131697578072
3787.912,1.356901450793512,338.9433857712271
3788.7856,1.3561628899848832,241.13224412583781
3789.6572,1.3531265714623568,240.36006882309383
3790.531,1.3485506597641668,319.9898737752309
3791.403,1.3434881796364493,271.77881544540264
3792.2754,1.3386580701400745,256.9330748183017
3793.15,1.334320927895573,286.4130655308359
3794.0225,1.3305091651164684,245.25390572484605
3794.8972,1.3270931932590118,302.9959768122842
3795.7703,1.3237267375103183,267.02240179202647
3796.6455,1.3197464478628056,211.78285924891907
3797.519,1.3146614981014968,327.8191880162965
3798.3926,1.3086780604741515,268.0796239560641
3799.2686,1.3027964241159122,366.9790596437876
3800.1426,1.2983334624604579,381.9140044481477
3801.0188,1.296244628278878,270.5757713294212
3801.8933,1.2970288539945256,295.14172253999055
3802.77,1.3007439158505192,239.180333310994
3803.6448,1.306921349689499,304.403116528932
3804.522,1.3145831213719381,272.15950363797197
3805.3972,1.322438082546877,285.7508278824003
3806.2727,1.329575420822637,250.51012729589615
3807.1504,1.33569392322333,247.84290935339945
3808.0261,1.340813216258202,299.77917577276395
3808.9043,1.3449187159017777,223.62174597484847
3809.7805,1.3477651510618693,269.0105807108367
3810.659,1.3492822841268255,274.6765578339587
3811.5356,1.3497573706308537,279.50593874574906
3812.4126,1.3496019529320697,231.88135272181262
3813.2917,1.3488640488682409,276.51344074593334
3814.169,1.3472252885891518,231.35299789487672
3815.0483,1.344521826298191,267.8055690285305
3815.926,1.3412099332323117,281.4302520509282
3816.806,1.3381064693937632,233.75670980919625
3817.684,1.3358280749404172,256.11734085913326
3818.5623,1.3343660003377065,332.9791863631127
3819.4429,1.333209774177289,292.81964918098913
3820.3215,1.3317074356472407,212.63170663258936
3821.2024,1.3293764097708547,341.96898814039497
3822.0815,1.326116873312465,328.8362631790756
3822.963,1.322185270111181,252.45378035737707
3823.8423,1.3181269386042933,278.3384980199359
3824.722,1.3144534528199272,259.66456807051304
3825.604,1.311327686177618,258.0544136039085
3826.4841,1.3083677393705135,289.9700910132481
3827.3665,1.3047596803384178,241.0840947673243
3828.2468,1.2998155982638087,296.5068287938502
3829.1296,1.2932879406421747,303.3114098142397
3830.0105,1.2854400491406877,291.24284040589293
3830.8916,1.2766804457576173,285.890154084443
3831.7751,1.2675332094737548,304.64025614741325
3832.6565,1.258869492608133,271.3699165573855
3833.5403,1.2517031847105122,343.03761309265866
3834.4224,1.246895410417577,275.65996750113777
3835.3064,1.244519910157308,301.7421996552742
3836.1887,1.2439711085728113,275.34284268168574
3837.0713,1.2444595282335278,297.1101660394027
3837.956,1.245517639668323,388.8609693784352
3838.839,1.2470262130092509,271.1753020166628
3839.7244,1.2490833461973583,280.6065793556391
3840.6077,1.2519663515536081,297.05258958944717
3841.4932,1.2561754508974692,315.10607699645254
3842.377,1.2621115289455809,388.2997003588919
3843.261,1.269766078481144,254.31058293856177
3844.1472,1.2786542869433206,361.10022178549394
3845.0315,1.288009223801434,381.7010063300677
3845.9182,1.2971285484692352,247.31240994145912
3846.803,1.3051670434663902,263.642950596627
3847.69,1.3113822963211,221.1191935228766
3848.5752,1.315411385454057,287.7951330740867
3849.4604,1.3177866721292977,243.3506038106219
3850.3481,1.3197403633735767,290.0305079357217
3851.234,1.3225045028768607,340.583354273445
3852.122,1.326684516001257,279.2697713498569
3853.0083,1.3320605325113763,235.8887734532321
3853.8967,1.3379785382260816,321.12618825224206
3854.7832,1.343624567983921,247.54158108375563
3855.6702,1.3483638541340845,279.5545492709367
3856.559,1.3518777529865453,261.65869261284934
3857.4463,1.354276105525055,288.1215162956866
3858.336,1.3560133710377653,269.82257617611845
3859.2234,1.3574674704303646,320.47213648114683
3860.1135,1.358646703830381,231.8110930762299
3861.0015,1.359158561804585,262.07653883520373
3861.8896,1.3585570898199057,282.41668775625226
3862.7803,1.3566552353186465,293.0704736596616
3863.6687,1.3535839751904124,308.91507962094215
3864.5598,1.3495199136862457,312.66276149246835
3865.4487,1.3446408650771309,260.8381321151358
3866.34,1.339230902335572,244.712212325238
3867.2297,1.3339043580541863,286.91242796923433
3868.1213,1.329190077308015,246.83123043168206
3869.0112,1.32508652904249,291.8758218904712
3869.9014,1.3208927036154074,292.4059144042162
3870.7937,1.3157986621423037,259.3379072330632
3871.684,1.3096652014600354,278.674762827416
3872.577,1.3031774072080797,288.21391348824704
3873.4678,1.2974927895191002,266.22799829378283
3874.361,1.2933633609435897,317.691213413966
3875.2524,1.2907076947164589,264.93407369970726
3876.1438,1.2884766282163356,305.7328080301578
3877.0376,1.2851216123776552,269.2776655268986
3877.9297,1.2794298998698277,247.79152082787462
3878.8237,1.271194615896682,368.54521268411236
3879.716,1.261314648751297,307.44082664037415
3880.6108,1.2508483554048921,257.25533207425417
3881.5037,1.2403068086786102,302.0522692790963
3882.3965,1.2293519949122018,293.5592900171491
3883.2917,1.2174716500936622,357.11571791019514
3884.185,1.2047338434644128,396.57458297894163
3885.0808,1.1916682874565103,429.77616173853613
3885.9746,1.1790691082724345,397.7242438435778
3886.8706,1.1672914207332132,353.34657233711937
3887.765,1.1564602369559265,389.2328888002479
3888.6592,1.1466728990177977,363.9575247324429
3889.556,1.1384339112177675,419.5355838409314
3890.4507,1.1326381167249202,480.79107400666146
3891.348,1.1299900607994942,360.69697244981387
3892.243,1.1307475075232916,349.96014450412076
3893.1406,1.1347234945371347,371.9268489804044
3894.0361,1.1415424559860663,322.316428901241
3894.932,1.1508014204635353,324.79187965453093
3895.83,1.1619571949179794,386.66159747696247
3896.7263,1.1742341531478164,311.7532569977389
3897.625,1.187166213402181,399.3341824348847
3898.5215,1.2007492808582434,283.81500017063075
3899.4207,1.2156565277301237,377.9134586475361
3900.3176,1.232335225727943,351.70765984089843
3901.2148,1.2506059272706906,336.6267316324511
3902.1145,1.2693864710583984,303.5894839450506
3903.0122,1.2869983139236765,250.7151148222658
3903.912,1.3021450007162703,294.960001061794
3904.8103,1.314060830185262,233.3196077744727
3905.7107,1.3229212736423988,256.16721262857993
3906.6094,1.3295545406903015,293.15712435419744
3907.508,1.3353007119722233,235.6873286571061
3908.409,1.3414756945711614,239.0701707167377
3909.308,1.3488895958549998,274.54830455849435
3910.2097,1.357810049618835,220.485991206547
3911.1091,1.3680204612190734,286.62766014207773
3912.011,1.3792664120102816,222.28594903122115
3912.9111,1.3911051093878948,228.52419566913156
3913.8113,1.4029135658666767,255.65047249800307
3914.7136,1.4137005158370453,216.18508204761636
3915.6143,1.4222474189751009,215.8733352795115
3916.517,1.4278427835602028,211.394543822107
3917.4182,1.4306851430881027,206.72209664868856
3918.3215,1.4319766172991826,228.67656367091868
3919.223,1.4332232777364937,229.02697115306628
3920.1245,1.4354945628852638,229.53335391918398
3921.0286,1.4390883625208895,228.3819661734202
3921.9307,1.44369894918366,218.19699913369965
3922.835,1.4488542663113473,229.29406480294386
3923.7373,1.4539800853502,219.21221274636451
3924.642,1.4583761499076915,214.52056600619903
3925.5452,1.4611111964023076,215.51971484653686
3926.448,1.4614800820999072,234.74812039231392
3927.3535,1.4594902519366015,218.32454582785354
3928.257,1.4560220432345692,243.15988926780747
3929.1628,1.4523385834149054,226.25221875969322
3930.0667,1.4495482194373805,214.14222659989903
3930.9731,1.4482475030905786,248.9328609896265
3931.8774,1.4484822762706246,237.49077607238564
3932.782,1.449692294568157,289.86696267689155
