wavl,flux,ivar
3566.9744,13.290054371759165,34.61929363174867
3567.795,13.278190920657861,34.57422376989552
3568.6177,13.255874070044685,34.6131288116254
3569.4385,13.226210426866972,35.62788212193907
3570.2617,13.196698544047269,32.789215360973955
3571.083,13.176358721621153,36.638223051315265
3571.9065,13.1704207563453,36.124725102719225
3572.7283,13.177991439434635,37.25669244938059
3573.55,13.193121376577576,36.56976098599035
3574.374,13.208723785544985,35.10619978193378
3575.1963,13.21965185746783,35.05879692374067
3576.0208,13.224071187821238,37.19570849162605
3576.8435,13.222840586277451,38.83852618929602
3577.6682,13.218756117424807,37.16471586550514
3578.4915,13.215339270559866,35.45010985716895
3579.3145,13.214811547138181,35.860630575739336
3580.14,13.21607060781091,36.83455038987244
3580.9636,13.214457982373267,34.97362682244499
3581.7893,13.204512254160775,32.812299960745094
3582.6133,13.184097142319578,33.80690628946614
3583.4395,13.156090587067618,36.451071820169915
3584.264,13.126750423052568,38.956770615676426
3585.0884,13.101334871836134,36.52302080182636
3585.915,13.081832998105883,35.371655703399725
3586.74,13.06765607477548,35.64062932426321
3587.5671,13.05743915994589,35.51170958618643
3588.3923,13.050512366764355,35.64166883220541
3589.22,13.046141721977092,37.549463842881956
3590.0457,13.042878695855714,36.10614345412749
3590.8716,13.039083399865897,36.123933682417054
3591.6995,13.03444929044053,36.20744282643937
3592.526,13.030276927109472,38.33107377305885
3593.3542,13.027791501235363,37.66359931424607
3594.181,13.026517811507857,36.3981845484681
3595.0098,13.02426149343039,37.78238414252277
3595.8367,13.018636557496569,35.86898371662927
3596.6638,13.008552943980614,36.653602076371754
3597.4934,12.994796919710874,37.44828177855697
3598.3208,12.979663408821612,37.76438798610206
3599.1506,12.965347963366913,35.38260398761511
3599.9788,12.952926721294862,36.22295240672187
3600.8088,12.941592372274279,34.454930493009506
3601.6372,12.929545741936396,37.84651359875695
3602.4678,12.915189979638857,37.958520206264176
3603.2964,12.898688256906917,37.340918056239744
3604.1252,12.881987825472638,39.333645973380044
3604.9565,12.867884123286569,39.08405671986704
3605.786,12.85853677923187,37.39163930962909
3606.6172,12.854214506930832,36.527177867181784
3607.447,12.853385859287991,37.84989850672163
3608.2788,12.853011044189905,36.5338250861983
3609.109,12.849202608328515,36.73068491669853
3609.9392,12.83831636969986,35.822047316239
3610.7717,12.818450434681266,40.13310123766837
3611.6023,12.790773489379715,35.422382589091974
3612.435,12.758756585194874,38.74413434156184
3613.266,12.72691743455625,37.38683497672736
3614.0994,12.698551240922413,38.508725688138576
3614.9307,12.675930307837604,38.92733576466975
3615.7625,12.660508559534541,38.122697710359105
3616.5962,12.653589187633086,35.92109372968528
3617.4282,12.655388535095746,42.31978525681868
3618.2625,12.66375929377381,38.69726655462424
3619.0947,12.674297225251948,40.26888916767572
3619.9292,12.682409324182379,38.729358865938536
3620.762,12.685486631113132,38.282273052267065
3621.595,12.683909409134824,37.066145175476755
3622.4302,12.67992252796294,37.59728276567648
3623.2634,12.67588604562913,40.857887265516126
3624.0989,12.672890842608997,40.46721154980043
3624.9326,12.670439191521497,39.771144741716526
3625.7686,12.666569819507886,39.06917183120287
3626.6028,12.658563631048297,39.32984916854455
3627.437,12.644392036954985,36.16224281346279
3628.2734,12.624857636550146,37.660692077173785
3629.1082,12.604886977132663,40.11266994550976
3629.945,12.591243831755234,39.9813950494043
3630.78,12.588219405686138,40.678506895926205
3631.6174,12.593658971668615,40.00664091328855
3632.453,12.59972575789451,39.448677072290465
3633.2883,12.598097770607705,37.980135532646834
3634.1262,12.58527762130706,40.50019829415332
3634.9622,12.563793810806965,39.32284278327089
3635.8005,12.538153223490161,41.75071972673345
3636.637,12.510973918775823,40.54074574604711
3637.4756,12.481967922460656,39.1301146921753
3638.3123,12.451270771665428,40.43055979450708
3639.1492,12.421264563846119,41.60855935389692
3639.9885,12.396347288539543,40.229865805888025
3640.826,12.380747235524124,38.79476213482222
3641.6653,12.375972384151096,42.33286607244438
3642.5032,12.38046763790985,40.185290728702086
3643.343,12.390511299597483,39.484026741174674
3644.1812,12.402130136992621,37.02067262437489
3645.0195,12.41282892625422,38.866718206906114
3645.86,12.421713912771686,40.17473191843487
3646.699,12.42835022765725,40.82165472185333
3647.5398,12.431807479627686,42.29456397623999
3648.379,12.430573544893225,37.33320872066874
3649.2202,12.423478276757244,37.66604311920879
3650.0596,12.41046200007527,39.31024047900422
3650.8994,12.392733889997281,38.95478835541713
3651.7412,12.372963229077545,40.84586478668645
3652.5813,12.355198210840001,42.98859460508441
3653.4236,12.343073819324642,40.3810270665541
3654.2642,12.337671677639277,40.532795437431
3655.1067,12.336034135479874,42.01443888495848
3655.9475,12.332816670569938,40.8509289612376
3656.7886,12.323724087262256,41.731661949940424
3657.6318,12.308353312712791,40.21185542549793
3658.4734,12.290681528038713,40.04582655557374
3659.317,12.27646730252361,40.23971158215353
3660.1587,12.269947307854936,41.34648462249839
3661.003,12.271071347962128,43.60038235681266
3661.845,12.275761921088243,42.73612558973848
3662.6875,12.278605710871044,40.13077078507965
3663.532,12.275995435522134,40.97252430794167
3664.3748,12.267639049315235,40.59444343420497
3665.2197,12.255765357138701,41.809144350265825
3666.063,12.243318071429492,41.47115508521657
3666.9084,12.231855974462748,40.0345937146758
3667.752,12.22089324701057,40.26520421348311
3668.5977,12.208395943192777,39.54057105776927
3669.4417,12.19287803420722,43.26664307099296
3670.286,12.174638664945498,42.35746302121537
3671.132,12.15559658298679,42.03100670467759
3671.9768,12.138003818839854,42.77208061595415
3672.8235,12.123193056137355,38.256730896917105
3673.6685,12.112035065082228,43.51510046520986
3674.5156,12.10528802943689,40.36871147582366
3675.3608,12.10378278556926,43.3446534570001
3676.2063,12.107635730193158,43.728082160107554
3677.0542,12.115746826239283,43.29061547370247
3677.9,12.125682185403916,42.582075663197664
3678.748,12.134499036278433,46.24357976948267
3679.5945,12.139495672356666,41.930737598715986
3680.4429,12.139128610657792,41.68025699982576
3681.2896,12.133314480941063,43.648271106662015
3682.1365,12.123283460001913,40.897041971662496
3682.9856,12.110820146224421,42.82446614287389
3683.8328,12.09756893524177,40.31532975928537
3684.6824,12.084636678350028,41.86200353804716
3685.53,12.073419931599435,44.89130062255581
3686.38,12.065743225515037,41.23400131558929
3687.2278,12.06346723611639,43.3993256157632
3688.0762,12.06719708454328,42.958595305535184
3688.9265,12.075776657599386,40.93388836195405
3689.7751,12.08653077421423,43.879602617348176
3690.626,12.096297045604215,42.04892860432586
3691.475,12.102206987151849,44.441138226999335
3692.3264,12.102689749873578,41.27105874511338
3693.1758,12.097998033668201,40.93585342696719
3694.0254,12.090244603149802,42.22868343716695
3694.8772,12.082447394373956,43.446028941530344
3695.7273,12.076953462854553,43.20896364391859
3696.5793,12.073809420032271,42.49656240866577
3697.43,12.070607633201103,43.53655917884426
3698.2825,12.06381565828658,41.20009003897392
3699.1333,12.05114044071847,45.113959732723195
3699.9841,12.03318590981224,42.804476147077295
3700.8374,12.013583504720316,40.4050842855391
3701.6887,11.997561044831642,41.20525532433724
3702.5425,11.988891340953813,43.954785316236034
3703.3943,11.987867159518453,41.87947548518635
3704.2483,11.990737263784162,42.61245114495276
3705.1003,11.991778361961588,42.490868300562525
3705.9526,11.986504421849467,43.52304680051549
3706.8074,11.9738744509134,43.3675674686029
3707.66,11.95645823142418,43.16229437322417
3708.515,11.938192050510263,46.67276440755813
3709.3682,11.922361649162461,42.399784349390856
3710.2234,11.91013535359883,45.315306626270946
3711.0771,11.901194636631184,45.58101165465348
3711.9307,11.894617537885713,44.92782614444697
3712.7866,11.889890286295348,44.42616901053027
3713.6409,11.887307179331712,43.47955064207735
3714.4973,11.887473613283737,47.84043389220878
3715.3518,11.890257178194581,45.31812053026221
3716.2085,11.89400626790635,45.63075791011463
3717.0635,11.89608526262839,41.09719513435166
3717.9185,11.894450354466237,42.202179731436914
3718.776,11.888467993071076,45.09593238478648
3719.6313,11.878555223296075,41.72525580676526
3720.489,11.865257073043626,41.172806606403924
3721.345,11.849296169256663,45.126506493919095
3722.2031,11.831704298026096,43.01339315533277
3723.0593,11.814264053824695,41.00841411501461
3723.9158,11.79881080669016,43.500778601246715
3724.7747,11.78648105720038,44.78137712194912
3725.6316,11.776976653034783,44.49814579293368
3726.4905,11.768555886999424,42.506373565710334
3727.348,11.759582293004016,43.47657495009097
3728.2073,11.749675867485502,42.531165803209475
3729.065,11.739841311936381,45.367840958815705
3729.9229,11.731192960546025,45.69225287459438
3730.783,11.724137539638239,43.72957208838776
3731.6414,11.718556184066895,45.755504639085586
3732.5017,11.7143847385199,46.0497317462818
3733.3604,11.712005328178837,45.64129809775171
3734.2214,11.71190425776348,44.81167933888081
3735.0803,11.714502261906238,44.9373864868759
3735.9417,11.720365718864178,43.89148075210918
3736.8013,11.730060002934717,47.282382382798545
3737.661,11.743091373422729,46.82492436702032
3738.5227,11.756571964063573,45.603803974748004
3739.3828,11.765558350872531,43.37399389459551
3740.245,11.766077167520775,42.57364201421129
3741.1055,11.757989384836478,45.28267535089681
3741.9683,11.745217773791055,42.83663743415309
3742.829,11.732985796336909,46.4637537290315
3743.69,11.724140723195795,47.80424230678926
3744.5532,11.718040910054512,44.73541175422191
3745.4148,11.712180661112658,44.38803661993849
3746.2786,11.704565447548136,43.451582717409515
3747.1404,11.694926286529029,45.89147595664978
3748.0044,11.683966543819707,43.59595902051679
3748.8667,11.672752850225722,43.90675824477452
3749.729,11.66258836471338,44.87932590224487
3750.5938,11.655349143184358,46.54308498842631
3751.4565,11.653022315051098,47.32018597092722
3752.3215,11.656296471763497,42.58970801602087
3753.1848,11.663483800593074,45.248511630956735
3754.0503,11.670751691221913,47.33054073152979
3754.9138,11.673876882913383,42.610062561272635
3755.7776,11.670775074173228,43.12679006916265
3756.6438,11.66251053449682,44.5348907459009
3757.508,11.65239458200111,45.61974495137157
3758.3745,11.643693084833442,45.23678080824209
3759.239,11.638202053139802,47.0340358273089
3760.106,11.635754923096307,45.3843096171528
3760.971,11.634756058514766,46.38000594509299
3761.8362,11.6327820353673,47.56047784412215
3762.7036,11.62748700399147,44.65558163376314
3763.5693,11.61779484019016,44.493818512080956
3764.437,11.604572487928062,47.133418014009976
3765.3032,11.590368546631085,46.58092863427444
3766.1714,11.57772107406514,45.90744286805236
3767.0378,11.567775735520897,46.88845013781564
3767.9043,11.559431658951157,46.97669726347298
3768.7732,11.550058390466898,44.32876573622041
3769.6401,11.537311632697278,46.45027753721206
3770.5095,11.52092058572052,46.32058963642447
3771.377,11.50372718042323,47.732048546573644
3772.2466,11.49005326251041,49.57472845691333
3773.1145,11.483246512263012,47.35391541119344
3773.9824,11.483274762405216,48.06517484568128
3774.8528,11.48676979786196,46.472236466588534
3775.721,11.48884294930822,46.72897019487672
3776.5918,11.486008433442374,45.731756997593244
3777.4604,11.478817022936271,47.31234194045487
3778.3315,11.472584897393018,48.77683780602633
3779.201,11.474903518477525,48.993942961019854
3780.0703,11.490432135063863,47.401041681238624
3780.942,11.517378253645383,48.355119055279694
3781.8118,11.548206504066801,46.790398230885614
3782.6838,11.574593213747647,44.70667421260035
3783.554,11.590746687977376,46.32323599651375
3784.4265,11.594516165931823,48.48789603582873
3785.297,11.586025322602014,46.217603936663274
3786.168,11.5671992946981,47.023030774521054
3787.041,11.541640253916873,47.01777122107183
3787.912,11.514081193832371,47.702957332810094
3788.7856,11.487920010587116,46.5164238946886
3789.6572,11.46420792929642,46.54867936719298
3790.531,11.441753874298342,47.96206883478738
3791.403,11.41959298916393,48.56916643744428
3792.2754,11.39771987263794,50.366920020914264
3793.15,11.376508321264167,47.363180262918696
3794.0225,11.35564120513386,49.88447488930777
3794.8972,11.333733050974091,46.51576777595519
3795.7703,11.309933176574779,48.58030135702182
3796.6455,11.284708879323853,49.1659553392452
3797.519,11.260518412506022,52.347780345360405
3798.3926,11.240841206369913,49.56105490253525
3799.2686,11.229459857659045,48.013461406032754
3800.1426,11.229448603770111,48.16046637715624
3801.0188,11.24187363029143,51.68674185490488
3801.8933,11.26518125387136,50.08425538126699
3802.77,11.296044537737085,49.41161942266767
3803.6448,11.330624466629507,48.71241298778198
3804.522,11.36644865017248,47.97262922538481
3805.3972,11.401768432725662,49.801481888253754
3806.2727,11.435425542295382,46.06886700657307
3807.1504,11.46629589711623,46.97452641518069
3808.0261,11.493592406874113,46.23746949700322
3808.9043,11.517630454155706,46.59480850070664
3809.7805,11.538698707742334,46.15812595538334
3810.659,11.556816466936226,47.729038705214045
3811.5356,11.571542131634725,45.79152254956722
3812.4126,11.58319994832934,43.9485712536099
3813.2917,11.59300309746428,45.902829349330965
3814.169,11.601979522455174,43.99679724759462
3815.0483,11.609819709950639,47.94588615876671
3815.926,11.614539098805771,46.57283903266705
3816.806,11.613595505009807,47.701902300964576
3817.684,11.604943326360567,45.128047060856765
3818.5623,11.587664567459864,45.863451380563376
3819.4429,11.562149667521956,46.66693859296222
3820.3215,11.530407978647677,44.68707154710484
3821.2024,11.495056633365614,49.32067373792823
3822.0815,11.458738097452832,46.24603977464878
3822.963,11.422424698910472,47.79128640012252
3823.8423,11.385837978597705,48.33839413452061
3824.722,11.34758770705342,48.63629651575875
3825.604,11.306326777716752,48.33109580139641
3826.4841,11.261316109607446,47.948597981848614
3827.3665,11.21129334115343,50.5751961456327
3828.2468,11.155230040764703,49.971996689225705
3829.1296,11.092136722233487,49.97221856526948
3830.0105,11.0231652424891,51.92862771686983
3830.8916,10.950534339393316,50.554011084409815
3831.7751,10.876791239190496,51.67668599673889
3832.6565,10.804288395950083,55.95657735535964
3833.5403,10.734027991616188,54.47526203577258
3834.4224,10.668611763632681,57.3658899065543
3835.3064,10.612367770916906,58.2023070589144
3836.1887,10.572419202696299,55.93197135819833
3837.0713,10.556065114093357,57.84409975730189
3837.956,10.568729614702052,55.17912895962354
3838.839,10.61145185805955,57.580715545655714
3839.7244,10.680439431171541,54.22749151291322
3840.6077,10.767387675593469,52.228662644796195
3841.4932,10.863397618234664,52.88090707866617
3842.377,10.96075622694381,52.76163773914536
3843.261,11.05650931563595,48.89856200786843
3844.1472,11.1512974159845,49.3594757301326
3845.0315,11.245860914559632,49.6704696893084
3845.9182,11.339869941714129,48.787398693159766
3846.803,11.429788444732992,46.839977892219764
3847.69,11.512605823637827,47.116419572326166
3848.5752,11.586013339463573,46.22345052083395
3849.4604,11.649916648070326,45.09284286727287
3850.3481,11.70513532954846,47.236899037012805
3851.234,11.752757131588123,46.132771584410456
3852.122,11.795243828502228,47.508494351309146
3853.0083,11.834938238198802,43.31110880353302
3853.8967,11.873556024208895,43.576268926162435
3854.7832,11.910533124202837,43.08293086239324
3855.6702,11.944342156327169,44.30233041607831
3856.559,11.973761156215415,44.44570142381009
3857.4463,11.998872808571623,43.93034210447454
3858.336,12.02111179747661,44.148096608960934
3859.2234,12.041295734182313,41.24286069013283
3860.1135,12.05868090974873,44.05910730180576
3861.0015,12.070461524628694,42.23184715283613
3861.8896,12.073602824215742,42.26915776809004
3862.7803,12.06656271513714,42.49676397975874
3863.6687,12.050414021041151,43.260953563085714
3864.5598,12.027864137421275,42.993028256237814
3865.4487,12.001544036547857,42.93262424022454
3866.34,11.971833382268828,42.75741852492267
3867.2297,11.937406830162882,43.93206165355605
3868.1213,11.896369715662267,41.81511049123881
3869.0112,11.848567393778564,43.828368057399295
3869.9014,11.795202266373039,44.92918217393675
3870.7937,11.737843005097409,45.53555700843103
3871.684,11.67770636518796,44.465233901559664
3872.577,11.614445660428274,45.786451436581636
3873.4678,11.54753251721079,48.05297406979431
3874.361,11.474922193760056,46.91245552386887
3875.2524,11.394345681114235,46.07516102535408
3876.1438,11.303023560584474,49.053138527807654
3877.0376,11.199696613141342,48.91164937852044
3877.9297,11.086418097908426,48.175239361566916
3878.8237,10.965806329470807,51.347955976933974
3879.716,10.840847682866437,53.26980056892048
3880.6108,10.711795402940457,54.23289127204182
3881.5037,10.57919708758519,55.676521980972176
3882.3965,10.443098121942661,55.52782481040958
3883.2917,10.304120122854608,59.727118100829266
3884.185,10.163847307229021,59.398601869922715
3885.0808,10.022060792395086,62.47555587539984
3885.9746,9.880566057382225,65.95646538863672
3886.8706,9.742160079931436,67.59759560066935
3887.765,9.614108518448583,66.56674904377218
3888.6592,9.505478382471907,70.99278309807893
3889.556,9.426486835413495,72.43068764161612
3890.4507,9.38664900380277,77.55163107328993
3891.348,9.391035062903818,74.08761678615231
3892.243,9.439204347041247,70.97683599839652
3893.1406,9.525390584680276,73.5206294046165
3894.0361,9.639559324947006,65.84211669440997
3894.932,9.771941681353141,63.46442671869388
3895.83,9.91509766971358,63.71375570743599
3896.7263,10.063508249945558,59.385229415258046
3897.625,10.21520971592093,61.17089758246252
3898.5215,10.36748836601071,56.50808326094639
3899.4207,10.51933025837016,53.96089385340398
3900.3176,10.668482497195825,55.54080931573835
3901.2148,10.814901209023597,51.33401759407921
3902.1145,10.959455517637398,53.310333497309955
3903.0122,11.102249928604099,51.87842587514133
3903.912,11.244133648382732,48.1280285906816
3904.8103,11.383548263154966,49.53029035499487
3905.7107,11.519288461063454,45.01451911718332
3906.6094,11.648903050697907,45.89160183047859
3907.508,11.771357209297111,43.78711911813279
3908.409,11.886157058633438,43.08220770648917
3909.308,11.992391646204828,42.718389503721625
3910.2097,12.090844601408685,40.812264290298984
3911.1091,12.182520317839979,41.528030821142835
3912.011,12.270234828221628,42.51618493518221
3912.9111,12.35537580929638,41.06440272589063
3913.8113,12.438283882146905,39.51231087087705
3914.7136,12.51791357102205,39.53029868398489
3915.6143,12.592296413534305,40.61803420959153
3916.517,12.660506139915654,38.97112884699489
3917.4182,12.721691759100853,36.79568121845541
3918.3215,12.77657206484967,38.09961443086904
3919.223,12.826596261728687,37.082856531291924
3920.1245,12.874366618388775,38.007355597333955
3921.0286,12.921933405205413,39.1520749276261
3921.9307,12.969229603677173,36.06348499908307
3922.835,13.014658466873529,35.92121797371533
3923.7373,13.055240159588196,36.36488732680625
3924.642,13.088889675058136,35.69258741897507
3925.5452,13.114580318718057,35.64920715842964
3926.448,13.13281873058585,37.12078546569142
3927.3535,13.1445776945318,35.527337591050944
3928.257,13.150431673487821,37.09595510992696
3929.1628,13.150424638336695,37.013338106864865
3930.0667,13.144139865875664,34.42955370344218
3930.9731,13.131197336294365,37.03486167439456
3931.8774,13.112001285797733,35.40332702250521
3932.782,13.0879240262553,35.26300644995165
3933.6887,13.06109489717045,36.897709506912115
3934.5938,13.033450033735466,37.36633716376227
3935.501,13.004877719543709,36.341528713711874
