wavl,flux,ivar
3566.9744,1.328530012059255,510.16520574040857
3567.795,1.3221731507688972,458.3738148764886
3568.6177,1.3145736327944797,416.34676895433137
3569.4385,1.3062476165485633,702.5526924173485
3570.2617,1.298382423732362,499.7752206683653
3571.083,1.2923923447635217,460.0665873089673
3571.9065,1.2888596823574903,541.8277542087104
3572.7283,1.2872285154660306,736.5589700965598
3573.55,1.286091121939566,524.2704755583648
3574.374,1.2840497181034343,441.13104684370546
3575.1963,1.2804784498003678,542.3380238355847
3576.0208,1.27576259878751,646.0394736155283
3576.8435,1.27110061248321,465.8235679508737
3577.6682,1.2678293469387487,719.3675980706546
3578.4915,1.2668789325906982,502.7102653928847
3579.3145,1.268408794897299,648.0562303797876
3580.14,1.2720035572168626,682.3002477927461
3580.9636,1.2770405181058089,502.9515644360023
3581.7893,1.2830724779414957,595.589384064175
3582.6133,1.2897524258109232,459.0539569465234
3583.4395,1.2967343301057341,584.2951647883007
3584.264,1.30335289837137,645.3525665851591
3585.0884,1.3087558627412914,580.8697372855534
3585.915,1.3121711735249877,493.1025066733361
3586.74,1.3133133701767374,495.82088070206436
3587.5671,1.3126009785211838,710.1616174864688
3588.3923,1.3109315320785935,509.4839127213994
3589.22,1.309295997734034,795.5716639568245
3590.0457,1.3084547055268714,589.8166169274936
3590.8716,1.3087050400856033,526.6909114255943
3591.6995,1.3099452495937023,650.6452128344418
3592.526,1.311896517590356,419.5075865101489
3593.3542,1.3142960354653306,524.9222148878844
3594.181,1.3167995005960857,457.28856915249594
3595.0098,1.3189115410238816,566.0984318512086
3595.8367,1.3200916199959152,563.9956972925502
3596.6638,1.3201633817002465,428.85224614673683
3597.4934,1.3195291385213541,409.1235989572551
3598.3208,1.3189861444831785,667.4006114209515
3599.1506,1.3191322385724518,535.7813124623254
3599.9788,1.3198770330747231,526.8708780976016
3600.8088,1.320510916633086,658.1498541690088
3601.6372,1.3202642849546602,618.6945740858033
3602.4678,1.3187702066631637,637.2322394204264
3603.2964,1.3160252721545176,564.3965773314021
3604.1252,1.3121277398731155,460.93673486586846
3604.9565,1.3073825247072484,634.7283557308707
3605.786,1.3026981907511268,471.0040708914747
3606.6172,1.299440563710171,569.5625632686365
3607.447,1.2988327603893677,604.9647008101703
3608.2788,1.3012084797918926,452.83995983251447
3609.109,1.3058616610482587,550.6584219075131
3609.9392,1.311363948024931,539.9672885418225
3610.7717,1.31594246308844,440.2808373187296
3611.6023,1.3178710132188283,425.4896167892467
3612.435,1.3160460771393268,552.8192726547974
3613.266,1.3103557711032385,595.0175111048322
3614.0994,1.301680039662736,667.1785035294174
3614.9307,1.2916614055922842,570.1263481811056
3615.7625,1.282039381211881,546.0159457789115
3616.5962,1.2742009337519224,452.57287967364124
3617.4282,1.2689035071230896,574.5459531711311
3618.2625,1.266244740354136,767.4676513751077
3619.0947,1.2660786748594683,465.29565123100383
3619.9292,1.2681616474173258,592.1618871766661
3620.762,1.2720495987511102,776.6068846539964
3621.595,1.2769354662466226,550.4981713252114
3622.4302,1.2817282196796274,505.01174199778353
3623.2634,1.2853899326410174,445.2669593487078
3624.0989,1.2874099216689687,449.2420830714001
3624.9326,1.2878916343786688,459.75310543460733
3625.7686,1.2874721345942794,524.3214481702778
3626.6028,1.2870143989633571,487.2844574886802
3627.437,1.2872332601013383,618.0676868586584
3628.2734,1.288309380385964,450.77263874827037
3629.1082,1.2896079255097694,540.0513205648037
3629.945,1.289809929379667,532.4217207394763
3630.78,1.2875474352054086,511.4314151820964
3631.6174,1.2822879495189967,654.5792461580547
3632.453,1.2749122501625565,579.4278746579913
3633.2883,1.2673257502478104,698.7546088183168
3634.1262,1.2615216083632574,654.1148707003007
3634.9622,1.2587068182692451,510.6000385621188
3635.8005,1.2589023632613638,888.6124431370988
3636.637,1.2613216983287356,545.4842301965041
3637.4756,1.2648812465882773,531.845170429245
3638.3123,1.2685202519508243,542.7717419338863
3639.1492,1.2714213126578537,734.9573578824605
3639.9885,1.2731112256993762,579.068349235196
3640.826,1.273618349899805,595.3153000853121
3641.6653,1.2735397202999352,553.4782816859952
3642.5032,1.27378118488231,554.488872056452
3643.343,1.275088488696832,618.8480985563725
3644.1812,1.2775431069612142,726.5693809348609
3645.0195,1.280328526178677,529.9321260972202
3645.86,1.281955894958484,541.1302278444954
3646.699,1.2810518641612199,655.06482771213
3647.5398,1.277373233139162,458.2132415630095
3648.379,1.2722720364508904,569.3884563826253
3649.2202,1.2679942930710133,497.6801352826609
3650.0596,1.266276673489149,687.1772955992814
3650.8994,1.267031664255953,562.0731891283592
3651.7412,1.2684456921681049,546.1636905247342
3652.5813,1.26833490310532,543.1507730179778
3653.4236,1.2657638092263197,574.5317896192646
3654.2642,1.2615978088281925,621.9136296854534
3655.1067,1.2576556371364722,546.1422379555654
3655.9475,1.25536395533136,494.16321679432707
3656.7886,1.2546865115429708,613.6803241978837
3657.6318,1.2541165725411658,480.5104303702101
3658.4734,1.2516405933410673,742.4785670534284
3659.317,1.2461832940243538,586.6965041583869
3660.1587,1.2386439511478422,600.160822720943
3661.003,1.231556315535653,586.4731385449973
3661.845,1.2278530362353546,639.5947315915577
3662.6875,1.2291960924855,479.53435328281773
3663.532,1.2353004107405268,530.6011324843287
3664.3748,1.2441303607067156,549.875911917261
3665.2197,1.253086669624238,672.0375303519796
3666.063,1.2601710657487517,490.1372194352866
3666.9084,1.2649657725866459,629.7009810617235
3667.752,1.2682893772000847,537.5717270098522
3668.5977,1.2711133026297639,646.5285647692801
3669.4417,1.2733515058464437,486.80257779328116
3670.286,1.273969067898669,601.5408315513414
3671.132,1.2722020091270128,573.455497856263
3671.9768,1.268743011083465,625.1610783542544
3672.8235,1.265526098527145,751.4337773516068
3673.6685,1.2643608889383746,582.9862309214078
3674.5156,1.2655868222402473,626.9691137809015
3675.3608,1.2679892114787261,575.9788313879595
3676.2063,1.269840811276809,568.3187078349399
3677.0542,1.2700750099260718,476.62109870579405
3677.9,1.2687637195632122,578.3647496944272
3678.748,1.2667662621675388,595.9061539198477
3679.5945,1.2650434175689746,682.8724268856383
3680.4429,1.264016359079026,665.5497214330879
3681.2896,1.2632773275242581,608.7888084865057
3682.1365,1.2617628840686648,678.7863552156841
3682.9856,1.2585629518039454,492.53147353228667
3683.8328,1.2539065364097342,427.8608836646522
3684.6824,1.2492790237756424,630.2915574640651
3685.53,1.2465977167216893,543.2729972036034
3686.38,1.2469536061695383,667.3193556529064
3687.2278,1.2501529331043417,682.1684902544866
3688.0762,1.25498345300863,548.2077279051448
3688.9265,1.2597890381545715,644.3730333202222
3689.7751,1.2630775097347648,442.17889524798005
3690.626,1.2642548971538916,644.5141799553194
3691.475,1.2638847506492656,527.9309717593765
3692.3264,1.2632543172246709,631.7473142432642
3693.1758,1.263431302820385,632.6892183397506
3694.0254,1.264715577760108,555.5620030176323
3694.8772,1.266912210304055,502.89981137481044
3695.7273,1.2698083425254691,688.4704410911042
3696.5793,1.2732321221557308,671.5701849129852
3697.43,1.2766263301448848,585.9744695134933
3698.2825,1.2790084870500344,653.7362786728289
3699.1333,1.2794204421382838,586.515628284324
3699.9841,1.2775872049606707,589.2423800115896
3700.8374,1.2740425438643082,543.374319823342
3701.6887,1.2698106125120108,735.4203706357571
3702.5425,1.2657951175612137,485.8211072075816
3703.3943,1.2625280705175088,501.2279906965783
3704.2483,1.2601137170096928,636.2453635588695
3705.1003,1.2584981551379386,732.3435217404846
3705.9526,1.257561014436474,618.7441075778784
3706.8074,1.257111456623493,527.1795780437669
3707.66,1.2568059322275396,601.8213716286563
3708.515,1.2561808818193483,459.63819204655084
3709.3682,1.2548481924038235,537.6176504295959
3710.2234,1.2526475330014424,635.5029096645939
3711.0771,1.2496532295551557,520.0432585345045
3711.9307,1.2459990577195261,770.9389852446951
3712.7866,1.241817184430596,657.8258799359306
3713.6409,1.237412772982337,701.9923961862223
3714.4973,1.2333117740055624,531.4220159598112
3715.3518,1.2301944066287562,727.3738818401438
3716.2085,1.228502081555473,602.5043131324167
3717.0635,1.2283695524383935,460.0756286981498
3717.9185,1.2298332357723318,729.0011802537125
3718.776,1.2331614070414807,472.8494661929042
3719.6313,1.2387213132836743,653.7445146584987
3720.489,1.2465296334347968,512.6292153002031
3721.345,1.255635806424378,550.8354477591882
3722.2031,1.2642999177784404,536.2395019231615
3723.0593,1.2706260588426859,572.8508806344162
3723.9158,1.2737655849878047,527.5726064814122
3724.7747,1.2743080699517868,518.1961641940275
3725.6316,1.2737178282541528,528.0146954279294
3726.4905,1.2731062056878473,664.9214644347377
3727.348,1.2724321480968965,449.2865502697558
3728.2073,1.2707942752804038,439.3556249333393
3729.065,1.267453085103131,638.120541715306
3729.9229,1.2625494963896464,641.5257112632645
3730.783,1.2570455777642564,773.3859419818109
3731.6414,1.252156542021358,840.8382722068891
3732.5017,1.2486232385872864,721.3143805573455
3733.3604,1.246469720016347,581.9058244177895
3734.2214,1.2450748014779842,708.042752518735
3735.0803,1.2437476443016153,637.7676614131859
3735.9417,1.2422739547973591,584.803571071988
3736.8013,1.241074586899771,580.5267871804894
3737.661,1.2407273630066518,570.9109574758153
3738.5227,1.241391108691319,576.6470532103081
3739.3828,1.2425831232676179,761.9912424135562
3740.245,1.243461485724865,578.8774660638561
3741.1055,1.2433026814937964,527.7018174265675
3741.9683,1.241896608535485,612.4615952811166
3742.829,1.2396342282708614,777.1240458211611
3743.69,1.2372553298279636,678.2482839961484
3744.5532,1.2355046575047888,645.4150312479513
3745.4148,1.2349378070807941,468.93567342858887
3746.2786,1.235900846496575,609.8130469768441
3747.1404,1.2386017668327798,770.9351021950745
3748.0044,1.2430861961304447,491.75809168572357
3748.8667,1.2490679848541146,573.7263692833329
3749.729,1.255975220365154,553.3669265450678
3750.5938,1.2630704150925434,575.727245721266
3751.4565,1.269515439257896,644.1560651774112
3752.3215,1.274566607672378,629.1504747559109
3753.1848,1.2776091032211876,732.6800348507901
3754.0503,1.2785107938749876,587.8973707922825
3754.9138,1.277667033795038,501.4566630115894
3755.7776,1.2756949673458682,765.327830351176
3756.6438,1.2728743067960069,475.33492080951675
3757.508,1.2690188953105432,480.34336586578866
3758.3745,1.2639204986945682,592.4606393284521
3759.239,1.258127434752226,521.8245797878031
3760.106,1.252980064291083,674.6450721311903
3760.971,1.2500564490872066,578.0908588031051
3761.8362,1.2501857874099598,566.7006430459614
3762.7036,1.253029758211268,514.6657075688472
3763.5693,1.2571450564197517,687.6645434970087
3764.437,1.2606319736232785,510.61475533495894
3765.3032,1.2619632609324012,580.6859634558022
3766.1714,1.2607746650110576,520.0146071518134
3767.0378,1.2579095818248367,530.4848830915513
3767.9043,1.2546053830045782,514.2431194526728
3768.7732,1.251415362143139,533.0898019523069
3769.6401,1.2478465342635736,511.5993203413879
3770.5095,1.24298414375807,466.0580785047864
3771.377,1.2367421139774806,619.7006550876306
3772.2466,1.23033037519908,842.9198290024534
3773.1145,1.2257847382021922,513.8164851886233
3773.9824,1.224671661113542,774.956824005719
3774.8528,1.2273575135266734,699.4032509219833
3775.721,1.2330608213360528,659.7429869747068
3776.5918,1.2405808887672354,496.5605518973656
3777.4604,1.2487047356580707,629.4071244200683
3778.3315,1.25642238715264,767.1101034569415
3779.201,1.262672211021819,571.133997211027
3780.0703,1.2666838379172811,495.7614243207532
3780.942,1.2684237801890816,816.7423475429606
3781.8118,1.2688706278444735,546.0075243963303
3782.6838,1.2695589794470155,580.0276637888886
3783.554,1.271523241053377,708.7451266357929
3784.4265,1.27459712340113,528.3375678056851
3785.297,1.2776197264138784,594.3724550963555
3786.168,1.2794045970228043,472.69871459232064
3787.041,1.2793502986824725,548.3355025189142
3787.912,1.2773266564462977,529.3982695534253
3788.7856,1.2732545028049924,567.7391677718506
3789.6572,1.267204703669641,524.9941535366
3790.531,1.2597872933474659,596.4586739461556
3791.403,1.2523767532092038,621.6871698125522
3792.2754,1.24639029673725,576.2378946252052
3793.15,1.2425328430372522,497.5100306012533
3794.0225,1.2405412692035076,585.938205054189
3794.8972,1.239498037082081,634.8641726987859
3795.7703,1.2384020572141625,581.5890142167453
3796.6455,1.236485690372649,641.0345396073408
3797.519,1.2334950940019032,594.6439631334345
3798.3926,1.2298705835116148,576.550386363467
3799.2686,1.2266272776452396,518.4510862036858
3800.1426,1.224755998694536,722.2740888428492
3801.0188,1.2244833486522888,515.7759876577812
3801.8933,1.2253054347654915,712.9828565524944
3802.77,1.2267187333510743,669.4731074323788
3803.6448,1.2288265594270713,795.5049428241394
3804.522,1.2321111929903426,521.7451422330545
3805.3972,1.2366072609930985,530.3908491413039
3806.2727,1.2416368147939434,486.8253208857434
3807.1504,1.2462845976510302,511.466415256768
3808.0261,1.2500628800300975,621.4142141839209
3808.9043,1.2532217646559527,552.7679154954859
3809.7805,1.256418644945809,653.5337558991705
3810.659,1.2603959139665628,601.3330195676689
3811.5356,1.2655761770775151,463.3247926344871
3812.4126,1.2718525458388,592.2777269841555
3813.2917,1.2784624465833674,510.998140619366
3814.169,1.2841777632418068,460.0630162391422
3815.0483,1.288000935606753,472.64030347107604
3815.926,1.2896211841540883,528.6862839885661
3816.806,1.28949665287466,483.7825856743015
3817.684,1.2882455594270799,554.7801964569323
3818.5623,1.2860511148375995,753.440357538413
3819.4429,1.2826156700066609,634.3450251090848
3820.3215,1.277725453284074,586.0539847700156
3821.2024,1.2717010645396094,582.0272370043378
3822.0815,1.2654821771170754,541.6875133097984
3822.963,1.2599995823946597,604.0400872868793
3823.8423,1.255629134651064,594.2337864563215
3824.722,1.2517958471423092,666.7992138175782
3825.604,1.2472821400259004,574.8710768571726
3826.4841,1.2409676554315636,520.0542462699608
3827.3665,1.232476264784862,542.867028528306
3828.2468,1.2225719485545175,662.6832519730585
3829.1296,1.2126250009636732,684.7547641518701
3830.0105,1.2040159734760003,699.4991682271029
3830.8916,1.1973083271144087,639.7558340859672
3831.7751,1.1922004277494018,645.6403701108933
3832.6565,1.1879349811503697,612.5621029555921
3833.5403,1.183824079055784,692.0257741265679
3834.4224,1.1798180517122592,678.5613330816162
3835.3064,1.1765312338723932,595.3732215603973
3836.1887,1.1749801680844214,794.40873589838
3837.0713,1.1759328344054583,687.7544629705834
3837.956,1.1794564127127602,787.6665238547906
3838.839,1.1848804878961474,605.0161318110302
3839.7244,1.1914148950554735,556.9147565552056
3840.6077,1.1987250294262652,638.0116377646349
3841.4932,1.2072489531633255,648.1411631207526
3842.377,1.2175754720994558,630.2764635841722
3843.261,1.2297592412369036,686.6366623381517
3844.1472,1.242812897701891,611.4388486949352
3845.0315,1.2549420053431037,586.5751931555409
3845.9182,1.2647400315451391,501.895431017911
3846.803,1.2718784653897335,704.1767840599315
3847.69,1.277427475059121,511.7750446706834
3848.5752,1.2829348409986538,620.9546528714043
3849.4604,1.2894114147993156,568.6396875767784
3850.3481,1.2967031570385017,549.4960209051396
3851.234,1.303774601421483,525.5629820054482
3852.122,1.3097738217041655,508.7250835563121
3853.0083,1.314556145912243,574.3581068498204
3853.8967,1.3186622004693505,597.6465427824725
3854.7832,1.3226059059036508,614.5266311367683
3855.6702,1.3265049612793016,495.6852094178621
3856.559,1.3300447864706109,576.7728572342256
3857.4463,1.3327455037538858,570.197720082439
3858.336,1.3343269884170228,567.6922481587395
3859.2234,1.3348686086429562,484.1392573085182
3860.1135,1.334822492275636,481.80944553530486
3861.0015,1.3347398942184208,478.892597496401
3861.8896,1.3349420903203526,556.2513085153802
3862.7803,1.3353511970162752,531.2229869532324
3863.6687,1.3355302054691611,477.2010510187044
3864.5598,1.334790730895321,555.0746181454012
3865.4487,1.332281321874107,502.42278014456605
3866.34,1.3271944746881026,552.4780272499532
3867.2297,1.3193051273101364,518.9634506154667
3868.1213,1.309293905331031,629.2370096726045
3869.0112,1.2987228149788952,566.3923159206322
3869.9014,1.2891283491530514,607.959245963332
3870.7937,1.2812410048539535,548.3323129106269
3871.684,1.2747714103621999,571.8100646305245
3872.577,1.268806324552807,528.8681145488588
3873.4678,1.2627486014575622,609.7786119064266
3874.361,1.256540468999812,517.030217053574
3875.2524,1.2504151793221503,607.6307688019078
3876.1438,1.244209333511043,669.2069091119993
3877.0376,1.2373106300906662,552.3801580987913
3877.9297,1.2292345543378123,503.17242665568654
3878.8237,1.2200345519212517,959.435627255085
3879.716,1.2103187218981164,609.9724914623606
3880.6108,1.2004165389319097,711.2347781770153
3881.5037,1.1900483584141006,634.8569826981405
3882.3965,1.1783877004998793,708.1885034720249
3883.2917,1.1648345799574527,610.5200723344428
3884.185,1.1496591956996243,734.2356862123007
3885.0808,1.133679052300839,744.9888398880381
3885.9746,1.1180869104605702,610.8900179284738
3886.8706,1.10379439790484,630.1995577584286
3887.765,1.0916481992749079,760.0898657827596
3888.6592,1.0822611850899788,861.3650410540386
3889.556,1.0761384348648746,766.6245825154474
3890.4507,1.0736911934899835,864.2757758692363
3891.348,1.075127844369176,811.2675969979794
3892.243,1.0804232046543594,841.889637174022
3893.1406,1.0892529466990655,718.1576299720169
3894.0361,1.100893911040674,888.482836012166
3894.932,1.1145419647766983,745.6838715415514
3895.83,1.129451518194557,768.9153946568174
3896.7263,1.1448887257469054,723.4327151194983
3897.625,1.160446582719091,650.2072293663473
3898.5215,1.1759111459916969,562.3347697134022
3899.4207,1.1917131100570848,641.1822662502138
3900.3176,1.2083232992821042,703.6217255355181
3901.2148,1.2258852534626863,636.3986275213564
3902.1145,1.2436113408897964,451.79046916440217
3903.0122,1.2599327311216946,547.4488214149076
3903.912,1.273713934161262,562.3727368997347
3904.8103,1.2847955388176677,523.7927795972904
3905.7107,1.2943036832101267,646.5626524389311
3906.6094,1.303736501508066,518.0849326196046
3907.508,1.3142826472882563,653.0189441644576
3908.409,1.3264567302543817,501.02018911636486
3909.308,1.3401290684393148,530.1625282247583
3910.2097,1.3548001868173745,526.6127628094108
3911.1091,1.3693099000683042,486.05080785594106
3912.011,1.3823786975353805,602.9001931935013
3912.9111,1.3929659539919486,403.8132967953391
3913.8113,1.4009495029332828,465.154075377343
3914.7136,1.4068693193005486,456.2362100743557
3915.6143,1.4114452998171927,430.7284306728383
3916.517,1.415426367668598,408.60207217152015
3917.4182,1.419481818492492,400.3539324634593
3918.3215,1.4240998028483147,575.5933287645673
3919.223,1.4292260536687034,490.4862962332403
3920.1245,1.4344120844489623,395.94666535678937
3921.0286,1.439306179848423,446.35408738696106
3921.9307,1.444041978575261,400.90407658689986
3922.835,1.4491754017344258,420.3679017253775
3923.7373,1.455024457524402,394.63154968300773
3924.642,1.461282717582518,466.027539852748
3925.5452,1.4668531268220768,451.7151422525525
3926.448,1.4703656755837107,422.665183405228
3927.3535,1.470805101580026,426.5138784513164
3928.257,1.4680463030707718,434.7488530750065
3929.1628,1.4628673474977658,424.51641316610693
3930.0667,1.4565103354184346,440.29351100143356
3930.9731,1.4500587644360634,387.60612400488327
3931.8774,1.4443313656469403,436.52533537829305
3932.782,1.4398119148182233,442.56402142208754
3933.6887,1.4367565250440164,435.6409461671262
3934.5938,1.435131945128908,469.88374134517926
3935.501,1.4345584460951686,415.61889035975724
3936.4062,1.4344838769928574,416.8804566430187
3937.3142,1.4343596530367986,517.9877678589448
