wavl,flux,ivar
3566.9744,12.0592049533079,4.4613927237713575
3567.795,12.050767069386332,4.956575162458228
3568.6177,12.023575070060751,5.146095979411936
3569.4385,11.980238239165798,4.292834457131764
3570.2617,11.924784937459659,4.4508167762512345
3571.083,11.864862052517122,6.706619897350761
3571.9065,11.809727332220444,3.888673661499248
3572.7283,11.768033010725855,5.9388815300172695
3573.55,11.744045679153922,6.234343771352056
3574.374,11.737753057253224,5.380016655063067
3575.1963,11.745676105092329,5.51605634246976
3576.0208,11.761659084090184,4.63778941420743
3576.8435,11.778219699096844,5.318428241227456
3577.6682,11.789390003928597,4.657194881260988
3578.4915,11.792399691635884,4.304071238312156
3579.3145,11.787084019720625,5.418887507690093
3580.14,11.77385640515371,4.680815203272969
3580.9636,11.754352789237652,5.104311525669264
3581.7893,11.733745278295938,5.423961999024876
3582.6133,11.72132702478859,4.415140855623562
3583.4395,11.725718128573359,5.104491590660794
3584.264,11.748913319158842,5.602899326504359
3585.0884,11.783988492209899,5.914852502472677
3585.915,11.818331731336746,4.741567020903402
3586.74,11.83883983500181,4.490885126776234
3587.5671,11.836683987631801,5.325190774416208
3588.3923,11.808741032661976,4.973684419772659
3589.22,11.757668613095404,5.8309862570869715
3590.0457,11.692228334468169,4.500103193669795
3590.8716,11.625069509885204,5.052225626018419
3591.6995,11.569257434238907,5.589957822310828
3592.526,11.53316466237055,5.593385655968913
3593.3542,11.516151889100838,5.541207215111335
3594.181,11.51009818935471,5.312788297459025
3595.0098,11.503535142615009,5.577601701891324
3595.8367,11.486794232445192,8.435739955885383
3596.6638,11.455203505657817,5.151284967083063
3597.4934,11.410616408569497,5.429107879088822
3598.3208,11.361827974298647,4.999880568065091
3599.1506,11.320903119548127,5.0447748145775835
3599.9788,11.298528147682985,7.20445032624405
3600.8088,11.297205949803269,6.043998896365358
3601.6372,11.308842988388868,5.442530477590556
3602.4678,11.317387348541725,6.639521478531457
3603.2964,11.30656562207931,4.913435526645582
3604.1252,11.26987863869522,5.5447522465919885
3604.9565,11.217187604134637,6.288738868898778
3605.786,11.173629027031902,5.245477603191899
3606.6172,11.16641659816053,6.039114869423569
3607.447,11.209155171269881,5.5229897344798635
3608.2788,11.293091723302341,5.887899600182534
3609.109,11.391354033775581,4.999916850009074
3609.9392,11.473685770379888,4.2214910394983
3610.7717,11.518645029662077,4.798399012718931
3611.6023,11.520019597012858,4.095139842141457
3612.435,11.486656298628361,5.656971775082659
3613.266,11.4356422858459,7.055522323021462
3614.0994,11.382685043205749,5.275639443897686
3614.9307,11.336536559453322,5.900082862664677
3615.7625,11.29784776064423,5.449809784021294
3616.5962,11.263771223822761,6.403966955654621
3617.4282,11.23199971016002,5.2829647698136055
3618.2625,11.201845279823518,6.56216297563596
3619.0947,11.174927309330869,5.572056021581995
3619.9292,11.154142240298077,6.9503801839769075
3620.762,11.142643868165315,5.858719564812384
3621.595,11.140676378558632,5.252214666041052
3622.4302,11.143236590428991,6.02378978212936
3623.2634,11.140009324710915,6.27834941658758
3624.0989,11.119589006063462,5.84395074194971
3624.9326,11.076825567576613,5.90234596993613
3625.7686,11.017778068927036,6.173551625456096
3626.6028,10.958818369355802,6.782210196781449
3627.437,10.916797933081623,6.031175474805918
3628.2734,10.899337790871172,5.63693013755629
3629.1082,10.901036433248125,5.371105946589836
3629.945,10.90844234149337,6.672353345581374
3630.78,10.909741486678074,5.136963878529788
3631.6174,10.90104403315021,5.813937104143967
3632.453,10.88546459823031,6.730600844215166
3633.2883,10.867538005008724,5.155633439671231
3634.1262,10.848807476333956,5.286612392324816
3634.9622,10.827830650403156,5.8267425385988405
3635.8005,10.802804824780234,4.906625773367911
3636.637,10.774969693146842,6.018913582634337
3637.4756,10.748319564663836,5.369941437897403
3638.3123,10.727245727449915,6.8812645410091
3639.1492,10.712470999645378,6.8991429037738055
3639.9885,10.700267603081578,6.464776356407459
3640.826,10.685143839132424,5.538356238662716
3641.6653,10.663913754701603,6.687430074789889
3642.5032,10.638821249803376,6.13868126319047
3643.343,10.616620297111755,6.154313243413549
3644.1812,10.604714801719506,5.5844665949113255
3645.0195,10.605006296684971,6.864788732759363
3645.86,10.610917876135625,6.655244820954645
3646.699,10.610204551731945,6.637137668677821
3647.5398,10.592922715595698,6.166337795460915
3648.379,10.558346400467993,7.29574739024266
3649.2202,10.514793510820068,7.0354090149185735
3650.0596,10.474015476844821,5.980421523238039
3650.8994,10.44350406722719,6.193338861627322
3651.7412,10.424351873848613,6.112968617465928
3652.5813,10.41357520191518,6.381653128454794
3653.4236,10.40775946751959,6.414690044453406
3654.2642,10.405321430057091,6.520869614624699
3655.1067,10.406089634879313,6.151360080107204
3655.9475,10.410415141289262,6.648867566915111
3656.7886,10.418729630561268,6.7678648876055805
3657.6318,10.431156211892882,8.38416236858085
3658.4734,10.44637041422153,7.2955856914849795
3659.317,10.461026367551243,6.385207741272233
3660.1587,10.470369713674645,5.966605446837167
3661.003,10.470801058916738,5.6302906918314255
3661.845,10.46169813141656,5.906093193584463
3662.6875,10.44537262891881,6.687540321242503
3663.532,10.425292000848067,7.180498990925029
3664.3748,10.40441699829269,6.569900268027189
3665.2197,10.383963967497527,7.589346224225476
3666.063,10.363959768910927,6.985789703736275
3666.9084,10.343832973353813,6.134603657557906
3667.752,10.323775399546875,7.070603431015673
3668.5977,10.304612945807396,6.782936715582718
3669.4417,10.28790595530489,6.304813912709639
3670.286,10.275495606199167,6.443299523848721
3671.132,10.269315507525965,6.676189966306548
3671.9768,10.269661457489555,7.43792974184621
3672.8235,10.272760511288546,7.104981040812742
3673.6685,10.270816305249438,5.80918313706304
3674.5156,10.256095529835008,6.500084848158507
3675.3608,10.226595024086949,6.679643969336907
3676.2063,10.187964489369017,7.4322931727333685
3677.0542,10.150195380735909,8.214698991996348
3677.9,10.121935904234821,6.689591467519425
3678.748,10.10560906600246,6.954675746755287
3679.5945,10.097761750977725,7.8137490245070085
3680.4429,10.091099490614704,9.195876641958515
3681.2896,10.07781851005127,6.748904235924405
3682.1365,10.052648090131008,6.538465569499832
3682.9856,10.015402449778684,6.847676517533726
3683.8328,9.971739149742223,6.429001395606259
3684.6824,9.929686568447003,7.633601005653626
3685.53,9.896352661737785,7.753263435129562
3686.38,9.87490459136025,7.75732170778752
3687.2278,9.865908251807568,6.272255297716441
3688.0762,9.86878533946036,7.7511225765715945
3688.9265,9.882964684778393,7.9231645086352875
3689.7751,9.907169484242294,7.00437433225983
3690.626,9.938837261447558,6.434829166742458
3691.475,9.973295060520728,6.704038501274418
3692.3264,10.004743373405686,7.05466276578662
3693.1758,10.027279464875896,8.250235582043597
3694.0254,10.03772113510376,6.368010726567986
3694.8772,10.036541135471442,6.1647958445777045
3695.7273,10.026990928792623,7.245727086484117
3696.5793,10.012687788935118,7.374317665396364
3697.43,9.996194448342145,6.663091420327412
3698.2825,9.978764426841789,7.172584747558125
3699.1333,9.960867122082638,7.188565491660973
3699.9841,9.941816500155713,7.339452513204125
3700.8374,9.91998041923861,7.050670163841424
3701.6887,9.893795185641975,7.3170719954501795
3702.5425,9.86221194419627,8.198379006279758
3703.3943,9.82568043843683,7.837148232846413
3704.2483,9.785716107402084,7.499440611563679
3705.1003,9.745594020464882,7.369825039436146
3705.9526,9.708989412536583,6.92245179012191
3706.8074,9.67886119372379,8.072714525801672
3707.66,9.656216639548791,8.501246495461872
3708.515,9.639055962152462,7.371657666546313
3709.3682,9.623595338434106,7.832019650159876
3710.2234,9.60583171522958,8.108390776525528
3711.0771,9.584465576878932,7.677002011837388
3711.9307,9.562145653551651,7.337361228432804
3712.7866,9.543823276518077,8.054820199077295
3713.6409,9.532556986548649,8.055646492529407
3714.4973,9.525918865144634,8.366774558452498
3715.3518,9.51755814280069,8.081581315209053
3716.2085,9.502207662172468,7.350374002214776
3717.0635,9.480488420649985,8.238843436706029
3717.9185,9.458872469026305,8.08403235732315
3718.776,9.445702591576596,8.77425903281009
3719.6313,9.446457914432765,8.001810570162549
3720.489,9.461091571143262,8.28862244176373
3721.345,9.484271819884846,8.308399182441175
3722.2031,9.50731296047834,6.633460723883408
3723.0593,9.520746206802167,8.74950526916877
3723.9158,9.518794023985299,8.30396680487226
3724.7747,9.502406317968797,8.114884108224981
3725.6316,9.47901644134292,6.932167141966166
3726.4905,9.457282762499725,7.459702379877067
3727.348,9.44161958741179,7.624979352174511
3728.2073,9.429686908977454,7.534065363209113
3729.065,9.415389679587795,8.219735364570186
3729.9229,9.393813458480349,7.867285810522636
3730.783,9.364859647398017,8.272969338104506
3731.6414,9.333297543508039,9.041570428611655
3732.5017,9.305189512631452,8.251270429536762
3733.3604,9.28536861344718,6.996470376102666
3734.2214,9.276043776303101,7.359540695494867
3735.0803,9.277226391108863,8.220184679815592
3735.9417,9.286083562416682,9.063381540390948
3736.8013,9.296674967115035,7.422622105585694
3737.661,9.301892567352487,8.004019637912359
3738.5227,9.296948281885436,8.007904002630601
3739.3828,9.28179819481317,7.900441733102456
3740.245,9.260195076554304,9.394173052344135
3741.1055,9.237068457633887,7.8887034033599726
3741.9683,9.215773709873954,10.966971386566746
3742.829,9.197843955362123,8.650202842542376
3743.69,9.18302729129735,8.879520548328212
3744.5532,9.169830503356224,8.577198562621245
3745.4148,9.15569195784077,8.098795100670813
3746.2786,9.1375982327066,6.57700751427688
3747.1404,9.114621499102963,7.80531905072455
3748.0044,9.089681426985065,8.17303299500663
3748.8667,9.06937407806294,8.426196719304484
3749.729,9.059888911587562,9.321999120494516
3750.5938,9.063171464456678,8.724704611386525
3751.4565,9.07557797362495,11.191564092027384
3752.3215,9.09036114325372,9.499123031723448
3753.1848,9.101420668310315,9.550415962767644
3754.0503,9.106086723925443,9.410724227943266
3754.9138,9.105087718343228,9.77470686476962
3755.7776,9.101304217671293,8.153859869205542
3756.6438,9.098001460198669,9.33322394982989
3757.508,9.097102949840263,9.025525640501236
3758.3745,9.09792368386628,9.257341723842181
3759.239,9.097814461892261,7.850965081210288
3760.106,9.094356389280247,9.176172240996705
3760.971,9.086838129503343,8.285425576134843
3761.8362,9.07548674155686,8.772257935062504
3762.7036,9.060093959205746,7.931065305725954
3763.5693,9.04021946367409,8.669958683931164
3764.437,9.01598485128883,9.09927438957322
3765.3032,8.988610364480861,9.13153769383393
3766.1714,8.959160440598549,8.498643614610529
3767.0378,8.928568324094154,8.99596170753692
3767.9043,8.898141933602611,10.020428444921517
3768.7732,8.87068328788008,8.493072630865278
3769.6401,8.849823780795074,9.674656485189917
3770.5095,8.836944567084494,8.815111717562738
3771.377,8.829831212295263,8.719512900213934
3772.2466,8.823794689344382,8.20431268578511
3773.1145,8.815490004370991,9.241696720954067
3773.9824,8.805340097007269,8.783299529653695
3774.8528,8.796867089304225,9.14173047800947
3775.721,8.793697432199606,8.687701147287461
3776.5918,8.796421982768805,8.861648833301047
3777.4604,8.80172086014572,10.066850644999974
3778.3315,8.804156969858042,7.639560944052345
3779.201,8.799587397986901,9.541170673216499
3780.0703,8.78801327729792,10.057070770933947
3780.942,8.773395668741756,8.595371811990683
3781.8118,8.76086409906262,9.411056858150964
3782.6838,8.753183569574242,8.834990916062939
3783.554,8.749828892400442,9.175710505825563
3784.4265,8.748004466259516,8.58314168589216
3785.297,8.744423152929249,9.361506578181153
3786.168,8.736407967780455,9.6561802205395
3787.041,8.722800224393044,10.929966723391889
3787.912,8.704775841030397,9.075925725463822
3788.7856,8.684936459615479,9.992845433164632
3789.6572,8.665460695423315,9.893608243732636
3790.531,8.645869589914813,9.007000041159182
3791.403,8.623753169917379,9.381496635531153
3792.2754,8.5966352357913,8.41349356434679
3793.15,8.56410180798081,8.649244397619773
3794.0225,8.52868178157396,9.856593320879876
3794.8972,8.49449659671942,8.871302670578737
3795.7703,8.466186841256475,9.343394733944894
3796.6455,8.446424951859296,10.992910198186248
3797.519,8.435228064703987,9.342562825033518
3798.3926,8.430052330488655,9.897543075277035
3799.2686,8.42783818283184,9.788372823158236
3800.1426,8.426821161852915,8.835605089646538
3801.0188,8.426941335134282,9.87075986691861
3801.8933,8.428832542149797,10.46903752785484
3802.77,8.432462194334862,9.240070679138462
3803.6448,8.436454702954986,10.404196074268274
3804.522,8.438447266800283,11.18654335623625
3805.3972,8.436048371757586,9.389446773523991
3806.2727,8.428328965642102,8.725945895950053
3807.1504,8.416937517622381,9.458716464925798
3808.0261,8.405986423683368,11.564735350427613
3808.9043,8.399774557334812,9.823522595464155
3809.7805,8.400307392863898,10.39361550155982
3810.659,8.406148413095641,8.424081925314637
3811.5356,8.413929230170805,8.936655120417438
3812.4126,8.421060960797485,9.737893656781818
3813.2917,8.42701638142835,13.152692327359741
3814.169,8.432316064914476,10.8963568937255
3815.0483,8.436871262441654,9.99389621440863
3815.926,8.43927364915543,8.764428185311685
3816.806,8.437369476070815,9.619748398949113
3817.684,8.428736745136796,11.882880992974933
3818.5623,8.411208966582961,9.705013281367783
3819.4429,8.38411270997359,9.14651369326367
3820.3215,8.349967245112166,8.995783965380664
3821.2024,8.313558146244906,11.319645039137756
3822.0815,8.280054155295897,9.896264926539434
3822.963,8.25210700939047,10.510721830213523
3823.8423,8.230121964918284,10.73211912270159
3824.722,8.21280693172912,9.927646248049543
3825.604,8.198061079675531,11.40831314803952
3826.4841,8.182998327692934,11.02641451363253
3827.3665,8.164214026671264,11.217966427529653
3828.2468,8.139770374188176,10.20650111208224
3829.1296,8.110275848448719,11.583799362287454
3830.0105,8.07897732038159,11.021149941608218
3830.8916,8.049360076697978,10.472905418695028
3831.7751,8.023902604528041,10.646999021386494
3832.6565,8.004276472784035,9.78503067268302
3833.5403,7.9914860596251005,10.14236829287178
3834.4224,7.9858801428995525,11.008846727699312
3835.3064,7.9856219529233945,11.79647298180164
3836.1887,7.986458310355897,11.070082141553117
3837.0713,7.983603250924097,9.446384083403895
3837.956,7.974795760339524,10.872733512780137
3838.839,7.961854733190098,10.483129279377
3839.7244,7.948967823565233,12.551084752744641
3840.6077,7.939882309031821,10.446076321214038
3841.4932,7.935990226127772,12.103847950371415
3842.377,7.936917202298497,11.617587250437373
3843.261,7.9417092495849095,10.484446297329551
3844.1472,7.9496124634175,10.619503657527074
3845.0315,7.959885161185285,11.520076749450707
3845.9182,7.971586039435506,11.075465998183216
3846.803,7.983381833280202,11.776479632467003
3847.69,7.994282533342721,12.36118407630016
3848.5752,8.003869187587732,11.063719638947099
3849.4604,8.012067879910186,10.294078365110517
3850.3481,8.01811862526787,9.865119996045015
3851.234,8.020329127500817,10.837774257551528
3852.122,8.017450474226097,10.013406165054219
3853.0083,8.010464590786052,11.345176520193164
3853.8967,8.002953815281636,11.12467613575855
3854.7832,7.999350795747483,11.184759607881402
3855.6702,8.001960204289574,11.869240132261357
3856.559,8.009207226307584,10.711529073073466
3857.4463,8.015815147401597,11.060649957943836
3858.336,8.01506881169825,10.86898562530841
3859.2234,8.00194183870651,10.22960145944747
3860.1135,7.97584676164109,9.523726354370348
3861.0015,7.941855618824818,10.2514855984356
3861.8896,7.9082654172700435,11.6372845398734
3862.7803,7.882558028910284,11.908306544221773
3863.6687,7.867528400780582,12.929605969103648
3864.5598,7.859728190050131,10.775425986864462
3865.4487,7.852412480116033,11.679272028932346
3866.34,7.83948954724786,11.449354684216402
3867.2297,7.8183172732867,10.817815969969478
3868.1213,7.789169251908535,11.596652668976906
3869.0112,7.754150990607453,11.925206145153355
3869.9014,7.716303649779446,10.577067904093498
3870.7937,7.6798550740258245,11.196935097229952
3871.684,7.649461051884048,13.000097404378188
3872.577,7.627453723133057,12.32316431282468
3873.4678,7.613046064623243,11.360915356358444
3874.361,7.602644187094426,12.946301803488595
3875.2524,7.592125377152032,11.319916998565246
3876.1438,7.578092908831775,12.455961262020402
3877.0376,7.55825874491196,12.209275716107117
3877.9297,7.531594492661929,11.779007709249528
3878.8237,7.498328304124869,11.398095237766109
3879.716,7.460783042227851,15.075397727539391
3880.6108,7.422433643054604,13.12146596854256
3881.5037,7.387337102492786,12.47589655618232
3882.3965,7.358278958747747,11.525004382579368
3883.2917,7.3363641694887605,14.340477233989699
3884.185,7.320783938596239,13.740237757348334
3885.0808,7.308519629945022,13.447595425567222
3885.9746,7.295579937900615,12.22221129701588
3886.8706,7.2784113424656125,12.771969072309146
3887.765,7.25585409199879,13.315553045809242
3888.6592,7.229613659216783,12.328859146868862
3889.556,7.203582157665219,13.282444156481809
3890.4507,7.182284370942643,12.918596455329604
3891.348,7.168592075983887,13.729974220510568
3892.243,7.16312981966286,13.146633587308127
3893.1406,7.1642151168419845,14.630168188648748
3894.0361,7.169196054989891,13.302274400237403
3894.932,7.176128585073143,13.561128074893512
3895.83,7.184991541652822,14.47476169477843
3896.7263,7.197237675110143,14.82185915093172
3897.625,7.214113917276472,13.425507442864758
3898.5215,7.234643964648922,12.989047193205641
3899.4207,7.256112460332662,13.028440583860291
3900.3176,7.275817155417669,16.248741922615718
3901.2148,7.293762107629273,12.942532650368342
3902.1145,7.312721472643386,13.832096704055465
3903.0122,7.3359177459272535,12.683752980173692
3903.912,7.364608088496902,12.656478999153121
3904.8103,7.396858090659088,11.93872810998526
3905.7107,7.4298179680131895,11.489395184607393
3906.6094,7.4615845190863475,11.984693735113993
3907.508,7.4923333801644265,12.14535840612425
3908.409,7.522788504177751,14.08164354734508
3909.308,7.552488776837902,11.383372298953043
3910.2097,7.580110583007972,12.928410375216579
3911.1091,7.603923047034387,11.473031632579186
3912.011,7.623159373216614,11.466839478872325
3912.9111,7.637515290217768,12.175471982942401
3913.8113,7.646978778746132,12.23650891951558
3914.7136,7.651383845177028,12.76436357761793
3915.6143,7.650703740136657,11.94567402542011
3916.517,7.645625415338861,12.499403557563697
3917.4182,7.637684903618665,11.287444773614904
3918.3215,7.62860968094729,12.452626811706761
3919.223,7.619654977962687,11.55686326809676
3920.1245,7.6113257584924305,11.398845694836726
3921.0286,7.604010676858042,11.576670449070877
3921.9307,7.598428537494122,11.445569992879161
3922.835,7.5951435019705515,13.04979640309173
3923.7373,7.594029631422942,12.247784043041166
3924.642,7.594168015035493,13.287450461173574
3925.5452,7.594467355371801,12.645221683729655
3926.448,7.594279287620157,13.389527188418947
3927.3535,7.593658664269555,13.006839256161673
3928.257,7.593210900394474,11.21407318569515
3929.1628,7.593449405542787,11.884898995095858
3930.0667,7.59394148584917,13.614475523341843
3930.9731,7.592976947228007,11.005407981843769
3931.8774,7.588217192381911,12.326503291789825
3932.782,7.577749001783055,12.04338479898407
3933.6887,7.560748671930877,13.82573455500743
3934.5938,7.537939566386946,11.07123572939678
3935.501,7.51140224661631,11.51531711794041
3936.4062,7.484619909481901,12.679091446607798
3937.3142,7.460902167273576,12.90019669667186
3938.22,7.442279747099265,11.279632814635152
3939.128,7.427891956068474,11.537764336645424
3940.0342,7.414654975209555,12.966693767031026
3940.9407,7.398830720465502,12.53623714856881
