wavl,flux,ivar
3566.9744,0.44857834762584603,91.41148694066706
3567.795,0.3883228893128665,151.56099427991748
3568.6177,0.33868208105637687,33.72988213758409
3569.4385,0.29826540582331945,49.447893789784374
3570.2617,0.26777944118964947,426.54930164042196
3571.083,0.253028182119441,4805.747532092686
3571.9065,0.26025061573800334,309.76247915084264
3572.7283,0.29021244500057614,615.7440346294366
3573.55,0.33561009980674505,75.6161900139623
3574.374,0.38374033194362994,25.4718528983029
3575.1963,0.42080866115708815,121.38821276385806
3576.0208,0.4365393469394477,130.83092021419014
3576.8435,0.4257288423046393,110.56687132507251
3577.6682,0.3897234533326726,66.15061037109606
3578.4915,0.33686957257490485,211.21951758307523
3579.3145,0.28049295464871904,919.3816599041335
3580.14,0.23503862878328777,83.81615422950154
3580.9636,0.21188118334071948,789.1540945495244
3581.7893,0.2148660729989049,191.5350402728752
3582.6133,0.23904063663699818,808.6524526564451
3583.4395,0.27222083691585003,215.27534005236132
3584.264,0.30050169954332395,9.915879385616984
3585.0884,0.3168750024806567,124.63801073398614
3585.915,0.32531135484869855,44.416972270205044
3586.74,0.33691927809111444,244.193603431681
3587.5671,0.36082420366682866,104.45929001235098
3588.3923,0.39694678472239847,322.28064830388206
3589.22,0.43676906000665794,135.46971459026193
3590.0457,0.46795627624073427,271.1161840082296
3590.8716,0.48053450582094087,51.31865623929018
3591.6995,0.4699013286004029,158.85990884432633
3592.526,0.439107621118151,18.664580237500545
3593.3542,0.3987531735506721,2388.8903289161826
3594.181,0.3638598896174522,311.39139443401643
3595.0098,0.34641513402837293,651.8605085306797
3595.8367,0.3500090092109968,5390.312102593126
3596.6638,0.369336539361488,49.410762475935734
3597.4934,0.39596221596376635,267.4104760132634
3598.3208,0.42358108044586235,316.4399274016245
3599.1506,0.44938629711702177,13474.198294126441
3599.9788,0.4704302831266584,93.16700731129245
3600.8088,0.4823633371174078,57.804454627552744
3601.6372,0.48131091097267714,222.25223800993723
3602.4678,0.467244135493202,232.91797725982167
3603.2964,0.4441509324615531,27.01936925291877
3604.1252,0.41722263914987795,32.79331543402301
3604.9565,0.39086177498643304,519.2999381227216
3605.786,0.3687256053372162,40.4265211235012
3606.6172,0.3530412194332954,213.58629638360992
3607.447,0.34381111757352023,2807.2591842718634
3608.2788,0.338647796124336,59315.93076375606
3609.109,0.33626609226604726,128.98070432802237
3609.9392,0.3401852329618315,847.3591788664066
3610.7717,0.3581229205931312,672.7038545649959
3611.6023,0.3957319798733649,174.95223881670324
3612.435,0.45087044392448183,110.5412849649294
3613.266,0.5124127789364862,65.59614246990566
3614.0994,0.5666612804527233,88.05152896942676
3614.9307,0.6029487602657936,33.40087692767797
3615.7625,0.6174375024366668,24.641304224384662
3616.5962,0.6110383699041212,16.042103835098196
3617.4282,0.5874279571624809,987.8143781231008
3618.2625,0.5527327091691203,50.85499748988633
3619.0947,0.5170081755018422,67.61113551470199
3619.9292,0.4920091705940792,1288.5886737817145
3620.762,0.48600220408755096,95.19207042417247
3621.595,0.49766649192457907,26.30463372486853
3622.4302,0.5168143164064246,283.94397872119373
3623.2634,0.5313168319863181,33.723912822143795
3624.0989,0.5356991820537077,45.484098513868254
3624.9326,0.5334606575269447,8066.7349920365195
3625.7686,0.5323424010727137,3955.60379798786
3626.6028,0.5366444108373142,26.6174477313821
3627.437,0.5431913194788638,1520.0677584553048
3628.2734,0.5435272749640809,15345.028980559142
3629.1082,0.5295940189504603,174.5877866462536
3629.945,0.49875169826112287,898.4543328534924
3630.78,0.456410587817383,1895.5464752714797
3631.6174,0.414401823045059,296.0261268890474
3632.453,0.3868770804681444,6923.627708043751
3633.2883,0.3825429039657697,37175.22730532613
3634.1262,0.40085219209123824,46.21445520018044
3634.9622,0.43382452726197535,160.41987105436021
3635.8005,0.4731896465211417,22.95062577735585
3636.637,0.5145105436484271,797.2217130619426
3637.4756,0.5566442548291821,113.51529985693938
3638.3123,0.5963308706976225,158.6546913743248
3639.1492,0.6268163215472933,540.5535037166202
3639.9885,0.6402726959851568,72.3016101881025
3640.826,0.6328198540286016,281.91803826012216
3641.6653,0.6072282328472314,90.25895373433613
3642.5032,0.5711155344127486,38.043315674654586
3643.343,0.5324620378719401,20.33310706536516
3644.1812,0.4972019994312892,236.27197250707772
3645.0195,0.46825288612269567,67.91185430784492
3645.86,0.44661399653540224,802.3192910623336
3646.699,0.43204610875439464,122.4273604236564
3647.5398,0.4236212396926513,133.16569023361876
3648.379,0.42177790696157214,71.93952361359223
3649.2202,0.42925644750445563,4077.379391095671
3650.0596,0.44900760034099835,100.10629588493653
3650.8994,0.4798536548197187,5084.9145950852435
3651.7412,0.5142039337636544,24.344083007904654
3652.5813,0.5411060259777978,331.415912475224
3653.4236,0.5536129927861384,151.1196178136995
3654.2642,0.552784703087984,184720.32708052316
3655.1067,0.5460182082187491,417.20243864381376
3655.9475,0.5409016854627401,767.3700799944668
3656.7886,0.5405790206500204,147.80242125150735
3657.6318,0.5440303170659833,45.35122728540336
3658.4734,0.5495103002921642,27.8612555084664
3659.317,0.5576734775923089,681.8485156420916
3660.1587,0.5716169590913571,114.24222458891715
3661.003,0.5944500149680365,208.49596032089374
3661.845,0.6257720561453226,565.8788709155501
3662.6875,0.6610218448585042,29.75893284494879
3663.532,0.6934526224437719,58.977462132454946
3664.3748,0.7175200742993384,107.41037924479818
3665.2197,0.7310834861684757,52.408972099728324
3666.063,0.7338197932800242,40.32657159643501
3666.9084,0.7255585207571236,25.710508658209378
3667.752,0.7062859423723274,196.58474926956643
3668.5977,0.6779077951104525,306.6866395633772
3669.4417,0.6457143062771663,139.57356410374626
3670.286,0.6160471110588671,3071.702005286632
3671.132,0.5925688766983664,291.32220108520494
3671.9768,0.5741405476764142,18.342990181564108
3672.8235,0.5565888781223619,44.35700321894586
3673.6685,0.5377634715660143,83.74361978995955
3674.5156,0.5199669425971826,9934.327349431092
3675.3608,0.5083606887588912,199.96656878657336
3676.2063,0.505818344624862,353.52602943418935
3677.0542,0.5097139427309232,85.19787766340973
3677.9,0.5130363659312218,59.03699613854948
3678.748,0.5099679323525953,12.698709006205638
3679.5945,0.5013773068950645,237.8760404449107
3680.4429,0.495168695466912,44.994627864250376
3681.2896,0.5005504299196588,487.3643009940171
3682.1365,0.5208114386278807,862.8662021249888
3682.9856,0.5511031608797655,27.524992029758927
3683.8328,0.5815606111656517,37.5583005627698
3684.6824,0.6029236723965631,52.30130293997836
3685.53,0.6091111863881237,577.298178555144
3686.38,0.5990148744596409,67.28932110155505
3687.2278,0.5775338948350338,56.3682497341394
3688.0762,0.555050658648071,30.223996516301355
3688.9265,0.5433646322231568,2283.5213360456382
3689.7751,0.5493909507317681,273.55341248026133
3690.626,0.571507313146398,8.877790692353177
3691.475,0.601463165142897,28.629051788179773
3692.3264,0.6297857808025472,91.73409575344395
3693.1758,0.6493231941108266,209.38005904270105
3694.0254,0.6573010107068591,32.291483573247575
3694.8772,0.6552253290590979,66.23325525973527
3695.7273,0.6483199106362745,67.68870222970611
3696.5793,0.64328679601105,64.78199215012313
3697.43,0.6450699877866066,190.00656284931296
3698.2825,0.6543204806543167,62.9375462417163
3699.1333,0.667388957532664,383.7285763754592
3699.9841,0.6787973844917932,25.21056976492975
3700.8374,0.6838721141896398,28.131067275032766
3701.6887,0.6798045605284946,66.55644121527844
3702.5425,0.6650988878692163,52.69149955902899
3703.3943,0.6390627998926169,26.191653426564567
3704.2483,0.6022585234713134,25.815894150685246
3705.1003,0.5584093346072355,22.906758547097297
3705.9526,0.5137459084101773,46.170631525128016
3706.8074,0.47498562888948587,9520.453273060244
3707.66,0.4473678177890119,59.8169743814873
3708.515,0.4343300622972077,36.0345447464872
3709.3682,0.4400124560192469,264.66720831804906
3710.2234,0.4684299094306111,42.39131896093086
3711.0771,0.5186627000819711,24990.099418826576
3711.9307,0.5805157076277997,28.565853979491187
3712.7866,0.6359616591709752,31.62565813725567
3713.6409,0.6665546127352951,25.125767822859967
3714.4973,0.6631510046034149,28.198893491978957
3715.3518,0.6284976186330782,25.164880234296273
3716.2085,0.5731783687962024,99.89055006924342
3717.0635,0.5095887815095911,85.5005711954822
3717.9185,0.44721723929060886,138.69108202623835
3718.776,0.392770794752322,443.3972066012239
3719.6313,0.35185000265214655,171.04313105020177
3720.489,0.32803528610863725,816.7904515439433
3721.345,0.3223984291949141,141.9830730418935
3722.2031,0.33248732747146814,89.77866212814934
3723.0593,0.35375512021871325,251.50698687605313
3723.9158,0.38170194792042134,71.9046509530132
3724.7747,0.41260861428617307,1655.0861168454417
3725.6316,0.44251577653396423,291.7620552262726
3726.4905,0.467674095844766,10272.906146278832
3727.348,0.48562292959556774,59.99487820791803
3728.2073,0.4969246432982791,1097.7943603832098
3729.065,0.5036934943317729,159517.01995360557
3729.9229,0.507022075506635,17.678499427816167
3730.783,0.5055937253859102,43.65042500088705
3731.6414,0.4970400020005067,72.71714941574729
3732.5017,0.4797435638005472,26.400727857769276
3733.3604,0.453387204531648,390.4349639448492
3734.2214,0.41813584278512655,52.90866676387297
3735.0803,0.375747227468054,48.158247599799246
3735.9417,0.3307148876979231,84.09463394935491
3736.8013,0.2918521861247858,4187.711826869974
3737.661,0.26895047455057497,343467.62294702756
3738.5227,0.2683757427344589,446.0715862284402
3739.3828,0.28928611493612366,162.4554211248546
3740.245,0.3235790784542018,156.14618635226535
3741.1055,0.35860628976229364,5009.616426427961
3741.9683,0.3822097883955296,19.64094645394906
3742.829,0.38659150614435334,60.06465484678996
3743.69,0.37162174001057335,634.8511489025341
3744.5532,0.3442595135368343,1275.7811910929004
3745.4148,0.3155875150135342,42613.23373943317
3746.2786,0.29577514645703457,128136.44451846692
3747.1404,0.29142817415667566,6536.231344339508
3748.0044,0.3051420894598609,64.70285081141503
3748.8667,0.33693206765415423,612973.6645755625
3749.729,0.3843507905787112,53.03627958040058
3750.5938,0.4407462343848382,184.41374534306385
3751.4565,0.4944607160347015,21.61572576211798
3752.3215,0.5346534479101451,38.661171203265255
3753.1848,0.5574047867133232,10.921755433325021
3754.0503,0.5682472979696829,139.5257372943665
3754.9138,0.5754572661192515,507.2322190383212
3755.7776,0.582137589180463,34.71532617744293
3756.6438,0.5845761845094756,117.78704455773064
3757.508,0.5785877756613454,47.25584847308515
3758.3745,0.5665491518747563,34.41123660360883
3759.239,0.5575248016742953,78.58939108701921
3760.106,0.5599215236135534,164.92549675639026
3760.971,0.5741507020305547,36.057236868008715
3761.8362,0.5919910618129564,23.532548221425742
3762.7036,0.6030606225783482,27.896918541785432
3763.5693,0.6022872551830875,57.10760427231811
3764.437,0.592533776430938,49.41737777163334
3765.3032,0.5811871412973317,365.4660551795329
3766.1714,0.5754826106966762,41.051802321311456
3767.0378,0.5813415067548711,36.6256080279431
3767.9043,0.6042290336626301,89.89735490288135
3768.7732,0.6479252937603077,132.20398347089488
3769.6401,0.7092304137106749,20.447718249576663
3770.5095,0.7759985704439452,50.63591915355692
3771.377,0.8302182757395724,20.879821465352002
3772.2466,0.8583118198836074,9.671665508674833
3773.1145,0.857129167824125,83.25382783311235
3773.9824,0.8343707072896978,93.64097848013252
3774.8528,0.8026301253434156,27.101703298510753
3775.721,0.7738253685780941,150.0161962675208
3776.5918,0.754897196630542,28.290636909142073
3777.4604,0.7470790516298007,17.118119834887004
3778.3315,0.7464707788470385,30.18417398768623
3779.201,0.747532067416183,32.41924191562797
3780.0703,0.7469884159211845,146.77667569274246
3780.942,0.7455670805452402,24.074146897289076
3781.8118,0.7460724799821944,117.89342454316194
3782.6838,0.7497301088099827,198.9993974705146
3783.554,0.754372889440927,15.191454623509749
3784.4265,0.7560629669512168,41.05549843904909
3785.297,0.7520007763372087,18.00734730181152
3786.168,0.742033855656234,31.05928629200639
3787.041,0.7279478878120867,22.657072822667804
3787.912,0.712412921359917,40.148048569331415
3788.7856,0.6981979007580448,26.428644532173024
3789.6572,0.6882488145962403,63.65918243499601
3790.531,0.6846936602683658,21.018200091233172
3791.403,0.6876637683257766,103.97827307959165
3792.2754,0.694417605554436,34.6453027998987
3793.15,0.7007812080268797,26.11989440531182
3794.0225,0.704785424947831,58.2336812063853
3794.8972,0.7100081177333328,54.65270806485759
3795.7703,0.7240197689892206,41.49507333297989
3796.6455,0.7515866764837379,95.98586941685491
3797.519,0.7873849471571737,21.598135960678427
3798.3926,0.8171884523139455,22.382676602729266
3799.2686,0.8276959018588288,3.576342928632314
3800.1426,0.817225031369752,39.00165959524911
3801.0188,0.7968126763174828,60087.14167493722
3801.8933,0.7807914151002211,24.183197867393986
3802.77,0.7764005889058461,32.33495090935029
3803.6448,0.7817766164025806,86.99724463451159
3804.522,0.7903784501422328,45.142057484699976
3805.3972,0.7957633839100292,92.56648947361793
3806.2727,0.7939697166327613,26.690776111214078
3807.1504,0.7845194048320908,11.336850743605419
3808.0261,0.7710630748707398,41.65722417611325
3808.9043,0.759364195955145,145.67469040254622
3809.7805,0.7531686004939009,37.05317242128846
3810.659,0.7505464015273783,16.682530814134644
3811.5356,0.7449841329384025,28.403405837962666
3812.4126,0.7302548966354284,40.28483758344799
3813.2917,0.7051304221701793,371.0852209797731
3814.169,0.6744342535317003,95.5883267180869
3815.0483,0.645407597440588,77.03314186678855
3815.926,0.6239612338850544,114.22154036752576
3816.806,0.6113627961442462,83.51662712327072
3817.684,0.6036994941138626,131.43421739764182
3818.5623,0.5931409987559774,54.213482117806855
3819.4429,0.572447240616204,20.604134815933257
3820.3215,0.5406062192837802,37.367037202525616
3821.2024,0.5040545748756915,61.96827784036809
3822.0815,0.4723951847198136,186.2599078438214
3822.963,0.45054929406575595,137.53673773230486
3823.8423,0.43666026211208564,101.18504694070043
3824.722,0.42618407361288707,52.319939764073304
3825.604,0.41845593745529097,2455.962085385566
3826.4841,0.4182900687340889,147.65611120563142
3827.3665,0.43193949923438746,471.9224406113824
3828.2468,0.46221689826122236,55.99926642035835
3829.1296,0.5068896900675168,259.03028116156224
3830.0105,0.55887156564018,127.31145896723466
3830.8916,0.6092491174430965,226.00310834287086
3831.7751,0.6512328812414268,20.92298866366883
3832.6565,0.6850640147063847,69.9370860764657
3833.5403,0.7199129989540277,107.23325357008171
3834.4224,0.765829211400083,65.34116988494772
3835.3064,0.8225278655459152,62.2016559294445
3836.1887,0.8731715174940331,35.54957258589786
3837.0713,0.8937973252779285,4.086447232556226
3837.956,0.8696423608414295,17.819332297254704
3838.839,0.8064980450002436,17.12206848522399
3839.7244,0.7266811329916096,7790.67902414852
3840.6077,0.657088828375089,21.781874991754428
3841.4932,0.6163769681529008,39.892000437312426
3842.377,0.610798689895823,34999.303422708224
3843.261,0.633708693465436,12.691328283450087
3844.1472,0.6705513462262537,31.942169638136377
3845.0315,0.705729348912047,266.1911242921435
3845.9182,0.7296813455346309,73.832074682446
3846.803,0.739743746432368,161.00455363929123
3847.69,0.737390420129785,20.8865082754674
3848.5752,0.7247104346565874,31.64240650029497
3849.4604,0.7042927105243411,21.437666895083524
3850.3481,0.6805367731991008,36.01001771461392
3851.234,0.6590666370126574,44.87244892821543
3852.122,0.6424532467217254,152.48104125956735
3853.0083,0.6274719914070428,33.57356017710815
3853.8967,0.6063542460990032,49.288405464193204
3854.7832,0.5728122818398229,37.44673212413425
3855.6702,0.5266285817143337,60.15501693002974
3856.559,0.47414703718100076,160.44698904472037
3857.4463,0.42484595495856003,96.34849848295971
3858.336,0.3860413541740104,484.5124394951555
3859.2234,0.3618132269202858,552.7051285959399
3860.1135,0.3536441514406418,224.35729205598747
3861.0015,0.36287434144612757,500.3419318027875
3861.8896,0.38988729613997053,129.78740610613505
3862.7803,0.43158431397833397,915.5395344010798
3863.6687,0.47961796182626765,212.78216867026975
3864.5598,0.5242454813146042,24.505347842283456
3865.4487,0.5588742447703164,36.862503463946666
3866.34,0.5840150244091001,88.62790078330409
3867.2297,0.6044648583145591,68.69100733235507
3868.1213,0.62474993587154,23.227347221530596
3869.0112,0.64515509301246,112.54143226228416
3869.9014,0.6624420337474528,31.328799139820468
3870.7937,0.6727741118593344,37.41364751369433
3871.684,0.6745036361400946,479.0970235173491
3872.577,0.6689915735227472,16.5867663766715
3873.4678,0.6591861604923634,26.074616178968697
3874.361,0.647321267444865,67.77989047674794
3875.2524,0.6336686487011468,45.851725408772396
3876.1438,0.6169805926602225,19.574858708117404
3877.0376,0.5970188931369816,28.890282341134625
3877.9297,0.5772807974643828,51.2716400131268
3878.8237,0.5648648852968162,42.0774109236463
3879.716,0.5672222177227251,1237.1947348401302
3880.6108,0.5864985764962136,87.24117772186796
3881.5037,0.616241367810014,29.808153393493797
3882.3965,0.6441295135803314,26.66970789492164
3883.2917,0.6586245457480072,79.31419147751386
3884.185,0.655412870746074,42.84506487596913
3885.0808,0.6410306848418005,37.141914257629395
3885.9746,0.632548992646734,113.76215498991438
3886.8706,0.652100374953446,83.58132723164526
3887.765,0.7149019733392409,137.51721509414233
3888.6592,0.8155141673697794,57.64848453767772
3889.556,0.9241362159305154,26.419234627945777
3890.4507,0.9996398972688176,1.7509162029865415
3891.348,1.0155756061491754,45.50711401505129
3892.243,0.9734850917067022,84.87756522134102
3893.1406,0.8967332296011316,34.85133288583017
3894.0361,0.8129465263748322,17.960909324373667
3894.932,0.7397579191226051,30.83018817038252
3895.83,0.6838548711309992,49.00610292465889
3896.7263,0.64522485545354,30.381420653248774
3897.625,0.6196354306679309,34.720949342134105
3898.5215,0.6020955974046143,38.09458395002272
3899.4207,0.5897571591696829,3149.2481058702215
3900.3176,0.5846286917973715,26.7950198999666
3901.2148,0.5914217974248823,53.646762155173086
3902.1145,0.6129012115589171,47.27635527570486
3903.0122,0.6463399409571564,15.621412668179984
3903.912,0.6848016080192469,20.6521828573403
3904.8103,0.7198832192524935,35.812864730541556
3905.7107,0.7454613583816178,39.017013309491034
3906.6094,0.7594422798940087,31.695986785264648
3907.508,0.7650554565187851,87.90330522424424
3908.409,0.7689440650307562,24.083050222296574
3909.308,0.7774638480564707,37.977270929627814
3910.2097,0.7937005998417651,651.9589667583933
3911.1091,0.8168738589043235,20.194710470574098
3912.011,0.8441449658185656,24.973120174735275
3912.9111,0.8715624175670034,26.60562551520811
3913.8113,0.894999115925171,20.148317316923922
3914.7136,0.9102382831684794,24.69324395588945
3915.6143,0.9135142688523447,22.17810705037546
3916.517,0.9024587630085176,11.803201214598971
3917.4182,0.8763855998009381,24.835675846124985
3918.3215,0.8359228826613936,27.639078389636346
3919.223,0.7837052592723517,17.014275921893653
3920.1245,0.724847018944946,22.280311911369278
3921.0286,0.6676871425132264,29.844637979044613
3921.9307,0.6224147380056673,488.5544583604644
3922.835,0.5962756522092604,76.44102931703159
3923.7373,0.5910121409743052,37.91703091869605
3924.642,0.6016156874315116,68.80204022135618
3925.5452,0.6182038769291859,79.04735796461031
3926.448,0.6296694141790652,29.067835274938588
3927.3535,0.6285150387579351,66.64838680816388
3928.257,0.6160372950116503,22.53991577593523
3929.1628,0.6058592173155641,369.00687750036127
3930.0667,0.6242240758027868,86.80270637240535
3930.9731,0.704694987238943,28.151691827629545
3931.8774,0.872232230622108,121.77185479082013
