wavl,flux,ivar
3566.9744,0.8020106824366837,354.1954394278642
3567.795,0.7988188010762135,243.0643399102682
3568.6177,0.7983005224882452,220.9717852915967
3569.4385,0.7992515558513038,239.46770985529747
3570.2617,0.80133183162519,293.92217949050746
3571.083,0.8048552317998832,333.22932514786703
3571.9065,0.8100934597450168,415.07242390270267
3572.7283,0.8166421801769947,280.46257829020095
3573.55,0.8235813761035021,220.0707022285022
3574.374,0.8299270661355069,266.4873804166563
3575.1963,0.8348911822109215,322.33669966403016
3576.0208,0.8379862677539894,212.81617663221257
3576.8435,0.8389767268158865,282.531886952411
3577.6682,0.8382173424276461,188.31353817799146
3578.4915,0.8368167377803988,247.81659472910172
3579.3145,0.8362890995078629,266.71199693651397
3580.14,0.8377598685775028,285.9542493999181
3580.9636,0.8412362373104858,250.9399914590048
3581.7893,0.845455528367386,219.56173427288059
3582.6133,0.8482582468052363,179.66028830821938
3583.4395,0.8474949833329557,239.2143954085956
3584.264,0.8419604636676884,181.84463802868106
3585.0884,0.8319837880863856,285.5104861286602
3585.915,0.8192179366148091,232.44918690723895
3586.74,0.8060547591138818,230.01090713971405
3587.5671,0.7946761624351768,250.9248722926962
3588.3923,0.786839262925677,324.60456017356245
3589.22,0.783392366098249,304.47319343484986
3590.0457,0.7841661998527609,380.2847823923922
3590.8716,0.7878514940002492,253.2730629063424
3591.6995,0.7925243668878774,290.01692073132847
3592.526,0.796437784421595,266.6988204952305
3593.3542,0.7987524387495047,261.8562785547758
3594.181,0.7994867380769314,292.7669669958414
3595.0098,0.799020633333611,247.5160385423346
3595.8367,0.7975687454030043,318.31783891433184
3596.6638,0.795112229492757,234.59522221633716
3597.4934,0.7916995491698559,237.83412476561426
3598.3208,0.7878023000959812,270.9688811143046
3599.1506,0.7842738134985221,332.7026862378069
3599.9788,0.7821134552367318,317.6362675664499
3600.8088,0.7819323146991594,309.5060511883966
3601.6372,0.7836289328082761,402.492461571108
3602.4678,0.7863410982917259,245.11814842608192
3603.2964,0.788712311212136,281.82668881662653
3604.1252,0.789436682903359,390.39102633851235
3604.9565,0.7877657480809194,275.52581574561304
3605.786,0.783880466384619,236.77834208807386
3606.6172,0.7787165666013909,365.62627910008337
3607.447,0.7734157352278406,260.21079980926766
3608.2788,0.7686501985448616,253.4204632132604
3609.109,0.7646387485936857,248.44081649994823
3609.9392,0.7614951236508758,285.86892543789406
3610.7717,0.7596204397962077,306.9337030740018
3611.6023,0.7595803540969999,238.5074560159179
3612.435,0.7616281205720131,350.43049610766883
3613.266,0.7653582944605629,323.91332326961657
3614.0994,0.7697943707153532,232.6982846806331
3614.9307,0.7737595036761189,312.942614322143
3615.7625,0.7764802707759043,306.66869717070034
3616.5962,0.7778221929662087,297.4739629168347
3617.4282,0.7781825849411077,229.09642571101853
3618.2625,0.7781354085452562,248.84759934933905
3619.0947,0.7780865792293966,305.71728239000623
3619.9292,0.7781476424543352,281.142001306382
3620.762,0.7781887381202361,308.41175452330214
3621.595,0.7779797425096264,305.5350909086648
3622.4302,0.7773381253526771,354.6078325621295
3623.2634,0.7762450729699456,256.5153573247896
3624.0989,0.774868881014395,275.4030656428864
3624.9326,0.773544865398399,296.0578807087129
3625.7686,0.772644211486193,300.9419075551243
3626.6028,0.7724560484433296,310.1100993404849
3627.437,0.7730899151553475,304.50044745620545
3628.2734,0.7745094191027645,298.8716903856107
3629.1082,0.7765447099586823,278.30689750757426
3629.945,0.7788977083485893,310.91151560220794
3630.78,0.781152965916821,287.7573550774054
3631.6174,0.783042176055365,273.2258537894396
3632.453,0.7846333020200512,313.4370297422104
3633.2883,0.7863250987856921,277.92310767408526
3634.1262,0.7885102370945041,261.2359082523277
3634.9622,0.7912369027957585,283.4940444564856
3635.8005,0.7941952555419629,207.38741491539642
3636.637,0.7968895502325224,176.47688404512135
3637.4756,0.7990506483817322,248.78969631529327
3638.3123,0.8008447328541456,229.26479401437484
3639.1492,0.8028567868380543,274.49709345643186
3639.9885,0.8056696805213538,193.5956259328646
3640.826,0.8093605135297751,293.81922453764577
3641.6653,0.8134087129003587,213.73845390190252
3642.5032,0.8169414990137185,246.3515427847115
3643.343,0.8192450923438485,247.30561854303477
3644.1812,0.8199449330235324,239.837784956839
3645.0195,0.8190330992531567,262.3842812336985
3645.86,0.8168109016136361,245.5780274838456
3646.699,0.8139484667195255,200.67685484683636
3647.5398,0.8113133766623853,322.86008745410885
3648.379,0.8095755038235197,229.62807333331415
3649.2202,0.8087119930050878,252.42277839236922
3650.0596,0.8080335085677626,270.2641452957999
3650.8994,0.8066902224743274,340.54936456279097
3651.7412,0.804274239083702,278.19926961599356
3652.5813,0.801030685755769,233.9499535298843
3653.4236,0.7975538753420619,275.77731431698265
3654.2642,0.7944330859115825,310.40714651652183
3655.1067,0.7919044598827083,281.8940958696202
3655.9475,0.7898265696052323,246.9564552769277
3656.7886,0.78781284016787,229.06720279078692
3657.6318,0.7856068268501748,321.2998104427726
3658.4734,0.7833717690541133,293.48959635523977
3659.317,0.7816075845563641,372.99291939386796
3660.1587,0.7808926790023409,273.9607385123746
3661.003,0.7815949220195518,243.32976911797596
3661.845,0.7837382749738343,347.8567296727795
3662.6875,0.7869019601195937,388.24766014770086
3663.532,0.790164022544574,349.70326301158656
3664.3748,0.7923011231894473,296.0343184026433
3665.2197,0.7924335246983017,212.9377223893059
3666.063,0.7906057221778289,234.3891164329124
3666.9084,0.7878025282094603,308.98978750973544
3667.752,0.7852260914973467,354.5187063049214
3668.5977,0.7833516708826347,210.13169382816858
3669.4417,0.7817568221037557,251.9265508535315
3670.286,0.7797297349740546,247.20538549032352
3671.132,0.777107717248795,309.4192537052922
3671.9768,0.774508798860748,343.06109983299746
3672.8235,0.7727514909085744,350.7709709520831
3673.6685,0.7721472417460225,321.83536535086273
3674.5156,0.772210017174299,322.37678094019515
3675.3608,0.7720786087358653,226.2049613840998
3676.2063,0.7712111716276159,355.9094757285188
3677.0542,0.7697783784116676,243.46038278284766
3677.9,0.7684636072250485,241.85334620989352
3678.748,0.7677778897386974,296.31717825813314
3679.5945,0.7675512897625358,313.4805696874823
3680.4429,0.7670346179779931,251.2548792408124
3681.2896,0.7656448184995811,325.8378781333002
3682.1365,0.7636324864355347,347.54112486327097
3682.9856,0.7619962158906042,324.0795024807496
3683.8328,0.7616482545418258,306.09350221679335
3684.6824,0.7625594952573513,303.8265971259099
3685.53,0.7637618502324404,292.2468984650244
3686.38,0.7641876090174842,275.453399269577
3687.2278,0.7634923370165188,270.5237319309868
3688.0762,0.7621263295355293,306.29548332063916
3688.9265,0.7606862624725157,298.5710437499246
3689.7751,0.7593064544693318,476.83483984638633
3690.626,0.7575765829378918,383.4243283668875
3691.475,0.7549889779231201,347.40510900931025
3692.3264,0.7513547133054751,359.20477374806467
3693.1758,0.7470171083280812,273.1958987366196
3694.0254,0.7426352582313587,314.9197705836455
3694.8772,0.7389173505646741,357.28997509043364
3695.7273,0.7364339458140896,421.87978075112926
3696.5793,0.7355092529702769,435.2324728459818
3697.43,0.7362623673874511,335.23057275937947
3698.2825,0.7385489021880434,415.86128674937754
3699.1333,0.7419106454196266,265.5097761761922
3699.9841,0.7456751062180236,340.2948711964772
3700.8374,0.7491393347497333,269.3730632084073
3701.6887,0.7517523179706738,329.8555864903344
3702.5425,0.753335790684536,343.05667902890144
3703.3943,0.754095739912835,264.73230082012583
3704.2483,0.7545507529221572,301.6033372868333
3705.1003,0.755199088911649,291.5459592226749
3705.9526,0.7561763641331312,302.80616418041836
3706.8074,0.7571711493042661,290.6402242666937
3707.66,0.7577173225569126,227.2681786354851
3708.515,0.7576076869423034,299.7012440128395
3709.3682,0.756963051641521,303.636383523458
3710.2234,0.7559480364258442,295.9153112059511
3711.0771,0.7545315615257457,261.68034611334895
3711.9307,0.7526174513586972,283.70892826946147
3712.7866,0.7504036869479273,283.31456379338965
3713.6409,0.7484691626100549,372.84074153999757
3714.4973,0.7472938914112103,288.85374609713165
3715.3518,0.7467640190889456,268.55887001977055
3716.2085,0.7461253317129692,277.475343253467
3717.0635,0.7445643089274236,327.9817117374402
3717.9185,0.7418835763902266,377.2295542145974
3718.776,0.7387790405445678,299.71473329110125
3719.6313,0.7365555043248767,304.2526192280183
3720.489,0.7363497511895386,291.4901890133326
3721.345,0.7384999880302094,295.27282118431026
3722.2031,0.7423849658310154,308.1081738607321
3723.0593,0.746783352965563,308.583692197337
3723.9158,0.7505259349788762,350.02528275653947
3724.7747,0.7528652127599609,318.29700835986904
3725.6316,0.7535558734753938,306.6039922134833
3726.4905,0.7528061291806731,324.42787626696867
3727.348,0.7511512755770131,290.1053169364415
3728.2073,0.7492969622866426,286.37321387378023
3729.065,0.7478487346600912,314.1957692044212
3729.9229,0.7469423092258081,311.32488776376755
3730.783,0.7461496485826014,306.02838028457046
3731.6414,0.7447842279993049,290.9573429363698
3732.5017,0.7424224734222925,259.38481089918935
3733.3604,0.7392800609989085,260.1935350705066
3734.2214,0.7360552485199605,244.47438999399262
3735.0803,0.7335143950306041,343.7288537602913
3735.9417,0.7319957730886991,299.24620553313304
3736.8013,0.7313496677253729,352.0166476979289
3737.661,0.7311134277062322,319.25593222190196
3738.5227,0.7308503207407482,333.0922485387359
3739.3828,0.7303733354767872,307.3895689194835
3740.245,0.7297420158128849,280.2626734105029
3741.1055,0.7290845884624795,281.4017050403462
3741.9683,0.7284124682459701,335.46339501846927
3742.829,0.7276212849512802,298.51203064151
3743.69,0.7265534545856948,427.2595638262261
3744.5532,0.7250114553236026,371.50548781293884
3745.4148,0.7227495107424037,380.1531743517486
3746.2786,0.7195170691583809,366.42976707240524
3747.1404,0.7152882615377963,310.1655358489418
3748.0044,0.7103872982726069,383.1410961575729
3748.8667,0.7056474772346728,429.1317098223057
3749.729,0.7022056535263393,333.26093293697284
3750.5938,0.7011172095010416,327.4598800232658
3751.4565,0.7027873804978972,365.00331288339953
3752.3215,0.7066779946835239,348.271018860256
3753.1848,0.711586393918409,279.6007862513468
3754.0503,0.7163814798582268,338.0819749325618
3754.9138,0.7204373580144292,281.52165775708744
3755.7776,0.7237345623997253,364.9763786125442
3756.6438,0.7264902998152387,337.38695205262144
3757.508,0.7288063618099684,398.67266698567516
3758.3745,0.7305682741100129,379.1110264671135
3759.239,0.7314656558538374,341.5143244211173
3760.106,0.731219117606547,376.504396095393
3760.971,0.7297699858377468,277.89021627562164
3761.8362,0.7273622057338948,291.38040044689194
3762.7036,0.7244503892898854,350.2699314734741
3763.5693,0.7215624844591169,303.345225356361
3764.437,0.719109727086312,322.98879497494084
3765.3032,0.7173387313802404,341.7854010513603
3766.1714,0.7162680322732191,296.42519158167175
3767.0378,0.7157889866230441,289.5561816502087
3767.9043,0.7157688259689997,321.86452665587854
3768.7732,0.7160966074743487,373.28871565555806
3769.6401,0.7165867009562482,303.0135582961462
3770.5095,0.7168966577623637,332.2979224056882
3771.377,0.7165558976609118,285.11755127821334
3772.2466,0.7151359780197084,348.1033113650541
3773.1145,0.7125209863761756,278.4611392043129
3773.9824,0.7091212894120591,317.5217144255987
3774.8528,0.7058228687347219,393.30110860515134
3775.721,0.7035610381363278,306.5286411231615
3776.5918,0.7026917234110001,423.34011797336507
3777.4604,0.7028870994721765,343.19356167159157
3778.3315,0.7035197452171777,373.0973014018001
3779.201,0.7041719975322293,326.2413333567143
3780.0703,0.704733432916498,401.4438040936875
3780.942,0.7050802141961484,382.1613219979602
3781.8118,0.7048077241081419,374.69894068249107
3782.6838,0.7034037227423743,401.19961807864416
3783.554,0.7007665572498486,346.2341559936493
3784.4265,0.6974999217758053,391.8127804994669
3785.297,0.6946981719310035,257.37541824065994
3786.168,0.6932331139331369,356.4042370769773
3787.041,0.6933268007442073,395.8376203184377
3787.912,0.6946227534773924,376.1459209481707
3788.7856,0.6965954005017972,349.18697140883364
3789.6572,0.6987818120412725,416.89173050505735
3790.531,0.7007730692338778,304.25596233355503
3791.403,0.7020936712102,349.1119371748692
3792.2754,0.702362835528984,415.3914271216663
3793.15,0.7015457836496167,306.8055190342661
3794.0225,0.7001056956032785,300.4784313306271
3794.8972,0.6988003896221834,312.03622728217323
3795.7703,0.6982904459150633,383.20647827093933
3796.6455,0.698786481725826,340.5521984301838
3797.519,0.7000246623375636,446.57239921090144
3798.3926,0.7014998089086771,314.89378379590835
3799.2686,0.7027283812375221,350.7467151090939
3800.1426,0.7033848782784273,343.5253374973601
3801.0188,0.7033853022034147,375.3693825850245
3801.8933,0.7028798325233793,388.89764712906
3802.77,0.7021193676446013,350.94132136422076
3803.6448,0.701190654785401,356.4196045420963
3804.522,0.6998419770311656,309.317028611825
3805.3972,0.6976951171413042,346.6720768197969
3806.2727,0.6946365947624216,403.422948544856
3807.1504,0.6910679846865986,428.6007587909056
3808.0261,0.6877968998759665,360.9155828834369
3808.9043,0.6855358799343408,435.77184105761165
3809.7805,0.6844697746191247,438.7062020254409
3810.659,0.6840229017053654,413.26923733502605
3811.5356,0.6832627453784126,359.969998609898
3812.4126,0.6816331621660465,319.7333521877336
3813.2917,0.679406912250948,477.4745900218877
3814.169,0.6774382512035575,367.0531601495385
3815.0483,0.676461859129864,449.9967883257363
3815.926,0.6767155412106023,466.3485982050214
3816.806,0.6779913361139619,298.4582006781931
3817.684,0.6798777421402192,275.9096196357108
3818.5623,0.6819247304606207,447.3474116604979
3819.4429,0.6837024872631021,389.73729748397704
3820.3215,0.6848533644542238,351.92411885580225
3821.2024,0.6852052740005634,354.07889992265956
3822.0815,0.6848044873107946,432.4868735307252
3822.963,0.6839113357930984,374.0894998461922
3823.8423,0.6829205701114693,327.2126257512431
3824.722,0.6822093256603654,464.150323472138
3825.604,0.682002083673446,371.712279595952
3826.4841,0.6822990959489986,420.1902126486871
3827.3665,0.6829258803718137,339.1862329288691
3828.2468,0.6836460370362363,376.7799362940768
3829.1296,0.6842422165038942,360.4422194399578
3830.0105,0.6845112824371357,400.36218948305594
3830.8916,0.6843053099923634,383.9424246943057
3831.7751,0.6836054851025831,431.7988088731412
3832.6565,0.6825558477439908,336.7057708816163
3833.5403,0.6813243309806252,428.39893735218493
3834.4224,0.6799697222265638,509.63877292910564
3835.3064,0.6784639480500049,373.86536836806295
3836.1887,0.6769815772841424,307.1667172068682
3837.0713,0.6760697313031823,428.8982400451276
3837.956,0.6764470862548442,420.0414150310203
3838.839,0.6784293282544261,389.934025313129
3839.7244,0.6815321389627558,367.1423641081386
3840.6077,0.6846381158455827,330.24950679599493
3841.4932,0.686710154827436,324.7588416062965
3842.377,0.6872705627728546,331.2520289876927
3843.261,0.6864065341493886,335.3578247238051
3844.1472,0.6843635398258999,420.6977064613364
3845.0315,0.6813761704853204,362.7264199786413
3845.9182,0.6778016480771331,307.4655435822101
3846.803,0.6743425343255341,418.32555428727335
3847.69,0.671730207313011,396.26916323937354
3848.5752,0.6702823702463601,437.6100235326966
3849.4604,0.6697152654458206,363.1278553049538
3850.3481,0.6696031505754282,411.5314538965329
3851.234,0.6698815293713807,360.5299858090704
3852.122,0.6708412129743527,369.16170964954796
3853.0083,0.6726643765224766,487.4301093006463
3853.8967,0.675126714014837,409.09077307010887
3854.7832,0.6777171229822895,366.7989021889782
3855.6702,0.6800313329631801,399.04488233689455
3856.559,0.6818806794988329,351.0998632864808
3857.4463,0.6831344102919261,368.53901390079875
3858.336,0.6836041670966981,364.95132947122084
3859.2234,0.6831208218668705,343.33950798840846
3860.1135,0.6817396232317081,431.8229313206821
3861.0015,0.6797723730025019,399.1764343656929
3861.8896,0.6775678450334108,303.5704682921266
3862.7803,0.675330148715598,297.7484803459045
3863.6687,0.6731381948227984,416.85520306297207
3864.5598,0.6710422112174704,408.32690090408005
3865.4487,0.6692224242030117,439.2209780113359
3866.34,0.6679118904342675,507.0982115508416
3867.2297,0.6672350443955081,333.5558395332541
3868.1213,0.6669658942063985,437.6866932575871
3869.0112,0.6665676719102958,350.0353559566538
3869.9014,0.6655442252504925,326.1454747781854
3870.7937,0.6638419490662854,402.38986188708975
3871.684,0.6619219690859595,489.95134073477425
3872.577,0.6603656779450353,337.82203949198254
3873.4678,0.6594451369870843,365.174627708934
3874.361,0.6589107902791896,333.87490949118256
3875.2524,0.658205793589468,413.59095867799664
3876.1438,0.6568472737582621,401.57150733852694
3877.0376,0.6547434277743338,382.26757970387445
3877.9297,0.6522708726278003,426.9461588279115
3878.8237,0.6500239683806567,474.00436445547797
3879.716,0.6485143005158206,352.45593436849003
3880.6108,0.6478839601714574,534.0751567109836
3881.5037,0.64788578499693,364.6053651411653
3882.3965,0.6480544681755072,412.10966416178115
3883.2917,0.6480169125788642,392.2108945210074
3884.185,0.6476869193294477,398.80741036536324
3885.0808,0.6471958295181669,420.452680543028
3885.9746,0.6466608373070438,489.2063969337916
3886.8706,0.6460490271889184,447.31490908733093
3887.765,0.6453147019831319,347.99556539237835
3888.6592,0.6446080273856734,429.1677294982919
3889.556,0.6442993192631052,443.3084252330774
3890.4507,0.6447280659764868,389.85559418460247
3891.348,0.64590797892395,384.2536761318677
3892.243,0.6474717953110878,426.92552523950434
3893.1406,0.648944718378705,427.17686221248533
3894.0361,0.6500637406099375,371.3249022905663
3894.932,0.650977021857871,365.0252995416313
3895.83,0.6520724212539413,393.95106149264143
3896.7263,0.6535753663293146,405.2295111492942
3897.625,0.655261342642311,442.08873142461647
3898.5215,0.6564845713060665,363.80358715421147
3899.4207,0.6565510442501984,349.2408799636418
3900.3176,0.6550472109623122,321.6788726143207
3901.2148,0.6520544575865671,285.91710325121016
3902.1145,0.6481966750720202,358.51114320359216
3903.0122,0.6444920798021399,448.321470733004
3903.912,0.6417653528118002,413.94401769226084
3904.8103,0.6401964603379524,406.44142523339525
3905.7107,0.6393268592651151,387.7013342763305
3906.6094,0.6387101388547705,445.9726510661816
3907.508,0.6383841201954147,442.5448267559804
3908.409,0.6387070079620055,378.35697036540637
3909.308,0.6398301513570781,422.5622060548965
3910.2097,0.641508003097545,391.772866418621
3911.1091,0.6433395934187118,469.3782740875422
3912.011,0.6450793727847005,482.2822742117541
3912.9111,0.6465867802826742,448.9142835754521
3913.8113,0.6477184648728274,397.1062076415777
3914.7136,0.6483635131949436,389.50640954758364
3915.6143,0.6486500711195488,474.08452124543174
3916.517,0.6490164722023051,393.78171545866803
3917.4182,0.6499498529589259,372.7151916180341
3918.3215,0.6516277340962177,469.1153486056135
3919.223,0.6537448387592459,407.77592057840553
3920.1245,0.6556999145171191,409.57206711132926
3921.0286,0.656886323874133,401.52441581890065
3921.9307,0.6569354682893608,435.84818528619036
3922.835,0.6558718934515807,449.42927016050663
3923.7373,0.6541174684098989,416.23212421736497
3924.642,0.6522825676753838,395.72424080280877
3925.5452,0.6508326781273404,428.5040797275977
3926.448,0.6497775464448576,459.0341338529097
3927.3535,0.6487439246419399,444.26594692169346
3928.257,0.6473618610843528,396.85447771640213
3929.1628,0.6456152985185123,430.27583070814836
3930.0667,0.6439156231761448,353.973169794959
3930.9731,0.6427790834527888,466.01037415693474
3931.8774,0.6424777400186781,435.36541037863884
3932.782,0.6428553456540058,523.8709017031498
