wavl,flux,ivar
3566.9744,3.007496638814813,12.346147502811183
3567.795,3.001223675259559,12.86071776039609
3568.6177,2.9939466041193112,15.5895463191173
3569.4385,2.9871175252645585,13.743662413158638
3570.2617,2.9818962761361654,13.527293143277337
3571.083,2.9784327650320748,11.579039197532387
3571.9065,2.975937249920898,11.10444214706666
3572.7283,2.973883922355864,9.47534622372713
3573.55,2.9728687498804542,13.922077225889192
3574.374,2.9742565473588813,11.211751841760105
3575.1963,2.978747100585974,13.732790750239506
3576.0208,2.9853665688098827,10.548226342795374
3576.8435,2.9917311344826536,11.87725662534848
3577.6682,2.9954846464536415,13.00433281043449
3578.4915,2.995403049508132,14.959614959310905
3579.3145,2.9918104030968133,11.748755380118
3580.14,2.9860606189457077,13.62122812807618
3580.9636,2.979664415850409,11.670050442775407
3581.7893,2.973131854953945,12.810964386463018
3582.6133,2.9656822406719803,15.148482521655634
3583.4395,2.9560797440562228,14.317091446879184
3584.264,2.944607846920388,13.824238690068265
3585.0884,2.933798770872439,13.79374840243686
3585.915,2.927148106664893,16.710353307380444
3586.74,2.926513012279851,11.334843947771056
3587.5671,2.9304361308236753,11.641296409546953
3588.3923,2.9350152170012636,15.211386267082919
3589.22,2.9363663719957955,10.094410739090668
3590.0457,2.932608542063088,11.317212342755095
3590.8716,2.9243965959772913,15.101291160601399
3591.6995,2.914084538117845,13.35132910081408
3592.526,2.904584960529344,12.063617494204388
3593.3542,2.897937612530192,12.60184849713901
3594.181,2.894375114981155,12.812048094886434
3595.0098,2.892035619896325,14.482961893326646
3595.8367,2.888266046836679,13.634162991406344
3596.6638,2.8813927595017756,10.840009932565579
3597.4934,2.8716259120080196,14.416498083184475
3598.3208,2.860735369087843,12.362767444729583
3599.1506,2.8509213921735905,13.126236935783632
3599.9788,2.844323970086808,14.83323656676836
3600.8088,2.842244831116073,16.951682638174237
3601.6372,2.8446116479464,18.12192137136863
3602.4678,2.849676511197724,16.49647916770316
3603.2964,2.8546110982403525,13.363607449392731
3604.1252,2.857003756078412,13.120789283695686
3604.9565,2.85622769794496,14.552879865400168
3605.786,2.85385790692946,15.189531402276454
3606.6172,2.852503947938029,11.457949067272622
3607.447,2.8539521588133545,10.443019619751114
3608.2788,2.858034754602687,12.741671490896744
3609.109,2.8628349274999922,15.823816853518293
3609.9392,2.865706293035578,13.819579188864811
3610.7717,2.864325350228999,14.561569606503662
3611.6023,2.8579207229215595,13.411622934805616
3612.435,2.8481101282975523,12.40911369932439
3613.266,2.838431032421796,14.757424073110363
3614.0994,2.8317908925152353,16.224180062101617
3614.9307,2.8281426666483083,15.411126968834813
3615.7625,2.824273261559535,12.17304749697784
3616.5962,2.8165172223098733,12.736055374176148
3617.4282,2.8038871326993955,14.130780506293078
3618.2625,2.7888825314481642,15.229444307638563
3619.0947,2.776163814099901,14.324263134354071
3619.9292,2.769844130203074,15.768629116808746
3620.762,2.7718044987269246,15.332189464887453
3621.595,2.7807331773366,13.41585098209649
3622.4302,2.792498177121222,14.119785271744508
3623.2634,2.8013914563150846,13.969453638542427
3624.0989,2.8025758593985794,11.501079300754416
3624.9326,2.794215601615486,15.061488268408477
3625.7686,2.778538592249256,12.761965192535605
3626.6028,2.760944260330759,12.283056204701213
3627.437,2.746976606106763,18.248853002174645
3628.2734,2.739457474626699,12.928454928603273
3629.1082,2.7373019460976673,17.412455395935137
3629.945,2.736622984544195,15.601853798951664
3630.78,2.733349945015431,14.476737287559672
3631.6174,2.725134331021109,17.937596305943675
3632.453,2.7117896455649255,15.944619108230876
3633.2883,2.6944128203264963,16.951038397595816
3634.1262,2.674722622756204,14.254640196086577
3634.9622,2.6550887077681744,10.710960983182813
3635.8005,2.6377558809443618,17.08943202646446
3636.637,2.62415239798723,17.25590054412241
3637.4756,2.613673834738245,14.668214430529755
3638.3123,2.6044380471298245,14.299667189096171
3639.1492,2.5945653983610604,16.74667220772977
3639.9885,2.5831682367222637,21.395648992988654
3640.826,2.5700749199124457,15.334340982221748
3641.6653,2.5549699833803565,14.524119141887299
3642.5032,2.5378849769708984,17.06558732283166
3643.343,2.519767584181443,17.616695400889522
3644.1812,2.502857256962737,16.43759995494438
3645.0195,2.4893291942458275,20.11702192302543
3645.86,2.480116397195852,17.428935444807237
3646.699,2.474672796213104,18.26347140800053
3647.5398,2.4718577753234707,15.807133560346564
3648.379,2.4711614276317846,16.014747454771662
3649.2202,2.472543545951368,18.35284319629634
3650.0596,2.475286035269353,21.446214632250914
3650.8994,2.477376040114926,17.3562590889066
3651.7412,2.4764636480585334,13.342933636580753
3652.5813,2.4717005085076886,17.993312165756848
3653.4236,2.464553015188898,15.060832818565604
3654.2642,2.457793950643656,17.58782760938628
3655.1067,2.453220421823256,16.838442115118085
3655.9475,2.4503203181220896,16.802623980776808
3656.7886,2.4467831069109343,18.028067048930563
3657.6318,2.4406826897146168,16.700352544378134
3658.4734,2.432377232054341,17.628102320595648
3659.317,2.4243285394637746,24.224179091891514
3660.1587,2.41941247857835,13.27143031508711
3661.003,2.4189095134861867,20.615327023294256
3661.845,2.421958919776418,19.22437620832323
3662.6875,2.4262817224718805,16.428273344933906
3663.532,2.4294978620643337,16.474150455182496
3664.3748,2.430055832980556,17.0995057366069
3665.2197,2.4274625547317314,18.004026686210004
3666.063,2.4220760041350116,18.693475960434164
3666.9084,2.415068909954753,18.41980917687594
3667.752,2.408640632888979,19.370501764328186
3668.5977,2.40531010097374,21.14155654992142
3669.4417,2.406449917059834,20.02776857503061
3670.286,2.410858723724424,17.283545817760352
3671.132,2.415141720416387,21.659758399669062
3671.9768,2.415610366246001,17.044053368693973
3672.8235,2.4102031391591114,18.03764441288736
3673.6685,2.399002365970352,18.035032021192887
3674.5156,2.3835659238541496,22.497317793680036
3675.3608,2.3664427836703505,17.5547599323729
3676.2063,2.3503383951550587,20.497018727766168
3677.0542,2.337436505112679,22.745759897900946
3677.9,2.3286626844533926,25.254344025424995
3678.748,2.323269012716106,20.783299240585777
3679.5945,2.3196982760029,29.224364996764027
3680.4429,2.316385500487006,16.064492292487873
3681.2896,2.3123587206503804,24.165583348605253
3682.1365,2.3072511230610897,22.026436131884772
3682.9856,2.3012912592579546,19.446841122485207
3683.8328,2.2953125288199026,15.910332087812785
3684.6824,2.290374822616953,21.611639702629763
3685.53,2.287423716375921,20.897827272120953
3686.38,2.2869227040961952,24.253297807957466
3687.2278,2.288901994325645,19.55766640629784
3688.0762,2.2929293124084835,19.86101666649453
3688.9265,2.2980051148947593,23.040141496940695
3689.7751,2.3026115299178826,19.160522057928766
3690.626,2.30536356003922,20.998894422084906
3691.475,2.3056759800208617,19.205812542029296
3692.3264,2.3040527806015723,27.344495325472398
3693.1758,2.3015835920922663,18.183615552050373
3694.0254,2.2990894404037436,21.534668557111782
3694.8772,2.29660152453465,20.849989364889804
3695.7273,2.2935806555070086,19.21594618410184
3696.5793,2.28969581626313,20.378505813023658
3697.43,2.2855749219148085,20.13094816518519
3698.2825,2.282461239643081,20.448557404854906
3699.1333,2.2810471815799027,17.94533093316371
3699.9841,2.2805006507043575,23.05217964113393
3700.8374,2.2790014504665854,20.909324623420485
3701.6887,2.275313867214867,18.170483626660936
3702.5425,2.269823603373065,24.50734602020716
3703.3943,2.2642632851792452,23.814672610507976
3704.2483,2.2604188829442684,21.996368953793798
3705.1003,2.259235551271443,18.573715923437717
3705.9526,2.2603723426155815,21.937390618305326
3706.8074,2.2623270014216574,21.905858992467756
3707.66,2.2629169239016056,21.58940776242719
3708.515,2.260313839325056,20.469526365445237
3709.3682,2.2540735482228555,18.11841487696944
3710.2234,2.2452785774057875,22.25440770814258
3711.0771,2.2357212753738716,23.26354503127616
3711.9307,2.2266541821687693,29.573662506324446
3712.7866,2.2185968907774902,25.532954609237308
3713.6409,2.212154898555683,21.61910110508255
3714.4973,2.2083834658961083,22.20940108273321
3715.3518,2.208223521992586,23.027832114851787
3716.2085,2.2113107869800537,20.27604313587241
3717.0635,2.2159127402779397,29.044666743237286
3717.9185,2.2202324798272906,21.20519675525972
3718.776,2.2236681222435815,24.166172777163236
3719.6313,2.2268000332268425,20.9778048001413
3720.489,2.230439193606797,19.97101466776109
3721.345,2.2346688447723557,24.92474700444535
3722.2031,2.238843669001454,19.50970156829268
3723.0593,2.241980126211877,17.740100340309883
3723.9158,2.2431957731596075,30.898417386717412
3724.7747,2.2417899888487245,18.444205640397513
3725.6316,2.2374362758966893,26.625247055732977
3726.4905,2.2303296370181642,23.171680228261124
3727.348,2.2211530569459144,22.73729660261601
3728.2073,2.21062273376268,22.54603414799237
3729.065,2.1995166398086856,20.965683349158205
3729.9229,2.1887733424209324,25.534786669143543
3730.783,2.179660197389532,27.19349142843507
3731.6414,2.173328430109949,22.342082863039234
3732.5017,2.169864054112892,25.323014525530553
3733.3604,2.168033810553262,29.589147681113843
3734.2214,2.1658050361793415,25.707270353660228
3735.0803,2.161666672526845,20.551279707298196
3735.9417,2.1555412939271643,21.433977671732265
3736.8013,2.1486844708346053,21.319856598151723
3737.661,2.1424063216099096,22.51485521866633
3738.5227,2.1370637377652835,20.685377621498542
3739.3828,2.132136684016626,23.177293539586056
3740.245,2.1270305464663406,20.65218070623077
3741.1055,2.1218904211874166,23.767334335071737
3741.9683,2.1173849709944546,23.64010698169001
3742.829,2.114111980210426,28.14758723012985
3743.69,2.1120088516458217,24.421995389750638
3744.5532,2.110518682108663,24.81316028816439
3745.4148,2.109116921441837,28.056125256835866
3746.2786,2.107689728548091,26.935442982193432
3747.1404,2.106599515811179,24.465073259330136
3748.0044,2.1064603454935895,23.426500902718917
3748.8667,2.107827285891869,30.270508506796894
3749.729,2.110740267478403,28.143573583056472
3750.5938,2.114380305796877,28.964691173993355
3751.4565,2.117199292288482,19.80452341757662
3752.3215,2.1177909131782924,27.044957649177007
3753.1848,2.115674329498538,20.128708257305465
3754.0503,2.1113676842086093,21.500770499600094
3754.9138,2.1057973868100155,24.184491098440343
3755.7776,2.099756752751797,30.55218328054807
3756.6438,2.094003542908744,32.09174352671998
3757.508,2.08932675072037,24.813777188799122
3758.3745,2.085803942859272,26.41349428247256
3759.239,2.0821385405472665,26.659263931410347
3760.106,2.0759800761881464,21.964113060519725
3760.971,2.065893092759063,19.5044906685698
3761.8362,2.053158094415098,29.723902590471447
3762.7036,2.041743501026009,31.390687085219746
3763.5693,2.035941802252016,25.081167013429273
3764.437,2.0371979881209104,36.77891451465664
3765.3032,2.043178366438028,22.50947164902363
3766.1714,2.049506500367742,21.74918648720164
3767.0378,2.0525754308742146,26.85161091567797
3767.9043,2.0513120829770264,23.877804711029164
3768.7732,2.0466797440411866,28.157964496285228
3769.6401,2.0401401654872537,25.030427814838202
3770.5095,2.032351581565747,25.329110762019727
3771.377,2.0234057748591163,26.654229557560956
3772.2466,2.013684340284136,23.931145182211424
3773.1145,2.0046552384748364,27.241125405598368
3773.9824,1.998185312886146,27.221908961981185
3774.8528,1.9954082168669247,25.295294510742547
3775.721,1.9959611615314037,27.897636315665263
3776.5918,1.9981594105831342,32.14723239989551
3777.4604,1.9999006736772664,24.76446935657616
3778.3315,1.9997600435048855,30.18997644906489
3779.201,1.9977512364584873,27.232434819391017
3780.0703,1.9953533399219912,32.550477713487055
3780.942,1.9945863391542715,32.88355406679887
3781.8118,1.9967041808440245,25.636093946185376
3782.6838,2.0013640482295023,25.847561523210175
3783.554,2.006716272032211,23.751104015584037
3784.4265,2.010393620386857,29.41084943438951
3785.297,2.0106593725272304,28.116964272844903
3786.168,2.007371537022616,35.96976020943061
3787.041,2.001869314478544,32.605771159741685
3787.912,1.9960406395137786,29.65454599437103
3788.7856,1.991126665765809,33.456214057876885
3789.6572,1.9875205727793672,30.43271165561212
3790.531,1.9851091498808897,39.28503074402673
3791.403,1.9837219429081456,25.06957226651942
3792.2754,1.9829435244585072,28.735100939058267
3793.15,1.9818101129156807,26.053708254032387
3794.0225,1.97890825518676,29.23693967197208
3794.8972,1.9730475409688244,33.79174123443614
3795.7703,1.96423122409051,25.332357664033037
3796.6455,1.953931134657145,26.161184494494464
3797.519,1.9446239051921343,28.462944638991008
3798.3926,1.9383621947197907,33.78435243487124
3799.2686,1.935809865761751,33.65561948083099
3800.1426,1.9360354154926795,25.843020787487497
3801.0188,1.937008182916761,28.989585894838765
3801.8933,1.9364277790440247,26.18547203326407
3802.77,1.932510661895981,25.371608240671847
3803.6448,1.9247128789375292,34.30377210296897
3804.522,1.9140836424852197,30.783002835002712
3805.3972,1.903335052719267,27.539100217948175
3806.2727,1.8958543787695545,37.9792849889438
3807.1504,1.8943292498326776,39.37890347164465
3808.0261,1.8991870871531589,28.8347814279095
3808.9043,1.9080506978053529,25.63947091362983
3809.7805,1.9167085039101948,29.251362502657443
3810.659,1.9213364445578094,32.179863850138574
3811.5356,1.920186960610082,26.6165836928367
3812.4126,1.9141909958146524,26.289393980847883
3813.2917,1.906061252922961,22.979967125294607
3814.169,1.8988834996817519,30.35363990277987
3815.0483,1.8945601357525355,29.74147988951706
3815.926,1.8931884439204236,30.400689432918554
3816.806,1.8932848802311866,27.766672315621868
3817.684,1.8930136434098839,26.734915329606512
3818.5623,1.891462953741399,35.57213237538933
3819.4429,1.889110336406306,32.079028057784505
3820.3215,1.8872697095879927,37.47919807243537
3821.2024,1.8870209337179151,34.569662465369234
3822.0815,1.888579206969758,27.560968531815888
3822.963,1.8913245053193501,36.93628939388098
3823.8423,1.8941725847324131,26.97357347342764
3824.722,1.8959988478080694,26.98375549495357
3825.604,1.8959477434483816,28.094099588925193
3826.4841,1.8937410366792995,33.48865902102812
3827.3665,1.8896933061616503,34.33991528145651
3828.2468,1.8844008508031884,30.643146343762663
3829.1296,1.8782938175222283,34.14518692762159
3830.0105,1.8717047031059935,34.22703329433882
3830.8916,1.8649759862077278,25.279093748079553
3831.7751,1.8585901935399265,35.435072486594045
3832.6565,1.853072326744132,31.40658124360768
3833.5403,1.8486429355663052,35.648232371775336
3834.4224,1.8450978535024938,31.539482128288263
3835.3064,1.8415692648994277,33.54148120842248
3836.1887,1.8367633701238555,32.7188022922264
3837.0713,1.8295389416363037,32.49141166494204
3837.956,1.8197557646461089,39.151188191771624
3838.839,1.8089085572248345,50.23031595721384
3839.7244,1.7997757120187623,32.69824007842957
3840.6077,1.7954352985993303,30.045753117337163
3841.4932,1.7974272055926133,44.7992518429768
3842.377,1.8046784901179622,37.3909760562924
3843.261,1.813941410007034,34.424734843266656
3844.1472,1.821664134743782,40.18170606956434
3845.0315,1.8258872519560738,33.28871375593613
3845.9182,1.8271179395742663,33.83429030862909
3846.803,1.8274075525621931,26.927061654227618
3847.69,1.828610148318533,30.586774083429763
3848.5752,1.8309298667694998,36.75605188400817
3849.4604,1.8330081310188413,35.74494984087974
3850.3481,1.8333508542700394,26.976412330319597
3851.234,1.8316832200015798,39.49771571293451
3852.122,1.8289368607655785,29.229096331302753
3853.0083,1.826151947398903,29.135265760906076
3853.8967,1.823515122376222,32.15503518551832
3854.7832,1.820461283784299,34.51201135310067
3855.6702,1.8162757858800862,37.987406101132684
3856.559,1.8106447664517307,35.8584566783836
3857.4463,1.8038611297730136,34.09635703041602
3858.336,1.7966496446849178,41.942498957403544
3859.2234,1.7900282047305325,35.868675919590544
3860.1135,1.7847240930299304,34.59572554353253
3861.0015,1.780848647549573,32.904787133322046
3861.8896,1.7777448509760827,41.29702035033569
3862.7803,1.7746484572785002,35.41467555729436
3863.6687,1.7714740741081287,39.53916226744858
3864.5598,1.7687655674181564,36.50997243373137
3865.4487,1.7667307409351611,36.472615786280244
3866.34,1.7641892245362691,34.11160146105273
3867.2297,1.759099518598263,35.718188248451035
3868.1213,1.7504173433190882,39.20012671173457
3869.0112,1.7396849533131122,36.77593461049823
3869.9014,1.7302280245524282,29.901644592519478
3870.7937,1.7249287166452376,41.01852402239579
3871.684,1.7248523504793873,35.38099516365733
3872.577,1.730190770188384,35.33889399500798
3873.4678,1.7421121834104734,36.20593184181018
3874.361,1.7625403521636633,34.318426749244786
3875.2524,1.7905896773583962,37.5510970799561
3876.1438,1.8198754790665093,40.966538548847716
3877.0376,1.840001470603546,39.05428166258089
3877.9297,1.842647986377823,32.77868484023281
3878.8237,1.8274034932032222,38.67257508172279
3879.716,1.801360946124995,39.31598490753156
3880.6108,1.7734962256254454,33.73978474069431
3881.5037,1.7499570270697014,38.314088958525105
3882.3965,1.7324112084904117,38.64002421677921
3883.2917,1.7199983038479107,34.0740112018385
3884.185,1.7112770627668346,34.24461945106995
3885.0808,1.7048653083253034,35.06586726459125
3885.9746,1.6998111156070665,38.22188404952755
3886.8706,1.6955569608012853,42.05077938267414
3887.765,1.6920829550632943,37.90055456808769
3888.6592,1.6896258933891655,54.04691043758345
3889.556,1.6882915087654136,41.64199231381189
3890.4507,1.6877420648865498,40.01533520451276
3891.348,1.6872506682493273,56.91336641993747
3892.243,1.6861179716077572,43.23808761609354
3893.1406,1.6840419931010144,34.50448065538755
3894.0361,1.6812844694827898,40.55359679092528
3894.932,1.678486058759847,38.16460604735294
3895.83,1.676325330956118,40.76329287218307
3896.7263,1.6751540080519094,35.16893546447919
3897.625,1.674804766402495,37.34577993070566
3898.5215,1.674729252345978,34.14795813825517
3899.4207,1.6741751809824676,38.45809957905885
3900.3176,1.6723507565804456,42.01464423231892
3901.2148,1.6686933515182443,34.72962956906715
3902.1145,1.66334667245821,46.61947856705279
3903.0122,1.657574006149748,40.35961459357731
3903.912,1.6533771350376814,43.86607124188619
3904.8103,1.6526050575951077,41.28700659503775
3905.7107,1.6559011606262617,40.91086589082188
3906.6094,1.6624954486081376,36.90017965876881
3907.508,1.670931419242611,41.788713154160945
3908.409,1.679986463308751,43.55437280579735
3909.308,1.688905973570952,45.31894813757786
3910.2097,1.6971850633071608,41.8929667524585
3911.1091,1.7040210595450023,33.903383601127764
3912.011,1.7085684170636481,41.65578755004494
3912.9111,1.7101723604222319,39.66911795462182
3913.8113,1.7085825120669083,32.66122807859818
3914.7136,1.7037741449228716,36.104167914730844
3915.6143,1.6961029586474137,39.28246963339148
3916.517,1.686581540323436,44.240759035720465
3917.4182,1.6770526115898166,43.72185047756995
3918.3215,1.669374854628746,44.321438199814494
3919.223,1.6646425559248141,36.62056294878046
3920.1245,1.6626483683925581,41.700496904039014
3921.0286,1.6622156045873897,38.327403903723216
3921.9307,1.6616740691834795,34.222113616247476
3922.835,1.6593701953041213,42.61676623834172
3923.7373,1.6543514380380127,41.6428435377854
3924.642,1.6469597046923583,38.83552779292157
3925.5452,1.6389599570650544,36.50397678583127
3926.448,1.6324927903652735,41.60836610163415
3927.3535,1.6287441018451083,44.43237630121382
3928.257,1.6272999526759226,39.83623414936204
3929.1628,1.6266634118510672,41.042344288267884
3930.0667,1.6255019078276864,44.4930367190657
3930.9731,1.6233143180438954,37.18500604947029
3931.8774,1.6202917028975612,46.861100418345636
3932.782,1.6168308203159338,39.95656299604029
3933.6887,1.6134132547857178,40.09485692649298
3934.5938,1.6107285394665973,43.65679531474041
