wavl,flux,ivar
3566.9744,12.286254375808243,44.20960840904937
3567.795,12.269548471550358,43.85770008295126
3568.6177,12.259320498691972,44.355350232733876
3569.4385,12.251462748548418,43.7900863531854
3570.2617,12.241634774961055,42.85176877195249
3571.083,12.228737258170563,43.61026261627178
3571.9065,12.21483995075473,49.04444627495987
3572.7283,12.203058275111555,45.38839968278893
3573.55,12.195186405265106,45.59133532683091
3574.374,12.191725733745427,45.363909867987196
3575.1963,12.192996789874705,44.57212999445916
3576.0208,12.199414900258526,46.85874489938587
3576.8435,12.210446898418331,44.89702202981194
3577.6682,12.22388520521897,43.12569280144327
3578.4915,12.23640985976675,46.90178206842723
3579.3145,12.24546213463642,46.02376949483108
3580.14,12.25005613054472,41.82258429832551
3580.9636,12.25010389728492,47.08070836906537
3581.7893,12.245229747851953,42.209945633500965
3582.6133,12.234368597239955,45.28622096733699
3583.4395,12.21659582949634,46.623804095977945
3584.264,12.192728771377848,43.26371526642678
3585.0884,12.165693073231163,45.81110084326466
3585.915,12.139919360140933,43.86590887132771
3586.74,12.119876032049,46.26875067980211
3587.5671,12.107589146048685,44.980682111740116
3588.3923,12.101558755940914,44.384971576875124
3589.22,12.096996797793507,44.20676989159218
3590.0457,12.088816770224964,42.24724438718712
3590.8716,12.074990828727394,45.28004044471671
3591.6995,12.057793359542337,45.43052129863319
3592.526,12.041759642524863,43.777797464443
3593.3542,12.029677503517888,45.24899492874717
3594.181,12.020682633144236,43.26749968982998
3595.0098,12.01108814345916,45.60001586870767
3595.8367,11.99772793390841,47.23333628325296
3596.6638,11.98057973721842,45.82998499590484
3597.4934,11.963423484623682,45.24151585493928
3598.3208,11.952158110220342,46.50847606696308
3599.1506,11.951326191982089,52.06018672599362
3599.9788,11.961672112311478,47.93314875085524
3600.8088,11.979570558225792,45.74174262196853
3601.6372,11.998738482607385,45.1203283640597
3602.4678,12.01333950307096,44.92147219563295
3603.2964,12.019754011283759,46.84619983563166
3604.1252,12.017472429395315,44.706014590395924
3604.9565,12.008631209305335,45.1849015482846
3605.786,11.99749204318704,49.07335862300749
3606.6172,11.98891001149502,45.27286761665727
3607.447,11.986246254459871,45.2939335023733
3608.2788,11.988890989636031,45.44979254790803
3609.109,11.9915951248118,45.26990236012377
3609.9392,11.986830654908989,43.42389629726543
3610.7717,11.969331224325199,46.806438005148145
3611.6023,11.939969729395097,44.6944624108913
3612.435,11.90499123646797,48.18301293938855
3613.266,11.872364638365834,45.783719690351525
3614.0994,11.846932750832833,46.41966808292155
3614.9307,11.829739158271488,49.70077153593282
3615.7625,11.819144475334989,46.461294872902016
3616.5962,11.813089519267143,48.58590269841629
3617.4282,11.809709066602634,46.8549961408919
3618.2625,11.806879819275398,45.390426634077315
3619.0947,11.802212336379231,46.557775155000165
3619.9292,11.793893628194585,49.258129881827045
3620.762,11.782072380485689,50.02356300102206
3621.595,11.769036222664035,48.54867960305424
3622.4302,11.758052596160603,49.99022551860979
3623.2634,11.751608353063208,49.91231300565584
3624.0989,11.750243051110907,47.7015729057833
3624.9326,11.753206200637843,51.99764220429762
3625.7686,11.759658065214271,46.14742370525108
3626.6028,11.768991650181462,44.57375539051935
3627.437,11.779892603815675,49.639701334671884
3628.2734,11.789351456618007,45.7064728949359
3629.1082,11.793530848036008,45.24579191029527
3629.945,11.790458269591056,47.7878836848888
3630.78,11.78162225703773,49.70208772724934
3631.6174,11.770898867579183,48.76015336987281
3632.453,11.762120796554088,46.302444113296644
3633.2883,11.757015840876615,47.73235101910082
3634.1262,11.754980690496216,48.47329894238049
3634.9622,11.75385696909964,45.41954210242055
3635.8005,11.75142892671808,48.790964291801615
3636.637,11.747170416874939,48.7976026109039
3637.4756,11.742730502141683,47.56568586813095
3638.3123,11.74067823262444,47.48391966972577
3639.1492,11.742457318584085,48.76186413132972
3639.9885,11.7476350816395,49.00612213082892
3640.826,11.75435422791842,48.949518279658385
3641.6653,11.760229210707124,48.556509178414466
3642.5032,11.76276629653248,46.91937008180043
3643.343,11.759970414005867,46.68728480430079
3644.1812,11.750881565395725,47.424161014258075
3645.0195,11.735779014668086,47.002025970676534
3645.86,11.716080084123712,46.53705294399646
3646.699,11.694344242001913,49.36706254326808
3647.5398,11.673359512419525,48.28272444813508
3648.379,11.655372309195883,49.36883926361554
3649.2202,11.640776149628673,48.677778911219704
3650.0596,11.628366699747046,46.261419842682066
3650.8994,11.615706047337854,48.74797097882902
3651.7412,11.600163505505977,51.25655354080414
3652.5813,11.580419826288532,45.40981763131631
3653.4236,11.55797595461787,48.70105532182721
3654.2642,11.53793062643122,54.84454294600459
3655.1067,11.526223095408579,51.16523434312569
3655.9475,11.526079114770816,49.77725123484888
3656.7886,11.535914125688558,50.391410458543525
3657.6318,11.551148127379083,50.03331361825999
3658.4734,11.567320083210015,46.86407302156947
3659.317,11.58250348704707,52.06780558995161
3660.1587,11.596968054009308,50.03750216744771
3661.003,11.611877048092888,51.79791581194826
3661.845,11.627177446549386,48.081928486966255
3662.6875,11.640887843589267,50.30849506883014
3663.532,11.649258898404803,49.04776270074099
3664.3748,11.648307002474805,45.63759650954565
3665.2197,11.636007783575215,49.57109867405214
3666.063,11.613967283104733,48.44647698730293
3666.9084,11.586899924336556,52.39120324776948
3667.752,11.56035901306768,46.35820224071384
3668.5977,11.537285045166284,49.61099246608333
3669.4417,11.517959763117334,49.04262397712624
3670.286,11.501753543454019,50.45538211487798
3671.132,11.489317864974678,48.6386472431422
3671.9768,11.482097455306285,49.368285817463715
3672.8235,11.479975219987109,51.14662161873425
3673.6685,11.480302934731023,50.162852481253644
3674.5156,11.479378234583278,50.69997199869812
3675.3608,11.475296540566676,47.471312314143276
3676.2063,11.469318393890953,50.743271686360686
3677.0542,11.464469555952725,49.59560297719317
3677.9,11.462823180050083,50.476496769142045
3678.748,11.46394983142016,53.81478955919852
3679.5945,11.465922386247168,47.265467866274356
3680.4429,11.467266493003933,49.40483883984354
3681.2896,11.46770465888584,53.903189088283355
3682.1365,11.467317452554743,48.70419521348132
3682.9856,11.465565618706158,50.054817366096316
3683.8328,11.461625762482718,49.6193709123572
3684.6824,11.455493940041078,51.1108463419483
3685.53,11.448592124571618,49.272175823940024
3686.38,11.442987027994342,54.326085393208125
3687.2278,11.440393169678824,46.51130815581915
3688.0762,11.441432544141833,52.269699037414405
3688.9265,11.445656307514726,51.34241690785375
3689.7751,11.451650261602008,52.70727108328455
3690.626,11.457308401870087,51.90725600549124
3691.475,11.460132816380748,57.07511360038696
3692.3264,11.45808014273506,50.55221742742957
3693.1758,11.450513535555665,50.21592058250283
3694.0254,11.438808613843591,52.10481160453075
3694.8772,11.425961497220113,50.3100650225209
3695.7273,11.415186403987743,51.54530108001327
3696.5793,11.40782560025559,52.40312333014786
3697.43,11.402757675849447,53.2233413259955
3698.2825,11.397445511803904,48.36117529115305
3699.1333,11.390103819402508,51.561490274566545
3699.9841,11.380590984618232,50.64184198720018
3700.8374,11.369714967140231,55.260302597324795
3701.6887,11.358320253409289,52.514789500562856
3702.5425,11.346992016240295,53.60775890253218
3703.3943,11.336686125895419,50.12905811074462
3704.2483,11.32817692048749,53.29742180139472
3705.1003,11.321105723847586,49.85566690150402
3705.9526,11.313198642483968,49.12171403028728
3706.8074,11.301319297076496,53.880017984238556
3707.66,11.28381417837451,51.861039863082354
3708.515,11.262106914017421,51.8920354846807
3709.3682,11.24101514628977,52.44966230454054
3710.2234,11.226207763701707,53.85630356764043
3711.0771,11.22143333008361,54.37778695740739
3711.9307,11.226219484382518,52.420216886336
3712.7866,11.236314530534928,55.251056292594875
3713.6409,11.245913532730356,51.37297379396253
3714.4973,11.250812794008242,49.48615781075669
3715.3518,11.250037371095134,51.43016196101852
3716.2085,11.245330650750665,51.7217892970033
3717.0635,11.23889647274708,52.50863635537574
3717.9185,11.231631856201643,51.9799228473196
3718.776,11.223506896116096,50.508207209777495
3719.6313,11.215149603928953,51.10108664629078
3720.489,11.208065073499514,51.22196647937864
3721.345,11.203376225110281,51.0056996895507
3722.2031,11.200271189492538,54.53652167729071
3723.0593,11.196400637551351,51.721941083685174
3723.9158,11.189555128066813,55.7942689532619
3724.7747,11.179165749954517,54.207207013393486
3725.6316,11.166640307817099,52.58902329735833
3726.4905,11.154275222852089,53.228418253248215
3727.348,11.14407225163638,53.18839897401374
3728.2073,11.136397099815346,56.13697926753476
3729.065,11.129983925605694,54.266705284581235
3729.9229,11.122871876527642,55.7204902876486
3730.783,11.113855138254944,55.797560871104636
3731.6414,11.103164216640815,54.96357382406651
3732.5017,11.091981785730594,52.418695391322245
3733.3604,11.081989996229773,56.20861572280729
3734.2214,11.074680483609987,50.83693457294616
3735.0803,11.071011840889767,52.36165786083847
3735.9417,11.070806754308718,50.98711890536212
3736.8013,11.072805117183607,55.80554378118772
3737.661,11.075127104017321,53.4342974083629
3738.5227,11.075924752790884,53.459343141540856
3739.3828,11.073829582305514,53.814656203528315
3740.245,11.068243452049067,53.329858267833394
3741.1055,11.059590847378889,52.68695707023051
3741.9683,11.049196676335121,51.63008698558692
3742.829,11.039089621512256,55.80429983084623
3743.69,11.031259719415559,53.6863354421382
3744.5532,11.02721919608955,54.229234935211416
3745.4148,11.027557331392975,55.10979341515942
3746.2786,11.031453077404786,51.66732457552128
3747.1404,11.03663081288089,56.528675058280825
3748.0044,11.040317238912065,52.02896339750536
3748.8667,11.040805035025015,55.385098468787845
3749.729,11.038526730110023,55.14955954347649
3750.5938,11.035314161090335,55.99397409572298
3751.4565,11.03267984924451,53.25264858757543
3752.3215,11.030623079199138,55.249653833462254
3753.1848,11.028087509485585,50.018611439079926
3754.0503,11.024165539265079,50.990219400458365
3754.9138,11.018963776185656,57.13304900176989
3755.7776,11.013399670949346,53.24273567793025
3756.6438,11.008593384619294,58.238619614945826
3757.508,11.005414218944823,54.584620152816925
3758.3745,11.004302716990837,56.71374287272524
3759.239,11.005460926863597,53.46846615895012
3760.106,11.00876981542071,56.59675908865456
3760.971,11.013185133342661,57.03659053659191
3761.8362,11.016160457585238,52.86677811971649
3762.7036,11.01404331737782,51.806924480468986
3763.5693,11.003984985895352,54.604819624213945
3764.437,10.985928250964292,52.38314260563908
3765.3032,10.963136351731407,53.69375183644855
3766.1714,10.940164198317062,54.25484736910565
3767.0378,10.920709515609191,58.23105472168673
3767.9043,10.906008616876417,53.90516908658472
3768.7732,10.895468507889872,56.42596370072512
3769.6401,10.887934246414522,55.35642692954039
3770.5095,10.882417110999564,56.8343211631399
3771.377,10.878716352723371,55.75020653905247
3772.2466,10.877574519879598,56.810194802739176
3773.1145,10.880554621669699,54.29065513189212
3773.9824,10.8890113210893,55.64912998408479
3774.8528,10.902966166078635,56.54757664560204
3775.721,10.920724793811305,52.98366493568166
3776.5918,10.940183624022591,55.973389044478594
3777.4604,10.959640518213591,52.42341184495164
3778.3315,10.978473818618756,57.81915276260009
3779.201,10.996147922260976,55.22827862242357
3780.0703,11.011825869312002,55.915377881079756
3780.942,11.023920412129113,56.68277673711719
3781.8118,11.030339818034882,56.33031700595049
3782.6838,11.02966748528085,53.68126203134042
3783.554,11.022227743549728,56.569138475212874
3784.4265,11.010241759404103,54.66933689815214
3785.297,10.99663628358688,55.443386795270385
3786.168,10.983033360864411,56.878571394950384
3787.041,10.96902456164882,53.05209254636679
3787.912,10.95297956236159,52.89274556864395
3788.7856,10.933268437420265,56.40920581490312
3789.6572,10.909703128419688,55.46112945366547
3790.531,10.88316634764613,57.16691197821757
3791.403,10.855038233905475,57.14042493307494
3792.2754,10.82558936368948,58.63609222600517
3793.15,10.79377174947348,56.31417114726489
3794.0225,10.758257401858305,56.44113067527779
3794.8972,10.718193344994882,56.249516015302675
3795.7703,10.674759737195922,58.14511320205563
3796.6455,10.630613263634395,58.4782741735715
3797.519,10.590295394816444,57.770754374536885
3798.3926,10.558858938564317,60.47939453489214
3799.2686,10.54106769375055,64.32028753410725
3800.1426,10.5399748388855,60.76585321437624
3801.0188,10.55546687950383,58.27845277740517
3801.8933,10.584217734995848,60.48192570666456
3802.77,10.62117260831146,58.280709729078275
3803.6448,10.660958395665078,60.632855513699454
3804.522,10.700020960266018,57.168581462555466
3805.3972,10.736325109990625,58.75385584485723
3806.2727,10.769512469974202,55.76259677839062
3807.1504,10.799685532861794,60.435365784903375
3808.0261,10.826765352492007,56.925957778736546
3808.9043,10.851069270034653,55.36500024408532
3809.7805,10.872776017200033,56.32444151769295
3810.659,10.891966215074554,55.42327980535065
3811.5356,10.908143644534363,52.20873565132561
3812.4126,10.921505925751838,55.049995464038744
3813.2917,10.933565709824556,53.19563203567349
3814.169,10.946013949486169,57.567251224716486
3815.0483,10.958553707722368,55.86689605917333
3815.926,10.96756297765874,56.068008201645554
3816.806,10.967877166327446,56.39764026393265
3817.684,10.955825948287531,56.219711399205785
3818.5623,10.931599616432594,52.00212282920475
3819.4429,10.898974879253567,55.7308483369144
3820.3215,10.863291090540312,56.29386585809973
3821.2024,10.828110171390438,55.02156017613578
3822.0815,10.794780327616387,53.23858159410919
3822.963,10.762623808732393,56.39858444345267
3823.8423,10.730582022427928,60.53965207903024
3824.722,10.6967291519762,56.761236359540725
3825.604,10.658174734800609,59.38321590836178
3826.4841,10.612072601137207,57.49056223119934
3827.3665,10.556659459395524,57.83324125869677
3828.2468,10.493380566202319,61.67022682344779
3829.1296,10.425173784717154,59.793500515214525
3830.0105,10.355563281008964,62.96209687325238
3830.8916,10.285781245015047,64.04809466498456
3831.7751,10.215293371204698,61.60306372365513
3832.6565,10.143864849648962,65.04571783533757
3833.5403,10.072154705370181,64.6988074945028
3834.4224,10.004414047802392,64.179594985466
3835.3064,9.947036635394097,75.02356222278101
3836.1887,9.90790421923868,63.728704788503066
3837.0713,9.892985703659889,70.83242006233964
3837.956,9.90508263454683,67.89396343349229
3838.839,9.943169660251751,62.71260183426482
3839.7244,10.00360516649719,69.41276888695484
3840.6077,10.080836040829155,67.1741691329307
3841.4932,10.169645776170535,63.866557107552616
3842.377,10.26442934721175,63.44515998364462
3843.261,10.360752253369222,61.46657059304305
3844.1472,10.455010385873255,59.12607368504019
3845.0315,10.544069079228175,58.795395533610446
3845.9182,10.626910537775466,56.03440068323675
3846.803,10.702685281324339,57.89175342228245
3847.69,10.771932499816531,59.00958658262495
3848.5752,10.83487426697024,57.0743310818673
3849.4604,10.892547021175968,56.74553962071482
3850.3481,10.94655287732122,55.981336717151535
3851.234,10.998567527622598,53.29498272984042
3852.122,11.050445687647624,57.428242966913906
3853.0083,11.101810673055907,53.36049477641625
3853.8967,11.150370234523022,53.728322832136534
3854.7832,11.192037869964354,51.30620797484925
3855.6702,11.224144579355093,51.14818426516377
3856.559,11.246732263740324,52.29082574508148
3857.4463,11.262125111244776,52.80026918848214
3858.336,11.273028200922496,51.84127964224778
3859.2234,11.280403266999622,52.6631832355859
3860.1135,11.283748582748798,53.49301600129923
3861.0015,11.28233802017753,52.456341457576364
3861.8896,11.276319356803915,52.07687220736072
3862.7803,11.266425329975808,51.41871384998863
3863.6687,11.253380002647937,54.13593299500246
3864.5598,11.23739213459642,53.952186848764896
3865.4487,11.218525089369987,51.85605862690153
3866.34,11.196317480591533,52.80552418635149
3867.2297,11.170009474692012,53.06763007240884
3868.1213,11.138285770458285,52.57744978596905
3869.0112,11.100299877770352,49.01732975710198
3869.9014,11.055716141147409,53.797122328838725
3870.7937,11.004699061443228,55.578436356096006
3871.684,10.94772103860539,54.81479683499682
3872.577,10.884431525331022,56.209302766538435
3873.4678,10.815279151326974,56.927185140916066
3874.361,10.740848524851293,58.984463198148454
3875.2524,10.66285856612767,59.48411283596892
3876.1438,10.581688994333984,59.169354871029256
3877.0376,10.495909483362379,55.68318546890073
3877.9297,10.403396269064917,64.3353139340259
3878.8237,10.301268554252069,61.72678106238804
3879.716,10.188655144380613,69.97855925808247
3880.6108,10.06544638177056,66.28981685534717
3881.5037,9.934426124687917,63.822785666059296
3882.3965,9.79893180268087,67.96542785288692
3883.2917,9.66257551007318,74.0077648033373
3884.185,9.528849709985483,73.14582463049533
3885.0808,9.397800440821154,74.72084939060083
3885.9746,9.269464440013891,75.51410211435068
3886.8706,9.143685450788473,79.93306959452188
3887.765,9.024752804920466,84.22725577410151
3888.6592,8.92012568379974,83.16093228020411
3889.556,8.840133964999849,84.12586415459869
3890.4507,8.796007965255177,86.35397054881042
3891.348,8.795360867493876,90.84173721152945
3892.243,8.839957618574644,85.64967770633636
3893.1406,8.924973290376538,83.9438772904568
3894.0361,9.04028467326121,79.91537360326012
3894.932,9.175687963885686,80.67522754413594
3895.83,9.323269825302654,76.54839599577625
3896.7263,9.476479028082796,73.46321975896974
3897.625,9.631553752702862,70.0523388299298
3898.5215,9.783798336061686,72.39082218945366
3899.4207,9.931177786194379,66.92377492042142
3900.3176,10.071880589528423,62.984903993848626
3901.2148,10.207154507586836,63.401759566558695
3902.1145,10.338972585631712,60.407557961555334
3903.0122,10.467815263309195,62.384112088191316
3903.912,10.594162804947226,59.17107669034079
3904.8103,10.716475750287556,54.72060700255183
3905.7107,10.834440796761045,55.36147773559555
3906.6094,10.947564945890877,58.26296425886338
3907.508,11.056661387446104,54.40968985076572
3908.409,11.162149848348317,54.61561308879315
3909.308,11.262816510237808,51.24976059053042
3910.2097,11.358146675372423,51.24559243338953
3911.1091,11.44769532279164,51.356694307324986
3912.011,11.533342538059273,49.62756075885744
3912.9111,11.616421396531722,49.472817634854245
3913.8113,11.697660128940171,48.855564588226876
3914.7136,11.776097751622148,46.703453096989996
3915.6143,11.849262754630175,46.391223104606865
3916.517,11.915589804289917,46.69070666615193
3917.4182,11.974034368944285,45.61954174241488
3918.3215,12.025461296241952,45.04008366591961
3919.223,12.071387461946939,45.91090361906337
3920.1245,12.11423630824858,44.06821807504563
3921.0286,12.156048775780986,42.981148721949516
3921.9307,12.197223166113762,44.91541096647111
3922.835,12.236631003752873,46.72074616943625
3923.7373,12.271327160163203,42.939327236896354
3924.642,12.298791826307745,44.85939853063759
3925.5452,12.317917463973682,43.68356284678359
3926.448,12.329947714935441,44.08029273762517
3927.3535,12.337295236452249,44.05948045400588
3928.257,12.342056498094255,44.215563375002255
3929.1628,12.345209961624397,42.87166435476661
3930.0667,12.34641452560312,41.865642763858
3930.9731,12.344425412409045,45.579416876235015
3931.8774,12.337527565777805,43.217287203648524
3932.782,12.324046114733278,42.67359821363149
3933.6887,12.302982680133235,44.1767311208105
3934.5938,12.274646979465818,43.81954281770857
3935.501,12.239867121865927,43.8170117198656
3936.4062,12.199320107436437,45.19980583054341
