wavl,flux,ivar
3566.9744,13.633622375809086,3.2198036410263975
3567.795,13.569547230165952,4.163109075497322
3568.6177,13.500736111564354,3.951820282889855
3569.4385,13.443010161071877,4.476250228281083
3570.2617,13.404782361113341,3.982156214704313
3571.083,13.383390083260746,3.7147594270871207
3571.9065,13.366606910938991,3.6463960264018556
3572.7283,13.341899076025545,4.211113082160052
3573.55,13.304914698315825,4.184587557698465
3574.374,13.262135115053335,3.569284535096007
3575.1963,13.22610656956686,4.162525472793392
3576.0208,13.205645080815232,4.05845967040721
3576.8435,13.200140979989065,3.9771594444869036
3577.6682,13.200179716863104,3.6015946117252935
3578.4915,13.194339083259743,3.950347750538283
3579.3145,13.175518488499538,4.05826900355326
3580.14,13.143080438639801,3.8577713148668185
3580.9636,13.102257298788764,4.090075831018514
3581.7893,13.061890166386815,3.4129083272841907
3582.6133,13.033568379662366,4.101128415283825
3583.4395,13.028735856584149,4.20176641395382
3584.264,13.054710463794114,4.259050113486634
3585.0884,13.108747397433183,3.73197323776117
3585.915,13.175551792437668,3.636690472927306
3586.74,13.231439195591072,3.707272594371324
3587.5671,13.257201097926531,3.413285482922898
3588.3923,13.247375924345643,4.04689610221425
3589.22,13.210661749004545,4.076207775479434
3590.0457,13.161179179959802,4.128282104121519
3590.8716,13.109333822336675,3.9865224282775995
3591.6995,13.059862463601322,3.622121802325321
3592.526,13.014444142759773,4.489272969313172
3593.3542,12.973401014368386,4.211362446799028
3594.181,12.937691813979473,3.758081942221856
3595.0098,12.908730207045835,5.367907074288279
3595.8367,12.888282231111074,4.165852242032682
3596.6638,12.87562577994492,5.073084804481649
3597.4934,12.865868699290989,4.678314069970076
3598.3208,12.850685335422872,4.133103414273537
3599.1506,12.821548709348953,3.4029874496803876
3599.9788,12.77405391388332,4.906740244454992
3600.8088,12.709739526409564,4.560489856978232
3601.6372,12.637740834489016,4.022294869499715
3602.4678,12.572967466714925,4.175696637050687
3603.2964,12.533551791116382,4.502870802604545
3604.1252,12.532692167185989,4.276126527416498
3604.9565,12.572919641596494,4.143582117826197
3605.786,12.643999942236093,4.85464209901703
3606.6172,12.72840053987067,3.9179585266376495
3607.447,12.807095342658979,3.9769188231299406
3608.2788,12.866158150648904,3.523832223565905
3609.109,12.898102679224845,4.4869414253236
3609.9392,12.902627546619625,3.9877135668437442
3610.7717,12.883873894150152,4.5054478401495475
3611.6023,12.848458454995127,4.318487664054811
3612.435,12.803310267018984,6.085750436267373
3613.266,12.755024960427825,4.055905063342059
3614.0994,12.70817254845318,5.131049305610473
3614.9307,12.666058173086677,3.9482252144526058
3615.7625,12.630444646699694,4.593040296740891
3616.5962,12.602070021503275,4.391474632717459
3617.4282,12.579828850933529,4.142216066755301
3618.2625,12.55984805121898,4.447342437016668
3619.0947,12.537206887842522,4.497675827153612
3619.9292,12.508146698321582,3.6975392720008413
3620.762,12.472257044319198,3.994462531308235
3621.595,12.431022206789166,3.9517282565517693
3622.4302,12.38548815200488,4.655721783329458
3623.2634,12.335933358464729,3.9115444681016958
3624.0989,12.283475447137167,4.464018463326031
3624.9326,12.234098887058959,5.261222089332771
3625.7686,12.197600286602492,4.521595075393506
3626.6028,12.18366178145611,4.143771805334016
3627.437,12.194429265108667,5.894432624777164
3628.2734,12.221540996824842,4.435811625164498
3629.1082,12.24928783827561,4.811470002796051
3629.945,12.263715430831295,4.611271240892823
3630.78,12.259238838381176,4.732212058530472
3631.6174,12.23912232106267,5.666850303549731
3632.453,12.210768202452586,4.222913015182413
3633.2883,12.180881943154288,4.6483959500673855
3634.1262,12.154027791862337,4.648058545519884
3634.9622,12.13334214719169,4.820525261111323
3635.8005,12.120691488715057,4.7445081592442815
3636.637,12.116945490387012,5.4129175532541005
3637.4756,12.12066291775955,4.821119429365489
3638.3123,12.127360408353718,5.236898845407483
3639.1492,12.130973398130477,4.869081117896544
3639.9885,12.127672868054685,4.764950382624703
3640.826,12.118992801932292,4.370120912946595
3641.6653,12.110538169077813,4.330717161691937
3642.5032,12.107117634677449,4.561866926401917
3643.343,12.10835615846768,4.400150845048096
3644.1812,12.108945063979203,4.4485058644919135
3645.0195,12.103024388656994,4.633847527017675
3645.86,12.088852279771954,5.154881772114759
3646.699,12.07006928268066,4.242058711469085
3647.5398,12.051969286178345,5.158067871324901
3648.379,12.036580276593131,5.117983909697848
3649.2202,12.019988814538538,4.451121996221688
3650.0596,11.995430658104098,4.358528996906859
3650.8994,11.95877681721915,4.844443848703522
3651.7412,11.91249159895993,4.597388630158271
3652.5813,11.864725610642443,4.957954156923163
3653.4236,11.823547755689452,5.737360406141897
3654.2642,11.793355550838928,4.33846347527669
3655.1067,11.773504227478352,4.933665374173386
3655.9475,11.760990170873903,4.659708194857302
3656.7886,11.751951310053949,5.241631891569761
3657.6318,11.742248508399436,4.625629733463362
3658.4734,11.728193694931505,4.670245269115209
3659.317,11.708545727720988,4.719029131760757
3660.1587,11.686400778994013,4.669918697297558
3661.003,11.66732982158288,5.507952352724918
3661.845,11.65605419174487,5.252786041677902
3662.6875,11.653963748287964,5.402842709631875
3663.532,11.660366333209534,5.288406028256633
3664.3748,11.674090548186998,4.5974469550657755
3665.2197,11.693678355037374,4.4541503949174395
3666.063,11.715899597945025,4.669967511140124
3666.9084,11.7355620358224,4.643029817386983
3667.752,11.74641699317479,4.514354069762522
3668.5977,11.743962055511771,4.660748417139625
3669.4417,11.727763683584824,4.9726344641361795
3670.286,11.702847583468165,5.163874118720807
3671.132,11.67875699208726,5.122108944704318
3671.9768,11.66573446839647,4.497996414042709
3672.8235,11.668064686400774,6.199747222049154
3673.6685,11.67968879073408,5.0115183622466795
3674.5156,11.686460681002593,4.7417991140845945
3675.3608,11.675332462929655,5.83118634926987
3676.2063,11.643888338249369,5.154514138677578
3677.0542,11.601564657066355,4.802368408390906
3677.9,11.562230514915674,5.05084892904178
3678.748,11.53292896899876,5.21099777635977
3679.5945,11.510545520772332,5.445931831781362
3680.4429,11.486121545862606,4.925745309926572
3681.2896,11.45416592252571,5.169004035310828
3682.1365,11.417546256970585,5.423110866675932
3682.9856,11.385883196564807,5.702092762057969
3683.8328,11.368748562082706,6.648028717874613
3684.6824,11.367896393199018,6.192719869703027
3685.53,11.37551171973866,5.518683027764659
3686.38,11.379498816579908,4.974655646018502
3687.2278,11.372466419651635,6.032090915171128
3688.0762,11.356997492109457,4.954057312777203
3688.9265,11.342638579477487,5.61484788880396
3689.7751,11.337637416082059,5.780695068441698
3690.626,11.342047008292731,4.439062412060354
3691.475,11.348026703425397,4.5660578693889
3692.3264,11.34606047038129,6.0237572670274
3693.1758,11.331737449196787,5.468782837964868
3694.0254,11.308223392812382,5.5664386613929455
3694.8772,11.283410171227388,5.18264389786382
3695.7273,11.264600589514036,5.8215350729154265
3696.5793,11.253801864232,5.237858433495523
3697.43,11.247943053645677,6.020602292266002
3698.2825,11.24238144569375,6.0489569167472625
3699.1333,11.234890733125857,5.935989001068536
3699.9841,11.226187468560191,5.364655645046822
3700.8374,11.217570219229401,5.2633081240804325
3701.6887,11.208697582692727,5.762338855826698
3702.5425,11.197495557293417,5.435867447644311
3703.3943,11.18219554185782,5.631865249362036
3704.2483,11.16239955041553,4.811285499023324
3705.1003,11.139061661133795,5.4665876443173795
3705.9526,11.113253410304536,5.065800956871658
3706.8074,11.086140214649353,5.654688399124317
3707.66,11.059544860360468,5.424121875101803
3708.515,11.034795574100851,6.444583756661178
3709.3682,11.011544300452204,5.734677650238726
3710.2234,10.98636376702686,5.709411946124035
3711.0771,10.954844665959001,5.447662673693127
3711.9307,10.91474972451644,5.952713002625834
3712.7866,10.868478306082748,5.886495195037796
3713.6409,10.822821086683998,6.753734669661831
3714.4973,10.784760243221177,5.009584815648604
3715.3518,10.758808473273294,5.1431680395703
3716.2085,10.744991146284985,6.123501181236396
3717.0635,10.740247032474265,5.652797082517709
3717.9185,10.740294853056723,6.090912198954726
3718.776,10.742046537526655,6.050957482450877
3719.6313,10.744468476519264,7.167004710501222
3720.489,10.747386126684901,5.64257582644274
3721.345,10.749326487399406,5.849862175580322
3722.2031,10.746930641209968,6.330637082469022
3723.0593,10.736572025836741,6.111417809507698
3723.9158,10.716804073594263,5.608925628625885
3724.7747,10.689884358469568,5.335919601485997
3725.6316,10.661740219589284,5.758701010078006
3726.4905,10.638876447350109,6.51823769854522
3727.348,10.625109135182814,6.292477219458163
3728.2073,10.619121717129728,6.626891554982541
3729.065,10.615947957512242,6.699626827367703
3729.9229,10.610311164039233,6.129732520836978
3730.783,10.599610871589745,5.648774378602895
3731.6414,10.584735874052951,6.336469907174266
3732.5017,10.56830386382591,6.697738030501312
3733.3604,10.552516423309783,5.8831640167711186
3734.2214,10.537811157590891,6.3667379832389415
3735.0803,10.523928369371014,6.5367862192435515
3735.9417,10.510481489168903,6.4516593624660565
3736.8013,10.496791831731832,6.535425114292444
3737.661,10.48109815150984,5.825856094949895
3738.5227,10.4619657268975,6.237141972310644
3739.3828,10.440839747234355,6.742185436922391
3740.245,10.42195180663636,6.01874609328727
3741.1055,10.40957959040559,6.05092538052275
3741.9683,10.404342329868411,6.4036397464473245
3742.829,10.403284648658238,6.845195090277726
3743.69,10.402724455854532,7.015979015761629
3744.5532,10.401345931233957,6.732362260733439
3745.4148,10.400771518570505,5.515636141293082
3746.2786,10.403439287540413,6.653329072793065
3747.1404,10.409529829628605,6.412272924433277
3748.0044,10.415743401967676,6.373148170525303
3748.8667,10.41730450972768,6.902587927032011
3749.729,10.411768017702084,5.5212773976873555
3750.5938,10.40035899672457,6.123704616663566
3751.4565,10.38572884558048,5.983144766391802
3752.3215,10.368456421442827,7.1382344767144845
3753.1848,10.347286302091828,6.015038788524918
3754.0503,10.322178113677776,5.571233414948133
3754.9138,10.297308039572384,6.875931922250979
3755.7776,10.279066183238264,7.981353598240357
3756.6438,10.271842287848783,6.0567468027138585
3757.508,10.274988763539087,7.102064313006398
3758.3745,10.283644651803344,6.041606821782534
3759.239,10.2920132392145,6.059569698307389
3760.106,10.29595228729172,6.111498307625482
3760.971,10.293215442985625,5.91061425355501
3761.8362,10.28286808724266,6.623754755160806
3762.7036,10.265037556453814,5.82435689563597
3763.5693,10.241717021572537,7.289716839948389
3764.437,10.216606282433764,7.2602786994040525
3765.3032,10.193888052830072,6.75301130067357
3766.1714,10.175129786073658,7.368066515956908
3767.0378,10.158151524821141,6.53765897061371
3767.9043,10.138322861820939,7.027481194153128
3768.7732,10.11229112779878,6.185271493868985
3769.6401,10.08109549931484,6.91795065330523
3770.5095,10.049741515940191,6.871980242203639
3771.377,10.02513804018074,7.352656400696666
3772.2466,10.011717927117619,7.672891797988983
3773.1145,10.008742856870343,6.8013823044301835
3773.9824,10.009658747391983,7.918631021442525
3774.8528,10.005798005759871,6.599636766607711
3775.721,9.992283547880199,8.24176437438477
3776.5918,9.971794146717697,7.660602457166786
3777.4604,9.9533566069894,7.613716206201206
3778.3315,9.946071354421328,6.399381150738732
3779.201,9.953374843026882,7.3147736420188645
3780.0703,9.971103927798179,7.215599380709864
3780.942,9.992119258241821,7.012211650437372
3781.8118,10.014795278615109,7.67193221640891
3782.6838,10.05032700543045,6.67544684491038
3783.554,10.119332440173114,6.458176578444472
3784.4265,10.236330300232499,7.14431527041656
3785.297,10.386253949295376,8.91843955771635
3786.168,10.519055617916164,7.871778025054058
3787.041,10.571745445478541,7.0857935887298265
3787.912,10.51019634285735,6.343386487205076
3788.7856,10.354278681967932,6.470129678585009
3789.6572,10.163477358810084,7.064107056663021
3790.531,9.994612617285465,6.722378102945012
3791.403,9.876038176392806,8.155998322600317
3792.2754,9.803856429974566,6.55397681812451
3793.15,9.759763638112839,7.87450352465907
3794.0225,9.727169183738408,7.234922828495546
3794.8972,9.69824220173294,6.34110123453823
3795.7703,9.67404472972793,7.081572352456568
3796.6455,9.659019050766743,6.748058631949792
3797.519,9.656096652994414,7.036944081480258
3798.3926,9.663726654570862,7.564147225932593
3799.2686,9.676413596388988,7.066419432574782
3800.1426,9.68641775305856,7.576971716988972
3801.0188,9.686141880107996,8.12562072285034
3801.8933,9.670431868969027,8.228850771666071
3802.77,9.638885219033074,7.132163716468206
3803.6448,9.596988465009495,8.632065210137178
3804.522,9.553757482641483,7.179063260923489
3805.3972,9.51878205446554,9.13553407811248
3806.2727,9.497843745102875,6.493054318634486
3807.1504,9.491366047628391,9.010022844712603
3808.0261,9.494760422184212,7.383909283458501
3808.9043,9.501096160599563,6.922292136908287
3809.7805,9.504514671084364,8.247922340567907
3810.659,9.5023205943865,9.025479379724652
3811.5356,9.494922141312097,7.43503529426028
3812.4126,9.484626771560775,8.341448411647304
3813.2917,9.473857648533274,8.36259830208323
3814.169,9.463109341130494,8.47440982658306
3815.0483,9.449747313400978,8.748699034594424
3815.926,9.430428982325031,8.176538243377012
3816.806,9.40523507893122,8.81283266469378
3817.684,9.379975972969463,8.034986169788139
3818.5623,9.362178661838323,8.735497803779674
3819.4429,9.354852406870348,7.7092180094731395
3820.3215,9.353641745824333,8.53806465315104
3821.2024,9.350584039169572,7.218192615560712
3822.0815,9.341135347532136,7.938062046527306
3822.963,9.327214816534315,9.471076917055456
3823.8423,9.314014634770505,8.151313941745403
3824.722,9.303955406076696,7.542120667102596
3825.604,9.294333946594548,8.17416177907997
3826.4841,9.279898886218643,7.797321513150295
3827.3665,9.257014063660037,7.368262868707884
3828.2468,9.226287380468301,8.145526742349698
3829.1296,9.191166035476996,8.696765668943959
3830.0105,9.155795799340224,8.200873178092934
3830.8916,9.12250193655231,8.923016412999239
3831.7751,9.092299702900824,7.1881852905682635
3832.6565,9.066644717120505,8.803684913465377
3833.5403,9.047583813323028,8.45472960247984
3834.4224,9.037025959839104,9.520151312817369
3835.3064,9.034518692890229,9.65324930963603
3836.1887,9.0369850458001,7.570266404539481
3837.0713,9.040177598837369,9.146626356967971
3837.956,9.041133890568506,8.61163067141329
3838.839,9.039982533607196,8.377416851405924
3839.7244,9.040022380298664,8.376466688805552
3840.6077,9.045607177381646,8.036949386521993
3841.4932,9.058878524494947,8.49438413755341
3842.377,9.07742054227249,8.479129709779295
3843.261,9.095317862904109,8.682045582890032
3844.1472,9.106744906650746,8.079675055967265
3845.0315,9.109566846895973,8.165989852867853
3845.9182,9.106132819221772,7.3584294522803235
3846.803,9.100540709187552,8.613596095146075
3847.69,9.095401046998072,8.450732506535314
3848.5752,9.091080913634176,8.906374139979802
3849.4604,9.087254883708287,6.857599953424148
3850.3481,9.084634952005802,7.829546638645008
3851.234,9.084769474705361,7.8992987873821425
3852.122,9.088125802539384,8.553202971964804
3853.0083,9.092367337420443,8.994745820654163
3853.8967,9.092610796946069,9.417424274870482
3854.7832,9.083817298806483,7.392554280769376
3855.6702,9.063877873926339,9.209689816441829
3856.559,9.035116203846464,8.491524324491078
3857.4463,9.003633080266047,8.528396206983698
3858.336,8.976095681931977,8.137262464998162
3859.2234,8.957135046087974,8.84719282981934
3860.1135,8.947053671340129,8.570560862394078
3861.0015,8.94285367428378,8.516274264419167
3861.8896,8.940447850273099,9.995004717939445
3862.7803,8.936915180154154,8.844067354145293
3863.6687,8.930705890292206,7.986882837458684
3864.5598,8.920348182331347,9.213867441679428
3865.4487,8.903941513161241,8.55165895125615
3866.34,8.879996399449464,8.897013137534149
3867.2297,8.849632457780253,8.894568991237895
3868.1213,8.81654478397911,8.31973613246457
3869.0112,8.785372809258117,9.109045058902664
3869.9014,8.758354582253405,9.076372409919117
3870.7937,8.734486332401527,9.498732044457963
3871.684,8.711093593829748,9.003952832448302
3872.577,8.686059211356538,8.417594154533123
3873.4678,8.660265138685576,8.430991771729985
3874.361,8.637000240657452,9.738204186700218
3875.2524,8.619938162766912,8.870976009044298
3876.1438,8.60968214659323,9.823212095532268
3877.0376,8.603277752531067,9.141921317952763
3877.9297,8.596479862513865,8.645267321475174
3878.8237,8.586284410480525,8.775557653072182
3879.716,8.571514198836388,9.512986636471176
3880.6108,8.55140648523289,8.544918763680409
3881.5037,8.525330491739828,9.570935736580427
3882.3965,8.493214742829776,9.605668367060828
3883.2917,8.456207234867108,10.146244885610919
3884.185,8.416544986254182,10.550739682615117
3885.0808,8.37610803252494,9.473413450638411
3885.9746,8.337113968557215,11.34047803682589
3886.8706,8.301656002430347,10.374202399319994
3887.765,8.271947915351793,10.069602536093564
3888.6592,8.248510716454087,10.906509672711287
3889.556,8.229787037704698,9.20998797941987
3890.4507,8.213361949468693,9.837902728891642
3891.348,8.197800011089686,10.308972737838559
3892.243,8.184237037130506,11.750891596113489
3893.1406,8.175520060710424,11.327808633952278
3894.0361,8.175049495028968,9.742065085789838
3894.932,8.185522400162881,9.439874586377705
3895.83,8.208546586890915,11.237329793359027
3896.7263,8.243909630724174,11.175684363279915
3897.625,8.289812229095219,9.369282279554337
3898.5215,8.342367772527384,9.790700183566655
3899.4207,8.396858810282637,8.346758862831487
3900.3176,8.447002080870073,9.286007597901817
3901.2148,8.48693355590832,9.734833066821214
3902.1145,8.512749041092231,7.891698747035098
3903.0122,8.524769334605795,9.733642781950916
3903.912,8.5284034071291,9.287616590041694
3904.8103,8.531414013084207,8.582475552643217
3905.7107,8.540224948014465,8.643131171637272
3906.6094,8.557277206418696,9.998558808027573
3907.508,8.58106953053048,8.300679277852947
3908.409,8.60751332263128,8.64060241587017
3909.308,8.631365667858088,8.954609135506905
3910.2097,8.64876349653535,8.397199169842708
3911.1091,8.659024058141238,9.586480609151087
3912.011,8.665270785218505,8.534223010184443
3912.9111,8.671589288633424,8.885331665745811
3913.8113,8.679911703642379,9.019377817376425
3914.7136,8.688997756235775,8.284073251711211
3915.6143,8.695546126438186,9.694406857186035
3916.517,8.695510003765882,7.71399339015603
3917.4182,8.68467254176708,7.890265129147015
3918.3215,8.66009854811067,9.020904050458334
3919.223,8.622942012372485,9.642090887402373
3920.1245,8.579461141809531,10.028132433455
3921.0286,8.539090215016923,8.798507369016418
3921.9307,8.510389374123708,9.227288331473222
3922.835,8.497101338862329,10.487801190223564
3923.7373,8.498585128264152,9.434225778063444
3924.642,8.511530983662237,9.115496354045842
3925.5452,8.531477563427446,8.461829722450554
3926.448,8.553372734610917,9.430639906380236
3927.3535,8.572077650574787,8.436050555577125
3928.257,8.583323861753039,10.178345425772262
3929.1628,8.58481320277155,9.232373440442128
3930.0667,8.57556708390796,8.797763206028424
3930.9731,8.555132134153046,8.771304504673308
3931.8774,8.524180393877888,8.649808727723446
3932.782,8.485583168720462,9.183349864979764
3933.6887,8.444946342079243,10.558279499428973
3934.5938,8.409134025185677,9.84011258212125
3935.501,8.382695124945087,10.586807657516244
3936.4062,8.366335863862865,9.566315085201078
3937.3142,8.356469283843854,10.070151550409935
3938.22,8.347472999784449,9.512552674315883
3939.128,8.334008929136012,9.541670011398972
3940.0342,8.313057037418423,9.92038846440162
