wavl,flux,ivar
3566.9744,0.36792096482557285,865.4712551867184
3567.795,0.37090839306993933,2256.2301067246513
3568.6177,0.37364100030376435,855.8002231169146
3569.4385,0.3755816633109134,667.5403393811526
3570.2617,0.37604077105327227,556.480915063414
3571.083,0.37448018687459134,626.7150411225466
3571.9065,0.3708850232413336,662.4037560022632
3572.7283,0.3659051768762919,1257.6270318276288
3573.55,0.36064374974614266,555.0150111675489
3574.374,0.3563029298891521,2006.0358983996803
3575.1963,0.3537422225088681,2506.850208494883
3576.0208,0.3530986922126279,601.841609569183
3576.8435,0.35401963340891707,993.5991081664913
3577.6682,0.35621102396136184,515.0922732470584
3578.4915,0.35970592647523275,9443.672324186806
3579.3145,0.36445910393978503,2511.0378161619024
3580.14,0.36971421372404223,801.1755947940859
3580.9636,0.3739848543087476,731.8907711497876
3581.7893,0.37602661799183984,1064.446911716269
3582.6133,0.375653232816502,680.2061385925437
3583.4395,0.3737963332731232,501.8776152028135
3584.264,0.37177678836296013,484.00796368217146
3585.0884,0.37060270013642477,661.3769112040841
3585.915,0.3708495306217042,924.804412658411
3586.74,0.3728354750675717,1085.7881272163086
3587.5671,0.37668298083774004,987.4473495044913
3588.3923,0.3820691088447664,989.354803605965
3589.22,0.38811023863854865,1094.6850489583633
3590.0457,0.3934373125483961,733.6071302997962
3590.8716,0.39691593219333193,453.0943978021156
3591.6995,0.39824631912020264,771.3539832720423
3592.526,0.398149520216539,533.9910534344817
3593.3542,0.3978539427324571,695.165608613471
3594.181,0.3981826244177332,1403.6485164948053
3595.0098,0.39890422613257115,913.3621562772007
3595.8367,0.398815132316826,546.132030869385
3596.6638,0.39659953402200115,675.368411054501
3597.4934,0.3918603964322378,631.5261129379867
3598.3208,0.3856290259188179,3230.394825676125
3599.1506,0.37967170170087133,698.6536146077237
3599.9788,0.3754271678449543,695.5781810869174
3600.8088,0.3731255048569139,454.6363317556161
3601.6372,0.3720842389296773,1017.3049251125163
3602.4678,0.37152254986987016,1804.854843178219
3603.2964,0.3712150847394352,1499.4164273379338
3604.1252,0.3713503295895296,876.8114207682206
3604.9565,0.3719234697134894,1108.7584219122446
3605.786,0.37234333094442956,568.6571952744393
3606.6172,0.3717361112060735,815.6101460863533
3607.447,0.3696494119786979,1238.174766469856
3608.2788,0.36647456083997165,1662.642191142454
3609.109,0.3632865350763067,729.7822569192347
3609.9392,0.3612306563149146,586.3138905827936
3610.7717,0.361028021697503,452.0554470351277
3611.6023,0.3626459511514303,1212.3283749063578
3612.435,0.36523374697308786,915.6443812246434
3613.266,0.3674153857917975,1775.9102542805163
3614.0994,0.3680221643581355,529.2249102932394
3614.9307,0.3667321595446435,928.2664583003825
3615.7625,0.3641940047666814,1238.5466486612308
3616.5962,0.3615079956846443,1274.257509883966
3617.4282,0.3596193354176185,845.641810291009
3618.2625,0.3590047719035694,659.2935712571427
3619.0947,0.3597879785263347,552.3995464336106
3619.9292,0.361856854799103,761.9913441955088
3620.762,0.36485193638297536,1039.9078644168576
3621.595,0.36819521663168175,1591.726348974118
3622.4302,0.37119756268615733,885.3216899795768
3623.2634,0.37322173858514307,559.1953887657662
3624.0989,0.3739378500839942,902.98760792715
3624.9326,0.37351075318520444,660.6254410167725
3625.7686,0.3727083645018442,1357.1295534404828
3626.6028,0.37263777860042535,986.6689397457149
3627.437,0.3741721316502395,491.67587510374926
3628.2734,0.37745624366943725,874.5346914018986
3629.1082,0.3816535356830071,1492.1389620340422
3629.945,0.3851214058108719,962.2007496653506
3630.78,0.3858626382396354,605.2061792509736
3631.6174,0.38247549342746057,621.7919182168027
3632.453,0.3750236559377568,687.0898218763472
3633.2883,0.3650976401539944,593.526194114098
3634.1262,0.354882839672637,812.0771757579348
3634.9622,0.34601998028643105,1938.791783703674
3635.8005,0.3388602419633992,970.330635301995
3636.637,0.3331240221339028,901.5342356902758
3637.4756,0.3286106691569364,1468.210487139199
3638.3123,0.3256422697837188,2546.903974290544
3639.1492,0.32456655345063706,2488.774046474355
3639.9885,0.325303667540554,950.2789220829883
3640.826,0.32733583111893655,2317.8885283423065
3641.6653,0.33014416164208665,1493.0308524031018
3642.5032,0.3334119788939703,899.3599602343367
3643.343,0.33688198696780436,1787.5833382521869
3644.1812,0.3400469324280192,393.56366543765176
3645.0195,0.34228823019754795,808.3402293709497
3645.86,0.3432641504827837,918.559361416002
3646.699,0.34324676556431927,841.6632517688558
3647.5398,0.34299632276046227,2194.8729026865603
3648.379,0.34320276568069497,952.0698607159575
3649.2202,0.34402470795104273,1109.3726715887758
3650.0596,0.34513676145544947,918.9507045891781
3650.8994,0.3461754334010909,797.9367818648616
3651.7412,0.34700933658093575,1213.58105939095
3652.5813,0.3475943292651099,1066.5948100619144
3653.4236,0.3477337759448106,877.6122824854368
3654.2642,0.3471386297263126,1856.4638654184419
3655.1067,0.3457742501675631,2165.4346019479285
3655.9475,0.34402268046580103,1346.702056269462
3656.7886,0.3423373603282877,3193.8369044545743
3657.6318,0.34076857933641475,1686.1136176692753
3658.4734,0.33890758760086737,436.14942884373875
3659.317,0.3363211024279498,1816.5053276507986
3660.1587,0.33310272349299164,1232.6355047056857
3661.003,0.32991111898907327,1346.2404143676508
3661.845,0.32765692772370547,704.4246899518147
3662.6875,0.3269464581765202,3734.6334531730463
3663.532,0.3278377360731952,1381.821229214285
3664.3748,0.32988470278283855,1462.514908410495
3665.2197,0.3324734457375008,1414.7343147037686
3666.063,0.3350804459393528,847.7651999452861
3666.9084,0.3374067821986763,1259.7393490583959
3667.752,0.3393017839417845,980.2784286702664
3668.5977,0.3407940436147816,671.0880693398158
3669.4417,0.34202829070414403,689.2255293904776
3670.286,0.3431513088943168,1973.7287882072824
3671.132,0.34414850665113705,898.617454936414
3671.9768,0.34492720940644056,1329.3688205111894
3672.8235,0.34563709706571655,820.7580741063847
3673.6685,0.3467803530984809,1157.3715181734449
3674.5156,0.3488913161521337,1265.270354302712
3675.3608,0.35199730065080187,804.0312261026942
3676.2063,0.3554855981444707,707.5790383269924
3677.0542,0.35839187956558055,1355.4241139845853
3677.9,0.35984187313895927,958.4950847177423
3678.748,0.35946490589483626,1039.3091047127223
3679.5945,0.3575617065106343,498.6023878391902
3680.4429,0.35504164230193397,774.8940593706718
3681.2896,0.3529926831038515,2136.237344117653
3682.1365,0.35195840506425907,1473.962012116623
3682.9856,0.35157357449106913,1505.4190575954747
3683.8328,0.35089935754117907,800.3891110004469
3684.6824,0.34924384074693915,1043.7593783988602
3685.53,0.3467286351266942,917.8753875779058
3686.38,0.3440225619857453,1196.1857064520102
3687.2278,0.34169063145678996,863.3646583664737
3688.0762,0.3397314886236435,837.3556893407183
3688.9265,0.3377793683970032,1231.308558566767
3689.7751,0.33555982931816886,1358.4322704648323
3690.626,0.33311446983941934,1322.3001271906517
3691.475,0.3307719364428011,1179.97085380747
3692.3264,0.3289005110522789,2623.5662266019294
3693.1758,0.32779797723315457,1134.3304460924967
3694.0254,0.32758857901772265,1936.636601323429
3694.8772,0.32821330450638364,1032.2701634748673
3695.7273,0.32946186949071926,1073.8570784267547
3696.5793,0.331155886607234,1126.7479130361144
3697.43,0.3332766521315356,1386.0005087934132
3698.2825,0.33585990989991193,864.2001040754043
3699.1333,0.33858766447342586,668.7868810470103
3699.9841,0.34065770588058913,1013.0862424535244
3700.8374,0.3411451359070327,1006.8904015054338
3701.6887,0.3396657683552451,1871.282796200868
3702.5425,0.3366617834779027,757.6780403183001
3703.3943,0.3330559150199865,654.4712778626293
3704.2483,0.3295702782114979,1566.2928744605158
3705.1003,0.3264863034183912,1909.0862160222885
3705.9526,0.32378029692160004,993.911489054178
3706.8074,0.3215198298736221,1606.9457583616488
3707.66,0.31999953360838135,1111.509698593496
3708.515,0.3194917400037532,1224.2954774800105
3709.3682,0.32002373163714776,1275.4355774631545
3710.2234,0.32141786842927816,1544.08908153319
3711.0771,0.3236319847436559,883.1707983008545
3711.9307,0.3269815136692115,753.8396781220366
3712.7866,0.3318211768209694,1554.0596385124977
3713.6409,0.3378217076460338,1104.6026371667683
3714.4973,0.343800186625601,931.949137591069
3715.3518,0.3482453145527027,839.841126892334
3716.2085,0.35037648327739324,1345.5005079046896
3717.0635,0.3503889827086489,995.9032218879202
3717.9185,0.3490018149512553,1897.4449426089136
3718.776,0.34684722849926214,983.188955585205
3719.6313,0.34442199376411464,860.8449149559863
3720.489,0.34221842147872217,1385.2105414176983
3721.345,0.3407352779622551,921.0453806247089
3722.2031,0.3402407149983921,863.2471566129217
3723.0593,0.34068015067647617,557.3733499040565
3723.9158,0.3416265111917705,484.69093010198344
3724.7747,0.3422451785942839,1610.4269916515473
3725.6316,0.3414460415897342,986.5896102930841
3726.4905,0.33847543458686347,785.9256074092282
3727.348,0.3336446865371131,2353.789402867474
3728.2073,0.3284023334368325,1057.9152411836385
3729.065,0.3245792932508895,1072.0036838207423
3729.9229,0.32312514527546,1490.52911520884
3730.783,0.3236126441014301,826.0128878355466
3731.6414,0.32476637576172307,996.9983994371883
3732.5017,0.3255895307403345,981.7354496496367
3733.3604,0.32606142365916896,955.2822316208158
3734.2214,0.326944179942053,1294.0058673465678
3735.0803,0.3289656857798659,2005.2803365943469
3735.9417,0.3322043177713499,808.9870895207836
3736.8013,0.3360722634696206,797.129531923361
3737.661,0.3398817954587418,1095.2515787561863
3738.5227,0.34320328005169265,881.3950618058631
3739.3828,0.34571357164208627,784.9390340335825
3740.245,0.34698074390599604,1217.025637827045
3741.1055,0.34657986637374555,2428.5428691103007
3741.9683,0.344603444646854,844.527186181105
3742.829,0.3418374928052095,844.1786420231421
3743.69,0.3392620039915027,1197.2818312329684
3744.5532,0.3374166264021289,959.836071951459
3745.4148,0.3362175694290479,986.1433158222534
3746.2786,0.33522740880518737,1340.2604437621226
3747.1404,0.3340838682098877,1284.9437161833366
3748.0044,0.33271131385156044,1130.8557747402294
3748.8667,0.33142095190087834,1143.5006803736528
3749.729,0.33081752828693034,1561.7601500202195
3750.5938,0.3315103200899569,2320.076535365354
3751.4565,0.3336348867316567,976.8624350263889
3752.3215,0.33657075771775513,1043.6318939082162
3753.1848,0.3390888410848575,713.2529251341343
3754.0503,0.3400259324731827,1469.0507079711451
3754.9138,0.33895041989644514,1228.0065546055348
3755.7776,0.3364776717258188,1410.0940158893225
3756.6438,0.33393067909581114,1339.789576834838
3757.508,0.33263781719901947,1049.928782705138
3758.3745,0.33320774207096626,1007.1219984476387
3759.239,0.3353046656124523,1672.2857985622759
3760.106,0.3379493920207191,475.1950109501931
3760.971,0.3400968218292281,996.0619450071163
3761.8362,0.34121468051539033,901.4943321375533
3762.7036,0.3413817724765195,892.7883154136513
3763.5693,0.34098906842609455,648.5007336077929
3764.437,0.3402932321637508,887.3185187919661
3765.3032,0.33920508200875016,1722.407057137262
3766.1714,0.337470312974234,1359.0685096199647
3767.0378,0.3351395375441221,1125.6973113944487
3767.9043,0.33282385587424684,1051.6652413951115
3768.7732,0.3314487973153199,678.3726008521725
3769.6401,0.33160818062985703,850.1883485052497
3770.5095,0.33305529844430426,1301.716801389379
3771.377,0.3347836661174941,1011.6496317872438
3772.2466,0.33558506484075584,4073.405548729953
3773.1145,0.3346513094489283,565.0924736359091
3773.9824,0.33201080997620935,1693.6604058694675
3774.8528,0.3285472962748307,1317.8530477105305
3775.721,0.32562863503748235,1222.1367027439792
3776.5918,0.3243585916083845,1036.6823297144522
3777.4604,0.3250931159470931,1280.9124380163553
3778.3315,0.3273621036982422,1202.915130667766
3779.201,0.3302529355777733,1833.1998345479547
3780.0703,0.3329733130196752,600.9495425138833
3780.942,0.3351804957361168,1556.0936772054106
3781.8118,0.33691159096548196,1276.4116467908857
3782.6838,0.3382688813790726,678.3745028171411
3783.554,0.3391142214198069,2042.8083059621285
3784.4265,0.3391843282502123,858.7409935114931
3785.297,0.338417815438105,2212.691594789342
3786.168,0.3371611362851821,1064.0073128805745
3787.041,0.33599713449974405,1305.0468731482695
3787.912,0.33537167089292824,1216.8025690490995
3788.7856,0.3353076478653786,959.0618650317092
3789.6572,0.3354632748093181,1346.7029072408434
3790.531,0.335417405150728,1054.5392348091673
3791.403,0.33494400612265884,856.8743036453895
3792.2754,0.3340324775880548,1351.00716890281
3793.15,0.3326819432540676,1000.8888936834799
3794.0225,0.3307883559936829,978.1186262872511
3794.8972,0.3282726725265398,1228.5444826059645
3795.7703,0.3253710964846718,1062.076940071975
3796.6455,0.32261480785536156,1162.6147516706264
3797.519,0.32061697127176,2086.061470329211
3798.3926,0.3197389766954699,1525.530513797882
3799.2686,0.32001350887229774,1532.9060473117215
3800.1426,0.3212068772933931,1621.7569223595417
3801.0188,0.32297060077109124,1258.4033562178236
3801.8933,0.3249643602093035,1071.4128086404223
3802.77,0.32697446139544434,1058.9678990218608
3803.6448,0.3288618097395658,1204.502629102778
3804.522,0.33047785996380247,1931.8677350076644
3805.3972,0.33155041434265436,2157.1022092819303
3806.2727,0.33182527904470976,948.2526726347866
3807.1504,0.33127554207494986,2479.67758373948
3808.0261,0.33020411579737174,957.0360553439522
3808.9043,0.3290654839975114,933.573059850386
3809.7805,0.32825652475904715,1767.4158113907738
3810.659,0.3280726323391965,1019.8511411595464
3811.5356,0.3288643677599854,825.054111264332
3812.4126,0.33105658525322784,1259.6086775390957
3813.2917,0.3348864249112925,1006.2696732787308
3814.169,0.3399531861884327,1005.6518459663906
3815.0483,0.34513396028932497,686.4315689229223
3815.926,0.3488605034118004,1358.0032371269392
3816.806,0.3499477564584687,1388.4288639303081
3817.684,0.34821887070819324,1747.4967429267194
3818.5623,0.3446557889377779,1502.135071463647
3819.4429,0.3408087278938455,1344.6848633589182
3820.3215,0.3379825775048618,924.6810647173381
3821.2024,0.3366127109925772,845.3842665581976
3822.0815,0.3363606233490517,1414.3828061115623
3822.963,0.33653742815504534,1086.9867998186114
3823.8423,0.33653214537128623,1106.8903629367737
3824.722,0.33595016908815417,1229.8325229237166
3825.604,0.3345701440090641,1037.2323286640544
3826.4841,0.33238572181424736,749.1457366381126
3827.3665,0.3297088461528561,1583.7331835194836
3828.2468,0.32723062586177876,1051.0156913104427
3829.1296,0.3257032060711799,1762.396315585374
3830.0105,0.3254980054675729,1590.5803754838203
3830.8916,0.32620410983374404,1294.9584529781403
3831.7751,0.3266720688641322,1382.3984983589105
3832.6565,0.3255072522538007,570.9913976985779
3833.5403,0.32190451846650736,629.2346661873637
3834.4224,0.316557017342992,1059.668130279252
3835.3064,0.312195398693154,1478.601658869621
3836.1887,0.3135339247124296,1436.583314686903
3837.0713,0.32575649351386615,1387.3178921253475
3837.956,0.351495674127873,1412.5688987015408
3838.839,0.3869414608282089,1231.706719083886
3839.7244,0.42146202936663063,1058.5253051182733
3840.6077,0.4418049304905986,159.7840932853177
3841.4932,0.4406744684283569,1358.2594580488599
3842.377,0.4211756600039227,960.6841979558355
3843.261,0.3940082996637392,1168.7162660897577
3844.1472,0.36981931323796596,907.1591779996675
3845.0315,0.35394301775767556,2616.7874775675123
3845.9182,0.3458909139805784,2971.7931573093247
3846.803,0.3428106526144576,1762.1111362042125
3847.69,0.3421718741771782,1403.7734627866344
3848.5752,0.34287011627980035,839.8469745263317
3849.4604,0.3447767519573559,1232.9209005938828
3850.3481,0.34791536247749544,605.9235415282319
3851.234,0.351886581048007,1207.8115660094124
3852.122,0.3559323006519716,917.9753362757015
3853.0083,0.3591955812006707,857.4159264148727
3853.8967,0.3610694319760861,744.7461036223009
3854.7832,0.3612358323801952,654.8507473042004
3855.6702,0.359763602604406,1235.1952865904636
3856.559,0.3571845270106268,692.7364834243891
3857.4463,0.35447815181314574,867.1674661355328
3858.336,0.35267212855018953,964.2403767402851
3859.2234,0.3523744733937687,1577.6763699316052
3860.1135,0.3535040641203651,926.3599187925607
3861.0015,0.3555172700288343,833.128628744536
3861.8896,0.3578663772162891,1210.1279090717353
3862.7803,0.36027607992532257,894.1910140562943
3863.6687,0.36268901660086605,812.2999627104637
3864.5598,0.3651085435228274,827.4253584195437
3865.4487,0.36736648526240834,687.4752769867927
3866.34,0.3691157517932368,1439.370622753924
3867.2297,0.36989102575444316,697.4183252966825
3868.1213,0.3693760061440763,885.536272766359
3869.0112,0.36761632279103823,815.7409490769394
3869.9014,0.36505106131362386,447.0938439378902
3870.7937,0.36230488297168995,1298.3470982670883
3871.684,0.3598967580657744,1143.1329381004232
3872.577,0.3579767664806669,1094.1477010453084
3873.4678,0.3564059677535421,1214.9654757115813
3874.361,0.3549432389102576,854.870541269252
3875.2524,0.35344036827681463,1691.9243592965577
3876.1438,0.35175291493221605,964.3893676974646
3877.0376,0.3495933225161154,1682.8329493986682
3877.9297,0.3465627794942544,692.4537181666424
3878.8237,0.3423573001878324,1037.9033129970182
3879.716,0.3370798469441441,825.5602153878688
3880.6108,0.331162865151263,1192.2340169531933
3881.5037,0.3251610541891559,1122.268187283239
3882.3965,0.31934682883849175,1673.7960369972911
3883.2917,0.313708046072506,1236.7477256961704
3884.185,0.30816219090847663,2413.389993386247
3885.0808,0.30256970482000956,1496.2370249893713
3885.9746,0.29680505187415185,1402.8030694366753
3886.8706,0.29063047248717616,1174.819920655973
3887.765,0.28397817584938173,1340.3181472551669
3888.6592,0.2771440681280507,1665.6931566732678
3889.556,0.2709636729603791,1675.4163548430206
3890.4507,0.26668847383589434,6230.488639557331
3891.348,0.2654673657528208,2020.775617249047
3892.243,0.26798812446989945,2156.154884604076
3893.1406,0.2741903676902887,1417.3871631039813
3894.0361,0.2831176695579673,1103.2908966371751
3894.932,0.2931846830914725,1927.169579915241
3895.83,0.3026847735941145,1422.260442674004
3896.7263,0.31046398256951974,958.7159560212737
3897.625,0.3164953520009089,964.7908232333448
3898.5215,0.32143078696842975,1262.502166650212
3899.4207,0.32600848102379104,1096.7989152238563
3900.3176,0.33045258143432726,839.4214896315028
3901.2148,0.3346204169711517,1342.8844657349175
3902.1145,0.33829129430413113,1178.844336126572
3903.0122,0.34136110368595696,1231.623256354035
3903.912,0.34389840712774383,1432.9121371220283
3904.8103,0.3459908033319071,868.1196406608045
3905.7107,0.34773376512230536,998.5133503872344
3906.6094,0.3492137890384256,911.4169711707577
3907.508,0.3505897170864599,1075.104163410901
3908.409,0.35208026758914684,1121.6865033783383
3909.308,0.35386368075985863,859.3332061796943
3910.2097,0.35601034947942584,1079.373435594835
3911.1091,0.3584696964179286,1131.2219703794028
3912.011,0.3612189028406737,976.6934452502653
3912.9111,0.3642424649400166,812.1442666657427
3913.8113,0.36746572282632345,1912.4070588155269
3914.7136,0.37065346089141604,1311.3611680309689
3915.6143,0.37348674090204603,1275.3303027982397
3916.517,0.3758205047525737,685.3322151310966
3917.4182,0.37771120670123787,935.9087517323375
3918.3215,0.37929590742298064,820.9138511875727
3919.223,0.38052658910003256,976.945933520081
3920.1245,0.3811612049071985,914.1093934425812
3921.0286,0.3809920011414943,775.7743763155374
3921.9307,0.38016295020074575,807.0755024893062
3922.835,0.3791905148179754,969.2564963585339
3923.7373,0.3786231537343228,1075.5694570119322
3924.642,0.3786507474047406,702.2283345062349
3925.5452,0.379121026240074,1174.4704978685993
3926.448,0.37987462579731385,808.650733792365
3927.3535,0.38096309761195046,586.1019738030806
3928.257,0.382489948272113,903.9040187273106
3929.1628,0.3843950004783864,912.0769786380928
