wavl,flux,ivar
3566.9744,25.041127901901334,6.2657823435895725
3567.795,25.006290631182303,6.497429432459965
3568.6177,24.968147130351518,6.220462416704955
3569.4385,24.930192227703266,6.68719078493756
3570.2617,24.89320575928642,6.272021411953998
3571.083,24.85786949887259,6.612166862220454
3571.9065,24.826852252353998,6.712521252283148
3572.7283,24.806000228431493,6.538186243704351
3573.55,24.800465877074988,6.685963588465696
3574.374,24.810646828502595,6.682233828273929
3575.1963,24.830606048624208,6.659369700160103
3576.0208,24.85137553584965,6.663636549608874
3576.8435,24.865935314014465,6.499360197335746
3577.6682,24.873134830201383,6.520582329343295
3578.4915,24.87703457286569,6.791908747364996
3579.3145,24.88318900992184,6.318181529417232
3580.14,24.894174792061932,6.428812479184413
3580.9636,24.907283882879277,6.606912675813186
3581.7893,24.915808481441452,6.548401590666434
3582.6133,24.91245137303815,6.491626992793091
3583.4395,24.89357764436939,6.6884899924580825
3584.264,24.86165831686414,6.415716495373888
3585.0884,24.823696358511867,5.884639991940511
3585.915,24.786908600371945,7.024685693810613
3586.74,24.755076553684077,6.56036577088502
3587.5671,24.727171217644102,6.303407079753716
3588.3923,24.69994292054611,6.265547726219537
3589.22,24.669529823614386,6.840373651716834
3590.0457,24.633391215033935,6.479613449048673
3590.8716,24.590860581765345,6.476228442016551
3591.6995,24.54415410924095,6.589835391752981
3592.526,24.497937838413037,6.7844775364211065
3593.3542,24.456215224669588,7.1303612080463195
3594.181,24.42083887048073,6.7014904342465815
3595.0098,24.390624338597515,6.5966010125847765
3595.8367,24.36374697430808,7.010186729397878
3596.6638,24.339346701698748,6.89861763314392
3597.4934,24.319177368574767,6.805638679616151
3598.3208,24.307632817626516,6.899026974088566
3599.1506,24.309219957926594,6.738455992609277
3599.9788,24.324951652467732,7.237086192303471
3600.8088,24.349714385940537,6.727742839237178
3601.6372,24.373744431422374,6.866973462599908
3602.4678,24.3883595883349,6.632628735855312
3603.2964,24.390307662443185,6.683986248704763
3604.1252,24.382709920355246,6.835072938119891
3604.9565,24.372404827157066,6.829881310442
3605.786,24.367179507465753,6.846329810133268
3606.6172,24.37292002012859,6.61976378558086
3607.447,24.390800612357722,6.887063171021515
3608.2788,24.415291435044924,6.6730493322176505
3609.109,24.434890537243476,6.787900771704315
3609.9392,24.437222329917986,6.4110571136799654
3610.7717,24.4148621291914,6.74814492077036
3611.6023,24.36938523664685,7.059758136133459
3612.435,24.309928347712944,7.01540581108299
3613.266,24.249408172113185,6.664776267402127
3614.0994,24.19816714642127,6.9844990220642655
3614.9307,24.161222227285897,7.131431236261476
3615.7625,24.136318991066148,6.783259019471794
3616.5962,24.116662004516005,7.039581972414868
3617.4282,24.09547404401831,7.0988761038578625
3618.2625,24.06990493897804,7.015535817292433
3619.0947,24.04228228985668,7.139868695819318
3619.9292,24.0170625803382,7.181134828202164
3620.762,23.998302154775633,7.099796486044244
3621.595,23.98793320724835,7.215211555892555
3622.4302,23.98585206544332,6.657824947457859
3623.2634,23.989620534568186,7.523134571037394
3624.0989,23.994854853597896,6.897467322557826
3624.9326,23.997270046001166,6.948691607523327
3625.7686,23.995155743585535,6.833462306143259
3626.6028,23.98930784222615,6.997917921038089
3627.437,23.980165480657778,7.104383315556675
3628.2734,23.965397479930367,6.924155396757901
3629.1082,23.941225950896985,7.001267475804515
3629.945,23.905823487108126,7.165926064903811
3630.78,23.862112362237458,7.281019308294758
3631.6174,23.815908886577944,7.119092713262998
3632.453,23.773820756559847,6.9546404631245204
3633.2883,23.74033206989724,6.981122184467388
3634.1262,23.717513238784427,7.06393513604555
3634.9622,23.704822884067934,6.920383436248408
3635.8005,23.69850898760273,7.084142602186672
3636.637,23.692749987519317,7.671063342145926
3637.4756,23.681997544778575,6.962207747717462
3638.3123,23.664273879698392,7.1387184553976955
3639.1492,23.642073423332636,6.922231940043198
3639.9885,23.619998637232975,7.4711290136075785
3640.826,23.601072980133644,7.334913583872276
3641.6653,23.584735157566058,7.007984503083465
3642.5032,23.569027353329705,6.958788285310136
3643.343,23.552634426692247,6.773051990576824
3644.1812,23.53510261007589,7.338697526197414
3645.0195,23.515204417171724,7.3265679714076315
3645.86,23.49121745937117,7.417834834071592
3646.699,23.46297356522403,7.2828273774525965
3647.5398,23.432246878375942,7.1824449120060185
3648.379,23.40164026066439,7.1051573945286925
3649.2202,23.37187114726812,7.52331097680011
3650.0596,23.341711292537656,7.543428782581942
3650.8994,23.308618106966453,7.68889946798692
3651.7412,23.270831883707093,7.731392098976515
3652.5813,23.229204000897866,7.198519203479195
3653.4236,23.187290873131786,7.480047813098889
3654.2642,23.151378416226535,7.385010861891653
3655.1067,23.12791039778376,7.592294539268521
3655.9475,23.121918160846928,7.537257731033816
3656.7886,23.134962094093105,7.437167614268318
3657.6318,23.16456427327834,7.762387022603996
3658.4734,23.20394779166361,7.254956997853041
3659.317,23.244408805411364,7.542470476905059
3660.1587,23.278233808587864,7.790217829784363
3661.003,23.30260684246331,7.497657415344135
3661.845,23.319446710498315,7.464887034611039
3662.6875,23.33299257841984,7.3903070091699865
3663.532,23.3455505170079,7.6325543481512055
3664.3748,23.355419824391216,7.229750769572524
3665.2197,23.358152941663683,7.417983764469416
3666.063,23.349578629108038,7.048002956637457
3666.9084,23.328707655997516,7.48920047787738
3667.752,23.298798036750537,7.307938867325481
3668.5977,23.265663205390396,7.497730520932526
3669.4417,23.235614157035958,7.990510332437505
3670.286,23.212367232194627,7.086531746487287
3671.132,23.19592528795897,7.202978166841034
3671.9768,23.1831619206368,7.680969374597682
3672.8235,23.169886597167576,7.635941742133811
3673.6685,23.15374598574772,7.570197924353736
3674.5156,23.135323172436735,7.760970776604897
3675.3608,23.11768035073679,7.681801238783987
3676.2063,23.103753776916587,7.754414323148482
3677.0542,23.0942272349905,7.574192140247807
3677.9,23.086849175704014,7.204981054632136
3678.748,23.077572615070927,7.670104535634193
3679.5945,23.06304982314096,7.615671736057284
3680.4429,23.041993956028133,7.654120326529177
3681.2896,23.01548752695681,7.68150290889712
3682.1365,22.985929834640704,7.682026006649599
3682.9856,22.956756467692223,7.581848692778111
3683.8328,22.932607719772133,7.825609584535987
3684.6824,22.91804199470332,8.064243052731092
3685.53,22.91619569860842,7.634242805886423
3686.38,22.92715186316741,7.609351546322331
3687.2278,22.948251326352917,7.657432704578598
3688.0762,22.975536402590425,7.759405714585504
3688.9265,23.004582374528038,7.746843385876742
3689.7751,23.03043341552319,7.876892869979939
3690.626,23.048550209711888,7.238637066172797
3691.475,23.05616716486347,7.409877610058682
3692.3264,23.05450520521756,7.547016589218713
3693.1758,23.04827941537447,7.593896468482759
3694.0254,23.042450142850374,7.500422151658003
3694.8772,23.03856963239066,7.359292646417041
3695.7273,23.034026233372877,7.653170731405336
3696.5793,23.02444089321641,7.411929415951427
3697.43,23.006929448230014,7.562542009508864
3698.2825,22.981369734400626,7.792943117258548
3699.1333,22.950318848320993,7.677624481697917
3699.9841,22.917522161522353,7.520285899312914
3700.8374,22.886650579035074,8.231677554959626
3701.6887,22.860048564972764,7.8580422734562605
3702.5425,22.837104335170256,7.851863742949914
3703.3943,22.81537810797464,7.689871040917755
3704.2483,22.792470454970918,8.054288290204415
3705.1003,22.76874991533145,7.606942366442581
3705.9526,22.746836522589508,7.596842083132252
3706.8074,22.72920729245949,8.098338833117003
3707.66,22.715819110871607,7.977362568119355
3708.515,22.703941919256106,7.821565856163742
3709.3682,22.690962544331576,7.908220524326631
3710.2234,22.676219494815605,7.846217978171461
3711.0771,22.660862377233855,7.612249178253048
3711.9307,22.645552405029875,8.042660951293316
3712.7866,22.62918830598468,8.167163730376348
3713.6409,22.610166241768557,7.785917838570419
3714.4973,22.588699891782948,8.299353280573053
3715.3518,22.568620049420776,7.844315294219404
3716.2085,22.555494161270122,7.7725611096114395
3717.0635,22.55362792015233,7.957979516325687
3717.9185,22.563592669623322,8.055597963618345
3718.776,22.58292487871912,7.9260385254291155
3719.6313,22.607691969824366,7.979692231097507
3720.489,22.633730886256014,7.88595885466994
3721.345,22.655761749164256,7.905587518145514
3722.2031,22.66786006322871,7.653736430729411
3723.0593,22.665177472418705,7.635553671239424
3723.9158,22.6472373922243,7.774966181683527
3724.7747,22.6190454269907,8.245707336600216
3725.6316,22.58932070908356,7.815786364584404
3726.4905,22.565319728478674,8.099238830970071
3727.348,22.549204235153738,8.306999147629694
3728.2073,22.537016572211783,7.9354345730920315
3729.065,22.522270092564245,7.784186573967379
3729.9229,22.500471610014575,7.952645561467039
3730.783,22.471749113048286,7.9295810271836915
3731.6414,22.44008243903636,7.727357001695603
3732.5017,22.409838208700762,8.27052130340553
3733.3604,22.38388845279158,8.13389309153638
3734.2214,22.362451735736858,8.098190454781053
3735.0803,22.34419660231365,8.349328297761616
3735.9417,22.327029545942413,8.228683842089033
3736.8013,22.309843428321187,7.953902850248497
3737.661,22.292957355475945,8.276863938137591
3738.5227,22.277973979167317,8.465112672807425
3739.3828,22.2668758860035,8.090502718185794
3740.245,22.260468547563345,8.245107734954153
3741.1055,22.25730731976923,7.73506313736859
3741.9683,22.253339030801353,7.826415647771085
3742.829,22.244023751775806,8.318885071832952
3743.69,22.227940817222702,8.105677920655536
3744.5532,22.20900383489831,8.351407584403232
3745.4148,22.194933516944648,8.10544409359968
3746.2786,22.19240476961666,7.636158687105414
3747.1404,22.203741106533702,8.288197911145641
3748.0044,22.226812293832257,7.993406947653576
3748.8667,22.25681169288725,7.854274232580166
3749.729,22.287989363348206,8.251144876530498
3750.5938,22.313914824710874,7.9518198092720125
3751.4565,22.328192122841934,8.21856299174366
3752.3215,22.327407343451164,8.038145223294423
3753.1848,22.313442924712703,8.123741348100893
3754.0503,22.2933258011392,8.064878079468485
3754.9138,22.27569265744776,7.887575966064201
3755.7776,22.26567089653312,8.033268898695733
3756.6438,22.262606390429923,8.707440401607197
3757.508,22.261281934730487,8.210305374737318
3758.3745,22.255504776383148,8.257830518243653
3759.239,22.24174278953398,7.7742503700809475
3760.106,22.22055176266244,8.228755336337152
3760.971,22.196067139803723,8.165938141385437
3761.8362,22.173398517430137,8.306508439282467
3762.7036,22.156354298382553,8.273007396454386
3763.5693,22.145710948199124,8.286220681324842
3764.437,22.138257412062114,8.2882961603359
3765.3032,22.128144972673574,8.054630763229707
3766.1714,22.10980018466755,8.04267041836676
3767.0378,22.081449637375954,8.049605066783437
3767.9043,22.04577105380673,8.060460072242199
3768.7732,22.007702771976778,8.38375918987109
3769.6401,21.971767462204678,8.37892159983678
3770.5095,21.940291320882675,8.482870290852997
3771.377,21.915495265444108,8.272310665012583
3772.2466,21.9006471517021,8.418534655545514
3773.1145,21.90020482498355,8.76504688953092
3773.9824,21.91700128635046,8.620125677871297
3774.8528,21.950115713678994,8.423084526003157
3775.721,21.994488282536093,8.534286407244545
3776.5918,22.04414357859739,8.120537947547215
3777.4604,22.094119468030225,8.310957273439776
3778.3315,22.142590319750337,8.404399789938015
3779.201,22.18892628284966,8.410079966481105
3780.0703,22.23289725986578,8.257267109789563
3780.942,22.273166917840758,8.29988043720816
3781.8118,22.30658760243877,7.964110257449246
3782.6838,22.32924705138239,8.387077651182755
3783.554,22.337381395371352,8.234148972613832
3784.4265,22.32963384473311,8.031590019921046
3785.297,22.307748534267215,8.123548231141122
3786.168,22.275441021655908,8.38781271603637
3787.041,22.236162932219592,8.369060258150848
3787.912,22.191769735221882,8.550557774346096
3788.7856,22.141566106043634,8.049761559721125
3789.6572,22.084447644356974,8.151228952396107
3790.531,22.0198302054288,8.08480354237132
3791.403,21.949873630883378,8.547304978766073
3792.2754,21.877688347535972,8.439714383839705
3793.15,21.805511007778748,8.671956188642254
3794.0225,21.733679746578375,8.016292908708008
3794.8972,21.660223995521203,8.9508053865832
3795.7703,21.584798064140973,8.554705802636335
3796.6455,21.509572484937742,8.642988498079657
3797.519,21.440789617331323,8.638151470740535
3798.3926,21.38587021227856,8.731419569371715
3799.2686,21.35159525329817,8.997225556940913
3800.1426,21.34254793688106,9.263405109523733
3801.0188,21.36012847465982,8.990245214887285
3801.8933,21.40317871162835,8.676999361829663
3802.77,21.46867592726008,9.003403990844335
3803.6448,21.550669029736163,9.159781224180279
3804.522,21.641105169882046,8.79215586483395
3805.3972,21.72933602080879,8.364077322992813
3806.2727,21.806629011580487,8.404542802456367
3807.1504,21.86869189334078,8.578719342029489
3808.0261,21.916669790463306,8.334310696777232
3808.9043,21.95639121530687,8.03484045308162
3809.7805,21.993653749381547,8.403961705887475
3810.659,22.031637093885514,8.278243127489956
3811.5356,22.069133134267265,8.280648259050299
3812.4126,22.10294979198882,8.419779084462938
3813.2917,22.130425097144123,8.39423543268441
3814.169,22.150744969264334,8.11760975991524
3815.0483,22.164852825361653,8.319274274711393
3815.926,22.173683098391688,8.26335270220012
3816.806,22.177218783905374,7.835816113025137
3817.684,22.173520739297413,8.353477905203528
3818.5623,22.158686114889992,7.644786174235731
3819.4429,22.12782103788422,7.919137995473531
3820.3215,22.077669648987197,8.212252996564992
3821.2024,22.008045807531676,8.360993392848005
3822.0815,21.923091987765016,8.452706607097024
3822.963,21.82836143656456,8.402694997479323
3823.8423,21.729612234731785,8.510094001111664
3824.722,21.629239065151577,8.556583163858363
3825.604,21.526523837920376,8.87824493173588
3826.4841,21.41973110970164,8.83977854011871
3827.3665,21.30637610525482,8.873549173810021
3828.2468,21.186788491742433,8.970885547056325
3829.1296,21.062025699721197,9.150393706202152
3830.0105,20.934950357677362,9.573112976486303
3830.8916,20.80641435842932,9.370638603623288
3831.7751,20.675421432219146,9.630136378215859
3832.6565,20.54131275983911,9.54507394279403
3833.5403,20.40432754369653,9.595818633592934
3834.4224,20.271684964441807,9.61273602183217
3835.3064,20.15636991931097,10.067567481115566
3836.1887,20.076545176226624,9.897423214046956
3837.0713,20.047637718007707,10.23985627927844
3837.956,20.07734469574186,10.201805727952172
3838.839,20.162450004336648,10.218999690188648
3839.7244,20.291859262750688,9.807056345486055
3840.6077,20.450268747440177,9.448118830090735
3841.4932,20.62533223234481,9.347373779575133
3842.377,20.80745696196217,9.54337474513578
3843.261,20.992198899073063,9.558334269621467
3844.1472,21.17698319097651,8.884172871645578
3845.0315,21.35749486785998,8.749786151849872
3845.9182,21.530046517367524,8.372095501424786
3846.803,21.689585474391905,8.522736514580917
3847.69,21.83515478034393,8.385040326723875
3848.5752,21.967386703476016,8.275507858570785
3849.4604,22.089073035688166,8.37330986192311
3850.3481,22.20205016667217,7.862913280881826
3851.234,22.305863040729594,8.068391436325888
3852.122,22.400786070976842,8.295323953395128
3853.0083,22.486537779828335,7.697295540607186
3853.8967,22.56371687120627,8.026887607043012
3854.7832,22.631542333994982,7.7239155657182605
3855.6702,22.689488429273876,8.016399592056757
3856.559,22.73752137830441,7.837022379912347
3857.4463,22.776514543054166,7.783797458323473
3858.336,22.808278532250906,7.52278382875302
3859.2234,22.833538885284078,7.696233055579355
3860.1135,22.85174661005597,7.653570025647974
3861.0015,22.860875047701494,7.49886068519508
3861.8896,22.858792701943,7.48781985067868
3862.7803,22.843684294654793,7.844784707489475
3863.6687,22.814720315738352,7.671352234969853
3864.5598,22.772231778795568,7.45278226829125
3865.4487,22.71855203213596,7.934099994518635
3866.34,22.656177811630656,7.898379583540661
3867.2297,22.587233913530163,8.025246638038439
3868.1213,22.51177630777777,8.118960694644187
3869.0112,22.43002318909844,8.033648817752242
3869.9014,22.342512622940507,8.353942302945063
3870.7937,22.249994936606097,7.812120056570335
3871.684,22.15207923652961,7.567712523205016
3872.577,22.044533412296932,8.318888563878978
3873.4678,21.922852548828672,8.258212557424178
3874.361,21.783356728643895,8.646659772387792
3875.2524,21.627479478803394,8.839134846470476
3876.1438,21.458178777653085,8.8420773587368
3877.0376,21.27753524187806,8.918375594973039
3877.9297,21.08635612515,9.023855858875791
3878.8237,20.881862481322347,9.229912134536235
3879.716,20.662978113433713,9.994849196350831
3880.6108,20.428260936859242,9.406122694576734
3881.5037,20.180041226952447,9.937873185057743
3882.3965,19.92002319027376,10.248273545008777
3883.2917,19.650336739751264,10.345887552454405
3884.185,19.37600778260049,11.183384017233148
3885.0808,19.100451521339217,11.272735518684156
3885.9746,18.830658480960548,11.439492642860868
3886.8706,18.57171398487679,12.1412994507565
3887.765,18.332591466578563,11.998930339303003
3888.6592,18.124254573795376,12.358190932523547
3889.556,17.96288039411748,12.958187727652877
3890.4507,17.868730935218593,13.534204708653311
3891.348,17.85720336973117,13.149119197612496
3892.243,17.93309472874679,13.123146244333864
3893.1406,18.087534731514847,12.919616118757363
3894.0361,18.300098138874606,12.250676990270156
3894.932,18.549352712555496,11.82447290814694
3895.83,18.81962576180744,11.361632726378225
3896.7263,19.101643313696616,11.095979796372221
3897.625,19.394900244319487,10.928939287548628
3898.5215,19.69687515182703,10.67408075224674
3899.4207,20.00509767730936,10.2301812852033
3900.3176,20.31075250535131,9.37168717111407
3901.2148,20.607985638877608,9.469332012422553
3902.1145,20.894564924182852,9.266890242125571
3903.0122,21.170034714635403,9.176759223792592
3903.912,21.437762398610143,8.913965510897386
3904.8103,21.697499328043914,8.420792324719772
3905.7107,21.95027375860348,8.233608498152497
3906.6094,22.195215698789326,8.126975343036472
3907.508,22.43349934417603,8.006781675582962
3908.409,22.665445051536988,7.598645066930847
3909.308,22.88790554790826,7.942194538202145
3910.2097,23.09874734067158,7.4754747436606825
3911.1091,23.294666419965022,7.342572436230334
3912.011,23.47626314728433,7.41563677406199
3912.9111,23.64322839074504,7.063161542500075
3913.8113,23.796190681216007,6.79910497989774
3914.7136,23.935429139828024,6.93557980242869
3915.6143,24.060930099193577,7.041444810119538
3916.517,24.17519019714646,6.873103259975119
3917.4182,24.280860656967782,6.813227582659699
3918.3215,24.381889693376646,6.880912122685222
3919.223,24.48032438510926,6.825557035389655
3920.1245,24.57674147467967,6.606230082106196
3921.0286,24.669278888972627,6.707050438770629
3921.9307,24.754099421766302,6.568316825626274
3922.835,24.82860559825567,6.51638556733056
3923.7373,24.891113927647513,6.410101158243915
3924.642,24.942472192866642,6.4729604238351195
3925.5452,24.98412767419026,6.521389604076438
3926.448,25.01747605570981,6.657131929995402
3927.3535,25.041830838901895,6.572525183909283
3928.257,25.053827300442435,6.393875413494711
3929.1628,25.04972242547768,6.41032005156538
3930.0667,25.02856971624432,6.40490498210901
3930.9731,24.99402844166325,6.53596907157386
3931.8774,24.9530075578983,6.454586862317558
3932.782,24.910858417849198,6.454447156226362
3933.6887,24.868724957703304,6.743295251542817
3934.5938,24.82448919592529,6.527701383801113
3935.501,24.77474874159207,6.574425549387367
3936.4062,24.717004237965842,6.601696168690183
3937.3142,24.647969596841808,6.685343130923508
3938.22,24.564196874303622,6.684512883032188
3939.128,24.46200605040242,6.669283736829106
