wavl,flux,ivar
3566.9744,0.9401776734329165,137.44607609550462
3567.795,0.9412883242223399,93.89546474888337
3568.6177,0.9380288272498147,101.15236290799294
3569.4385,0.931533377409706,214.76055244553135
3570.2617,0.9240771118364703,98.00962105056388
3571.083,0.9176981301506711,123.64417144106159
3571.9065,0.9130108541970797,138.02199397743635
3572.7283,0.9095636735245549,150.13381531051266
3573.55,0.9068013619487663,119.55276032930075
3574.374,0.9047925902624674,143.29097564100448
3575.1963,0.9039864104346479,294.11262517366714
3576.0208,0.9045089841798706,115.7628262964084
3576.8435,0.9059203005484797,131.41513545732175
3577.6682,0.9075541598584568,173.01357639345807
3578.4915,0.908918382591582,114.15662143105361
3579.3145,0.9098287260652341,90.62350037428585
3580.14,0.9103139430277097,155.71121595610813
3580.9636,0.9105294521796533,114.84510962708183
3581.7893,0.9106617593555538,137.59160871755725
3582.6133,0.9107865933519437,176.93201191359273
3583.4395,0.9108204813046261,104.76570663940245
3584.264,0.9105803753442088,129.4779338379964
3585.0884,0.9098327995306286,115.6233300997088
3585.915,0.9082625607862534,94.55797812855239
3586.74,0.9055329444741095,173.30118630804827
3587.5671,0.9015208616619103,119.13630401913211
3588.3923,0.896710545392893,122.88448333632854
3589.22,0.8920893172154162,125.89411711592653
3590.0457,0.8886849181360119,158.86932638173843
3590.8716,0.886881767796961,176.90980998587307
3591.6995,0.8864098289273737,119.54094603546702
3592.526,0.88672610325579,222.6571569282705
3593.3542,0.8873263493200815,145.9328255300457
3594.181,0.8877659674607465,130.30030878340955
3595.0098,0.8876653036474177,142.35512617143638
3595.8367,0.8868937274685981,179.01801923454423
3596.6638,0.8857816289013628,119.91389385302381
3597.4934,0.8850921394407317,104.20342067313689
3598.3208,0.8857167417505546,402.5112723221412
3599.1506,0.88823126845762,104.63628472539412
3599.9788,0.8924802600298096,129.24133264556855
3600.8088,0.8974013485197267,103.38212894597807
3601.6372,0.9011231554402293,115.11135330481537
3602.4678,0.9016990974098801,144.01043929357718
3603.2964,0.8979485195919922,159.81835411847086
3604.1252,0.8899611705255072,142.4662627537841
3604.9565,0.878818290188058,170.12407913807345
3605.786,0.8661931495710853,112.21113209921505
3606.6172,0.853888699071194,149.70288518786617
3607.447,0.8440409991686353,136.90272865089264
3608.2788,0.8385540077792816,131.9931426314996
3609.109,0.8383069905195343,129.27868818616977
3609.9392,0.8423233156963524,129.83381414681566
3610.7717,0.8482422867954721,97.11008578884133
3611.6023,0.8536671358168005,121.05377839995012
3612.435,0.8575282030705438,103.70981584140475
3613.266,0.8600211531945982,223.16998361978855
3614.0994,0.8616877372483056,144.51457626342292
3614.9307,0.8625359992303204,122.5812865302801
3615.7625,0.8622656423306521,133.32874806142706
3616.5962,0.8610718045450424,111.26944881189925
3617.4282,0.8600407708187581,172.2574928600337
3618.2625,0.8605486430694635,185.10244956014154
3619.0947,0.8633090963890457,195.33750745005133
3619.9292,0.8680091044334852,114.10905857742995
3620.762,0.8736788458101256,133.07060168513124
3621.595,0.8793846551498105,129.79492744800405
3622.4302,0.8844165107366418,138.7988329172097
3623.2634,0.8880801592298984,110.12372542690561
3624.0989,0.8896639945871031,117.42364512295684
3624.9326,0.8886271409872958,97.4491738794251
3625.7686,0.8851303082714743,114.47433126508729
3626.6028,0.8803817230708049,144.35700192404033
3627.437,0.8762853485982621,125.86932663216041
3628.2734,0.8744321578707286,218.56728107732636
3629.1082,0.8749621353590397,101.8523580276435
3629.945,0.8762664697898483,99.44354898555346
3630.78,0.8759975260342812,114.71281503232764
3631.6174,0.8726141868157256,100.86273332347861
3632.453,0.8663066586768533,123.26459981051637
3633.2883,0.85871109021198,124.64419602035703
3634.1262,0.8519603095908648,114.06011958482567
3634.9622,0.847778692975954,145.7650542125461
3635.8005,0.8467451493572905,136.3673650327528
3636.637,0.8482004287492838,157.05300174624531
3637.4756,0.8505492762150264,157.85382101472447
3638.3123,0.8520602009446567,110.0666442590089
3639.1492,0.8518386996236768,171.92165103133954
3639.9885,0.8502427217065358,141.97326615341333
3640.826,0.8484728610195271,134.72151468174795
3641.6653,0.8475294795679116,175.0321202196791
3642.5032,0.8475194812541158,215.38518111978235
3643.343,0.847809614160241,162.5144815942923
3644.1812,0.8477737527725443,126.76772558225927
3645.0195,0.8472907123211569,115.97064522967179
3645.86,0.846612293715827,134.06603911176364
3646.699,0.8459837903614601,164.15724392531425
3647.5398,0.8454971699491599,176.38342366100483
3648.379,0.8452982306686413,102.51567712964145
3649.2202,0.8457867687446265,142.81065809151409
3650.0596,0.8474831702658611,134.14410688939546
3650.8994,0.8505404328413396,126.25776325699968
3651.7412,0.8542974818659061,215.4107080840324
3652.5813,0.8573347729759883,156.95196467082812
3653.4236,0.8581769209177708,109.24879219432819
3654.2642,0.8559687206250407,187.95521062576057
3655.1067,0.8508175978139717,108.94456794993684
3655.9475,0.8437553433499804,160.75128715772675
3656.7886,0.8363254973063424,169.8605226844332
3657.6318,0.830062324849547,249.19055696538348
3658.4734,0.825926193097963,139.96806487975658
3659.317,0.8238513806236953,179.6659171925509
3660.1587,0.8229354632002103,134.35978778128163
3661.003,0.8219332501023469,146.39531311347258
3661.845,0.8199879851006127,124.39647382600084
3662.6875,0.8171060999405129,131.85310340776803
3663.532,0.8141628376462299,186.15618803876916
3664.3748,0.8124129381658891,127.18648432500899
3665.2197,0.8127394581597677,170.29688697463104
3666.063,0.8151827349591321,109.64758516905927
3666.9084,0.8189346329729237,154.87423935172933
3667.752,0.8227260664016417,133.66521984319698
3668.5977,0.8254894111187877,161.78999328710114
3669.4417,0.8267298669994307,158.90638021990748
3670.286,0.8265646745334778,181.83858782980946
3671.132,0.825288938464938,144.487599914276
3671.9768,0.8230582453703911,190.76924612829512
3672.8235,0.8200008496750988,145.11591772095156
3673.6685,0.8166890644172708,223.81236487614336
3674.5156,0.8142296453130202,170.76593201382133
3675.3608,0.8138267153486335,153.65984157265117
3676.2063,0.8159399609107135,151.8466174947942
3677.0542,0.8198845071858849,129.54014542927757
3677.9,0.8241241005754141,134.3242928159627
3678.748,0.8272692494360472,115.40809687318419
3679.5945,0.8287111976199519,155.564662349645
3680.4429,0.8285842580599898,125.08368112458504
3681.2896,0.8271376081304349,175.4895654172031
3682.1365,0.8244644843818596,125.05153313298773
3682.9856,0.820803431435159,108.50282123575816
3683.8328,0.8168837145347624,157.55285949514789
3684.6824,0.8136028511014843,133.27285893117903
3685.53,0.8115099871592121,116.65293211307481
3686.38,0.8104778286698169,123.75208454444675
3687.2278,0.8100396723365548,107.58285332976178
3688.0762,0.8098844480356066,180.86709145231362
3688.9265,0.8101726877168238,129.45250717939143
3689.7751,0.8114184716007462,189.5972702169898
3690.626,0.8140175517638938,159.0492754881611
3691.475,0.8176332064539915,137.58676531450863
3692.3264,0.8210244258289359,148.95695923413035
3693.1758,0.8225129993675935,176.9889080671244
3694.0254,0.8210921063538807,169.55113687780067
3694.8772,0.8171966539070112,238.82304102274435
3695.7273,0.8126586718247168,194.2022134779198
3696.5793,0.8096229643589328,162.05797013978312
3697.43,0.8093689048843177,171.9234828562744
3698.2825,0.8116935390709739,88.30490859489345
3699.1333,0.8153231117579489,138.60622155341488
3699.9841,0.8188799204422069,174.8914245747552
3700.8374,0.8215552984009374,149.3536280769641
3701.6887,0.8230992800197744,149.11469449338452
3702.5425,0.8234586917374515,166.28290659486797
3703.3943,0.8224500826360248,189.90190926705267
3704.2483,0.8198369895799915,174.77167442652203
3705.1003,0.8156248168131173,155.6448624367675
3705.9526,0.8102066244978362,152.6493579835508
3706.8074,0.8043372086920948,177.63154395564501
3707.66,0.7989862634187817,146.9898504237112
3708.515,0.794938222266688,194.5748699588566
3709.3682,0.7926079887019916,146.4863066729759
3710.2234,0.7918057114563154,183.84642704520343
3711.0771,0.7918779977441975,150.35823091901395
3711.9307,0.7920366976164572,165.4145418395069
3712.7866,0.7917997616991422,123.30707763855553
3713.6409,0.7912071153269244,215.757237644083
3714.4973,0.7905866426271304,163.03636352702557
3715.3518,0.790054267809867,200.5337632079834
3716.2085,0.7892662434546809,212.78256841058723
3717.0635,0.7877805839259883,135.45776795901475
3717.9185,0.7855830188492676,256.0424277257868
3718.776,0.7831529272409551,202.561511182127
3719.6313,0.7810326763039809,142.6208617759955
3720.489,0.779406496045447,158.50614168836094
3721.345,0.7782665077087645,155.8947754277566
3722.2031,0.7776808524250195,236.7279683857026
3723.0593,0.7777023388070802,173.2675899736638
3723.9158,0.7779104949002181,216.9438184714613
3724.7747,0.7773492196469962,133.78738809663577
3725.6316,0.7751918029737109,173.35035089747828
3726.4905,0.7714914027133896,186.92883442330162
3727.348,0.7672576630062515,165.44469832486385
3728.2073,0.7637781761643828,181.19455292683628
3729.065,0.7621201852595137,150.3840896693973
3729.9229,0.7629365980077129,196.44299345245688
3730.783,0.7664598255673765,201.3244678789454
3731.6414,0.7722773728168099,146.19580565511606
3732.5017,0.7793610863249749,146.80831382830468
3733.3604,0.7863028018535789,142.25499409673554
3734.2214,0.7918759112692398,162.35249518003684
3735.0803,0.7951890382126608,138.99110349215525
3735.9417,0.7958882779307024,166.1633319491752
3736.8013,0.7941146353892381,165.34264382340095
3737.661,0.7904331619033829,134.0472055090375
3738.5227,0.7855548795095193,169.9690343105238
3739.3828,0.7802390373344438,182.24630097012684
3740.245,0.7753325522017389,172.55990908543941
3741.1055,0.7719586249636933,163.1528312815741
3741.9683,0.7710954817465333,197.43519851333977
3742.829,0.7729655446770523,133.34948155427963
3743.69,0.7766693824397639,310.8268836742429
3744.5532,0.7806294623107705,118.26334858150447
3745.4148,0.7833486342956577,213.13376327223028
3746.2786,0.7839740830238033,157.84651116361576
3747.1404,0.7822355762619969,133.34670000292783
3748.0044,0.7783256859939967,194.52551513653697
3748.8667,0.7730282609423962,192.31081761163298
3749.729,0.7677126134601246,154.69233790244
3750.5938,0.763892441097108,148.68354087755642
3751.4565,0.762448491263045,158.9794219884533
3752.3215,0.7631413086770755,161.29856499171487
3753.1848,0.7650266680155967,233.1823691308249
3754.0503,0.7672114615047133,193.95911507795816
3754.9138,0.769172167883477,185.23801698307983
3755.7776,0.7705315693307593,188.87778330725462
3756.6438,0.770710869887781,195.3400732394537
3757.508,0.7690857325388878,191.1934994340516
3758.3745,0.7655570064168614,152.84565715729997
3759.239,0.7610305576622817,153.98487197554056
3760.106,0.7571496913912044,246.60666569249918
3760.971,0.7554856062760589,324.31334647466105
3761.8362,0.7565086634150017,136.1483825802312
3762.7036,0.7593972868084037,213.94266710729008
3763.5693,0.7626900262977416,221.52377670452057
3764.437,0.7653652769934054,177.7076177205306
3765.3032,0.7673149546951372,163.55349860851072
3766.1714,0.7691481448247033,169.22461861376107
3767.0378,0.7715916312131242,164.31153163644274
3767.9043,0.7750926349551934,191.1255954402716
3768.7732,0.7796203696514079,203.15557041428315
3769.6401,0.7845792563197633,141.35734294589795
3770.5095,0.789061060850778,215.5383149761281
3771.377,0.7921462322399231,153.18601913493737
3772.2466,0.7933593890896123,132.1651413541072
3773.1145,0.7926563450570951,128.23531868741208
3773.9824,0.790155127059665,228.89159860270013
3774.8528,0.7858363926767588,168.31455219147065
3775.721,0.7797330856919725,132.7067580597995
3776.5918,0.7722971473491556,155.03885811313162
3777.4604,0.7648048541072975,197.0546410919983
3778.3315,0.7588527136574602,280.60687681142826
3779.201,0.7555926008753818,186.08470844670208
3780.0703,0.7548064434059606,151.21611356270873
3780.942,0.7550307727190824,150.77063573376816
3781.8118,0.7546329723984269,141.7999006676552
3782.6838,0.7530752432955121,269.69075863409626
3783.554,0.7511676735368507,297.2447036293712
3784.4265,0.7500752130248703,182.41984063517017
3785.297,0.7502274689877223,160.59118846745054
3786.168,0.751096303542278,155.16322274170852
3787.041,0.7518417159203619,193.51704265052723
3787.912,0.7519146750706003,176.94543957164473
3788.7856,0.7512014215019933,155.0014011495014
3789.6572,0.7499307713999744,147.3313201610484
3790.531,0.7485994884696391,160.13605884312162
3791.403,0.7477945990703166,161.05237963838883
3792.2754,0.7477394374854884,177.1218007307697
3793.15,0.7479992156690641,162.13188879635578
3794.0225,0.747706033659995,174.5021587459206
3794.8972,0.7462167922999893,154.07163979413096
3795.7703,0.743649827691445,177.4247897312124
3796.6455,0.7408178123545701,258.08769919159903
3797.519,0.7387221092663502,221.08525366285838
3798.3926,0.7379054911166182,156.38294571343317
3799.2686,0.7381959277784302,228.17414771113926
3800.1426,0.7387891352854868,188.03783538849532
3801.0188,0.7386335661357498,183.8113032473307
3801.8933,0.7370202914254361,194.8358087984592
3802.77,0.7341426326894342,193.57782529494347
3803.6448,0.7312077051915605,219.3979953725591
3804.522,0.7297476487043877,168.82388394882295
3805.3972,0.7306980051380091,174.87142614808073
3806.2727,0.7338358243218045,167.6916921312676
3807.1504,0.7380701973986235,218.63203045262145
3808.0261,0.742125154275239,301.5595981100317
3808.9043,0.7452355736688023,201.29577296215228
3809.7805,0.7472481876558859,165.4873968289194
3810.659,0.7484436085220368,228.19872824009576
3811.5356,0.7491099341985762,166.9559502983491
3812.4126,0.7493033889695395,209.5231940885143
3813.2917,0.7488349623234161,165.422267578465
3814.169,0.7475062299133266,146.38697316531574
3815.0483,0.7453216725757889,129.21284939060877
3815.926,0.7424802775069682,189.18661510664802
3816.806,0.7390851271612476,201.181537166073
3817.684,0.7350857737030325,182.51163543094822
3818.5623,0.7304953081557359,204.01245948468977
3819.4429,0.7257552872144022,201.32410895186985
3820.3215,0.7217488205119517,204.47360376931795
3821.2024,0.719236306075798,164.75579697497486
3822.0815,0.7183872404643195,190.88347815614307
3822.963,0.7186114982396226,206.96617982863626
3823.8423,0.7189973755169803,242.07666428457983
3824.722,0.7189588852497112,187.80395307083296
3825.604,0.7185556889573355,198.159571519792
3826.4841,0.7181876194338351,233.61518591726553
3827.3665,0.7179845086424894,173.03667336382014
3828.2468,0.7176404772096393,185.01375533219527
3829.1296,0.7169127907192968,297.77529307756436
3830.0105,0.7161927273942842,199.05329862224448
3830.8916,0.7163244151391832,171.6581826275871
3831.7751,0.7177456838362217,315.61965220625353
3832.6565,0.7198028936447884,276.909975494347
3833.5403,0.7211666907866708,204.8561237986998
3834.4224,0.7210234457321706,153.92338674864837
3835.3064,0.719923597857425,210.63069834757303
3836.1887,0.7192644658760664,314.30015311484
3837.0713,0.7199332738351601,249.109439774797
3837.956,0.7215845281448555,159.1719607275526
3838.839,0.7231412693323814,198.85262649050884
3839.7244,0.7237764595085321,230.23163926130482
3840.6077,0.7232340828402273,219.6841383292797
3841.4932,0.7215944392380114,245.98122936023057
3842.377,0.7191564769160144,200.8215043683317
3843.261,0.7165255600967749,192.11875138244145
3844.1472,0.7144444546949813,202.09136749486726
3845.0315,0.7132227270930985,229.42949580337304
3845.9182,0.7123716952689069,182.8163141686818
3846.803,0.7111287997373076,223.71759559626577
3847.69,0.7093782718788777,204.65728574352184
3848.5752,0.7080725747440967,174.42526516335613
3849.4604,0.7085729230151921,240.8425778958891
3850.3481,0.7115765359140993,198.21404420167912
3851.234,0.7164994183948593,162.55733727821283
3852.122,0.7219268639419898,177.4051136614046
3853.0083,0.7264676642210723,154.56899257488485
3853.8967,0.7295519571852369,196.97339979533987
3854.7832,0.7313876643451623,182.57676295951646
3855.6702,0.7325191336132998,171.8169213755847
3856.559,0.7332218399603148,173.10339328427102
3857.4463,0.7332888486951306,183.0025512832255
3858.336,0.7323034858270894,171.639979493897
3859.2234,0.7301460273963584,152.90377702905943
3860.1135,0.7272616467343999,181.61352583863155
3861.0015,0.7245364856357691,196.45065080095537
3861.8896,0.7227726472848626,192.7047259637538
3862.7803,0.7222993501400782,241.76519618398993
3863.6687,0.7228203023876972,213.1869569584504
3864.5598,0.7235397371156399,214.56133737419808
3865.4487,0.7234978776632388,155.05362776671456
3866.34,0.7220303330809021,185.7196285146576
3867.2297,0.719107443864602,180.4974390854123
3868.1213,0.7152341027172933,262.45355435966786
3869.0112,0.7110634531467143,205.04043787247724
3869.9014,0.7070122089344224,212.79087069807267
3870.7937,0.7033515163061393,191.32870985737506
3871.684,0.7004587598400144,280.65983503409615
3872.577,0.6987261620107365,234.91581739802868
3873.4678,0.6982772107455046,188.83674543304267
3874.361,0.6986904471154114,322.99244196157713
3875.2524,0.6992035483566557,180.68036548730427
3876.1438,0.6992284106848302,197.49927560141813
3877.0376,0.6986984903471395,176.32572237586493
3877.9297,0.6979346879723352,221.2817593522549
3878.8237,0.6972033866497213,246.4911225222882
3879.716,0.6964921047838653,233.4758447161744
3880.6108,0.6956312123788873,170.18550585194785
3881.5037,0.6945444242057843,199.83886287559454
3882.3965,0.693336562002512,264.3281293209012
3883.2917,0.6922956115541035,180.05984846256302
3884.185,0.6918194366305336,273.1763238675145
3885.0808,0.6921463051562944,203.57085777284382
3885.9746,0.6930407285392864,224.04505169785367
3886.8706,0.693790915569702,258.3195942473911
3887.765,0.6936775002154568,184.25916903138489
3888.6592,0.6925609718270658,230.7844828868393
3889.556,0.6909693001877422,279.7829517153492
3890.4507,0.689652283412821,200.9711377295507
3891.348,0.689017467304586,196.41402134672109
3892.243,0.6890519420836516,180.72396489225494
3893.1406,0.6896005413500538,182.8436825908626
3894.0361,0.6905799929400457,242.7237782190124
3894.932,0.6918887704506199,312.5157031420896
3895.83,0.6932705995136764,187.58499975546778
3896.7263,0.6944606754504175,246.99777207653358
3897.625,0.6955164552042178,186.45797821431066
3898.5215,0.6967771526949055,219.78148251691744
3899.4207,0.6984382051382962,203.0523625839312
3900.3176,0.7001303779781821,184.2017715453352
3901.2148,0.7011061775042385,231.69137476525873
3902.1145,0.7008002978822453,182.74888914546383
3903.0122,0.6993051387171824,323.7155599757068
3903.912,0.6973459145548346,204.24583553849345
3904.8103,0.6958500625133496,256.29616579758584
3905.7107,0.6953635771750649,184.38207518881563
3906.6094,0.6957990907792823,217.99964568620393
3907.508,0.6966427451702282,192.32528180597808
3908.409,0.697467854859669,209.428661943576
3909.308,0.6982504795753679,126.39228259626069
3910.2097,0.699278686603463,266.31790378793517
3911.1091,0.7007732849931895,232.32661639304604
3912.011,0.7026181339102634,213.32257077000384
3912.9111,0.7042850256098832,240.2323065360902
3913.8113,0.7050519934150465,337.6515309836102
3914.7136,0.7041930902915315,187.78685417965934
3915.6143,0.7008158870277181,217.7342958349906
3916.517,0.69307850360407,184.43461725423992
3917.4182,0.6776024542626763,218.85072669222546
3918.3215,0.6502859163258944,230.20169072881887
3919.223,0.6102804296898637,220.82622056206853
3920.1245,0.56416038873287,189.99698178724228
3921.0286,0.5266418388413625,189.98712039813594
3921.9307,0.513895409312116,4.280135618135189
3922.835,0.532272554712048,215.55529254303426
3923.7373,0.5734827686257999,207.64473620385303
3924.642,0.6207113297520409,181.05335193274965
3925.5452,0.6590605534693474,198.38859070118085
3926.448,0.6829744747251406,186.29788782511312
3927.3535,0.6947715406938904,226.81880205426762
3928.257,0.6995832187850274,201.5210941003857
3929.1628,0.7015239754764002,231.74499850739141
3930.0667,0.7022782748777882,213.72022334747186
3930.9731,0.7018734283763193,221.54077838702995
