wavl,flux,ivar
3566.9744,2.1136425422994307,146.7716583595515
3567.795,2.110531519917543,183.3292701404685
3568.6177,2.106295896804989,204.40154507180455
3569.4385,2.1015560759264584,266.1391444416637
3570.2617,2.097635014038175,206.3308976713997
3571.083,2.0960460548025237,197.2069013356012
3571.9065,2.097441502316144,179.7604360740278
3572.7283,2.101107624431609,169.86735843735283
3573.55,2.1054452549149043,151.62479503569207
3574.374,2.109044559909896,160.87948622286999
3575.1963,2.111364077862601,215.93920159214002
3576.0208,2.1126648088791717,162.28974075062146
3576.8435,2.1133423394459703,209.74312718562925
3577.6682,2.1134811470248867,180.9941726014361
3578.4915,2.112832595343498,185.87185037488987
3579.3145,2.111155132763141,192.6585038480562
3580.14,2.108537455593916,149.74132350773257
3580.9636,2.1054576441284847,185.44914473527768
3581.7893,2.1024000509125664,175.6877630536892
3582.6133,2.0995462968182914,177.06379496833932
3583.4395,2.0967598342609026,204.21831305012978
3584.264,2.094035711534117,173.0808365212132
3585.0884,2.0917181108100014,154.6967718219258
3585.915,2.09035149174074,208.99876977912413
3586.74,2.090325531366103,194.10425050726454
3587.5671,2.0916715517853244,156.6220580666199
3588.3923,2.0940227629667643,226.65398658886627
3589.22,2.0965585316630895,181.90662042771027
3590.0457,2.0980444702190555,202.23294718455998
3590.8716,2.0975014827014555,181.0844246981919
3591.6995,2.0950684828207313,175.1138042907093
3592.526,2.092239457581067,193.76232325002863
3593.3542,2.09072787016448,191.24219457554648
3594.181,2.090834166079723,180.53586388115673
3595.0098,2.090835258069988,169.84614556196206
3595.8367,2.0883243855987637,173.22067891946634
3596.6638,2.0823716147876525,156.9802350243257
3597.4934,2.0744733844477024,178.10308922003907
3598.3208,2.067570624845823,227.56205045358098
3599.1506,2.06382801641557,209.65276036891183
3599.9788,2.0634683644828384,193.0146044607997
3600.8088,2.0649535929147187,203.9503781056634
3601.6372,2.0662141757575605,168.4567205777028
3602.4678,2.0657042387155755,195.8187108088172
3603.2964,2.062806295489477,217.20257370618432
3604.1252,2.057861227342506,171.43411666371725
3604.9565,2.0521378741064953,186.89732912951465
3605.786,2.047685955886345,213.44488320313613
3606.6172,2.0465223823413057,194.56156324731168
3607.447,2.0496483523615883,177.35591200639706
3608.2788,2.0562816442244034,178.0979805528867
3609.109,2.063879370477929,226.3784678837296
3609.9392,2.069151208239686,180.1014571636154
3610.7717,2.0694471501984033,258.24301319281227
3611.6023,2.064181727493475,165.5537635280643
3612.435,2.055361111564857,168.0721110354256
3613.266,2.046776077843506,201.16171902080654
3614.0994,2.041854208532502,198.2335049443479
3614.9307,2.0418603344266484,216.92294811175245
3615.7625,2.04521451886876,191.5850978860468
3616.5962,2.048583393396739,179.65914235545404
3617.4282,2.0487139098977507,193.7942501412005
3618.2625,2.0441101723395234,194.05224828556342
3619.0947,2.035661119274651,212.65138576418659
3619.9292,2.0259220099534287,219.24492226871652
3620.762,2.0177781967814976,234.30364950263208
3621.595,2.012893437917621,208.59403539578784
3622.4302,2.0113771851728943,178.30057462924427
3623.2634,2.0124347958742645,223.9165658831
3624.0989,2.015338913875856,224.16048675107245
3624.9326,2.0197559608693916,184.25440010731293
3625.7686,2.0253292598299586,194.39190125319593
3626.6028,2.0310568817991927,168.52101272797276
3627.437,2.0355384769103706,163.4070099104492
3628.2734,2.0377763416113988,189.54413873869098
3629.1082,2.0378535981129247,202.20826593063012
3629.945,2.036747014526023,190.02563642228753
3630.78,2.035398258505295,183.30196871524902
3631.6174,2.0339849000052763,208.7302417640845
3632.453,2.0320053521116543,214.33133065419213
3633.2883,2.0288487929724335,174.37756956495045
3634.1262,2.024366835676709,194.13603982834076
3634.9622,2.019182368276327,187.93841347759476
3635.8005,2.0144956819450144,158.09838099566932
3636.637,2.011677649192892,198.89421502657115
3637.4756,2.0114090580292525,182.76960095080233
3638.3123,2.0131364981042514,173.42330977062483
3639.1492,2.0152040952974843,205.10488529268838
3639.9885,2.0157631089656554,198.66679492263927
3640.826,2.0138016819366698,243.8474307296105
3641.6653,2.009657820353603,228.88127215988195
3642.5032,2.0048420714583033,173.8166939135472
3643.343,2.0011860013632434,216.3669285524747
3644.1812,1.9997961537677236,210.4985594550134
3645.0195,2.000208076996325,192.15944635471752
3645.86,2.000657848187808,159.74457630483377
3646.699,1.999326606167143,206.90232131913402
3647.5398,1.9956825621761183,193.0639814284244
3648.379,1.9908705334925891,216.54472742946825
3649.2202,1.986835421148964,192.79662371361553
3650.0596,1.9851049737591404,206.72685469640516
3650.8994,1.985856870683027,231.54922215842748
3651.7412,1.9879458551227003,230.73378482651177
3652.5813,1.9895657117787278,223.52850255510057
3653.4236,1.989309423998966,167.54991978001394
3654.2642,1.9869632636130876,196.80781118264838
3655.1067,1.983521981688011,176.43760787682695
3655.9475,1.9803788006441465,200.91670877980476
3656.7886,1.97830019923662,177.2678147338853
3657.6318,1.9771866135214413,202.28149761740204
3658.4734,1.9765328862102587,197.85295891475903
3659.317,1.9759487888010994,202.0237588702943
3660.1587,1.9753574483431426,201.5616642462107
3661.003,1.9749133169578008,212.4313232624824
3661.845,1.974858195809586,202.84511728384086
3662.6875,1.9753283682533727,266.622128125461
3663.532,1.9762529060673621,214.88393894657557
3664.3748,1.97734768884676,204.6842585108643
3665.2197,1.9780655198779997,213.37553481723762
3666.063,1.9774097581147219,229.33253104997917
3666.9084,1.9740801418827782,196.53987021495857
3667.752,1.9673072930705853,200.6974595553339
3668.5977,1.9577629848263498,216.86419617147564
3669.4417,1.9478060490710232,241.80314635380657
3670.286,1.9402390419401363,254.44131284328088
3671.132,1.936896130800367,214.5211604006781
3671.9768,1.9378876557730027,216.61291496644512
3672.8235,1.941873086208932,223.83203076700178
3673.6685,1.9468628901510543,213.48926139238563
3674.5156,1.9509936947315956,190.70905562260413
3675.3608,1.952936616928047,216.90899586631767
3676.2063,1.952252796325621,207.50930863450841
3677.0542,1.9493659758730149,238.46744727278684
3677.9,1.9453556695799585,211.43801699964214
3678.748,1.9414970672995746,175.15757749987512
3679.5945,1.938941612919252,258.16026173730296
3680.4429,1.938282857782592,263.9392348039351
3681.2896,1.939340686277605,192.3062321964529
3682.1365,1.941254672677712,190.11394172639163
3682.9856,1.9429826220433806,226.05818928586277
3683.8328,1.943727282238751,211.69168339667107
3684.6824,1.9430209748023068,224.46495992360812
3685.53,1.940576220915164,257.9481645420604
3686.38,1.936339997437885,204.0639353881035
3687.2278,1.9308479406438697,206.19964509923906
3688.0762,1.9252919502036954,198.18954885474278
3688.9265,1.9211946240239606,229.35210435590557
3689.7751,1.9197100009858463,217.8562376273722
3690.626,1.9210178713220314,254.46716604064582
3691.475,1.9243501146490227,225.5847458421488
3692.3264,1.9285321265364643,218.92689313654535
3693.1758,1.9325405140405385,212.92234942222785
3694.0254,1.9358588951416862,259.0721861618404
3694.8772,1.9383841278164957,216.28389156972187
3695.7273,1.940216430479797,238.16066921127606
3696.5793,1.9414840168088523,213.63061959439773
3697.43,1.9421427135244795,232.23083285765475
3698.2825,1.9420094109032022,201.74771297051538
3699.1333,1.9410407157263474,200.9311980363708
3699.9841,1.939700925603968,236.98313723520715
3700.8374,1.9389869118085061,204.79887687916406
3701.6887,1.9398920996150595,209.01553463436744
3702.5425,1.9425937974547054,182.04650305798987
3703.3943,1.94609280601624,203.29416637193026
3704.2483,1.9488545458253583,202.471246112623
3705.1003,1.9498585565255309,206.43920440841237
3705.9526,1.9492090409673843,217.0009221901703
3706.8074,1.94761634873889,260.47799008637577
3707.66,1.9455332719174292,229.93937072404236
3708.515,1.9428492182307249,210.80994734486816
3709.3682,1.9394980775496526,209.5527956171555
3710.2234,1.9359884374851504,227.9716354637653
3711.0771,1.9332578721969471,233.6780702306635
3711.9307,1.9318835949505586,222.390392293574
3712.7866,1.931757848500898,189.52452923619143
3713.6409,1.932463780988143,230.24365888182152
3714.4973,1.9337157217544407,246.36914197254438
3715.3518,1.9352244914346666,205.12646378389914
3716.2085,1.9363995524349271,218.51797849463833
3717.0635,1.9365552058002444,204.9573219038461
3717.9185,1.935623889702634,216.0266662226956
3718.776,1.9344401154040338,201.50762205265517
3719.6313,1.9341640668199174,206.2685728605482
3720.489,1.9352325925068947,204.29478262859234
3721.345,1.9368027850744944,209.9803698027679
3722.2031,1.9371580151178698,231.13868380279362
3723.0593,1.9347771294411382,202.62360583502533
3723.9158,1.9293832798689041,245.47349310980843
3724.7747,1.922245554017843,211.79655634315395
3725.6316,1.915646635497594,211.92334028816714
3726.4905,1.9115570638570563,222.57619769494664
3727.348,1.9107225269662746,229.74733881290805
3728.2073,1.9124456048867224,210.26703212699314
3729.065,1.915374014370596,219.3180716934065
3729.9229,1.9185793424541548,230.82892109733297
3730.783,1.922047400263679,234.93089023790066
3731.6414,1.9262018493927482,232.0025841602409
3732.5017,1.931055395103376,203.17550368947877
3733.3604,1.9356730730372615,194.24813602931127
3734.2214,1.9386273352398595,207.04977454868575
3735.0803,1.9387230888750753,255.06739105466653
3735.9417,1.9355853850107003,215.6927580281914
3736.8013,1.929722113208344,229.89579544920377
3737.661,1.9223267860296662,213.13533264828806
3738.5227,1.9150722564257527,216.82513906281838
3739.3828,1.9098448232346856,219.90269194093463
3740.245,1.9080550346448526,240.55727493423316
3741.1055,1.9100427137405611,240.03233975613244
3741.9683,1.9147081048241927,207.3536351771562
3742.829,1.9198401979964566,192.4961896870802
3743.69,1.9232131918145483,210.79252964109423
3744.5532,1.9236484580929814,204.69091551982154
3745.4148,1.921454255317578,234.2885583969255
3746.2786,1.9179620434047073,218.90244766324292
3747.1404,1.914705026504093,207.91810040212337
3748.0044,1.912785117665831,237.52013435450527
3748.8667,1.9127768372087712,216.6057909224861
3749.729,1.9147624934976486,200.358504836365
3750.5938,1.9184504893718313,244.0774467148414
3751.4565,1.9231933312764937,198.42522505812357
3752.3215,1.928193836247359,202.38759153025123
3753.1848,1.9326668854847153,228.66021460717334
3754.0503,1.9361321125620343,207.27023217176904
3754.9138,1.9383171543372362,226.83811221628574
3755.7776,1.9390209901559248,201.4299683225575
3756.6438,1.9380083305800835,200.31139591664575
3757.508,1.9352759145669953,223.424126956346
3758.3745,1.9313116284367091,217.39755716506767
3759.239,1.9270307326207479,224.75585972402715
3760.106,1.9231411233926259,261.2762845352561
3760.971,1.9196814121383914,288.19284330439245
3761.8362,1.9159970536690618,213.71989278174564
3762.7036,1.9114063435580941,209.04140271438726
3763.5693,1.9058615801258671,224.7783421955761
3764.437,1.8999277078868644,202.5952198933295
3765.3032,1.894412060524196,221.93094159026646
3766.1714,1.8898516771814144,205.87546513974348
3767.0378,1.8865257862941658,215.88725004553353
3767.9043,1.8844752852995472,222.20900431090905
3768.7732,1.8834961449325724,243.81350399248802
3769.6401,1.8830443709213953,244.33998665142028
3770.5095,1.8824056291371918,230.69059231854368
3771.377,1.8812222115234774,223.0533529565198
3772.2466,1.8798900835055736,237.64616254255702
3773.1145,1.8794213405603197,228.67241256224122
3773.9824,1.8807322798793527,264.99159015107386
3774.8528,1.883983988154264,224.99902612225242
3775.721,1.8883644983152135,248.88386208999557
3776.5918,1.892552895165414,228.1576441270836
3777.4604,1.8953537756700618,220.33345760940594
3778.3315,1.896446111158031,183.16619152208767
3779.201,1.8965309317342798,227.866671153368
3780.0703,1.8968538513288167,238.51523161765837
3780.942,1.8982567821528282,188.92364235526966
3781.8118,1.9004981635337073,245.45824105840364
3782.6838,1.902392219245158,210.56787074558423
3783.554,1.9025851367685302,245.73251702541992
3784.4265,1.9004639647288775,208.73770842389342
3785.297,1.8964851505494067,281.535638235624
3786.168,1.8917391147129776,246.44017474703762
3787.041,1.8872962722764473,236.90000309973072
3787.912,1.883907227155749,224.32948841778872
3788.7856,1.881940092836212,224.48018023062366
3789.6572,1.8814038611274548,231.76835509236813
3790.531,1.881744804482359,220.82428464146128
3791.403,1.881939150361413,212.17606558442378
3792.2754,1.8809862879756987,217.63211187070704
3793.15,1.8784536826977625,258.7319334297099
3794.0225,1.874637284800313,190.79310527897664
3794.8972,1.8701615268607308,253.42008433365527
3795.7703,1.865582302966945,251.9572640780523
3796.6455,1.8611291677730668,252.95762405056809
3797.519,1.8569334788834444,212.89508455810702
3798.3926,1.8531784226123718,229.0070398758758
3799.2686,1.850183308351199,233.61672104098005
3800.1426,1.8483505119667543,227.49649001538063
3801.0188,1.848044131206478,254.6018448082386
3801.8933,1.84949384029416,235.8953750030565
3802.77,1.8525382621545985,204.22438126508996
3803.6448,1.856476085591736,226.06730037791007
3804.522,1.8604600719614037,203.969534962799
3805.3972,1.8640659670052735,274.19590823110406
3806.2727,1.867660687682479,197.614183324671
3807.1504,1.8719736536435128,251.75715564979598
3808.0261,1.8773283185470504,236.05701042551559
3808.9043,1.883314787309732,217.10149373922533
3809.7805,1.888932595783582,206.57030771309977
3810.659,1.8933036780396946,199.88086583886675
3811.5356,1.8959650936471764,249.54555167061082
3812.4126,1.8968254692252315,218.08388072681416
3813.2917,1.8957995427602907,237.31458278671698
3814.169,1.8928565819767784,219.9431942004719
3815.0483,1.8884208988939502,230.94920701348454
3815.926,1.8837068973437525,246.11607401953162
3816.806,1.8802607914205676,233.35679431808737
3817.684,1.8790832078160782,256.3055426620839
3818.5623,1.879807654440665,213.65193240369197
3819.4429,1.8808351949573676,220.911213267159
3820.3215,1.8802581327229604,230.87036065076484
3821.2024,1.8769824327540165,218.76353823056854
3822.0815,1.871313451693834,216.80219728935558
3822.963,1.8646824705186578,286.2613989916248
3823.8423,1.858944138743076,250.43846426192727
3824.722,1.8552943808312456,261.34135158033945
3825.604,1.8536326086874493,247.91387882795297
3826.4841,1.8525575994055814,241.0049961241227
3827.3665,1.8501444778077536,222.60752491757367
3828.2468,1.8451190507009347,215.28887043070858
3829.1296,1.8374541131272042,244.14153288687027
3830.0105,1.82818736839805,223.71453278418855
3830.8916,1.8183985308723931,256.4666912779055
3831.7751,1.808597515592486,231.56853131666622
3832.6565,1.7989313394630275,218.65670772884175
3833.5403,1.7896027194381061,281.22413257478405
3834.4224,1.7813959262140482,260.1570286443309
3835.3064,1.7752810520647582,267.8621265299949
3836.1887,1.7721206794647264,274.1207389640301
3837.0713,1.772334557385137,274.27832567658083
3837.956,1.7759077943173858,277.67568519678537
3838.839,1.782307070428246,283.97780877067504
3839.7244,1.790618475652614,250.16685418526475
3840.6077,1.7997647161022998,241.22874632895224
3841.4932,1.8091184225407604,253.55164702434348
3842.377,1.8185638808745082,244.04097997265163
3843.261,1.8283822913040768,237.58792227841954
3844.1472,1.8386684603531733,268.99791109925616
3845.0315,1.8489232415134682,247.25567232848
3845.9182,1.8583256195500495,224.57730865951
3846.803,1.8659776628484686,236.99258064419502
3847.69,1.8715821045430028,210.0012977558557
3848.5752,1.8755984074182792,214.34084050742078
3849.4604,1.8792148252687317,224.00988124257756
3850.3481,1.883760314555345,234.42449857210957
3851.234,1.8900330760196975,208.17118235161658
3852.122,1.8980851296455876,218.45404509232668
3853.0083,1.907169449830917,235.2777634049771
3853.8967,1.9160829301347997,229.38090939571424
3854.7832,1.923274242217826,202.53281800170825
3855.6702,1.927510300877478,211.39643617326396
3856.559,1.9284547795924059,227.8470978287121
3857.4463,1.926979221407948,215.86476773395992
3858.336,1.9246524857811136,208.14110872195798
3859.2234,1.922795099616823,199.26775533990943
3860.1135,1.9218434025172408,217.38358705563212
3861.0015,1.9215313543283845,200.34469741207147
3861.8896,1.9213440604352374,247.25011899686956
3862.7803,1.9207531713910977,205.62749861915233
3863.6687,1.919145954293083,233.73243389801584
3864.5598,1.9157154458177628,207.1721198061009
3865.4487,1.90953985207652,192.0879094224873
3866.34,1.8997884380645678,205.3013696801089
3867.2297,1.8866431743673047,229.807025224656
3868.1213,1.8720928460079669,234.5445289356837
3869.0112,1.8600029147067878,186.8979423292037
3869.9014,1.8538740349368075,241.62379321890876
3870.7937,1.8543427267399266,221.08137360687076
3871.684,1.8584084089160666,226.39492421158533
3872.577,1.8615176389011403,232.40858138336782
3873.4678,1.8604601963009253,230.3080289725514
3874.361,1.8546803395903075,244.15754131682803
3875.2524,1.845435008380703,255.2433605935753
3876.1438,1.8341549014228689,212.0239179826583
3877.0376,1.8216699487817714,241.41843230352217
3877.9297,1.8084886356123884,245.25077270766909
3878.8237,1.7949530840385493,273.5505015835554
3879.716,1.7814832653890411,223.37802052636118
3880.6108,1.7681280952420722,275.87554517708736
3881.5037,1.7547032860847138,287.30524013610943
3882.3965,1.7407885529110887,284.3456597147956
3883.2917,1.7262117626380442,252.39606046699225
3884.185,1.711347079888324,296.6208597472928
3885.0808,1.696571327970374,273.74459598473305
3885.9746,1.6820899894153647,265.9883869272303
3886.8706,1.6675725738329137,278.22021733329075
3887.765,1.6529052883929982,301.3930318895556
3888.6592,1.6386066255422373,310.0980045619651
3889.556,1.626134452063248,312.96736924697075
3890.4507,1.6175487968694493,309.85885742143427
3891.348,1.6144625884316097,306.39661684916666
3892.243,1.6174432896027393,291.16676115964657
3893.1406,1.6257675951042152,317.8596669347167
3894.0361,1.6377716138274414,315.30300969441663
3894.932,1.6516659549490482,308.95583435308873
3895.83,1.6660640963137217,280.25461616702285
3896.7263,1.6801512326244301,270.9066941203064
3897.625,1.6939681792737884,281.52929732354926
3898.5215,1.7079488201733046,276.09960899431707
3899.4207,1.7228812472797235,311.7411956205385
3900.3176,1.7392705884322794,306.93249235166223
3901.2148,1.7574010249115954,288.6773073964416
3902.1145,1.777107274253348,256.1616485500955
3903.0122,1.797589394867478,236.25994380998168
3903.912,1.8179198611515544,240.16899508314174
3904.8103,1.8370918584551876,254.84099646984316
3905.7107,1.8547805084447875,237.31638332744535
3906.6094,1.8710374826330092,218.26416616073266
3907.508,1.8861591961205504,218.0049168335404
3908.409,1.9001834695098367,221.43664354964957
3909.308,1.912828047123369,238.1791626178031
3910.2097,1.9240037272208537,231.759956316196
3911.1091,1.9337027048575297,197.3454275481383
3912.011,1.9420820413806619,223.00277471887514
3912.9111,1.949225153698401,219.83618905324687
3913.8113,1.9555246820752865,181.78911731461875
3914.7136,1.9617896969506259,205.2696517051714
3915.6143,1.968886452100233,219.67261000499312
3916.517,1.9771982599678843,189.73096569381661
3917.4182,1.9862008136523166,202.342059716151
3918.3215,1.994980454690049,198.34973609524346
3919.223,2.0027025965872407,217.6788939300629
3920.1245,2.00899892108397,198.81920022571444
3921.0286,2.0137573059836633,218.5088786504929
3921.9307,2.016975196432023,198.38375487646428
3922.835,2.018845888445748,195.60906362429677
3923.7373,2.019696199773149,188.82833103174232
3924.642,2.0199636475824896,194.02750707237192
3925.5452,2.0201131574711444,222.28550343973083
3926.448,2.020511470213861,195.02058480839776
3927.3535,2.0211689514703464,192.57189151082665
3928.257,2.0215723520284983,203.91854217624794
3929.1628,2.0209369294059356,180.617157915574
3930.0667,2.0187952992824103,199.7291368431326
3930.9731,2.0154210667730985,210.3990013586327
3931.8774,2.0117226613983874,219.02346740332516
3932.782,2.0085295808977492,212.95259030055584
