wavl,flux,ivar
3566.9744,0.1528473621006074,423.02066968255343
3567.795,0.1535875466647441,280.56514450554056
3568.6177,0.15414116562305405,934.644277434605
3569.4385,0.15435802368730947,1370.147186537119
3570.2617,0.1541527656044507,2910.201431648251
3571.083,0.15384815480687514,9308.055263108068
3571.9065,0.15425250188594622,36900.110669092435
3572.7283,0.15607843913185465,179248.52682328763
3573.55,0.15916901574673248,191125.26125141422
3574.374,0.16235090196139987,381.418777131309
3575.1963,0.16408746976276536,384.7466321240095
3576.0208,0.16342042685287372,471.27457235267286
3576.8435,0.1603308831970152,550.9968696553603
3577.6682,0.15557154928809702,883.8863997643639
3578.4915,0.15045338498160196,2772.605908287822
3579.3145,0.1465641521830736,120038.07813155524
3580.14,0.14537064445424855,8998.292571578535
3580.9636,0.1475761598849361,323.79363685092665
3581.7893,0.15266741294858824,4902.758870472285
3582.6133,0.15907179017146222,862.1191623604333
3583.4395,0.1649524949211296,69063.91943089597
3584.264,0.16887799826308944,821.5646849778004
3585.0884,0.17037117665441984,280.3649502894577
3585.915,0.16987527506421057,685.0320229065665
3586.74,0.1683672304623437,837.5438645545134
3587.5671,0.16657990603058828,868.2918686880929
3588.3923,0.1643774749536037,7671.049344614003
3589.22,0.1608735702548277,1729.6509294512034
3590.0457,0.1555356748231475,1734.7193348059213
3590.8716,0.14916003589988755,484.38327287355986
3591.6995,0.14380130862673085,1048985.556528491
3592.526,0.14148206203693361,95687.20115999543
3593.3542,0.14269713056077743,840.034199891094
3594.181,0.14618814713558304,627.6248427154103
3595.0098,0.15006736773827864,1811.8484025132186
3595.8367,0.15321611711595462,803.9885131245884
3596.6638,0.15587032029531855,34713.09315453637
3597.4934,0.1588346172825864,580036.6657544618
3598.3208,0.16226706253934622,20760.515903081232
3599.1506,0.16530117209785639,9378.722583817755
3599.9788,0.1666794430314298,9557.91804286903
3600.8088,0.16590632765645938,955.9168847896458
3601.6372,0.16376202955639943,1046.7211667804766
3602.4678,0.161922947808635,714.3071678337576
3603.2964,0.16204652576314124,582024.9670239064
3604.1252,0.16486535302727073,1418.9469319001482
3604.9565,0.1699161282479725,10505.765978621235
3605.786,0.1758112544283873,2500.2834235578484
3606.6172,0.18102954791506376,1285.137268081097
3607.447,0.18451104758206954,36911.67213712864
3608.2788,0.1861262154748569,2354.7570589804113
3609.109,0.18651759699625936,2880.3277496255805
3609.9392,0.1866044846967383,1430.4293416210476
3610.7717,0.18701326157916542,818.5387410774129
3611.6023,0.18782357283224171,529.6472165521078
3612.435,0.18856746108741101,5545.851007939793
3613.266,0.1883186229395189,673.5039481322282
3614.0994,0.18604938940191482,483.3911124038234
3614.9307,0.18136738671924418,543.0289941191866
3615.7625,0.17511938687510312,11966.651854053507
3616.5962,0.1692552774514936,970.1310066829565
3617.4282,0.16584529094979786,8490.628476279468
3618.2625,0.16586688678310632,807.6180760078641
3619.0947,0.16883128479035642,4691.022505905861
3619.9292,0.17321879617761313,1070.1084195643311
3620.762,0.17727753901205953,845.3419254652213
3621.595,0.17977904561087998,964.6388143609838
3622.4302,0.1802378462795919,949.1223758596117
3623.2634,0.17879275411026846,7435.502824816509
3624.0989,0.17593616569808038,922.6344933501625
3624.9326,0.17234056164353384,189430.41714564414
3625.7686,0.1686627140188981,1497.5389267662913
3626.6028,0.1654073304494968,409643.9001557945
3627.437,0.16276910305708628,3017.7905424811215
3628.2734,0.16089160076795653,2215.831385683525
3629.1082,0.1602473373728712,4323.36487183212
3629.945,0.16154010167865557,1688.049727270069
3630.78,0.1650227215490505,11039.91035622976
3631.6174,0.16995965935929883,2706.934054851769
3632.453,0.17492133867326334,794.9718671549119
3633.2883,0.17891384790992831,708.1892563504522
3634.1262,0.18199933554211764,431.2949068199196
3634.9622,0.18491582992082387,709.0705885258916
3635.8005,0.18821584208514364,104979.97590824947
3636.637,0.1917052456663608,235.35015744682113
3637.4756,0.19494743094536424,206.5700375893191
3638.3123,0.1980712437834341,1165.788727749689
3639.1492,0.2020384985649194,1167.8539000906503
3639.9885,0.2076254664963858,179.2277087316126
3640.826,0.21400525282537192,4106.128268918307
3641.6653,0.21874904335140538,244.49425637038698
3642.5032,0.2194651133264121,1311.6918063366486
3643.343,0.21594779027350083,853.19419093807
3644.1812,0.2105379184739862,44302.963394984305
3645.0195,0.20638291055852342,2096.7771095824246
3645.86,0.20543134643959893,5346.907819819575
3646.699,0.20778349894455708,873.4684195414927
3647.5398,0.21236660263853904,19740.502851423695
3648.379,0.2176137109570135,7499.411300894847
3649.2202,0.22161705118432284,1278.8278407636835
3650.0596,0.22223458764796025,464.1421543797638
3650.8994,0.2182383695721656,2968.4482389683462
3651.7412,0.21065614829242305,217.11644472604343
3652.5813,0.20297814070127762,86459.30330515602
3653.4236,0.19911976600072198,722.6653265134219
3654.2642,0.20089808350884375,13508.799682380495
3655.1067,0.20688298475119274,520.0963573561423
3655.9475,0.2136809106507435,1868.9946128572037
3656.7886,0.21839875845109094,1266.31524839944
3657.6318,0.22009471234691125,268.49487531402275
3658.4734,0.2195115194968708,297.2396987885655
3659.317,0.21777901060101026,4686.00999580353
3660.1587,0.2154495869173115,148.9419855828761
3661.003,0.2125277743193025,1123414.823600835
3661.845,0.20908900925539847,382.71256362389903
3662.6875,0.20556868718302834,494.7986567345442
3663.532,0.20277962011713752,1236.9939278008087
3664.3748,0.20173666778298274,1336.9123330612279
3665.2197,0.20320957535961018,12943.622183284417
3666.063,0.2071157559490874,5173.458569293654
3666.9084,0.21221074984078317,495.7935511029232
3667.752,0.2164104941625723,5033.047900747824
3668.5977,0.2177794036982333,6055.113859523939
3669.4417,0.21535498005093748,178.58525218165738
3670.286,0.20964632385075185,290.75309040058494
3671.132,0.20244644605747858,34594.684775915724
3671.9768,0.19622030230723467,344.3230785934948
3672.8235,0.19318085248837547,590.5315324991341
3673.6685,0.19476148966603404,3885.6958301292125
3674.5156,0.2011759743134153,19039.78063686522
3675.3608,0.21106801346726628,1980.78447794577
3676.2063,0.22166582715944388,351.0034969996396
3677.0542,0.22957439126386028,4856.452386140534
3677.9,0.2321779447644413,1548.9088940783192
3678.748,0.2290192604614063,394.7017402193359
3679.5945,0.22192229379368328,29490.821270208067
3680.4429,0.21395739597755525,7372.787378319421
3681.2896,0.20806513239837465,60963.68131276313
3682.1365,0.20586456552999421,37854.55560240909
3682.9856,0.207341085978118,5964.8488190423395
3683.8328,0.21099509831614888,2488.458655223125
3684.6824,0.21458520962845018,2248.6217629426587
3685.53,0.2161994662979813,451.10041723646367
3686.38,0.21529186916183352,241.40713126884037
3687.2278,0.21266835177240018,858.0054033634161
3688.0762,0.20942657673419987,1045.2558406176229
3688.9265,0.2059229018360841,481.34014073768736
3689.7751,0.20189029680938086,304.7533601253365
3690.626,0.19729173449974524,888.2899997599104
3691.475,0.19283498588314804,904.753578156576
3692.3264,0.18937682809968936,42207.93982774667
3693.1758,0.18733745156348397,441.59519786510015
3694.0254,0.18665232725440342,2778.1823138281934
3694.8772,0.187281716652467,595.9340696863785
3695.7273,0.18942976716198606,386.44204797632443
3696.5793,0.19334369925461317,2925.3200789981342
3697.43,0.19885772521881961,341.3563726693555
3698.2825,0.20511640549318041,1528.452212533245
3699.1333,0.21045149109071062,972.1441041142352
3699.9841,0.21297209055525831,477.9316814015302
3700.8374,0.21155007690016353,460.0925996521589
3701.6887,0.20683972989056604,360.3560177791444
3702.5425,0.2012674580878853,13128.035050138595
3703.3943,0.1979056648739084,359.9820578221904
3704.2483,0.19875433139735582,2859.432590707177
3705.1003,0.2038371839920338,897.7507378320543
3705.9526,0.21144310076474881,766.6471614773446
3706.8074,0.21927286801478185,902.8916319234486
3707.66,0.22567845810963488,1110.757044261446
3708.515,0.23064825675508482,1517.8410755201407
3709.3682,0.23548462760137845,2134.968280776786
3710.2234,0.24166504984590437,263.0060913434724
3711.0771,0.24920465223364152,4487.672304169317
3711.9307,0.25612408216777865,272.1023243873969
3712.7866,0.2593857093185967,175.68983655530022
3713.6409,0.2568685488959764,791.6107910064488
3714.4973,0.24902436810585896,118.1888640843704
3715.3518,0.2389067981633179,375663.8927655831
3716.2085,0.23037330455436997,1085.3103419543502
3717.0635,0.2261484753173302,5438.0413683219385
3717.9185,0.22662448057165538,18499.641029818467
3718.776,0.23039296216982044,9885.386309008387
3719.6313,0.23539939820827893,257.430546819976
3720.489,0.23997147242866926,549.7168949554389
3721.345,0.24297652726220054,458.61515093884503
3722.2031,0.24375348619144702,373.57481922675447
3723.0593,0.24205349258162331,709.3470598668082
3723.9158,0.2382026820753803,533.8143468568235
3724.7747,0.23309933590222423,548.5299717952887
3725.6316,0.22809908344152302,359.13815022236486
3726.4905,0.22459087492830015,1077.2515267427768
3727.348,0.2235479716250889,356.01408234126814
3728.2073,0.2248829124209226,347.57430488914247
3729.065,0.22729466847260185,1570.406341118925
3729.9229,0.2289569792477637,882.658001556232
3730.783,0.22870896765960655,661.6995108234507
3731.6414,0.2268468578905073,275.5833427543731
3732.5017,0.2247584038402824,1470.693683536531
3733.3604,0.2237679165281728,825.925545290661
3734.2214,0.22424406591944446,329.7916435778385
3735.0803,0.22576698656507627,280.92997460662684
3735.9417,0.22788033374989122,2379.944418610274
3736.8013,0.23046696029058336,437.43893008074326
3737.661,0.23355958720438502,849.8590911099511
3738.5227,0.23696108985696251,620.0203022690098
3739.3828,0.2401190809053855,362.49178051156525
3740.245,0.24236706908132227,720.6739534073836
3741.1055,0.2431904387723829,742.0093883794179
3741.9683,0.2425439354782738,253.66414404387757
3742.829,0.24084683907936108,3493.7879123444973
3743.69,0.23861161058507918,522.227315778929
3744.5532,0.23599904010135603,1455.4857057157692
3745.4148,0.23284080739474264,354.82284107826064
3746.2786,0.22911763439412294,343.2611445143542
3747.1404,0.22554809902571324,620.1812389168645
3748.0044,0.22344180893033563,1755.1062575244289
3748.8667,0.22401257090655025,975.7050500864832
3749.729,0.22749953393425623,998.7124790594248
3750.5938,0.23290662909098642,959.5908190020726
3751.4565,0.23833593730222827,322.02085681517536
3752.3215,0.24190390425019392,12795.177330283399
3753.1848,0.2424496888561932,2490.5602764909145
3754.0503,0.2400072768328969,1166.7520072377908
3754.9138,0.23569249477467066,670.9856329393218
3755.7776,0.23112047283666545,3887.937901747473
3756.6438,0.2277282809087872,32839.27702985922
3757.508,0.22632859800789057,216.434312951467
3758.3745,0.22694887294569827,421.3223356488511
3759.239,0.22900409216954218,237.1910615678178
3760.106,0.23154433994087756,1275.2785833597522
3760.971,0.23349724547407427,475.68805508463765
3761.8362,0.23399422218317936,612.9250843780262
3762.7036,0.2325926596366947,295.41119819157973
3763.5693,0.22946009334903728,346.78644824219236
3764.437,0.22536191530907446,826.0403519544153
3765.3032,0.22156354327577552,427.14262707507424
3766.1714,0.21948138164920203,479.836003982434
3767.0378,0.22032449196939494,37077.39893387561
3767.9043,0.22468929243465835,2539.8727288901073
3768.7732,0.232420084279207,1305.3552390023306
3769.6401,0.24242894408063487,652.4227298370338
3770.5095,0.2527608476261419,339.95190624800625
3771.377,0.2605961932773921,902.7937641504652
3772.2466,0.26334551533593714,470.55511364551995
3773.1145,0.2600852366262617,14084.949225964492
3773.9824,0.2527394884130335,264.3177262730252
3774.8528,0.24540103226485638,3615.8421398138007
3775.721,0.2420437332846247,10455.308100383014
3776.5918,0.24390329850209275,1092.9688581831078
3777.4604,0.24893131643420338,433.3672523116072
3778.3315,0.25358892923579046,553.6095137854029
3779.201,0.25540661894773886,215.60086917345004
3780.0703,0.2544599593325505,2166.5690435074457
3780.942,0.25271545969409304,2061.3482331252158
3781.8118,0.252304789049765,191.38088681108601
3782.6838,0.25399979581989124,1647.200913546034
3783.554,0.2568610708994867,1330.8985192434639
3784.4265,0.2590824908872579,2400.536420364574
3785.297,0.25918931307563825,1494035.4728059126
3786.168,0.25679823675029484,55137.639632501734
3787.041,0.2524412499060066,2379.7384566289606
3787.912,0.24706057314882413,185.8062507067576
3788.7856,0.24152384767804883,2752.3004861878794
3789.6572,0.23666450276069362,502.9348031219703
3790.531,0.23333479822829623,396.42670748607884
3791.403,0.23255850865396108,1446.7803096916637
3792.2754,0.23516085472904535,480.8730745449413
3793.15,0.24117346046386723,569.2624547747439
3794.0225,0.24927817197848257,171.35909719878475
3794.8972,0.2571718806816778,468.6898703742896
3795.7703,0.2624435864442298,739.7845204787634
3796.6455,0.26381386758110104,624.5843588875412
3797.519,0.2615347209800382,354.28179295536995
3798.3926,0.25702801066045594,349.53010801173923
3799.2686,0.2519620303972982,1091.1506691801194
3800.1426,0.24754274768254694,331.89532365031084
3801.0188,0.24412672242430347,503.49343161198476
3801.8933,0.24150510101683,352.31688569478683
3802.77,0.23937812437400574,598.7040680114967
3803.6448,0.23790232840863487,320.69970768948775
3804.522,0.23761483460461916,995.0867884882933
3805.3972,0.23877836769375782,827.327856491969
3806.2727,0.24073999021111334,262.5050864200604
3807.1504,0.24221087996536522,1015.7676630581427
3808.0261,0.24229513831151686,467.5767189095642
3808.9043,0.24119839356935738,8388.671565015917
3809.7805,0.23982941272321856,336.95453751478533
3810.659,0.23887004317772567,1055.8041495922776
3811.5356,0.23839863627085958,624.3161893148889
3812.4126,0.23822091359931655,541.4230620174753
3813.2917,0.2383344843781974,307.55874319091026
3814.169,0.23896965571040293,551.8767661970967
3815.0483,0.2403633286525806,524.3193977213874
3815.926,0.2426152003555922,638.9601869874018
3816.806,0.2457357067662058,1219.0078606175957
3817.684,0.24954969656364553,2341.057222237033
3818.5623,0.2535778179297436,2931.7395760938143
3819.4429,0.2570486034333866,3149.6318747074156
3820.3215,0.25924923941552797,1075.236185957468
3821.2024,0.2600312081265033,821.6818889130423
3822.0815,0.2598668843512182,308.7578327882503
3822.963,0.2595609593745265,832.1835992867013
3823.8423,0.2598217621430434,1001.5973987824054
3824.722,0.2609594661558803,480.33634850202003
3825.604,0.262725158578722,610.3884662246853
3826.4841,0.2642191018969613,1259.7999398048976
3827.3665,0.2641053681182056,326.049929959759
3828.2468,0.26123707805734886,1444.0967320878033
3829.1296,0.2555158595509746,386.9684333304689
3830.0105,0.2483606946757136,413.98843442707744
3830.8916,0.24203232293484966,88032.69870609633
3831.7751,0.23840117503319647,5158.860153270606
3832.6565,0.2379349223954619,1330.2141820149927
3833.5403,0.239541451873057,2132.3320290206625
3834.4224,0.24131708692393092,802.6248897595352
3835.3064,0.24158101940104765,655.2472894048683
3836.1887,0.2397184313635397,2063.413856489303
3837.0713,0.2365025127429927,383.45416667659543
3837.956,0.2335974800246212,1178.9487946509487
3838.839,0.23248373663720506,318.09735802488103
3839.7244,0.23344633483534963,1848.207685681526
3840.6077,0.23548589990220298,623.7480577416403
3841.4932,0.2370970741170514,1350.98804597506
3842.377,0.237242256647055,678.4318587245433
3843.261,0.23598813324425427,402.6527308573622
3844.1472,0.23451114021102756,205.01388369499213
3845.0315,0.23459004704194095,9333.983717556324
3845.9182,0.23764917089634252,3681.548064252889
3846.803,0.24377275929039643,681.937570466569
3847.69,0.2514209724895284,677.3228398880556
3848.5752,0.2580340155871932,860.5954241619942
3849.4604,0.2615362601991617,630.6586294957777
3850.3481,0.26139412836263426,1465.6643043658755
3851.234,0.25873708887373253,261.4008142963561
3852.122,0.25548476864224656,429.0892348551398
3853.0083,0.25326859416382413,389.6520053114134
3853.8967,0.25270148811521387,371.36837905014204
3854.7832,0.2533718225324273,774.5964159701151
3855.6702,0.25430817775471337,601.2877562629056
3856.559,0.254721319287161,230.77073502738511
3857.4463,0.25457784576396714,1062.6647753440384
3858.336,0.25458447527297673,575.4210281459214
3859.2234,0.25553193204926555,574.539004456503
3860.1135,0.2576121753042541,678.3593987137178
3861.0015,0.26035363898890723,658.0048817801921
3861.8896,0.2632710684349172,800.571036613916
3862.7803,0.26641204333517765,3434.0997754374794
3863.6687,0.27021626736968507,670.4184191150667
3864.5598,0.2749377353555141,350.3140359831549
3865.4487,0.28007142781538547,1416.1904778960288
3866.34,0.2845605756878029,250.622205136074
3867.2297,0.28721885222147414,3844.3103527714247
3868.1213,0.28725874954595154,657.5845125840683
3869.0112,0.2844692332799433,348.1966107706711
3869.9014,0.2793316215932297,14236.255850838541
3870.7937,0.2729897320488239,234.84393390246703
3871.684,0.26701567738238163,7648.011547651144
3872.577,0.26278419120008445,517.4323594981357
3873.4678,0.26111803820615653,260.41558732753947
3874.361,0.26195927139046377,549.7118644743049
3875.2524,0.26433869847271996,890.8992904109434
3876.1438,0.26666286686565377,513.8404475171491
3877.0376,0.26748082914187704,34231.15500043811
3877.9297,0.2663363005702453,1629.077120830249
3878.8237,0.26401357494687183,1840.648584328683
3879.716,0.2618879896616403,457.4018178007961
3880.6108,0.2608471744840967,1050.7012585643934
3881.5037,0.260673334814978,338.18885086177056
3882.3965,0.26021428210704295,584.3937555247614
3883.2917,0.2581979596823345,335.5288972053546
3884.185,0.25404216142218516,551.581310977985
3885.0808,0.2480629109391166,212.76014643289585
3885.9746,0.24122637236327013,922.7145801533147
3886.8706,0.23450712429202444,501.62646169986465
3887.765,0.22866429099163874,1063.745881186658
3888.6592,0.22412339163843867,45356.145277401396
3889.556,0.22113825388168748,548.868050038844
3890.4507,0.21979723002844528,12800.904073291738
3891.348,0.21986563852194274,1924.6181069631014
3892.243,0.22083219376861352,16309.625631533021
3893.1406,0.22220110381586333,26078.299442186668
3894.0361,0.22389306588022626,2288.4079663078446
3894.932,0.2264388829434647,933.3657013867025
3895.83,0.2306505154404589,870.240291748662
3896.7263,0.2369465808554046,742.5561908704857
3897.625,0.24506045603827553,603.2932825073267
3898.5215,0.25412056671293903,280.73606163240356
3899.4207,0.26326168538701533,137192.35615906457
3900.3176,0.27163572417599785,655.3770432294032
3901.2148,0.27852028430733783,1638.7945421989862
3902.1145,0.283248155600044,247.59316715725132
3903.0122,0.28538625383778476,338.4374515683423
3903.912,0.2849193472191046,402.70501192745803
3904.8103,0.2821258718341627,310.86891356534215
3905.7107,0.2774754381764994,749.3418230104965
3906.6094,0.2717100736177047,249.22821040353597
3907.508,0.26587756417718844,775.1204373702848
3908.409,0.2613332354682827,239.93537583470226
3909.308,0.2595303595200916,625.9925480384265
3910.2097,0.26149412833125596,804.3685347947184
3911.1091,0.26726528192466514,2191.6363684514463
3912.011,0.2756068473816929,3656.669716092212
3912.9111,0.2842166777743564,174.74600256233572
3913.8113,0.29085781657567694,1973.8039472934452
3914.7136,0.294420994989163,343.58438984228843
3915.6143,0.29529091235612437,565.2345911728185
3916.517,0.29474384872129833,1999.2503116686266
3917.4182,0.29383598614155354,685.9886929226252
3918.3215,0.2927780649468195,279.3407516522973
3919.223,0.2912008694922352,530.9944151815909
3920.1245,0.28898781467366547,820.796440745771
3921.0286,0.2870123228251627,272.036149908607
3921.9307,0.28707359066079724,785.7935720530761
3922.835,0.29080881297552813,471.61260160624
3923.7373,0.29834143547549247,1211.1201499096817
3924.642,0.307898637788378,683.6323995656015
3925.5452,0.3166132812369643,255.33554162542168
3926.448,0.32227747327322825,236.84704286612958
3927.3535,0.32434636006437045,738.3667298684118
