wavl,flux,ivar
3566.9744,5.361734736048625,76.94708179779482
3567.795,5.3531133755146545,95.22680870950724
3568.6177,5.341803711492841,91.57639125746704
3569.4385,5.330244017982308,85.6148583177432
3570.2617,5.320216428490034,81.64057683860483
3571.083,5.312206825572695,88.17012083178311
3571.9065,5.305488482832094,79.84234028635922
3572.7283,5.299352740481019,90.9590706219102
3573.55,5.2937935293030245,100.13677965867585
3574.374,5.289570523678504,102.49437023718993
3575.1963,5.2876572043551695,95.14756909719611
3576.0208,5.288431275778316,83.30522379385334
3576.8435,5.291173035663992,85.15043059623692
3577.6682,5.2941464822688555,92.24360776406456
3578.4915,5.29531799654592,84.45650371068179
3579.3145,5.293269997355945,93.57740009918233
3580.14,5.287552369928855,87.67936259901792
3580.9636,5.278785752315302,86.18388178658243
3581.7893,5.268564739111766,87.6149107875312
3582.6133,5.259342539769708,86.16813347236283
3583.4395,5.253223543323233,94.36988995184859
3584.264,5.250674159340024,85.90986914747663
3585.0884,5.24998559056635,91.34504254233116
3585.915,5.2486786816083,83.86556055128571
3586.74,5.2454773407388275,90.30806810334526
3587.5671,5.240931281272903,93.51647025375132
3588.3923,5.2362390168759605,91.58545246101946
3589.22,5.231522787191448,89.49882972298234
3590.0457,5.225669652719555,91.09906585184463
3590.8716,5.217575326977008,96.64233261166206
3591.6995,5.207651338302234,86.40615387506243
3592.526,5.198028618720854,91.2314075254553
3593.3542,5.191023264244514,90.95450422276357
3594.181,5.187611036537242,96.96679920623664
3595.0098,5.186840083859188,86.03052131792839
3595.8367,5.186887090451678,81.57782936774272
3596.6638,5.186448240104928,86.33605585303081
3597.4934,5.185398810188573,85.21326474882217
3598.3208,5.1844650847787035,97.75652830785596
3599.1506,5.184494923964683,91.9673882805481
3599.9788,5.185930343392165,96.63759941963063
3600.8088,5.188475528029189,93.4696694395586
3601.6372,5.1909793852975366,87.81729591224149
3602.4678,5.191924506184209,86.55105277396322
3603.2964,5.190355597998526,91.28360738584
3604.1252,5.186563548850375,83.49648606266743
3604.9565,5.18175036661077,90.74048356494417
3605.786,5.177165767283841,96.81578278370532
3606.6172,5.1733628479361355,98.36305124804109
3607.447,5.1702667979801555,91.76491685823864
3608.2788,5.167426817578536,84.13290029086183
3609.109,5.164305072839974,91.10385654518069
3609.9392,5.160256386642756,96.88595676132964
3610.7717,5.154504641881311,94.36597660463441
3611.6023,5.146340717867636,90.17252936198244
3612.435,5.135408006974683,99.14639442740034
3613.266,5.122327626452904,92.54287976256667
3614.0994,5.108676813485237,96.44384958867792
3614.9307,5.096860976758412,94.65534823827258
3615.7625,5.089030372168599,99.42025885483157
3616.5962,5.08627560603837,91.71500598362186
3617.4282,5.088001058918718,97.82802848234152
3618.2625,5.092005442161595,95.79234174512679
3619.0947,5.095356960217634,92.85308350061085
3619.9292,5.09591578930913,92.02869841500272
3620.762,5.093586062355182,99.62392945221242
3621.595,5.09040981020906,96.74826267030684
3622.4302,5.089127142982056,94.61182867080765
3623.2634,5.091309175799853,94.17629052203596
3624.0989,5.096448985279581,86.0166367782238
3624.9326,5.102396502322529,96.33485647433581
3625.7686,5.106553965971475,95.02853210409323
3626.6028,5.1068251300988035,95.46228945126964
3627.437,5.102398564300514,101.2947336447891
3628.2734,5.093926934057191,97.82376555376162
3629.1082,5.083224024787037,102.25094603162927
3629.945,5.072179635438344,97.7250667315255
3630.78,5.062085655091599,98.61535261301051
3631.6174,5.053207380833453,97.91603057859153
3632.453,5.045354216746454,100.04996931129541
3633.2883,5.038116751488172,103.70580038231871
3634.1262,5.030967844222838,102.94177430731017
3634.9622,5.023208073728857,98.99345944848372
3635.8005,5.014122121614451,92.3799651409528
3636.637,5.003827149034458,105.7147292491766
3637.4756,4.993393466975783,96.3468644556436
3638.3123,4.984430789611049,98.69288371337831
3639.1492,4.977815885977808,98.53295232370655
3639.9885,4.973194740559022,95.06743432734018
3640.826,4.96940209953456,102.38887939657039
3641.6653,4.965392671630235,96.66557157901478
3642.5032,4.961016712351065,98.66438072444933
3643.343,4.956778830826817,92.58268676083864
3644.1812,4.9531955889439425,108.04004703308438
3645.0195,4.950244296188552,101.71058906388492
3645.86,4.9474557140857005,90.44680247962646
3646.699,4.944231140728865,98.45771785666565
3647.5398,4.940025280268335,100.41925460985095
3648.379,4.9346226575224605,101.71224229947346
3649.2202,4.9283228027198644,106.41181966230181
3650.0596,4.922083919313837,104.64523135427748
3650.8994,4.917032357888036,93.86008738015568
3651.7412,4.914029170399454,103.74457893708491
3652.5813,4.9135532855485184,105.94008112575634
3653.4236,4.915858656934787,110.85523911898692
3654.2642,4.920888297239061,103.82838316984783
3655.1067,4.927857111345734,98.0649891387969
3655.9475,4.935065564549917,98.92828913130207
3656.7886,4.940719608369778,104.06119487700637
3657.6318,4.943813056132396,102.33111659956501
3658.4734,4.944337037826412,106.6767677269126
3659.317,4.942788488318105,110.88072333015565
3660.1587,4.939695567714783,94.98759130208245
3661.003,4.935645654703462,102.01613344512202
3661.845,4.931526460221398,99.9826178771048
3662.6875,4.928373653538333,96.02490584163752
3663.532,4.927137529500311,101.50315204328345
3664.3748,4.928296557229942,104.89513845103266
3665.2197,4.931422675041203,103.7604268433103
3666.063,4.935028538172315,95.86417676764272
3666.9084,4.937201833073367,98.69234695028501
3667.752,4.936628055429969,96.36504753732494
3668.5977,4.933306400316545,102.99189267636828
3669.4417,4.9283480287624135,99.18763831810476
3670.286,4.923153251614802,105.43068664143242
3671.132,4.9187479521669015,106.6823674261775
3671.9768,4.915559978647088,103.72709030201092
3672.8235,4.913448973072136,106.78075968043213
3673.6685,4.911999657429764,102.86336987261357
3674.5156,4.910779653770564,103.8143924477375
3675.3608,4.909601823400457,101.65646484602597
3676.2063,4.908482382154794,99.83924919290442
3677.0542,4.907373611353186,108.98546444526585
3677.9,4.905929525051313,102.40776849407735
3678.748,4.903571711262003,110.48037097036797
3679.5945,4.899922933540991,100.32355342028913
3680.4429,4.8951683775143335,106.22291577992813
3681.2896,4.890303055773254,109.60014977921328
3682.1365,4.887043717534154,104.00294680118394
3682.9856,4.88771007104902,103.32043179768975
3683.8328,4.894590647893331,106.9274186648418
3684.6824,4.908508347752949,112.03829011043395
3685.53,4.92672895339353,103.14517810606148
3686.38,4.942680137972069,96.85013128475792
3687.2278,4.948371121517068,101.24815319763442
3688.0762,4.939609564045609,100.88296847958105
3688.9265,4.918961145818526,101.65720526530727
3689.7751,4.8943179436155235,107.69192978857033
3690.626,4.873373448642518,101.89870021197522
3691.475,4.859852221933366,103.01395656698142
3692.3264,4.852888963230911,110.22558006991481
3693.1758,4.849738168615076,107.95911323639581
3694.0254,4.847921873537698,112.67570098749918
3694.8772,4.846036793551274,97.03413203525257
3695.7273,4.84356949323782,103.47297545177418
3696.5793,4.840752543634571,102.11803921580201
3697.43,4.838523785122975,101.74238601983785
3698.2825,4.837868511747015,101.3992316128613
3699.1333,4.838827041277374,112.49110827266962
3699.9841,4.840079670006239,99.21569440067454
3700.8374,4.839809030356033,100.00970341617587
3701.6887,4.837078532688453,108.3889848063749
3702.5425,4.832349762119473,104.7841387638097
3703.3943,4.826801202658736,103.382259686154
3704.2483,4.821161495043242,103.16995448304517
3705.1003,4.815420995945821,102.60119408228834
3705.9526,4.809172248057451,102.26981678710908
3706.8074,4.802307711803376,107.07970629332972
3707.66,4.795392153568239,106.33167612722144
3708.515,4.78933660453483,105.90566297713522
3709.3682,4.785049173027859,107.01773773688734
3710.2234,4.7829161934693945,106.39570836533649
3711.0771,4.782765910817333,109.09860676448115
3711.9307,4.783938826861887,108.42414760123592
3712.7866,4.785472533935893,106.40082824006258
3713.6409,4.786259108019492,110.62609771790305
3714.4973,4.785408774633782,105.81372599475888
3715.3518,4.782737483195201,112.85115528290228
3716.2085,4.779013146875722,106.78797537288986
3717.0635,4.775635659164914,116.28996804873232
3717.9185,4.773747427233147,114.65257273893434
3718.776,4.773658746982363,106.2146433092785
3719.6313,4.7749200919301975,106.70150934749505
3720.489,4.776813232823746,109.99120614105927
3721.345,4.778628546313194,110.20777006064102
3722.2031,4.779620451487952,106.63065785703549
3723.0593,4.778904873514475,105.58676431025414
3723.9158,4.775720754055138,102.21367020112118
3724.7747,4.769848043749568,106.70007590379083
3725.6316,4.761929872319129,105.17844599698611
3726.4905,4.753136981673801,105.6507659936497
3727.348,4.744748308286182,114.47238578842006
3728.2073,4.737578750626367,112.3660543879947
3729.065,4.732030485996742,113.05231793546808
3729.9229,4.728123841437614,107.41684478979424
3730.783,4.725682248288206,108.05708277849396
3731.6414,4.724497793826736,112.19904027354112
3732.5017,4.724600158723117,108.02372270725405
3733.3604,4.726377247635298,110.58156915504344
3734.2214,4.730040464810978,112.01819603731668
3735.0803,4.734713423280505,110.53955860810245
3735.9417,4.7383481799982325,111.86197871228886
3736.8013,4.738776347740609,107.08588930607571
3737.661,4.73537117068815,118.64996049588161
3738.5227,4.72957332041323,108.59104850916663
3739.3828,4.72391381792249,117.4562219596961
3740.245,4.7201152477330535,116.61571098787464
3741.1055,4.718161682350228,113.85270309624627
3741.9683,4.716823405820281,109.15378915684815
3742.829,4.715202904661057,105.05701738540785
3743.69,4.713594673653066,118.43169738526687
3744.5532,4.713036274435838,107.79214132157456
3745.4148,4.714190935954828,113.60931035880121
3746.2786,4.716709714842411,102.95989772566999
3747.1404,4.7194325559577655,110.98398722086834
3748.0044,4.721044061078858,109.90923864679905
3748.8667,4.720601661971709,105.81298830010472
3749.729,4.71792286688647,110.79644476669105
3750.5938,4.713581346692295,114.03065824589913
3751.4565,4.7086099881447705,109.80591947272346
3752.3215,4.703934551302776,111.17456836135428
3753.1848,4.700241664732055,110.21820354701626
3754.0503,4.698036028610021,119.25666671937205
3754.9138,4.697867716102877,109.35413774381689
3755.7776,4.700163341294108,107.73556492740501
3756.6438,4.704872331130125,117.23920148205242
3757.508,4.711081877487601,114.98843214491755
3758.3745,4.7172377184269045,113.25469118223418
3759.239,4.721701423565541,104.24206244572792
3760.106,4.723592348646353,110.14814022553227
3760.971,4.7229476379474855,115.03429425158481
3761.8362,4.720416902493883,119.3025730324325
3762.7036,4.716731575968659,109.70313036349144
3763.5693,4.712479625693832,112.27085179475722
3764.437,4.707922699910904,116.07322693684698
3765.3032,4.702939002774612,108.50718259239154
3766.1714,4.696985251567645,107.94450490829209
3767.0378,4.689568752965078,107.38671052952986
3767.9043,4.680638088984078,118.96974965785134
3768.7732,4.670689077695043,116.07668183207362
3769.6401,4.660598479986631,120.74671073674915
3770.5095,4.651334441553886,108.18872962104517
3771.377,4.644343680724719,117.8388984301421
3772.2466,4.641315674949497,117.13805380263983
3773.1145,4.6435589934747235,113.82581653006619
3773.9824,4.6510275332437585,117.9268808920624
3774.8528,4.6622072300388515,111.96859680631776
3775.721,4.674647309781619,109.24788596683834
3776.5918,4.686145305549466,111.31806370762116
3777.4604,4.695261172570547,107.46485766026277
3778.3315,4.701895484904269,113.36267378032692
3779.201,4.706818375494643,108.5094434386129
3780.0703,4.71090993945323,110.98246593828762
3780.942,4.714179142831682,111.39096860456681
3781.8118,4.7155858694604795,113.85841468636765
3782.6838,4.713783956188208,115.68999542418067
3783.554,4.707889242035248,109.59088823241323
3784.4265,4.697537052816327,120.86257378941917
3785.297,4.68267809011015,105.36116188616356
3786.168,4.66357166083617,113.60191496030293
3787.041,4.64181224450071,114.54256112105733
3787.912,4.62131590584352,110.83144942177506
3788.7856,4.60699693196077,115.52734464549027
3789.6572,4.602251392192815,122.78879987048053
3790.531,4.606117784058601,115.66799702089685
3791.403,4.61363378401538,115.81655584310175
3792.2754,4.618918531042328,112.28537636151184
3793.15,4.618430957363021,116.37150926345342
3794.0225,4.612055882253751,114.39973459400834
3794.8972,4.601762600082722,121.32643058490139
3795.7703,4.5897357870980775,113.87808621483663
3796.6455,4.5771908715926095,119.08356685333344
3797.519,4.564809699884558,111.02386526459374
3798.3926,4.553296442874497,116.26093419088113
3799.2686,4.543850291188907,119.68380381867551
3800.1426,4.537927821782956,112.94138746788109
3801.0188,4.536338925621373,124.31482885192065
3801.8933,4.538812981109466,118.6377010620696
3802.77,4.544223107531336,122.5249709647387
3803.6448,4.551530012932288,118.37342223441217
3804.522,4.560667580617393,118.03342741862923
3805.3972,4.572079338557156,124.38110574478944
3806.2727,4.585673525913465,115.2736217080424
3807.1504,4.600008966105195,114.88452492179087
3808.0261,4.6127778395532975,113.23562496571242
3808.9043,4.622468930372737,112.9771380932322
3809.7805,4.629056323109955,116.65911697614585
3810.659,4.6338882737940965,115.8726027352443
3811.5356,4.638449846783462,115.52323896338447
3812.4126,4.643442659300149,107.21063185644732
3813.2917,4.648382035990901,118.44568885437388
3814.169,4.651913298248844,109.03098482430198
3815.0483,4.652710476341108,114.88121239365476
3815.926,4.650227801034339,115.55681123728094
3816.806,4.644984038149996,116.79682506146263
3817.684,4.638210514481852,120.2144006245353
3818.5623,4.631092629481385,119.32926146314765
3819.4429,4.6242631725886785,110.97959443356673
3820.3215,4.617679018802586,122.40025620455675
3821.2024,4.610589256500516,116.58660363684774
3822.0815,4.602002902764039,112.15463818732162
3822.963,4.591098203593368,112.3974792061906
3823.8423,4.577845624802118,133.4839529799553
3824.722,4.562817234906071,120.27503373633039
3825.604,4.546783595360453,114.47387901723533
3826.4841,4.530437404844524,122.0339929707368
3827.3665,4.514062894465008,126.61312446298734
3828.2468,4.497938910576249,124.00567567440154
3829.1296,4.481932386027226,126.4389676084753
3830.0105,4.46559869525324,125.1430971458057
3830.8916,4.447971389196972,120.94409083731115
3831.7751,4.428224113153005,123.67901846058562
3832.6565,4.406579462199713,123.29057015664306
3833.5403,4.384336742102072,136.22134951698678
3834.4224,4.36408478689713,118.38296533897373
3835.3064,4.348582579394182,135.3066310752915
3836.1887,4.340146287247491,129.5124572113801
3837.0713,4.33966587324452,133.09698445677319
3837.956,4.346606067818119,131.9676179780101
3838.839,4.359365133508748,132.7620040152868
3839.7244,4.37617945620407,136.64659733939868
3840.6077,4.395502067624394,122.41299351779394
3841.4932,4.416478160886578,130.2546753549262
3842.377,4.438411628699672,128.4791763820935
3843.261,4.4608355536199875,122.49690149475016
3844.1472,4.483394127586375,124.06634292358638
3845.0315,4.505882528755359,120.36525348156228
3845.9182,4.528548038118416,131.30823259178706
3846.803,4.551172041190041,124.30268377485385
3847.69,4.5732000144861535,115.19789533181726
3848.5752,4.593702117079758,116.6395574978921
3849.4604,4.612415944744869,116.5485914657519
3850.3481,4.629763355160493,112.75325592173273
3851.234,4.646148922172161,113.70971956682797
3852.122,4.661692326833127,113.70916668458531
3853.0083,4.675956833894986,106.88975120157993
3853.8967,4.688665223016065,113.67317748889138
3854.7832,4.69959740534282,112.53831518383595
3855.6702,4.708679804877951,116.30310574451147
3856.559,4.715851145395805,119.23626986295469
3857.4463,4.721220177274113,105.44696106284236
3858.336,4.725097326003579,106.2230879685261
3859.2234,4.727490157535859,117.15657286106322
3860.1135,4.72795284387683,107.99581807217156
3861.0015,4.725922605982651,109.80019403724295
3861.8896,4.721354460469777,120.41863378033344
3862.7803,4.714827909468582,117.42104389324095
3863.6687,4.707206561948245,113.23892449221233
3864.5598,4.699088826754786,113.58497079792636
3865.4487,4.69086476239073,115.67869021490196
3866.34,4.6825055429283005,111.7793123011746
3867.2297,4.673519324495201,117.36376280298921
3868.1213,4.662709971627148,117.89615615615988
3869.0112,4.648820918689412,119.04271767462978
3869.9014,4.631254219137647,122.73365251979962
3870.7937,4.610626937968637,121.46177241948791
3871.684,4.588586209605008,121.3999504436189
3872.577,4.566458921667544,120.27294998871122
3873.4678,4.544771212994015,118.95328505744317
3874.361,4.522636915914331,127.91207963880758
3875.2524,4.498807008260958,119.13975224672897
3876.1438,4.472309069312937,120.6515225031776
3877.0376,4.44326637180072,115.46712018869874
3877.9297,4.412911357835603,125.48633464538608
3878.8237,4.3820358238570485,121.92044917919779
3879.716,4.35058473229232,131.4909525140234
3880.6108,4.317291218039808,135.99975053344764
3881.5037,4.281248664952755,147.141660757855
3882.3965,4.242151544359702,143.46859377910218
3883.2917,4.200471295595067,142.68758620904325
3884.185,4.157281952611625,134.46151527852277
3885.0808,4.113067069601462,138.61426518498467
3885.9746,4.068612380749826,152.77976312307635
3886.8706,4.0247158575336295,158.0094322790651
3887.765,3.9836505594689773,155.99038471975413
3888.6592,3.9486486470968725,166.3982100035261
3889.556,3.9236048872338465,158.11163365471165
3890.4507,3.9121135710602717,171.7066373129382
3891.348,3.9160173227155592,154.66752334740184
3892.243,3.9349944360588465,172.46129207513232
3893.1406,3.96670295764263,165.0825489481898
3894.0361,4.00711639381092,150.32854004623772
3894.932,4.052275682935335,155.27967465893502
3895.83,4.0992497294141055,148.22140617411543
3896.7263,4.146199692233595,140.04610798082413
3897.625,4.1928510754385915,139.0556686337123
3898.5215,4.238969147149069,148.4212434229488
3899.4207,4.284911891645556,132.29254539418866
3900.3176,4.330325279052322,135.1281711483561
3901.2148,4.374678309532976,137.140962398595
3902.1145,4.416860279388051,123.26010126160382
3903.0122,4.455597126028431,126.56354164652939
3903.912,4.491084644995212,127.0648953042926
3904.8103,4.5244964390155715,124.76914729112784
3905.7107,4.5578533607584975,116.4614601598146
3906.6094,4.592315270477169,129.34726390944243
3907.508,4.62799178049764,113.39223383667905
3908.409,4.663740082108147,111.3525895317896
3909.308,4.697476240325623,116.5619953792391
3910.2097,4.727699669736411,108.65338437055931
3911.1091,4.753771538504781,112.54555174628162
3912.011,4.776708665000837,107.7260160455816
3912.9111,4.7980278390086815,108.56711993001556
3913.8113,4.819198028050841,111.03384897352282
3914.7136,4.840816119397213,105.16495951895024
3915.6143,4.862246234589902,101.7040497404792
3916.517,4.882164769897973,109.25183512698128
3917.4182,4.898808924530102,103.4069502707173
3918.3215,4.911151070302831,98.21668791302127
3919.223,4.919237086370421,104.13701654716219
3920.1245,4.9243573171456685,104.46519389374264
3921.0286,4.928359291700871,107.40197042277366
3921.9307,4.933041498891763,105.259155734189
3922.835,4.939806745460324,98.11163350188427
3923.7373,4.94918517829821,107.99399198245679
3924.642,4.960638814311552,103.84006070400942
3925.5452,4.972469116611331,108.48682504546872
3926.448,4.982689357894061,97.89658835958343
3927.3535,4.989888938854678,94.7858949483385
3928.257,4.99359638659766,98.7960466300441
3929.1628,4.994025228383326,102.74302372061652
3930.0667,4.9913030380999635,98.31537988605474
3930.9731,4.9852489426231275,96.60242871954179
3931.8774,4.975939807657835,100.19465477754696
3932.782,4.9643109584678795,99.8987515535401
3933.6887,4.9522660154062175,100.80945278723294
3934.5938,4.941909478839639,101.12894716157635
3935.501,4.934048584094852,100.47854102403626
3936.4062,4.92758204035096,98.5137923847571
3937.3142,4.919803643371226,106.98148496076129
3938.22,4.908002037383399,104.87996333813099
