wavl,flux,ivar
3566.9744,0.6641273707817178,1327.2532769027512
3567.795,0.6586464188314517,1600.6219366289802
3568.6177,0.6542982786638917,1548.0008139204015
3569.4385,0.6515390414041385,1627.8083803596721
3570.2617,0.6506947724752523,1939.9908520698662
3571.083,0.6518825353457903,1234.8892162881214
3571.9065,0.6548103223731299,1349.8071808150903
3572.7283,0.6587018024504164,1215.2520640217642
3573.55,0.6625103076464154,1420.7386241330432
3574.374,0.665256509318,951.5570014287653
3575.1963,0.6663727649886019,1868.333051875926
3576.0208,0.6659488760214556,1002.3222275279462
3576.8435,0.6646435749182109,1824.8959669113726
3577.6682,0.6633348313856431,1196.78129587763
3578.4915,0.6626767260120132,1160.3273563479988
3579.3145,0.6628324155150845,1244.3689555828737
3580.14,0.6636327357729463,1005.0391629875677
3580.9636,0.6649073196816906,1625.5456687508326
3581.7893,0.6666594298843167,1434.5443065276584
3582.6133,0.668892642261362,1323.7386444640656
3583.4395,0.6714158099091655,1036.5511118501142
3584.264,0.6737391697868772,1022.5235725477952
3585.0884,0.6752145414591587,1671.0249162827067
3585.915,0.6751945838043841,1524.7946777739985
3586.74,0.6733006300786609,1029.1112003399837
3587.5671,0.6696644480055707,1436.4836601835752
3588.3923,0.6649828800203359,1481.475176170304
3589.22,0.6601876004133269,1214.8446157092328
3590.0457,0.6562530264667323,1451.56470034454
3590.8716,0.6540074628419441,1441.2757007077798
3591.6995,0.6540810913125409,1166.6502264185633
3592.526,0.6565507262556691,1816.3317065691608
3593.3542,0.6606072553250663,1198.8796708186828
3594.181,0.6646565488582645,1594.2365311496073
3595.0098,0.6671200576077131,1292.5658063188118
3595.8367,0.6672527602413437,1831.657643236521
3596.6638,0.6655590398267893,1526.6666512943484
3597.4934,0.6633821771106162,1444.0661449751556
3598.3208,0.6621267491410984,1622.8581357307423
3599.1506,0.6624913981537294,1678.9947053752194
3599.9788,0.6641988683143173,1006.6185326977178
3600.8088,0.6662198151525481,1068.7157349080464
3601.6372,0.6673741015056581,1008.1257461100021
3602.4678,0.6670917938402026,1656.9537137307784
3603.2964,0.6657762631875914,1647.9050409055144
3604.1252,0.664448274305156,1343.1528630067528
3604.9565,0.6638996237229612,1883.2852895234018
3605.786,0.6641500693043616,1061.1269970843687
3606.6172,0.66466706302656,1297.6812236477697
3607.447,0.6649650056880704,1305.6872661982434
3608.2788,0.6648818927178368,1541.237483259243
3609.109,0.6644418724674078,1122.246482973845
3609.9392,0.663749905827318,1099.8153873040285
3610.7717,0.6630967193390678,1491.440543377519
3611.6023,0.6629928362450604,1558.31013408968
3612.435,0.6638814083579623,1224.6917421734822
3613.266,0.6657537365451017,1562.9868201204147
3614.0994,0.6680317010876655,1458.1333169983998
3614.9307,0.6697689873452061,1482.0886441629923
3615.7625,0.6701501213971139,1126.1928767944823
3616.5962,0.6689287734700227,1263.3059210775355
3617.4282,0.666675565905883,1097.530665227303
3618.2625,0.6645546362417349,1787.9278397673445
3619.0947,0.6638042402937155,1058.239265502295
3619.9292,0.665117142086666,1303.4218668600158
3620.762,0.6683161303429094,1098.4309374894074
3621.595,0.6724118603707132,1267.0552089782107
3622.4302,0.6760671900379842,1008.7658922687729
3623.2634,0.6785381736570887,1190.6591748470323
3624.0989,0.6814627276094358,1542.711933923965
3624.9326,0.6916800508335501,1192.023601967487
3625.7686,0.7253115267714022,1539.3871553759006
3626.6028,0.809539058950252,1218.4168015673654
3627.437,0.9758735218649849,1662.6415294858818
3628.2734,1.2378941042023288,2157.0183962497913
3629.1082,1.557735166572012,1153.5816487244908
3629.945,1.8417398391173392,1546.2973180684191
3630.78,1.9758969778552886,3.436889270908205
3631.6174,1.9020205108337824,1154.4654797099865
3632.453,1.6582094548842914,859.1314408379054
3633.2883,1.3505047712723686,911.9877671989748
3634.1262,1.0815498082324673,1239.2458012246868
3634.9622,0.9027949496637521,873.8794070410704
3635.8005,0.8088783898848535,1436.4145984011354
3636.637,0.7705245856820969,1479.7044412132084
3637.4756,0.7587940513939794,999.4880592578048
3638.3123,0.7565998920493945,1157.0446549844228
3639.1492,0.7569258292194595,1545.1531542381501
3639.9885,0.7580803156927489,903.5115373285932
3640.826,0.759735405659753,868.4112270813711
3641.6653,0.7612898235828551,813.2130983300847
3642.5032,0.7619808725909478,836.6996785534257
3643.343,0.7615608219511089,912.7660399689321
3644.1812,0.7603899812617536,1190.8751220909714
3645.0195,0.758908224649176,1118.6338577787724
3645.86,0.7571690770841131,1135.6857594595235
3646.699,0.7549557114374863,1265.9341938929072
3647.5398,0.7522057719718611,1090.6382816843318
3648.379,0.7493154343718814,1227.813555693836
3649.2202,0.7469279080461529,910.1780813839754
3650.0596,0.7455802162492046,1119.9734438824066
3650.8994,0.7453635209918761,924.3880099813053
3651.7412,0.7459587013627117,1008.3832385523156
3652.5813,0.7468953057843958,947.6849443221141
3653.4236,0.7478547161476223,1256.9971689032864
3654.2642,0.748723848010142,1034.5205856348068
3655.1067,0.7494904630903967,957.4415931330841
3655.9475,0.7501302937240506,1301.6920768743653
3656.7886,0.7506149383337926,1101.7940312013611
3657.6318,0.7508960677472172,1053.168282552747
3658.4734,0.7508883755394534,908.8222858354736
3659.317,0.7505778499782323,1200.6654759091819
3660.1587,0.7502542634552801,825.9339763620255
3661.003,0.7506516906555009,1090.8058811844267
3661.845,0.7527516155459303,1197.1355198368683
3662.6875,0.7572102110263025,1191.635290563286
3663.532,0.7637058255278795,1292.2615057594646
3664.3748,0.7707093578801881,1187.8415574897085
3665.2197,0.7763045351792585,994.7612032896329
3666.063,0.7792850169304171,877.3819399881321
3666.9084,0.7798860800348351,1068.0201223693443
3667.752,0.7792001737751932,1236.9553072875233
3668.5977,0.7780976448081375,1216.0084222286937
3669.4417,0.7766984361927168,1094.0700994741298
3670.286,0.7747568170909375,856.9657217023063
3671.132,0.7723200816072958,902.1800275268299
3671.9768,0.7699070590846024,925.4984510477252
3672.8235,0.7681057792422447,880.8628824650935
3673.6685,0.767190792111356,1023.2849865196602
3674.5156,0.7670025489200015,885.8550955593652
3675.3608,0.767206359706112,964.5528113519098
3676.2063,0.7676244498523127,1254.877010637129
3677.0542,0.7683560653502888,1333.9636024470183
3677.9,0.7695169412532581,1176.347477281444
3678.748,0.7709000702440598,1797.8327566535997
3679.5945,0.7719339440341255,923.4785102773476
3680.4429,0.7720749870930025,736.5803774836335
3681.2896,0.7711378669263448,1334.7723810736145
3682.1365,0.7693180071646514,858.466743491776
3682.9856,0.7670457104906426,954.6683580766254
3683.8328,0.7649475784456663,892.7553380935199
3684.6824,0.7637066002481637,942.5235239157527
3685.53,0.7637698261612974,1021.0942813157588
3686.38,0.7649543067453735,973.2979520335905
3687.2278,0.7664215914154471,1120.7670684681075
3688.0762,0.7671392462135775,1056.5470175350022
3688.9265,0.7665176361275441,1518.9323059317492
3689.7751,0.7648619971009111,877.4021485154205
3690.626,0.7632744755833141,1315.141579341855
3691.475,0.7630643878481714,1286.1706360136388
3692.3264,0.7649921390993129,1234.898175266684
3693.1758,0.7688820795678073,1004.0790020965546
3694.0254,0.7737697976165624,1040.2752781450802
3694.8772,0.7783121107869025,701.9387770642215
3695.7273,0.7812674191844212,860.9256521841834
3696.5793,0.7820693588335667,1333.8491583876698
3697.43,0.7810499274511837,1013.6359366932013
3698.2825,0.7792607583020911,1065.5363444041154
3699.1333,0.7778828995656745,921.0139893984099
3699.9841,0.7775866915999705,980.5839366358887
3700.8374,0.7782769317285119,876.0885864367972
3701.6887,0.7792331325489567,929.5416838436934
3702.5425,0.7795411235843288,944.2278948012719
3703.3943,0.7785530230305384,1025.084369212672
3704.2483,0.7762042875230067,992.515542282331
3705.1003,0.7730295604058968,868.6023514767453
3705.9526,0.7698061241899,945.0472065947271
3706.8074,0.7671927066495199,1178.945909913836
3707.66,0.7656100772673562,910.1721110094386
3708.515,0.7652776204585221,875.0932097630606
3709.3682,0.7662730591401506,1245.2382157783609
3710.2234,0.7683729530725264,1187.6766091462912
3711.0771,0.7709276113220995,1205.850703862157
3711.9307,0.7730682924978101,1599.0494425316003
3712.7866,0.7741167489191091,1101.0362452402017
3713.6409,0.7739140791735414,1057.190155099945
3714.4973,0.7728512226842172,1204.8009106692318
3715.3518,0.7715966385383639,1083.2423366772362
3716.2085,0.7707378444483207,763.5526776931588
3717.0635,0.7705622807252603,954.2852695181592
3717.9185,0.7709647390267771,1299.7616415720902
3718.776,0.771551899688221,985.3295279949382
3719.6313,0.7719090435739716,901.4454408386348
3720.489,0.7719244219851357,1121.6973089158782
3721.345,0.7718163636704309,1009.7822864597598
3722.2031,0.7717841939539294,1127.854169010485
3723.0593,0.7716705456677835,847.6554563508276
3723.9158,0.7710985443411698,894.5484755690006
3724.7747,0.7699643536340116,972.5234758882652
3725.6316,0.7687267065302235,1128.1893820698956
3726.4905,0.7681345388842358,979.3513208960092
3727.348,0.7687515958743458,983.0108509466395
3728.2073,0.7706673705451745,1101.5191711632524
3729.065,0.7735014325315106,1198.0965802039775
3729.9229,0.7765737278819834,1124.065580809867
3730.783,0.7790699620260583,1035.0084778748142
3731.6414,0.7802455170913,946.391693188293
3732.5017,0.7796865886889452,880.4669313603131
3733.3604,0.7774302446708263,1213.5999238146803
3734.2214,0.7739867328884817,908.7577027325582
3735.0803,0.7703390616887328,884.1040427658425
3735.9417,0.7676596452503943,1219.2178332637905
3736.8013,0.766830065929873,1114.6417557982718
3737.661,0.7677282451481987,1356.6244028558533
3738.5227,0.7691095459628876,964.4214382276251
3739.3828,0.7693313791559934,809.8654548456954
3740.245,0.7675428711313473,1002.8479766577941
3741.1055,0.764269346687365,1155.675984490858
3741.9683,0.7608595320229906,1047.554025486023
3742.829,0.7584531499207264,965.1978430252597
3743.69,0.7572550383765646,802.979542888892
3744.5532,0.7567647929557302,775.8264478367114
3745.4148,0.7564478444895185,708.6169269245784
3746.2786,0.756202536102403,644.2088866721216
3747.1404,0.7563229486954638,772.358378416171
3748.0044,0.7571516831202476,918.9006634311316
3748.8667,0.7588021684253436,1038.143280465668
3749.729,0.7611124692208289,885.5560779445254
3750.5938,0.76376276208035,1093.7367857886422
3751.4565,0.7664700218714967,886.0027045484766
3752.3215,0.7692372984368661,995.4890174136053
3753.1848,0.7722380193484419,805.517606115641
3754.0503,0.7755103361452913,1071.2092541375937
3754.9138,0.7786461939177778,933.8783901924007
3755.7776,0.7810541816749274,813.7109110426413
3756.6438,0.78239146088967,995.89544491108
3757.508,0.7827633046531373,925.0418759313153
3758.3745,0.7825333622673826,813.0740880175564
3759.239,0.7820155397913009,907.6794527358941
3760.106,0.7813946714591743,872.5256195738847
3760.971,0.7808494520924929,1026.6468841854564
3761.8362,0.7806382776133697,992.9360801786709
3762.7036,0.7810288478221803,849.2758911311246
3763.5693,0.7820444927160761,1000.938078596313
3764.437,0.7832360642409182,1003.8463973019125
3765.3032,0.7837021192162711,806.0702459208183
3766.1714,0.7825054889089517,922.3490045085903
3767.0378,0.7792408760082864,999.7680156765175
3767.9043,0.7743516769566884,1029.981715761523
3768.7732,0.7689594110573595,1261.3136817144662
3769.6401,0.7643831896499684,1018.5986782327424
3770.5095,0.7614856714468311,1123.0499089624786
3771.377,0.7605062323299701,1440.8683082691443
3772.2466,0.7611420709048231,977.1790939006703
3773.1145,0.7628746101994908,863.7359199391415
3773.9824,0.765156165890768,1148.9949211130672
3774.8528,0.7674382771774085,930.1661200204636
3775.721,0.7692168958886431,893.8372480598239
3776.5918,0.7703226963554745,871.5544724108323
3777.4604,0.7710763299665131,774.6312865595972
3778.3315,0.7720874108003702,855.8711604371566
3779.201,0.7736642473324185,1044.3834280625024
3780.0703,0.7755305882853926,801.9088933253563
3780.942,0.7771997683901872,1022.4371205281058
3781.8118,0.7786264492465906,1045.6909979763818
3782.6838,0.7804015801536791,971.952034197657
3783.554,0.7831357889020069,1187.057660693631
3784.4265,0.7867578123606342,906.9044817412005
3785.297,0.7903438562167112,856.6748263672598
3786.168,0.7928132399738919,957.6890203880455
3787.041,0.7936510833757962,948.7710716324059
3787.912,0.793103595495734,1047.656927949239
3788.7856,0.7917396807097083,848.9904154219547
3789.6572,0.7898979411102934,999.1205097389076
3790.531,0.7874790164982289,1006.323654488847
3791.403,0.784202621586767,931.3345118873112
3792.2754,0.7799065411224856,963.4605831890653
3793.15,0.7747222173898467,954.7429176624149
3794.0225,0.7690696640360455,1091.1750664285116
3794.8972,0.763436606808241,963.2945389791903
3795.7703,0.7583881539661664,1192.5772956773949
3796.6455,0.7543862425190802,1175.6616897494364
3797.519,0.7517477426379996,861.1090484600695
3798.3926,0.7505179717383956,1205.171861046184
3799.2686,0.7506206009900803,982.6591224572676
3800.1426,0.7519729628424948,885.472968883819
3801.0188,0.7544142175652029,1162.585733212031
3801.8933,0.7575048271275426,1114.6521086021803
3802.77,0.7606666071957235,898.6815549776493
3803.6448,0.7635817401868451,1036.7680474238257
3804.522,0.7665641869319411,737.7225567355841
3805.3972,0.7702173606498638,1124.2620500846506
3806.2727,0.7748356413972469,981.6708120116568
3807.1504,0.7800621128941293,863.2676313313995
3808.0261,0.7851529449689016,1098.3056299583914
3808.9043,0.7896033843504576,763.3090633938797
3809.7805,0.7932744138702204,1236.1999377842021
3810.659,0.7963174725217061,803.7168521842251
3811.5356,0.7988934873073068,853.1685255094612
3812.4126,0.8011757270410093,903.6397303787834
3813.2917,0.8033215615662864,817.731737192983
3814.169,0.8053858295232418,1099.5165890113308
3815.0483,0.8073278564650932,982.0621776433162
3815.926,0.8091049035370036,892.6646714627223
3816.806,0.8108426480815745,704.867687624708
3817.684,0.8127217976660982,957.8838831071868
3818.5623,0.8147627928756201,883.7645767122838
3819.4429,0.8166721204351104,984.9753412868739
3820.3215,0.8179087085927853,863.9999157948849
3821.2024,0.8179325012352403,710.0580305143408
3822.0815,0.8163817399657648,828.8448036164788
3822.963,0.8131570494339427,838.3077329030203
3823.8423,0.8084299773757007,933.7316741013925
3824.722,0.8025171742837187,962.1513151315927
3825.604,0.7958022105381719,816.5762744253094
3826.4841,0.7887149614546145,826.90413022407
3827.3665,0.7815304489574423,850.4525255377596
3828.2468,0.774429316343531,948.4243254358207
3829.1296,0.7673465075412496,946.9861816646613
3830.0105,0.7601866227801519,1005.8303415729554
3830.8916,0.7528257939127515,1120.3864502063627
3831.7751,0.7452370664541872,1204.7116996921213
3832.6565,0.7375402765234165,1090.2290695866589
3833.5403,0.7298519480213038,1126.860847863342
3834.4224,0.7224887499598168,1156.9826135237988
3835.3064,0.7158606097299298,1249.6886221270772
3836.1887,0.7105478831453643,1260.471841257675
3837.0713,0.7071297718616973,1462.5390845565191
3837.956,0.7061891163009731,1329.5822265238323
3838.839,0.7081762822604937,1505.3452415344361
3839.7244,0.7131985559708397,1417.1014456480036
3840.6077,0.7208580052458873,1348.1248494448014
3841.4932,0.7304528346573478,973.0424513917133
3842.377,0.7410933695240962,821.0446329819496
3843.261,0.752041905387986,1056.4003599542789
3844.1472,0.7627699738342518,980.8737860139867
3845.0315,0.7729707037877463,892.2499371859963
3845.9182,0.7827665082166633,776.7831471597339
3846.803,0.7924035781145047,1107.1409871449957
3847.69,0.8022133884611735,940.9845622052397
3848.5752,0.812190202211427,871.691137752119
3849.4604,0.8220402105762243,910.0743961026399
3850.3481,0.8312431935601657,797.7174616883477
3851.234,0.8392921258979771,895.3712483863862
3852.122,0.8462081013354602,713.6847666786015
3853.0083,0.8525156365844953,775.7536603350694
3853.8967,0.8590879365589266,793.6922921709457
3854.7832,0.866391187088166,846.5213187257627
3855.6702,0.87408951407162,841.5077407322761
3856.559,0.8810596444351605,738.3839641350563
3857.4463,0.8859951682685221,560.2308066541368
3858.336,0.8881960911015783,798.0590071602071
3859.2234,0.8877642302719623,642.3379132060877
3860.1135,0.8854448787724369,798.4782709546326
3861.0015,0.8822164258161921,841.5178221422681
3861.8896,0.8788651564614457,753.6966594631257
3862.7803,0.8757662151017568,727.7349366692717
3863.6687,0.8729365680689335,829.7849387196073
3864.5598,0.8702383628577447,972.0815008151633
3865.4487,0.867676109670077,702.2199585423791
3866.34,0.8653051848691169,946.2630218612206
3867.2297,0.8630691721976352,847.7512583569396
3868.1213,0.8606644112851027,605.9615379287447
3869.0112,0.8577298758673717,555.8300588345513
3869.9014,0.8539954509863882,889.7373185976355
3870.7937,0.8493250905830315,1150.0101324461737
3871.684,0.8437363087798952,852.355121416876
3872.577,0.8373721691153988,882.7193548625711
3873.4678,0.8306284220038573,841.7849389066361
3874.361,0.8238576700871473,755.8490293095906
3875.2524,0.817259640231907,843.6082776089477
3876.1438,0.8107344049442757,1111.858670724755
3877.0376,0.8040826937412544,793.0523412859695
3877.9297,0.797114233334017,962.07761530325
3878.8237,0.7894012678070829,805.3069877048034
3879.716,0.7803658715278384,1358.2065307350083
3880.6108,0.7694754707682392,1095.9060408103715
3881.5037,0.7568885188810733,1242.0007209025723
3882.3965,0.743363229378208,1002.372339329879
3883.2917,0.7298324880116851,969.44585972256
3884.185,0.7168978756241546,1273.4032398367435
3885.0808,0.7043588188828052,1312.1390744323746
3885.9746,0.6917389718272707,1138.2796191436676
3886.8706,0.6785307580801107,1279.935212826828
3887.765,0.6648444106317246,1128.8482518415667
3888.6592,0.6514216981709564,1457.6751461496435
3889.556,0.6397250211239404,1400.618413299691
3890.4507,0.6318053389726579,1269.3177306894365
3891.348,0.6295931942836823,1603.0685012245965
3892.243,0.6342591022234821,2080.8464299393727
3893.1406,0.6455029176643159,1485.942548975069
3894.0361,0.661347117254994,1356.4562187998881
3894.932,0.6790130277478847,1251.6406826085406
3895.83,0.6960370533203069,1077.2306248253185
3896.7263,0.7110872106455228,1107.892643445097
3897.625,0.7244191750053532,1419.222926981789
3898.5215,0.736991535771043,1083.3780235756956
3899.4207,0.7499299393289187,1143.5752348813635
3900.3176,0.7637128510357207,1264.278840321768
3901.2148,0.7783186625389628,897.621752971434
3902.1145,0.7932955241772254,805.6060807813825
3903.0122,0.8078897806362014,877.8471165927161
3903.912,0.8215176042315773,1073.6610512832665
3904.8103,0.8336738481436328,783.2455083196678
3905.7107,0.8442728317987758,687.1634390139433
3906.6094,0.8534765441686982,810.4550475500763
3907.508,0.8618588523784882,982.6280954013959
3908.409,0.8702807787748593,922.9675057046345
3909.308,0.8796279728194498,747.0807003147067
3910.2097,0.8905589318966073,682.5567729625457
3911.1091,0.9029572081823194,633.7523571759177
3912.011,0.9161181641662967,656.8164487843736
3912.9111,0.9288641399562346,814.4500604661789
3913.8113,0.9402415307480404,645.1016950344381
3914.7136,0.9497733930546455,755.8562143113436
3915.6143,0.9574971642258111,709.49403882676
3916.517,0.9639860356166882,612.1557846889528
3917.4182,0.969917498215651,662.1192498919959
3918.3215,0.9758258027339932,539.3616098261028
3919.223,0.9817602589732916,593.1752049947103
3920.1245,0.9874469017199047,539.0285338317517
3921.0286,0.9925121924727374,561.5385108285373
3921.9307,0.9966376543121386,683.2913258470626
3922.835,0.9996465972055368,635.9001757229147
3923.7373,1.0014591657239718,520.4084786753436
3924.642,1.0023307736722256,506.08920295609755
3925.5452,1.0028800935140938,544.6091140596445
3926.448,1.0037502022978682,557.4278425566009
3927.3535,1.0050645968198368,466.99589852216695
3928.257,1.0062796148923174,524.9920632805404
3929.1628,1.0066563819774188,554.1640971588228
3930.0667,1.0058066786539592,557.2843387690159
3930.9731,1.003848187641111,673.5400305259085
3931.8774,1.0011662090454319,613.7345558233221
3932.782,0.9980749226719126,600.1190773984358
3933.6887,0.9947220569651887,761.1218391240556
