wavl,flux,ivar
3566.9744,14.174112227291142,2.672475990261199
3567.795,14.157143692783373,3.415123164205321
3568.6177,14.130015702190574,2.8587291458342343
3569.4385,14.093667505684731,2.780627273678057
3570.2617,14.047481568409676,3.8351746132687197
3571.083,13.993132821939385,2.5988185707714235
3571.9065,13.934867947767563,3.2286217396229837
3572.7283,13.880225881273164,2.9886146679958765
3573.55,13.83735383630668,3.561622580957807
3574.374,13.81209234349602,2.883132953237507
3575.1963,13.8051327492386,3.183326289159573
3576.0208,13.811894291312207,3.1653312962753635
3576.8435,13.825251632820507,3.4171569167430746
3577.6682,13.83733426816095,2.979715398779885
3578.4915,13.839792167806943,3.320892518100022
3579.3145,13.825487300240965,3.1392232564968063
3580.14,13.792119341461058,3.2789394538503975
3580.9636,13.746879497696067,3.759190093506339
3581.7893,13.70657007649759,3.8206911030356125
3582.6133,13.692719660528788,3.2876578336011524
3583.4395,13.721080652940966,3.363981086653943
3584.264,13.792983528360569,2.955351082120972
3585.0884,13.89352250638977,2.932658296518516
3585.915,13.997191020590948,3.1097601837369875
3586.74,14.076468614642051,2.682988164053994
3587.5671,14.11248975917528,3.0340097553194587
3588.3923,14.097988103702182,3.0148835346483915
3589.22,14.036309471065847,3.201760434748843
3590.0457,13.937834998946633,2.90125438402298
3590.8716,13.816982748860564,3.2210898900534617
3591.6995,13.69193198306807,3.921250260895171
3592.526,13.583311843764028,4.575413853261798
3593.3542,13.50761467584056,3.4284548149902467
3594.181,13.47387582195578,2.898278376638938
3595.0098,13.480109377014067,3.2579250046165873
3595.8367,13.514898617539782,4.277203138307283
3596.6638,13.560997776511496,3.089497845246487
3597.4934,13.600204375609819,2.980625007482148
3598.3208,13.616540474636832,2.942297037249443
3599.1506,13.598203191921867,3.4805774770248004
3599.9788,13.538375304997007,3.007319239694363
3600.8088,13.438873862383817,2.9970674805296458
3601.6372,13.317306098287313,3.3920422220292235
3602.4678,13.206615467026406,3.913302871681317
3603.2964,13.145821437502498,3.6420392675010937
3604.1252,13.157926981723799,3.8991523817636633
3604.9565,13.237480630104457,4.140918783564822
3605.786,13.353496394198032,3.195510608962559
3606.6172,13.469450626761073,3.1891507176381877
3607.447,13.558922640615162,3.1544253300470904
3608.2788,13.612998717501608,2.89432906410658
3609.109,13.633907936655747,2.6932235543012553
3609.9392,13.628084109916788,3.5190496376535902
3610.7717,13.60168955751265,2.7799801254338865
3611.6023,13.562080364845437,4.140949382225263
3612.435,13.517941795834181,3.469997393578431
3613.266,13.47666239310455,3.117509370215057
3614.0994,13.439603140521676,3.020340110831892
3614.9307,13.403723903701382,2.9389637069560455
3615.7625,13.365977863288725,3.5330157393563892
3616.5962,13.32682677492557,3.317025953613107
3617.4282,13.288613028800937,3.1617132569806436
3618.2625,13.25174179313591,3.3503477812066915
3619.0947,13.215640157385678,2.7651685364030394
3619.9292,13.180854931151288,3.350004308356493
3620.762,13.150058981701191,3.979392335475086
3621.595,13.124018182106104,3.3582560102890846
3622.4302,13.099735665864207,3.5831109529143093
3623.2634,13.073772757340398,3.0416174991322995
3624.0989,13.046921287687319,3.574674680140122
3624.9326,13.024909808722635,3.618888682452556
3625.7686,13.01191743163666,3.497814228529739
3626.6028,13.00485971799363,3.6943165732737473
3627.437,12.993959621880492,2.884554296901299
3628.2734,12.970811588924274,3.3924077729238995
3629.1082,12.93695098335606,2.736604834249728
3629.945,12.904215306719033,3.2613368476870273
3630.78,12.886413175953065,4.721340669588716
3631.6174,12.887227543518435,3.518589803796404
3632.453,12.896866411557532,2.9103758532329302
3633.2883,12.900560393394573,3.3408397787106154
3634.1262,12.891680224614717,3.4165744547617223
3634.9622,12.876828024786871,3.3292339735234067
3635.8005,12.867623381067117,4.039225527309525
3636.637,12.868226050778038,3.601496238581662
3637.4756,12.871134925121169,3.2698055388273146
3638.3123,12.865987803753153,3.951183623377552
3639.1492,12.851808146100547,3.108211210699099
3639.9885,12.839821991229446,3.1911791780911067
3640.826,12.843687595616867,3.922925541020081
3641.6653,12.865692388571455,4.301124165063836
3642.5032,12.89223955323989,3.652474727741024
3643.343,12.903294546085387,3.6047639903284914
3644.1812,12.88707862901108,3.390648397446933
3645.0195,12.848625404221245,3.4426398931880122
3645.86,12.805856289139934,3.5183594968320357
3646.699,12.778708978333249,3.2763953668936003
3647.5398,12.777542270182364,3.412471399722527
3648.379,12.79874766957869,3.338719702814144
3649.2202,12.827655343828708,3.559512571061826
3650.0596,12.846800166173802,3.031399488237292
3650.8994,12.845434970890999,3.696920224982899
3651.7412,12.823135754421186,3.581369894867317
3652.5813,12.787184579716786,3.9869482010677446
3653.4236,12.74605834201166,3.2965241301470596
3654.2642,12.706445417154809,3.9129967840128654
3655.1067,12.672724396190574,3.4196710986800287
3655.9475,12.64830910772977,3.8802267018363867
3656.7886,12.634247847235654,3.8898867305699003
3657.6318,12.628719524129552,4.40386014692908
3658.4734,12.628227409011673,4.210123072036455
3659.317,12.630061305657469,3.4338829520456002
3660.1587,12.63353722068546,3.8822368553133595
3661.003,12.63860940011663,5.123751819029923
3661.845,12.643312047398041,3.6593205074036277
3662.6875,12.643317458687303,4.335793635147642
3663.532,12.63474361344668,3.998382781650062
3664.3748,12.61843798455421,4.031336841947639
3665.2197,12.600870254581357,3.341568904475157
3666.063,12.590176566967648,3.9910433277404715
3666.9084,12.589628339099205,3.531986803897522
3667.752,12.5952448982392,4.290385839453583
3668.5977,12.599389464135815,4.044987630920708
3669.4417,12.596707973576061,3.9333086599591685
3670.286,12.586537435822708,3.7074445528285596
3671.132,12.570102712998755,4.340329552265206
3671.9768,12.547158510318184,4.171315578872201
3672.8235,12.515667733820347,3.663342652218476
3673.6685,12.475189291661925,3.4282880429225404
3674.5156,12.428807500081167,3.6042995735300294
3675.3608,12.383542160222792,4.440688036973598
3676.2063,12.346836350207916,4.169798147422702
3677.0542,12.32349449965211,3.8044804384605153
3677.9,12.313334997255224,4.195538933943283
3678.748,12.311100786213007,5.521879357676988
3679.5945,12.31020483811606,3.627345239023491
3680.4429,12.307285352012897,5.115013318948817
3681.2896,12.304452506164335,3.9775223114007856
3682.1365,12.3068421934107,4.272869737475635
3682.9856,12.317472653510638,4.044012117002348
3683.8328,12.332966520613953,3.8722198996655837
3684.6824,12.343518710814587,3.9785482404420094
3685.53,12.33710765630067,3.1322800236372434
3686.38,12.306593019062461,3.3081565061577294
3687.2278,12.254621792254333,4.869051082395932
3688.0762,12.191589544563632,4.082112497406383
3688.9265,12.129536159326891,3.6366146635678875
3689.7751,12.07745953954414,4.172481843638685
3690.626,12.039995996878412,4.333535743755475
3691.475,12.020494689231906,3.7733892290596875
3692.3264,12.021155428506544,4.684843965593327
3693.1758,12.041280409502921,4.092341050587573
3694.0254,12.07454142453235,5.455310137641845
3694.8772,12.109658899714027,3.5598033070405473
3695.7273,12.135194218444129,3.0859974582550964
3696.5793,12.146206546663258,3.9592930767931214
3697.43,12.145602283041534,4.263446521552492
3698.2825,12.140575251639945,3.4824081065524544
3699.1333,12.137140194167776,3.9783170567954667
3699.9841,12.137099236878395,4.1988069638423795
3700.8374,12.13818082655017,3.8015095086535204
3701.6887,12.13572104186744,3.778967010058045
3702.5425,12.12477473186066,3.367809051325174
3703.3943,12.102217493793336,4.163162370038068
3704.2483,12.067908955465883,4.448515406316315
3705.1003,12.025526284632372,4.330770488109939
3705.9526,11.981074801851237,3.4681833057290734
3706.8074,11.940661700984709,4.458223985701533
3707.66,11.907386731981589,4.320111377910816
3708.515,11.878160489574718,4.023408376496023
3709.3682,11.845975380189035,3.9222660684674526
3710.2234,11.80534923328468,4.383416752874492
3711.0771,11.759050148249996,4.72197150869756
3711.9307,11.717298201000823,3.4830263859620954
3712.7866,11.690319435803483,4.014777955966171
3713.6409,11.680230406484526,3.7467784832086237
3714.4973,11.679427316900862,4.590508036699763
3715.3518,11.67793243493743,3.8469322747582364
3716.2085,11.671991954428904,4.653021153150986
3717.0635,11.668143577280752,4.961615692862347
3717.9185,11.684387041697793,4.412221471406159
3718.776,11.756270911754436,4.016757186567937
3719.6313,11.944757738539185,4.569014561879991
3720.489,12.329659130295804,3.984171100567082
3721.345,12.954255925138805,4.058602696575848
3722.2031,13.750569834310504,4.092960168501073
3723.0593,14.488871792170833,3.8544817913581397
3723.9158,14.874987711768732,1.1082570852748908
3724.7747,14.72525673820839,4.333942251273512
3725.6316,14.104991986101917,3.82691548069676
3726.4905,13.277858268423753,5.353376994560109
3727.348,12.531241446675324,4.584535528011797
3728.2073,12.014595387575723,4.646074608448437
3729.065,11.731192924628552,4.883751683620277
3729.9229,11.604426625840986,4.941215220311545
3730.783,11.557974880520696,4.729021686874876
3731.6414,11.545376355326312,4.3700720685387235
3732.5017,11.54620024558774,4.025013445860756
3733.3604,11.55335004844557,4.236827749655173
3734.2214,11.5630665867958,4.803370468901948
3735.0803,11.570027829547,4.589200978800059
3735.9417,11.566887933269385,4.664609048621157
3736.8013,11.546860767455716,4.388935945852538
3737.661,11.507432300169599,3.8648673714284145
3738.5227,11.451735241051097,4.4895894400008
3739.3828,11.387264184122095,4.267480467386393
3740.245,11.3214090546474,4.115108223454078
3741.1055,11.26031306758188,4.110138616872854
3741.9683,11.20793857762485,3.8190692458319897
3742.829,11.168538813876975,5.3337825697369885
3743.69,11.145443427420716,5.173950532742015
3744.5532,11.139243864290496,4.962959432248531
3745.4148,11.145830819827035,4.541193701766378
3746.2786,11.158049423872624,4.722800854716265
3747.1404,11.170513666799021,4.375441875642759
3748.0044,11.183519008376184,4.328191584366366
3748.8667,11.20179376928106,5.224828899225591
3749.729,11.229661972302583,4.073946836000429
3750.5938,11.265996762823185,4.4955727678584
3751.4565,11.302385369863057,4.778301852401959
3752.3215,11.32707846208158,4.264892975371634
3753.1848,11.330727883268585,4.7773071372383695
3754.0503,11.311921517225512,3.5304238879030265
3754.9138,11.277333031337323,3.676244899446478
3755.7776,11.236739502767579,5.361409089521867
3756.6438,11.19771395085495,4.399391003280403
3757.508,11.164064441604188,4.915878776504942
3758.3745,11.13645668923302,4.870215471919
3759.239,11.114423173377773,5.292102506123284
3760.106,11.095744218192685,4.6877305025354685
3760.971,11.076993039477681,4.433315922539673
3761.8362,11.055039228196113,4.953795067584478
3762.7036,11.029631735987977,4.237440982599982
3763.5693,11.003878933008453,5.154829159665396
3764.437,10.981069463109046,5.859509854521676
3765.3032,10.961725599342795,4.7053758669404875
3766.1714,10.942928711792232,4.093504083555737
3767.0378,10.921996385377481,4.106200369229131
3767.9043,10.899846013707993,4.947760628886816
3768.7732,10.881345832594508,5.475320508127836
3769.6401,10.872024073137629,5.4082122351829005
3770.5095,10.873283948977056,4.666459528184592
3771.377,10.880157755870115,5.105415399115129
3772.2466,10.883033462944708,4.618517182263216
3773.1145,10.873650852295427,4.804188168151201
3773.9824,10.85208129626668,5.2187627456858845
3774.8528,10.828417010191783,6.4970125364250695
3775.721,10.816449981816778,7.422400783429727
3776.5918,10.82259943264121,4.651550476589175
3777.4604,10.84082840560104,4.90748153042899
3778.3315,10.85788891077213,3.996867116859359
3779.201,10.86340362839215,5.319404141251699
3780.0703,10.855824049622917,6.409177579898566
3780.942,10.839820632713733,5.151299228562574
3781.8118,10.82102457993222,4.990448683669863
3782.6838,10.80287210731072,4.586804146593595
3783.554,10.787034675800527,5.682830123083893
3784.4265,10.773746161243965,4.76702868253202
3785.297,10.762348473683547,5.023818153601302
3786.168,10.751492840074757,5.022430764231932
3787.041,10.73993289120448,4.9762590300229865
3787.912,10.72690815778199,5.009145056664482
3788.7856,10.711877663683916,5.324878061712273
3789.6572,10.694684202661133,4.962480267980501
3790.531,10.674969614684667,5.503221949741957
3791.403,10.652061072772549,4.904259326094058
3792.2754,10.625003802335977,5.567128958687584
3793.15,10.594200501103371,5.6204606590148485
3794.0225,10.562841490683502,5.4990480684281815
3794.8972,10.53512691659006,5.219772336754144
3795.7703,10.513566844370027,5.328783255820854
3796.6455,10.496399792083142,4.859763020426648
3797.519,10.479537173123903,5.284355226278167
3798.3926,10.460498565588729,5.005876835652685
3799.2686,10.44159719070364,4.593000861236669
3800.1426,10.42886681932325,5.777921366437091
3801.0188,10.426798864864054,4.724161791919096
3801.8933,10.434168415136005,5.709711122398596
3802.77,10.444294942451231,5.061783572473708
3803.6448,10.449854413340695,5.690868349926897
3804.522,10.448211130069344,5.168657137296549
3805.3972,10.442565203671652,5.919230921013664
3806.2727,10.43861751474752,5.619611846024838
3807.1504,10.439924218039579,5.296482892776969
3808.0261,10.445568110999506,5.318959069397282
3808.9043,10.451487312937735,4.813643727979471
3809.7805,10.453966836152526,5.555278537154689
3810.659,10.453137957778559,5.72092161378294
3811.5356,10.453725757565277,4.8308530580572615
3812.4126,10.46192035226244,6.03444412134648
3813.2917,10.479967374144486,5.878277350034019
3814.169,10.502529411020557,5.101147459206877
3815.0483,10.51909343893109,5.506960385165172
3815.926,10.520148764293843,4.655442847174615
3816.806,10.503114926380109,5.636525310484418
3817.684,10.472929877508658,4.832971561002454
3818.5623,10.437416340469516,5.294625347784213
3819.4429,10.401784152330665,5.2792496432871525
3820.3215,10.366654353681872,6.785331411251437
3821.2024,10.329356885292574,5.675855078789636
3822.0815,10.288402017987677,5.5267265106594134
3822.963,10.24495439724463,5.655885858177008
3823.8423,10.202581748026791,5.814637352112795
3824.722,10.163802971207735,5.446814982134472
3825.604,10.128485640313858,6.051306845511671
3826.4841,10.094404753765463,5.725859098606635
3827.3665,10.058596750322902,5.446893668937947
3828.2468,10.019648321842281,6.648806762106444
3829.1296,9.976718263068033,6.236792174108307
3830.0105,9.928620323993771,5.95172655452748
3830.8916,9.872287856167752,5.439856484510463
3831.7751,9.804939666670569,4.39104814158587
3832.6565,9.728269095083201,5.26152120959179
3833.5403,9.648709483014255,5.400731217617987
3834.4224,9.5761419428974,6.3252200008318145
3835.3064,9.51764349785904,6.956926799900513
3836.1887,9.476367623895921,5.979455211175738
3837.0713,9.452636328731248,7.076492945126593
3837.956,9.448004890924942,6.290503941061866
3838.839,9.46634660063835,7.756517316387223
3839.7244,9.511763693876473,7.138897251120733
3840.6077,9.584347707491844,7.052816685607623
3841.4932,9.678165829414388,6.316182123442161
3842.377,9.780519487030087,6.039699182954802
3843.261,9.877619188015876,5.138843487379747
3844.1472,9.959200433568766,5.8274898870919625
3845.0315,10.020496134859917,6.5337630381657394
3845.9182,10.062590524755652,5.115933429304402
3846.803,10.08953231594133,4.969516557764824
3847.69,10.108039230321653,5.565022208970589
3848.5752,10.124963376145864,5.152405392959457
3849.4604,10.144320871418365,7.363567455621375
3850.3481,10.164815460329326,5.209358099016152
3851.234,10.181101637880115,5.969866061478715
3852.122,10.188947174675809,5.540036184385674
3853.0083,10.189022376289184,5.49552672069831
3853.8967,10.186445339691403,6.87501608818237
3854.7832,10.186043418758903,5.615477368541419
3855.6702,10.188291236025652,5.298654757551684
3856.559,10.18975849833141,5.166607030408457
3857.4463,10.186974281418413,5.7031870666278
3858.336,10.179429262465234,5.514926136529639
3859.2234,10.169096586694348,5.8756218029994
3860.1135,10.157868005979187,6.751781743666103
3861.0015,10.146694902752495,5.901655422294576
3861.8896,10.13621339565269,5.462241333308023
3862.7803,10.127336018576901,5.040175276458427
3863.6687,10.120182050026322,6.1696469196642
3864.5598,10.112823546273981,5.055161827497052
3865.4487,10.102425030835457,4.950971597510878
3866.34,10.087466463463075,6.166381650785865
3867.2297,10.069300738649465,5.473773404522551
3868.1213,10.050671125968389,5.280405809071605
3869.0112,10.033025481553606,5.649893698686936
3869.9014,10.013953215184129,5.552144858314496
3870.7937,9.987932209168266,4.838392988061837
3871.684,9.950130516535488,5.633424449390374
3872.577,9.899352900272758,6.281607870829949
3873.4678,9.838903870258331,6.494039592654002
3874.361,9.772685482672745,5.575725766165973
3875.2524,9.703469039525698,5.907833535572243
3876.1438,9.631272759177335,6.539261274295764
3877.0376,9.555379570575342,6.474290064604033
3877.9297,9.477250357702738,6.122245833432891
3878.8237,9.400292995918122,6.164205813036266
3879.716,9.329211855364202,6.642667907465222
3880.6108,9.264558515477772,6.771956254160153
3881.5037,9.201320695469477,6.235792910976963
3882.3965,9.130068835973042,6.2524951064349015
3883.2917,9.043171763360691,8.32640662258041
3884.185,8.940026850316798,7.661419728496109
3885.0808,8.825308253087908,7.641080828485455
3885.9746,8.707606263807543,8.289689890950802
3886.8706,8.59432801735145,7.184167847644339
3887.765,8.493038592154283,8.601649392774599
3888.6592,8.41057696392069,7.857767912858982
3889.556,8.354565323320465,7.953064248022413
3890.4507,8.332463057011571,8.441746775806909
3891.348,8.347586964247482,8.844077189364771
3892.243,8.396805440632562,9.440302985102019
3893.1406,8.471555061758735,8.493718578268323
3894.0361,8.560778671521623,7.838038915933431
3894.932,8.65583895758964,8.26889787169091
3895.83,8.750747831839725,8.135416656946868
3896.7263,8.84020760772783,6.779868477190522
3897.625,8.920685809866395,7.375037855874394
3898.5215,8.990025199538241,7.082583411898916
3899.4207,9.050962640004217,6.365092506940104
3900.3176,9.10971424862846,6.593402355793299
3901.2148,9.17419830338589,7.285965309995219
3902.1145,9.248939196824013,6.901576808765251
3903.0122,9.331770283948606,8.787069339906278
3903.912,9.416664766709346,6.824946927063459
3904.8103,9.496536048787606,6.581270219308176
3905.7107,9.56771968248258,5.406505013234787
3906.6094,9.628371493860696,6.243828152566998
3907.508,9.6775297970758,6.543737431064848
3908.409,9.713824773938443,6.1041294044081305
3909.308,9.736964325394291,5.9450606129216705
3910.2097,9.750229042097429,7.7956402944374386
3911.1091,9.759646754304546,6.270654981509738
3912.011,9.771731196375715,7.493196495517242
3912.9111,9.791073408936182,5.643382804452504
3913.8113,9.819915371714714,6.916839139972416
3914.7136,9.857484980332174,6.1091187320042115
3915.6143,9.898303022007658,5.899079510496239
3916.517,9.933385667188775,5.176732328681762
3917.4182,9.954256108002264,5.844537008567511
3918.3215,9.959070253271992,5.86166279947741
3919.223,9.953419205399465,6.166424551236156
3920.1245,9.945968045796455,5.805829942859479
3921.0286,9.942765716236154,6.118767344602061
3921.9307,9.945392028283935,5.786136883000488
3922.835,9.952979830187699,5.560025005156662
3923.7373,9.964773572435961,5.527440203322716
3924.642,9.980883602471387,5.902942076502331
3925.5452,10.001385173289162,5.6355042198231065
3926.448,10.026248117544515,5.796321098677968
3927.3535,10.055312784045437,5.811238498747745
3928.257,10.086949213810962,5.951508633607773
3929.1628,10.116831856965888,5.804999073355157
3930.0667,10.137146423389222,4.786233335955541
3930.9731,10.139727061397108,5.628173578729335
3931.8774,10.119958265072817,6.593308851295735
3932.782,10.079877531369487,5.072887529092129
3933.6887,10.027980784426482,6.437889646323376
3934.5938,9.976603119594998,6.048360472802381
3935.501,9.93583417388104,5.424702149861948
3936.4062,9.909171908146822,6.16910755042596
3937.3142,9.891335718002198,6.180952058389478
