wavl,flux,ivar
3566.9744,5.77337006702479,48.768231607844115
3567.795,5.7684414304943825,50.755789764796226
3568.6177,5.762126596418031,52.933135756260214
3569.4385,5.756056158080499,54.54695167405818
3570.2617,5.751516736901173,46.813955500482784
3571.083,5.7481984859430195,53.61273857428136
3571.9065,5.744406404458814,55.12572721919684
3572.7283,5.738781512649405,49.7240405857577
3573.55,5.731471796107364,52.76498863926889
3574.374,5.723815741455148,58.853531627879775
3575.1963,5.717141314353079,50.601147848642604
3576.0208,5.711828207611852,54.70348416993742
3576.8435,5.707612045098377,55.235226067127925
3577.6682,5.704074917125393,52.78025010914227
3578.4915,5.701083276611387,54.61950347186143
3579.3145,5.69873778373345,57.95567429352171
3580.14,5.697152285990314,54.09229327676312
3580.9636,5.696097589627578,53.209271517066384
3581.7893,5.694812555224936,54.21274807508845
3582.6133,5.692450455570455,52.02379703855033
3583.4395,5.688828394800167,53.26829999870978
3584.264,5.6847771360151205,54.73512331160309
3585.0884,5.681408580260047,52.491026864282155
3585.915,5.679057740095759,52.71150505934914
3586.74,5.676845301550568,54.747147273405886
3587.5671,5.673174355515472,49.16041469026893
3588.3923,5.66677616121005,55.52079997968203
3589.22,5.657281557283327,54.11519460526181
3590.0457,5.645384706669999,55.45151040374244
3590.8716,5.632270412425504,59.70458369412162
3591.6995,5.619171153559362,52.688915472942405
3592.526,5.606999050090582,51.08229715756962
3593.3542,5.595838621187078,56.152041947664024
3594.181,5.585150280786453,51.45033791100319
3595.0098,5.573990664248982,54.25420226164276
3595.8367,5.561811941070617,61.46686234709358
3596.6638,5.548695942922372,53.83035113500449
3597.4934,5.535698808064625,57.3185951233041
3598.3208,5.525013145624724,59.31363673379165
3599.1506,5.519013734380505,61.909914583501504
3599.9788,5.518736145563076,56.358509444103525
3600.8088,5.52223185391144,55.662842284555985
3601.6372,5.525149673121374,55.816282426490886
3602.4678,5.523493827347191,54.16024182964497
3603.2964,5.516282634961533,64.22715007433793
3604.1252,5.505878787249008,55.49877541777837
3604.9565,5.496112214940426,53.279658237758255
3605.786,5.490192043660705,54.68088252703597
3606.6172,5.489366534221297,61.550516838303786
3607.447,5.492827853523622,59.492989736734216
3608.2788,5.498064623950951,60.086872966533285
3609.109,5.5018644771093355,62.98540993740794
3609.9392,5.502012713479707,53.37866304188463
3610.7717,5.498517068141796,54.107113061643496
3611.6023,5.493515273926037,59.27739463735615
3612.435,5.48958809366329,58.780491166178145
3613.266,5.487934827281461,62.87353516853112
3614.0994,5.487438834873976,61.748185310561276
3614.9307,5.48534289637962,63.98063691600632
3615.7625,5.47895778914709,59.50731163249094
3616.5962,5.467419380891227,57.19238824271373
3617.4282,5.45247260356968,60.930653526101466
3618.2625,5.437301905525788,57.6921009384808
3619.0947,5.4248137581882405,56.43709253786314
3619.9292,5.415772056687444,59.608599009312655
3620.762,5.4088026431536855,62.99578574506047
3621.595,5.401334729584204,56.42961673630706
3622.4302,5.3913430695663775,58.648092492571585
3623.2634,5.37868821504418,62.63291282819784
3624.0989,5.365066750038379,60.27971731654413
3624.9326,5.3532371060936335,57.185435526174125
3625.7686,5.345346836623968,64.16274268528728
3626.6028,5.3420923092969,60.296101580519135
3627.437,5.342424657932338,62.25516397443684
3628.2734,5.344407266877851,60.629874142991056
3629.1082,5.346297199949649,63.6700377617713
3629.945,5.347163822304436,62.01253179405104
3630.78,5.346534056242073,58.303801096843145
3631.6174,5.343895696557497,55.2449120911529
3632.453,5.33895676910879,63.39716725146523
3633.2883,5.332336066758902,58.955655289375485
3634.1262,5.3256290133722235,61.61488391334049
3634.9622,5.320441581138142,63.152257501483156
3635.8005,5.317042062375575,64.85112423637938
3636.637,5.31424261117579,60.51404716700727
3637.4756,5.3102400985184905,55.64642183037038
3638.3123,5.303839181373107,59.65125556290668
3639.1492,5.294840437710769,61.946842876310804
3639.9885,5.283721370042113,67.69681960067173
3640.826,5.271171309818553,66.46140937882457
3641.6653,5.257525497782405,66.93156948846688
3642.5032,5.242977827700286,64.27054423445502
3643.343,5.227606961831562,63.522400151957584
3644.1812,5.211955102839495,67.51496929771005
3645.0195,5.196962529538781,65.86146066526787
3645.86,5.183886446653259,60.93436647027687
3646.699,5.173885535816108,62.37365998891805
3647.5398,5.167279308898182,61.73907941844555
3648.379,5.163469151444198,60.79409772633135
3649.2202,5.161010947424622,67.82972076741984
3650.0596,5.1581700594339805,66.00285724710183
3650.8994,5.153350072045775,61.36033260919801
3651.7412,5.145587161258226,64.31055286201982
3652.5813,5.135173592788178,66.79019558177983
3653.4236,5.1237465401409015,70.71557829191781
3654.2642,5.113785610051136,66.71736661710084
3655.1067,5.107094830685566,69.50281160275155
3655.9475,5.104068619463629,66.71424871636785
3656.7886,5.103819352799487,64.83017776528526
3657.6318,5.105142768900352,65.98494905722902
3658.4734,5.107109933495664,70.44577823113633
3659.317,5.109163528923611,68.26204652189442
3660.1587,5.110995968673608,62.45743876425045
3661.003,5.112631593911993,66.21129563699553
3661.845,5.114428018897017,67.75410905571259
3662.6875,5.116919510593915,64.03303903087252
3663.532,5.120498411445775,66.16233064729354
3664.3748,5.125133704846982,65.86940890415016
3665.2197,5.1301800689315025,62.470543314098
3666.063,5.134118739895805,64.12215514666318
3666.9084,5.134980117734239,69.95584427905807
3667.752,5.131413235567369,66.28619558797372
3668.5977,5.123848175901872,69.55677256141108
3669.4417,5.11455380190318,68.32414579462575
3670.286,5.106117384454658,63.395361494587064
3671.132,5.099818894811475,69.68833332950965
3671.9768,5.095079139852632,73.79373788771186
3672.8235,5.090159161187446,64.86620026985624
3673.6685,5.083577214607185,65.41169262697306
3674.5156,5.074848336047243,66.21489457330125
3675.3608,5.064561447377153,70.55151325127645
3676.2063,5.053585195919826,62.884789190147444
3677.0542,5.042454807023109,65.7900952440758
3677.9,5.031231177631994,77.28234574413491
3678.748,5.019610083504977,72.09310624819928
3679.5945,5.007783779384069,73.0572878763638
3680.4429,4.996548294735158,67.81483235902897
3681.2896,4.987145424660703,69.22393128766714
3682.1365,4.980334737692598,74.10052528790882
3682.9856,4.976068225368575,69.77635941846574
3683.8328,4.973714752252693,66.00960151743784
3684.6824,4.972474294100504,72.67670152186909
3685.53,4.971720310428698,71.09422270638706
3686.38,4.971067399974967,67.31796123826179
3687.2278,4.970471122733118,68.5043105840823
3688.0762,4.970215293352702,64.83752095716072
3688.9265,4.9707071765021675,63.243272951816756
3689.7751,4.9721196313222835,72.17554650543264
3690.626,4.974183632990134,68.7304727103099
3691.475,4.976301066543062,70.64303830405491
3692.3264,4.977986050684238,74.14186533783025
3693.1758,4.979067326656144,71.44339396056158
3694.0254,4.97945166019524,64.64032297314681
3694.8772,4.978687067126688,63.22763454327283
3695.7273,4.976119290345536,68.60458146555096
3696.5793,4.971609870146707,69.5059402583438
3697.43,4.96604680383048,67.94156821101967
3698.2825,4.960772362998321,76.43789209774717
3699.1333,4.95656563430993,70.64470170127268
3699.9841,4.952900096106514,69.88221355341514
3700.8374,4.9482843078085175,70.19413452935035
3701.6887,4.941330247361649,67.09694939413055
3702.5425,4.93171689225506,64.12158207148667
3703.3943,4.920672604560604,73.18742982562064
3704.2483,4.910036386134421,68.15633202814334
3705.1003,4.901144074513343,71.64905042427587
3705.9526,4.893922058677841,72.03478250806612
3706.8074,4.8874297197367085,71.34318471430913
3707.66,4.880927578731446,76.25940567492133
3708.515,4.874306423838883,70.93244711502612
3709.3682,4.867892518887363,71.685338154221
3710.2234,4.861678847737905,70.2809673111045
3711.0771,4.85531982409846,70.43395862003209
3711.9307,4.848624552483326,70.1317044022471
3712.7866,4.842155569996234,74.75931056200038
3713.6409,4.837056777963697,75.22896864504827
3714.4973,4.833944064346276,73.0027196313366
3715.3518,4.832216875905594,76.72206156089182
3716.2085,4.830340561101892,73.92399739460501
3717.0635,4.827158305150346,73.34857860190138
3717.9185,4.822931261333125,79.11008681366638
3718.776,4.819304140859608,76.41879996596606
3719.6313,4.818179004886288,68.84169446399305
3720.489,4.820117318949591,76.12407974276209
3721.345,4.823444166842767,71.21603652529049
3722.2031,4.824754064885135,75.18027342208461
3723.0593,4.82077988428363,74.7306079189947
3723.9158,4.810634308014135,82.21648425743241
3724.7747,4.796645161864067,71.27323212501946
3725.6316,4.783245902912377,80.18419761311124
3726.4905,4.774095481299785,72.76220287952873
3727.348,4.770198769192225,82.0111723991595
3728.2073,4.7696439982242484,85.24192347571785
3729.065,4.7694002683264785,69.3845956384376
3729.9229,4.767416324793349,74.4631080786993
3730.783,4.763552219101172,74.90864210138766
3731.6414,4.758875541892468,81.00068333881757
3732.5017,4.754097140885231,77.31403090612673
3733.3604,4.74884548929685,77.49708665671268
3734.2214,4.742082270500788,75.43998154501064
3735.0803,4.733346519095639,78.92789677976421
3735.9417,4.723275479113284,81.3219871963423
3736.8013,4.71350900957915,79.83258391076042
3737.661,4.705622264257965,73.41698299076654
3738.5227,4.700325868368796,77.69713193986684
3739.3828,4.6971986715465155,79.38471364805311
3740.245,4.695069638549774,77.7909030199714
3741.1055,4.692953064538471,72.39266837130273
3741.9683,4.6905925805161095,81.43110651764387
3742.829,4.6883471539551245,78.99187174914483
3743.69,4.686436802984406,81.19191920828241
3744.5532,4.684530897747796,77.40996789263092
3745.4148,4.6822683591468275,69.82367901956614
3746.2786,4.680226989369097,78.33573962051449
3747.1404,4.6801695575140725,76.4367865042788
3748.0044,4.683822981465211,85.63607096056981
3748.8667,4.691247688586335,79.929352716426
3749.729,4.700399297992559,75.86899175781488
3750.5938,4.7081854497364075,79.07756749663295
3751.4565,4.711973627705624,85.7226412262322
3752.3215,4.710729787048885,74.45929957066436
3753.1848,4.705092735874349,75.59626445672961
3754.0503,4.696833442868869,80.59441734820304
3754.9138,4.688044770661256,76.59532960620712
3755.7776,4.6801774815475286,78.95848879342715
3756.6438,4.673757077361332,79.51636621525891
3757.508,4.668563578744097,79.27262455567703
3758.3745,4.663822067782859,84.5444885301299
3759.239,4.658659099545081,82.51330932903682
3760.106,4.652494011528088,77.8091210850184
3760.971,4.645573148926308,74.54077522630749
3761.8362,4.638722549342819,82.27210297353483
3762.7036,4.632659790555785,84.93623602929209
3763.5693,4.627368131553275,77.04298126466128
3764.437,4.622015878364877,85.6245783630876
3765.3032,4.615630402045221,81.57698715134741
3766.1714,4.607657634632225,81.71706127972568
3767.0378,4.598508768801217,79.37903369287677
3767.9043,4.589506671136515,82.82551810027869
3768.7732,4.582399815575252,84.163794690007
3769.6401,4.578461534047139,82.29822995342366
3770.5095,4.577706570989873,86.25239723287443
3771.377,4.579151884997102,86.83587558112828
3772.2466,4.58152351418722,85.15056371620152
3773.1145,4.583797692805048,80.190765914708
3773.9824,4.585347728646134,81.96986815222614
3774.8528,4.585873748556113,79.86848400879809
3775.721,4.585401128713138,88.68566962927972
3776.5918,4.584278454338891,93.9928410687267
3777.4604,4.583110601440598,89.17874890164998
3778.3315,4.582617517137366,87.07667238552108
3779.201,4.58337976760194,79.59795124929606
3780.0703,4.585281533638423,85.60987501352038
3780.942,4.587037144104363,82.33792730877066
3781.8118,4.586555360798454,80.08116187079547
3782.6838,4.582459456628082,85.74452355904734
3783.554,4.575525067995305,81.09500227993927
3784.4265,4.568274668102746,80.29230747997562
3785.297,4.563037698853354,77.20277354714584
3786.168,4.560018568039804,76.91181178369995
3787.041,4.557464855805705,82.55308557036993
3787.912,4.553306059634881,86.33017896160453
3788.7856,4.546655351895868,78.26138329300424
3789.6572,4.53826799561967,85.0863237980588
3790.531,4.529652311592609,82.5524482473686
3791.403,4.522103720613867,81.40704856558493
3792.2754,4.51597985612303,85.10588753137787
3793.15,4.5110290243865405,83.08893826924947
3794.0225,4.5070202210125165,88.70009212532864
3794.8972,4.503857787638068,90.7062306714612
3795.7703,4.501351927725805,89.2297356516066
3796.6455,4.498991314066014,84.34309511060967
3797.519,4.496296506717557,83.9488149875628
3798.3926,4.493066459201175,89.76379901941861
3799.2686,4.489151994544996,91.58338347474897
3800.1426,4.484105800913075,86.38672104895817
3801.0188,4.477315188716733,86.24792629139847
3801.8933,4.468878172343933,87.64331733768601
3802.77,4.4598792122541795,92.012288902899
3803.6448,4.4518836729758595,90.53708031933098
3804.522,4.445673486983977,95.52896588589597
3805.3972,4.441012151958752,91.64862326616989
3806.2727,4.4372190452047615,86.53254026941642
3807.1504,4.434101767845813,88.31275991600074
3808.0261,4.432053527095165,85.45766125384162
3808.9043,4.431402188800038,87.5125654074405
3809.7805,4.431977223269304,81.79656336006934
3810.659,4.433223370189193,94.7449400248791
3811.5356,4.434645354550696,88.94219012744566
3812.4126,4.436119622501854,92.13568824107732
3813.2917,4.437851890926292,83.7781684981951
3814.169,4.440060655125062,86.36253642596263
3815.0483,4.442602949899811,85.4605077218188
3815.926,4.444674406912773,89.9382323963749
3816.806,4.444996412611542,90.54135277705872
3817.684,4.442392131534592,85.94615127819999
3818.5623,4.436469365208558,86.20015010002578
3819.4429,4.427761814551677,89.42178545795183
3820.3215,4.417425794031866,92.20102536504794
3821.2024,4.40658609451029,96.4779723175831
3822.0815,4.396364086617958,85.74829052356735
3822.963,4.387708067624852,89.41224197601365
3823.8423,4.381321541423326,86.32350021481587
3824.722,4.377054292940886,83.55093869177334
3825.604,4.373787979679935,90.26833630197572
3826.4841,4.36986482249274,100.98251739888468
3827.3665,4.363945285035985,92.61468278750334
3828.2468,4.355957036794076,99.21928217244138
3829.1296,4.347125027090053,92.79631743101571
3830.0105,4.339275812700487,98.57079142381258
3830.8916,4.333383172703324,95.15868657764453
3831.7751,4.328889812283656,93.44733886941718
3832.6565,4.32416251216339,86.28116028048895
3833.5403,4.317730509815065,88.93142883892072
3834.4224,4.309578574037392,93.85768696140563
3835.3064,4.301142534653982,94.10111676280316
3836.1887,4.29443943566593,93.50311994707994
3837.0713,4.290730403254637,88.30181670568956
3837.956,4.290096220432444,97.61298045143134
3838.839,4.29174513660693,93.50364290806442
3839.7244,4.294629343459546,94.13568248533198
3840.6077,4.2978608104700005,89.78764120578111
3841.4932,4.300919723324418,98.90768250150848
3842.377,4.303568437005528,90.65584133684479
3843.261,4.305771946187475,93.74533525117982
3844.1472,4.307579948246972,90.7774217575518
3845.0315,4.309118375794644,97.35885283550857
3845.9182,4.310617842807986,92.48475975670334
3846.803,4.31224830500563,96.19891392313166
3847.69,4.31388383605631,89.82526646061102
3848.5752,4.314876433077435,92.44765738396929
3849.4604,4.314241293123892,98.42023384051191
3850.3481,4.311233493951537,92.04223560324085
3851.234,4.306083731100768,90.40840637684904
3852.122,4.300092563334638,88.99731546860716
3853.0083,4.294997256494879,94.9094054060742
3853.8967,4.291735501834368,94.63364290786696
3854.7832,4.289941494140126,93.61223053516483
3855.6702,4.288369396993108,93.65799805775599
3856.559,4.2860241667619565,94.0775968085818
3857.4463,4.2828709786059935,98.86082287521869
3858.336,4.279515437741791,93.82864402679269
3859.2234,4.276426793867902,97.06826788776459
3860.1135,4.27344223330213,89.59053087051687
3861.0015,4.270158613059113,93.3945303928389
3861.8896,4.266368445151488,99.13706613897517
3862.7803,4.262110137652184,95.90740700532032
3863.6687,4.257443842859346,90.56492682928751
3864.5598,4.252397861542576,92.97180230516997
3865.4487,4.24739610005221,101.50187294417121
3866.34,4.243166705407259,87.21820003782946
3867.2297,4.240227380828976,101.81978405953987
3868.1213,4.238136536647468,99.23739888234222
3869.0112,4.235681617865658,92.77375788226797
3869.9014,4.231886162609176,104.42164364173466
3870.7937,4.227006175770284,97.3429690958841
3871.684,4.222445949448553,95.02923834123285
3872.577,4.21942662674489,100.47755136934457
3873.4678,4.217837243857826,98.18572021794138
3874.361,4.216157683837105,91.62408839975976
3875.2524,4.212724616824482,99.7241279579485
3876.1438,4.206994389352803,100.36985289405877
3877.0376,4.199747965686975,94.0908182143753
3877.9297,4.1923347336931,97.29282235694983
3878.8237,4.185699104855914,101.1604656781697
3879.716,4.180351701044126,98.39959453762557
3880.6108,4.176540201139546,99.50066583410646
3881.5037,4.174345134527925,96.72993308983445
3882.3965,4.173255141971157,103.63570664916958
3883.2917,4.172058679363585,97.64829341002799
3884.185,4.169312709330003,98.4786886775318
3885.0808,4.164116573070038,105.00712787907992
3885.9746,4.156642240879876,98.34674951766222
3886.8706,4.147778573832822,98.46104208577147
3887.765,4.138541221093734,102.81310282857814
3888.6592,4.12943393482101,100.19689539746248
3889.556,4.12064144006225,100.64079577491927
3890.4507,4.112670141758282,101.74930245297614
3891.348,4.106444898319165,108.30362967128575
3892.243,4.10294521191724,104.5909248498525
3893.1406,4.1022975939807536,102.41964737599234
3894.0361,4.103650559630283,108.80419135307925
3894.932,4.105772278397811,107.63995561418058
3895.83,4.107874539464569,104.33304200698666
3896.7263,4.109875968344744,105.51254594783646
3897.625,4.112152605446082,106.88282606351406
3898.5215,4.115049287899406,106.36934591670746
3899.4207,4.11863104722493,105.33956219785509
3900.3176,4.122486161686015,103.49976257369607
3901.2148,4.125868613289954,96.92100197809539
3902.1145,4.128085032525483,105.26663217895644
3903.0122,4.129081871436598,101.33487993745499
3903.912,4.129714155099469,99.5072943404882
3904.8103,4.13127834451318,104.53714984003942
3905.7107,4.134753390015004,103.5381977581027
3906.6094,4.140214686436675,95.98136727352471
3907.508,4.146852576019244,106.36236697626364
3908.409,4.153406883127117,102.49735945589978
3909.308,4.158756117167479,108.3414947401106
3910.2097,4.162491801047338,96.3242459431746
3911.1091,4.164847395263554,100.12566866960773
3912.011,4.1664123862003075,91.66709854895733
3912.9111,4.167680639221341,92.3202942082094
3913.8113,4.168874508164897,93.32507458991866
3914.7136,4.169862001712053,96.34807708274752
3915.6143,4.170152324927997,100.0380536988692
3916.517,4.169092638978941,97.57393808803207
3917.4182,4.166295643113275,88.44915809052404
3918.3215,4.161991705865324,99.52275028877229
3919.223,4.156999105939286,101.5619197571282
3920.1245,4.152179785627267,102.00765671487046
3921.0286,4.148074862916641,96.7013762705238
3921.9307,4.144917349249271,97.82186897031126
3922.835,4.142696059986397,103.4139961113809
3923.7373,4.141192267295911,102.55814578960344
3924.642,4.139876184555272,110.57943259515827
3925.5452,4.138125678365382,98.05451040324814
3926.448,4.135579240622192,103.90183787386582
3927.3535,4.1323065324727,103.72399117937579
3928.257,4.12860720182465,108.01300737524774
3929.1628,4.12458794432068,105.76435923571417
3930.0667,4.120198326033539,92.70720637538206
3930.9731,4.115442177571431,106.90833869837535
3931.8774,4.110579713325296,106.38935523044279
3932.782,4.1057541631484336,98.95175045485887
3933.6887,4.100787389709394,107.28141204672521
3934.5938,4.095428105431399,99.8814310920525
3935.501,4.089648073257119,103.15582331908033
3936.4062,4.083686605622199,102.28087897729725
3937.3142,4.077532548244998,105.52166566859395
3938.22,4.070893115776309,107.63870276133717
3939.128,4.063446966049618,102.11030933977484
3940.0342,4.0554271100011,102.20971808698665
3940.9407,4.047443685532449,103.2772052980892
3941.8494,4.04000382732934,109.576615201038
3942.756,4.033154204558745,105.72900434847425
3943.6653,4.026427196218919,96.30254916675167
