wavl,flux,ivar
3566.9744,0.3371943310422244,394.6131883934519
3567.795,0.33053929509432556,454.59221928695337
3568.6177,0.3236266091815427,310.6031939611918
3569.4385,0.31832162690184346,2366.8810436566882
3570.2617,0.3154799231987481,911.1440240787667
3571.083,0.31512691497528145,293.67395971963924
3571.9065,0.31651835629738245,320.71914873424817
3572.7283,0.3185877022953043,255.92047514018628
3573.55,0.3206055617410728,134.31289806788578
3574.374,0.3225471929060174,179.3436807393385
3575.1963,0.3247618102228892,331.18996998745524
3576.0208,0.32732253356388974,10131.725036546575
3576.8435,0.3297739707279594,385.30343803673065
3577.6682,0.33175940159057377,292.08061212341335
3578.4915,0.3336231619203794,105.22374665890413
3579.3145,0.33622074836759974,381.7900676818839
3580.14,0.33991069006085955,807.9852170480832
3580.9636,0.34376492425998156,244.59674018828366
3581.7893,0.34599840387185976,147.57127435233178
3582.6133,0.34515484938709395,113.97468522941446
3583.4395,0.3411776841782399,201.43699551007342
3584.264,0.3354842888441392,213.30732265859956
3585.0884,0.3300831130750886,105.97871826733034
3585.915,0.32655881654171093,370.47387541894585
3586.74,0.32548985147302,264.66448972175897
3587.5671,0.32645207931334874,192.9588355996946
3588.3923,0.3286179677091435,190.79705060184185
3589.22,0.33145116474487435,263.8410493454914
3590.0457,0.3349406425492811,145.42080117455177
3590.8716,0.3392817097541498,148.3304320138515
3591.6995,0.3441947273166157,95.17972108079395
3592.526,0.34862662496870306,109.3221234519071
3593.3542,0.3513440000050117,184.88530699651716
3594.181,0.3517809657584733,278.40415222171765
3595.0098,0.350483510636366,1460.2790542303112
3595.8367,0.3485490240114164,215.62820501840366
3596.6638,0.34667920014197207,654.2798106453187
3597.4934,0.34488784547795637,306.4850929394343
3598.3208,0.3430857067289248,280.0370757347298
3599.1506,0.3416190437111528,179.17627213492614
3599.9788,0.3410214138017094,1581.6538873363068
3600.8088,0.3411231861613463,197.92494389650273
3601.6372,0.3406767571452811,399.46537802135776
3602.4678,0.33796384450469197,337.2532230888726
3603.2964,0.3319635191057061,246.42548637422757
3604.1252,0.32311680700313256,130.64325324871714
3604.9565,0.3133075429115654,248.1722612740828
3605.786,0.30514731356563934,1022.0081508110524
3606.6172,0.30057896281523255,684.3826997711691
3607.447,0.30008731607482453,379.06795895692136
3608.2788,0.30261292671401335,349.05877916951226
3609.109,0.306464992522337,490.0378871533309
3609.9392,0.3103883300170244,445.58834867327755
3610.7717,0.3139569938393446,139.8482901294903
3611.6023,0.3172507554776739,263.4398181721986
3612.435,0.3204151175216605,328.8425541969269
3613.266,0.32324466467725876,373.5341369202664
3614.0994,0.3251074011559908,184.6660411420804
3614.9307,0.3251245436654985,212.9182071853682
3615.7625,0.32286559115682245,142.01319535671865
3616.5962,0.31891828071434236,216.4100060510748
3617.4282,0.3147700272866122,197.0909379341175
3618.2625,0.3118439234595514,858.0482408497136
3619.0947,0.3107843665529902,109.15224362241183
3619.9292,0.31142856788004797,281.5043533679316
3620.762,0.31338875784381065,317.13556581108656
3621.595,0.3164090864699666,125.63139033365002
3622.4302,0.32017315930258927,176.71013607118
3623.2634,0.3238342025872649,292.20953073616727
3624.0989,0.3260031273220359,134.90287999178838
3624.9326,0.3252343404215434,224.83009137729138
3625.7686,0.32090123740117055,90.86520944637492
3626.6028,0.313770783177459,784.480982805931
3627.437,0.3058266170231705,426.6290601021743
3628.2734,0.2994703732122226,1641.1817400666457
3629.1082,0.2963761147601746,21049.959555223802
3629.945,0.29641276122726146,138.25178808200593
3630.78,0.2976675515234546,326.56562763935284
3631.6174,0.29758087962625795,177.39331695656546
3632.453,0.29454525563571055,705.2657200339204
3633.2883,0.28877110402298606,212.80848081344723
3634.1262,0.28181383914455027,124.58085175413635
3634.9622,0.27542039181951766,228.38135870425558
3635.8005,0.2703720305922161,294.6280986363231
3636.637,0.26645180206886104,415.97935552604696
3637.4756,0.26299130476540117,235.55871888689686
3638.3123,0.25980535277901945,110.06561321370012
3639.1492,0.25747612118691393,451.1568260350899
3639.9885,0.25698162553443527,329.71761750758077
3640.826,0.25888811365397757,311.1100947194329
3641.6653,0.26281624029475037,278.90062069008655
3642.5032,0.2675042079935252,1883.8872605135691
3643.343,0.2714380482024552,237.64741146576213
3644.1812,0.2734833730133877,563.0017258919639
3645.0195,0.27339373748053375,262.4999706012708
3645.86,0.2717364334397899,376.33283205266196
3646.699,0.2694077726770568,163.52455620962544
3647.5398,0.2669163813879309,352.2421229632148
3648.379,0.26409977718147687,521.4882583227463
3649.2202,0.260494718817298,867.8007104674555
3650.0596,0.2562682038994892,1172.9394772296644
3650.8994,0.25262202432305986,393.7191248253366
3651.7412,0.25125540883559605,637.4922101315601
3652.5813,0.2531208371848351,262.6168442059315
3653.4236,0.25763870913615156,1006.2765576137513
3654.2642,0.26303353559932574,1154.0917873301923
3655.1067,0.26747531727083246,175.51824816669233
3655.9475,0.269826266784378,440.8574730178365
3656.7886,0.2698264192771059,1140.7328454681099
3657.6318,0.267746953582714,1504.3797487773609
3658.4734,0.26417131195264076,303.66126024636606
3659.317,0.25986436627781745,3323.7289789413608
3660.1587,0.2557860995226181,916.6227009336043
3661.003,0.2529045312533666,2212.8164446223996
3661.845,0.25200500281318367,478.76819149412455
3662.6875,0.253295436756321,262.6466306971249
3663.532,0.2562369047251956,376.74367118837586
3664.3748,0.25963446657799294,222.82218433107997
3665.2197,0.26219032754935806,309.59571006869726
3666.063,0.26312445870996765,143.39469025899854
3666.9084,0.2626714162370878,229.09398074478977
3667.752,0.2619311941368262,348.017066412509
3668.5977,0.262097217776683,2018.437033053237
3669.4417,0.2635498609615016,207.386636044333
3670.286,0.26557311424646823,4285.151337352568
3671.132,0.2669610923436776,271.06599955795923
3671.9768,0.26695827682645673,201.06120376206704
3672.8235,0.26579737312980334,375.09190610174136
3673.6685,0.26451521264036326,208.22237000341696
3674.5156,0.2643244227131111,410.3291609067051
3675.3608,0.26594783442843484,622.0890373060474
3676.2063,0.2691628582048452,406.33928930333997
3677.0542,0.27287828903346695,88.32085353319864
3677.9,0.27574619288750324,287.57164639376776
3678.748,0.2770566536612134,144.20804725613198
3679.5945,0.27700417365996766,122.48015630432042
3680.4429,0.2763090158215847,269.0187769857582
3681.2896,0.27554891513847446,230.7871985060608
3682.1365,0.27486975799641084,709.3012274300083
3682.9856,0.27420339106918135,173.3998902799725
3683.8328,0.273576928134171,118.61155476564757
3684.6824,0.2731103571621398,223.74991443691522
3685.53,0.272789521335675,1112.141945415866
3686.38,0.2723235446848248,345.841802008121
3687.2278,0.2713313668570583,314.3299405983239
3688.0762,0.269654823785749,315.61566744260784
3688.9265,0.26752055836795907,233.42038372569527
3689.7751,0.2654453342868507,235.99894847952427
3690.626,0.2639375517844323,250.42559672902766
3691.475,0.26327036308443413,439.3431776832801
3692.3264,0.26331165238680554,861.7323305141381
3693.1758,0.2635844982056192,299.44250948101944
3694.0254,0.26350814441941706,386.2920401810155
3694.8772,0.26269688376339667,349.1365764184794
3695.7273,0.2611409905882448,352.6842460545861
3696.5793,0.25914795689653586,227.33766443967818
3697.43,0.25715423495188106,322.3826263671291
3698.2825,0.2554468406298946,600.2439929188673
3699.1333,0.25405085827956875,312.35562209043593
3699.9841,0.2527639614084013,234.96221257420999
3700.8374,0.25139598927081047,350.80035794625627
3701.6887,0.2499721367990694,345.4268401906354
3702.5425,0.24852117943667235,513.7450919655224
3703.3943,0.2462034138096042,796.3164373023767
3704.2483,0.23948517191877225,295.664557587561
3705.1003,0.21993483684790738,10832.083149390823
3705.9526,0.17329087477095742,271.46672601495163
3706.8074,0.08393119739429107,255.29933681844182
3707.66,-0.05093105705569967,584.2544211919537
3708.515,-0.2079416320698239,170.71422100630073
3709.3682,-0.3345381967333742,514.4470793323637
3710.2234,-0.3767964446637823,0.050937423874639204
3711.0771,-0.3140538083400042,335.48867129471387
3711.9307,-0.17504044099066743,281.7975715783462
3712.7866,-0.015692065668035965,530.1898154315745
3713.6409,0.11520747325471287,202.45375284612166
3714.4973,0.1993994663698631,294.47841834375805
3715.3518,0.24265564160819858,202.73501070899917
3716.2085,0.26074817489483315,319.1067931117746
3717.0635,0.2668360620447035,8766.920489182457
3717.9185,0.26847837094861493,272.01930292400976
3718.776,0.2686835331741036,403.31942367049567
3719.6313,0.26815795603445414,338.35528100025795
3720.489,0.26687536623650804,179.52493201451148
3721.345,0.2648517404513061,291.7621875404571
3722.2031,0.2623265394471004,341.91971834271544
3723.0593,0.259712483593111,336.2801317059354
3723.9158,0.2573654523515311,1644.8508217469678
3724.7747,0.25543871291195647,373.62460262024604
3725.6316,0.2538552436648594,680.995498370288
3726.4905,0.25239785873731907,455.0225427807619
3727.348,0.25095688429932805,494.0823518157447
3728.2073,0.2496837097876449,361.97309870638475
3729.065,0.24902946007327462,322.8776553499402
3729.9229,0.24951025907902252,319.3779451258406
3730.783,0.2513273554695435,2327.2017598049247
3731.6414,0.25401219415639237,493.88496025192626
3732.5017,0.2565524331882275,664.9653690173742
3733.3604,0.257964500424741,606.4703172516693
3734.2214,0.25797692646416953,318.6512061028311
3735.0803,0.257067994303287,272.6100204313317
3735.9417,0.2558881492161764,305.74075394493065
3736.8013,0.2546990886488118,262.047883408189
3737.661,0.25337380877382004,883.5352376041217
3738.5227,0.2518697298987772,260.5645145672859
3739.3828,0.2505619233526317,373.4821729079479
3740.245,0.2500401962814801,633.6089551463418
3741.1055,0.2506123223825745,672.7236478708317
3741.9683,0.2519134170899768,365.38008083125555
3742.829,0.2530287990882394,561.5407150092419
3743.69,0.253157921580723,465.3633906911855
3744.5532,0.25225123694001966,212.4292115098258
3745.4148,0.25106855564412645,391.6186169439096
3746.2786,0.2505160914563187,303.6607550204068
3747.1404,0.25092136513739216,386.01055618805646
3748.0044,0.2518394218875729,443.7747470812236
3748.8667,0.2524600076703682,172.73172816588607
3749.729,0.2522244916363098,306.84620721032405
3750.5938,0.2512060189136889,175.84874397105014
3751.4565,0.2500388283196859,393.8023849806372
3752.3215,0.2493121249707874,301.1135827143595
3753.1848,0.24894306243005276,915.6426375978435
3754.0503,0.24816418016606095,352.84956727667736
3754.9138,0.246342151164125,226.20936507319323
3755.7776,0.24380616403691424,693.5967096817594
3756.6438,0.2418063084805345,8700.174300808769
3757.508,0.24158843699477042,200.08332123959727
3758.3745,0.2434237858647172,329.63249117912363
3759.239,0.24648094514799554,350.321258205238
3760.106,0.24949904577312532,257.14144477365954
3760.971,0.25152245587752503,566.6855020420453
3761.8362,0.25233920180672154,604.2072393951094
3762.7036,0.25235337097821064,232.43958655471658
3763.5693,0.2522621725524917,1132.156629028385
3764.437,0.25270661914238113,502.99702104237696
3765.3032,0.2539685453024937,349.1214269656357
3766.1714,0.255776840443948,423.016353909239
3767.0378,0.25732772149016797,150.3176146432663
3767.9043,0.257658479346419,259.7344516551028
3768.7732,0.25608264351356025,244.9707499079905
3769.6401,0.25249353634198085,1083.855223000279
3770.5095,0.24735755392892578,521.10240601902
3771.377,0.24166941021928176,240.99245272413629
3772.2466,0.23663083307827643,663.0871219022532
3773.1145,0.23336975565006085,830.9155768371924
3773.9824,0.2324714117958346,286.7016346662698
3774.8528,0.23386415785657264,463.3558765700078
3775.721,0.2368772689060133,5789.853325694158
3776.5918,0.2404862372414448,424.52717426556615
3777.4604,0.24353745899661475,643.6000637397743
3778.3315,0.24518650832944258,277.59223400254626
3779.201,0.2451665146818979,967.5656296967207
3780.0703,0.2438468091650119,241.21869544461373
3780.942,0.2418945685333853,205.68784774688734
3781.8118,0.23995214114571117,395.07909802504497
3782.6838,0.23848695538338005,280.7443111530155
3783.554,0.23787316999327868,836.3820549440577
3784.4265,0.23836606496112683,335.31280726691614
3785.297,0.23997125271227118,1179.231135781375
3786.168,0.24230543200867377,782.7653477728622
3787.041,0.24465830922971246,353.71282888713563
3787.912,0.24630753729286364,349.79336027525
3788.7856,0.24696943584911987,530.3849485871292
3789.6572,0.24690545836280628,704.214081690325
3790.531,0.24665742851874137,1508.0298946613077
3791.403,0.24661253998849136,322.97003805009416
3792.2754,0.24679912995998082,614.9923937016978
3793.15,0.24700257359916325,567.8077680811455
3794.0225,0.24699932146407405,213.32335663237623
3794.8972,0.24672564067244787,237.37366685992342
3795.7703,0.2463130048606761,593.9076359441775
3796.6455,0.2460135432165721,447.3915305282535
3797.519,0.24610548226029302,525.6871591029965
3798.3926,0.2468346226828151,524.4735439606798
3799.2686,0.24837619679753056,337.89859061946254
3800.1426,0.2506607310882217,282.08553180465515
3801.0188,0.25321721322881624,612.6014802283573
3801.8933,0.2552319573211738,877.5061891026332
3802.77,0.25605667190425846,392.67565649678914
3803.6448,0.25557027124457354,426.51708385649977
3804.522,0.25401706269776864,412.04878273791144
3805.3972,0.25151398576152456,238.4442479387841
3806.2727,0.24790675854911687,375.29815610257907
3807.1504,0.2431905502792864,271.12938869027295
3808.0261,0.23792700480225584,1106.7880373756625
3808.9043,0.23299242213195182,485.36601641652027
3809.7805,0.22916481220042847,337.888897011892
3810.659,0.226745283722552,443.2023985809623
3811.5356,0.22577100913746034,240.51573704868002
3812.4126,0.2262373413619919,555.4781367579346
3813.2917,0.2281131727572831,7656.694550134134
3814.169,0.23101027415165437,339.5680342084259
3815.0483,0.2340409642173968,575.0554619976007
3815.926,0.23605686934762493,268.26249391169165
3816.806,0.23631178872853262,436.0756081407241
3817.684,0.2349155207176549,354.2894994339866
3818.5623,0.23278461431016345,604.234062018335
3819.4429,0.23102037557046756,25613.345961365325
3820.3215,0.2302284804791773,335.3135761919557
3821.2024,0.23026895211008772,394.09578702964836
3822.0815,0.2306297804249261,945.7643932508215
3822.963,0.2308974393404865,358.0508264999625
3823.8423,0.23091737284307245,602.7107825386744
3824.722,0.2306882948625013,489.9467496759816
3825.604,0.2302302345744951,458.46295259527557
3826.4841,0.2295461759161595,582.1618990445878
3827.3665,0.2286337565083206,411.5424434587911
3828.2468,0.2275856006905131,606.5375506580549
3829.1296,0.22667751729243088,476.6245716465641
3830.0105,0.22636396831184252,429.33034570477264
3830.8916,0.227043436006026,492.08231931182996
3831.7751,0.22879865870091026,649.759721471416
3832.6565,0.23126751975351428,515.9664547601121
3833.5403,0.2338433855307956,306.34640133914445
3834.4224,0.2359228832707224,326.7319167335494
3835.3064,0.23713045903451466,458.92669713904445
3836.1887,0.2372864687458583,633.1299850412378
3837.0713,0.23639870609503336,380.52100835305475
3837.956,0.2347015468714829,292.7127770556002
3838.839,0.23269045246578465,993.8620452584371
3839.7244,0.2308973963870108,656.1806828815386
3840.6077,0.2296161542267019,1039.8236917330742
3841.4932,0.22876174470277091,331.23149145804365
3842.377,0.22808411305616108,522.9661446168992
3843.261,0.22742880620665382,366.99767465452226
3844.1472,0.2268821165700591,418.9021593369858
3845.0315,0.22674452301712605,647.4730305439591
3845.9182,0.22737151714708984,747.0299200520195
3846.803,0.2289298871427563,1169.8326033906703
3847.69,0.23121919215641773,477.2976130107187
3848.5752,0.2336954437513046,4264.219556913335
3849.4604,0.23577233423446736,323.52356776371323
3850.3481,0.2370324807971733,213.39202148508332
3851.234,0.23722795703122862,507.58717858432556
3852.122,0.23621046387675187,653.0148453530826
3853.0083,0.23399234141566638,262.3347087220912
3853.8967,0.23094871426893662,142.5656793154686
3854.7832,0.22793912531605331,826.4973078982036
3855.6702,0.22596624211877825,419.6333992773056
3856.559,0.22567657089157947,278.55809232302795
3857.4463,0.22699912236798253,421.8208272063833
3858.336,0.2292557194504491,310.0675521898433
3859.2234,0.23158003628975746,376.5236749142044
3860.1135,0.2333780823516901,222.80533369288327
3861.0015,0.23443448810757148,821.1614329603642
3861.8896,0.23485970731463435,258.0293933937324
3862.7803,0.23493348494015595,391.5183530135624
3863.6687,0.23501238866364754,474.62811784946496
3864.5598,0.2353668609686527,663.4386750067831
3865.4487,0.23591312104452622,313.2254589696286
3866.34,0.23608961412010632,382.8857229116711
3867.2297,0.2351428160625317,1442.0733578534744
3868.1213,0.23276817570508573,352.46966232473676
3869.0112,0.22960923453321674,270.2403297422741
3869.9014,0.22703493338957645,636.70318062365
3870.7937,0.226328152122094,415.7911245252518
3871.684,0.22784018558706357,418.46277729581294
3872.577,0.2307810436313451,412.7661059272725
3873.4678,0.233708719858471,495.4292585961424
3874.361,0.2353455185361609,279.0693976008585
3875.2524,0.23506868554019011,766.7863100753261
3876.1438,0.2330494217831564,280.96232849214806
3877.0376,0.23000186132213685,1397.1225639002955
3877.9297,0.22686478050959513,526.9509717751382
3878.8237,0.2243968881677479,1739.3079988581362
3879.716,0.2229808651073047,538.1644515782681
3880.6108,0.22254503272289788,261.88113168785077
3881.5037,0.22272658430275524,338.3494061678016
3882.3965,0.2230571384198745,1086.087166239733
3883.2917,0.22314975612539875,462.50633369389465
3884.185,0.22286365810923137,693.8236085216588
3885.0808,0.2223815387947058,434.8643940708851
3885.9746,0.2220541020563957,662.3508900079605
3886.8706,0.2220543270490322,423.9439931083789
3887.765,0.22218485744193905,468.4363397318663
3888.6592,0.2220564336847425,571.1343414495371
3889.556,0.22148105000499355,455.57553120175464
3890.4507,0.22068860033870666,383.95754914047666
3891.348,0.2201327887016835,686.3572524607057
3892.243,0.22011718498858848,573.8122558604265
3893.1406,0.22057700242808123,381.3468513386238
3894.0361,0.22120639707018513,919.3546790057177
3894.932,0.22178209532735563,424.6796105331879
3895.83,0.22240257390024779,520.1131164267014
3896.7263,0.22344489655471916,526.6963643755203
3897.625,0.22525183586068043,1951.5296331495772
3898.5215,0.22777803828430848,308.22638600936574
3899.4207,0.23063291148942955,437.31219640767915
3900.3176,0.23331937589145452,568.364998908701
3901.2148,0.23548861283681,329.8494237994481
3902.1145,0.23690038817076972,239.8896907947778
3903.0122,0.2374314878284886,616.4277980784916
3903.912,0.23722651757193663,481.51781375878335
3904.8103,0.2366734940643699,252.71500162356404
3905.7107,0.23608499081923223,259.8405230680097
3906.6094,0.2353636100181172,422.14544015436275
3907.508,0.23404463211134285,542.1468095978678
3908.409,0.23175820787395982,347.3010114945098
3909.308,0.22871597673693503,1157.9302903549053
3910.2097,0.2257184022375973,1013.992733361239
3911.1091,0.22379157207105835,613.6518983629642
3912.011,0.22359737778328692,600.8662286495451
3912.9111,0.22514942302322108,1507.0487171901182
3913.8113,0.22785024813684177,487.12093285522116
3914.7136,0.23085051854193686,430.3313169391162
3915.6143,0.23340149023936704,268.331136611999
3916.517,0.2350597764711365,359.36125844485406
3917.4182,0.23558048229605322,330.1675297446717
3918.3215,0.23490561255356396,683.0322977281496
3919.223,0.2332699961674962,226.08497993319418
3920.1245,0.231241586466954,331.5330311386153
3921.0286,0.22949455679182806,352.27682664806207
3921.9307,0.22848188857018714,1109.698772443187
3922.835,0.22826263447159162,612.3602073274627
3923.7373,0.22861029396876142,411.0839249368755
3924.642,0.22912738479012773,233.2713909064044
3925.5452,0.229323903929882,350.66701555933685
3926.448,0.22881024482099402,560.9858263696237
3927.3535,0.2275891726704221,322.210205083959
3928.257,0.2262061539768814,918.096066748672
