wavl,flux,ivar
3566.9744,0.3674894891116945,48.422379391293326
3567.795,0.36569240934541186,2997.3729785254473
3568.6177,0.3637680519567345,39.783102049378634
3569.4385,0.3623058012917648,85.5952014342051
3570.2617,0.361638737554442,374.75141817411395
3571.083,0.3616627920834741,66.78995388130302
3571.9065,0.36181863883058063,124.96522368811475
3572.7283,0.36141830347482673,102.59302406312413
3573.55,0.36018847993513614,154.73291794458493
3574.374,0.3585511956306737,62.27055290936611
3575.1963,0.3573326173121679,223.57355957022904
3576.0208,0.3571274282798357,93.34137702728842
3576.8435,0.35803315251578516,95.94840836399297
3577.6682,0.35988422574730683,109.82901087343822
3578.4915,0.36255690164148696,98.98518806081273
3579.3145,0.3659066048695588,61.10277668157249
3580.14,0.36937182477752234,158.51103153586064
3580.9636,0.3717809887396768,129.99769484255108
3581.7893,0.37188005526578505,78.71883867366085
3582.6133,0.3691209927861152,106.045817391654
3583.4395,0.3640995368075388,82.3812937368649
3584.264,0.3582519572498869,184.0669745103886
3585.0884,0.35295846667454717,158.63922056445605
3585.915,0.3489615581937584,136.9325103685624
3586.74,0.3463260212025763,71.84315563820424
3587.5671,0.34462355650328624,118.14984934836468
3588.3923,0.34326770927100775,55.08738306993615
3589.22,0.34184076861916357,127.6926750810801
3590.0457,0.34061163336757366,63.17693376709094
3590.8716,0.34064968328041173,163.401255694298
3591.6995,0.3431818099651556,106.46946970918984
3592.526,0.3484856351723991,41.89072609707228
3593.3542,0.35549872433460655,39.055953258377954
3594.181,0.36241235162082813,245.18178214191857
3595.0098,0.36791089177006675,98.11916992120285
3595.8367,0.37162337803910694,102.4119149631823
3596.6638,0.3738818075700109,61.75895864116732
3597.4934,0.37497123784428105,148.00085509644893
3598.3208,0.37487033438986656,93.61584901308976
3599.1506,0.37357859656286213,64.24252141120127
3599.9788,0.37148463077810384,33.19678062727684
3600.8088,0.36928402849177233,50.800833022466826
3601.6372,0.3676085838449664,32.18933542325344
3602.4678,0.3666553676134695,68.8311023612304
3603.2964,0.3661859752914552,62.905085969047
3604.1252,0.3657721478763871,56.45379305583705
3604.9565,0.36517032796853705,139.91675101284088
3605.786,0.3645130302414169,170.4690755516327
3606.6172,0.36415047451610216,44.783985542527326
3607.447,0.36431087260287004,63.666977882097235
3608.2788,0.36483731325420055,77.76587372145487
3609.109,0.3651970795091045,46.76465143416802
3609.9392,0.3647521506408206,73.49254730979284
3610.7717,0.3630900819102783,46.27636334347628
3611.6023,0.36022940062178216,107.23458566530707
3612.435,0.35652291905517064,95.80252801883057
3613.266,0.352553530130928,134.32904579386192
3614.0994,0.34896525499787634,225.52083346834405
3614.9307,0.34639935409423644,418.2814601370469
3615.7625,0.3452053966672858,74.81105560103896
3616.5962,0.3453335856479255,98.26410805061124
3617.4282,0.3464145966015574,80.68474163293261
3618.2625,0.3480073705015268,127.9382523299582
3619.0947,0.3497302043165257,116.06640274086689
3619.9292,0.35130082553617437,73.77801028477904
3620.762,0.3525069133483961,84.48838397818774
3621.595,0.35327644835333943,76.75307250413199
3622.4302,0.35366598743703753,63.537681334600855
3623.2634,0.35376939960772846,613.9030685977128
3624.0989,0.3536362459315253,71.43971366574344
3624.9326,0.3533186120519506,50.71616339368134
3625.7686,0.3529953675291823,77.5954942813005
3626.6028,0.3529879536694313,106.32974565823656
3627.437,0.35360269028559466,73.70394347391093
3628.2734,0.3549606865065464,194.59541721048092
3629.1082,0.35687987677136174,52.59710404568283
3629.945,0.3588643471118413,40.922913111176214
3630.78,0.36013923687542726,148.05913068986882
3631.6174,0.3599361410649535,102.68963446842872
3632.453,0.35785804664158455,43.31791811364741
3633.2883,0.35410044662797857,214.43502489640622
3634.1262,0.3492680672270739,128.73411934998435
3634.9622,0.3440564479160942,52.81572840671548
3635.8005,0.33893598259373825,79.7996384982847
3636.637,0.3343084625518432,125.93046125323548
3637.4756,0.33050055924401717,183.19022780973796
3638.3123,0.32773985529127353,88.08873433546542
3639.1492,0.32582483211914015,73.54913118326974
3639.9885,0.3240831513647086,117.77329047279221
3640.826,0.32172753408572313,50.12248052762172
3641.6653,0.3184378998823414,139.68464467530225
3642.5032,0.31476713197940615,126.77766288233819
3643.343,0.31181149582195444,99.89007259976745
3644.1812,0.31053840274234884,144.536692353765
3645.0195,0.31117512026447397,95.15648605351313
3645.86,0.31321765376464294,60.60068372435158
3646.699,0.31577418851259575,121.70381596810364
3647.5398,0.31803495653681063,108.05689850206139
3648.379,0.3195169469052333,72.8325438832183
3649.2202,0.3201467269088837,77.03765378683963
3650.0596,0.3200474390104431,65.8463847480621
3650.8994,0.31928682994694974,79.56310252191105
3651.7412,0.3177938429751416,122.99246988710087
3652.5813,0.3155601754711701,110.55277122312108
3653.4236,0.3127830378187324,569.4582408180888
3654.2642,0.30982931526003266,146.7996637317021
3655.1067,0.30700548572187025,85.16321789472316
3655.9475,0.3045708880009207,72.41106893243523
3656.7886,0.3027893085279202,14852.918571190741
3657.6318,0.3019796227629005,40.925063579031956
3658.4734,0.30238704574596625,149.3237054782454
3659.317,0.3039760999593883,114.92340699860857
3660.1587,0.3063131530511677,197.47009456228875
3661.003,0.3087364216225494,98.68965785836286
3661.845,0.3106862196800188,119.8017046216935
3662.6875,0.3119980481168468,214.8580294225292
3663.532,0.3126887454988011,34.959864527893735
3664.3748,0.31255170699060764,47.28535975753309
3665.2197,0.31110006510944604,73.76971122037823
3666.063,0.30806922091996974,84.78239339938088
3666.9084,0.30391962915219717,363.40686138490423
3667.752,0.2997971704364446,337.75967298503105
3668.5977,0.29676013195086576,141.37108868501898
3669.4417,0.29522358361234124,395.80504077107565
3670.286,0.29491457080509514,57.90946374147386
3671.132,0.29540026431451205,71.50470914092936
3671.9768,0.2964655527483409,138.23804959211725
3672.8235,0.29806857782795176,100.59631547636553
3673.6685,0.3000285415965697,102.03183676343578
3674.5156,0.301951521810473,121.16899347231852
3675.3608,0.3034443512443323,223.71769004905127
3676.2063,0.3044660108919889,149.33463828898272
3677.0542,0.3053114925162742,118.42145261826526
3677.9,0.3062171519713769,104.83586235699121
3678.748,0.30697919633697324,61.672481251411874
3679.5945,0.3070334400327626,109.28159807148025
3680.4429,0.3060132914129288,96.97489621391607
3681.2896,0.3040589605678918,86.37032296240741
3682.1365,0.3013989685067324,76.78433565572116
3682.9856,0.2977656439311989,90.26206077829137
3683.8328,0.29264308140587614,158.18304622710912
3684.6824,0.2862003418998703,133.94103544977477
3685.53,0.27996746125484273,463.3369424452789
3686.38,0.2759139544262028,376.25851395496346
3687.2278,0.27502737427572793,91.4189422273844
3688.0762,0.27653923161479715,134.65072820108546
3688.9265,0.278709152346691,205.63338345096219
3689.7751,0.28007982631075784,82.14353281585208
3690.626,0.2801951233618254,132.917066063279
3691.475,0.2794047479000895,144.61809928855507
3692.3264,0.2783720219861703,122.15119014011981
3693.1758,0.27777791562275933,114.2425817561852
3694.0254,0.27822876380304634,80.10480060628407
3694.8772,0.28018099999295365,283.80171419403507
3695.7273,0.28370388882237707,111.92574274300556
3696.5793,0.28836451578005184,131.9946616601193
3697.43,0.2932729973461582,59.94172286059846
3698.2825,0.29744134187561677,57.92958806012129
3699.1333,0.3000014050517419,72.88421290101655
3699.9841,0.3004885141135591,141.16847494939395
3700.8374,0.2989919752038023,96.4671954235246
3701.6887,0.29627385841033266,91.00662159833385
3702.5425,0.29351362295624334,99.30465739717347
3703.3943,0.2917840855454462,100.92373956751265
3704.2483,0.29142988944262527,162.99071740248542
3705.1003,0.2919795714094809,76.25525114824816
3705.9526,0.2926133126397413,160.95409506194784
3706.8074,0.2928513010699176,112.20882922853754
3707.66,0.29283215448861083,82.36840911366195
3708.515,0.2929739954605355,63.344980792695765
3709.3682,0.2933829204064351,168.62653222937945
3710.2234,0.2936020646140737,164.11854844672797
3711.0771,0.2929020397165756,68.88097238820762
3711.9307,0.2908498016873306,157.98295293672356
3712.7866,0.2876692945301718,69.1220499456903
3713.6409,0.28420821961800424,89.8798753995974
3714.4973,0.28143587829137423,195.3808177994569
3715.3518,0.27997684818715957,93.60201890858772
3716.2085,0.27978510177223676,134.2895365989578
3717.0635,0.28026658759797873,124.81463221195308
3717.9185,0.2806257515129522,67.62321527259199
3718.776,0.2802145108057069,156.61095096711483
3719.6313,0.2786740685922328,100.00111239976331
3720.489,0.275925845107073,107.32160248488634
3721.345,0.2722655576061907,78.54183761062205
3722.2031,0.26839266812461743,846.9470394871706
3723.0593,0.265310016799722,157.04024997201438
3723.9158,0.26385822315693686,71.24482177874583
3724.7747,0.2644438209769255,238.98202706934822
3725.6316,0.26699904727166235,173.87516391522638
3726.4905,0.27113690308467986,293.5029914624555
3727.348,0.2762012564902013,329.0990113354593
3728.2073,0.2814053317855,113.48019098721161
3729.065,0.2859653872498274,68.68780573765257
3729.9229,0.2894343220251401,313.35316922354343
3730.783,0.29172866231139577,213.69896609353322
3731.6414,0.2929614105955667,117.91892140516478
3732.5017,0.2932977809556314,131.78600730834034
3733.3604,0.29292262084731485,108.87896234209282
3734.2214,0.29212371563952594,152.92642750015168
3735.0803,0.29127748272026144,102.3802728795628
3735.9417,0.29069695768795306,108.10813022857035
3736.8013,0.2905308597259947,90.40723770352596
3737.661,0.2907779565339674,77.58990483096098
3738.5227,0.2914188100196647,127.27908210442784
3739.3828,0.29247311146209776,119.43970779617166
3740.245,0.29392897422259445,99.26155632422991
3741.1055,0.2955702712941872,77.1020386183942
3741.9683,0.29695398387721206,75.37844607181657
3742.829,0.2975357900965356,87.87609111650421
3743.69,0.296979106043225,94.02727739558291
3744.5532,0.29536050133881864,133.21397189308277
3745.4148,0.29319302787995705,119.81973791279964
3746.2786,0.291129539245461,115.50382246858294
3747.1404,0.28961857750401676,299.3216543778893
3748.0044,0.288679991145095,96.66688518837755
3748.8667,0.2880836948441406,158.68202297086776
3749.729,0.28760986526471743,91.7236260683182
3750.5938,0.2870930147068366,92.76549765122049
3751.4565,0.2861797599565582,130.3468788746739
3752.3215,0.2842221587308171,192.58954398552362
3753.1848,0.2807393895140139,56.57788889508221
3754.0503,0.27605236990338133,2977.620845175398
3754.9138,0.2714797492431708,99.33631064781649
3755.7776,0.2685541588524174,911.9325412739029
3756.6438,0.2681352922565224,102.73407737968571
3757.508,0.2700403959154898,670.5695617776526
3758.3745,0.27340353411516105,168.99417180943635
3759.239,0.27720338997999894,115.54084192245311
3760.106,0.28058667287438793,106.35424390127532
3760.971,0.2827823571916202,393.1074111467565
3761.8362,0.2832079661878656,76.67824285834354
3762.7036,0.28175734930854385,93.86099603485587
3763.5693,0.27914940769674823,185.07095460509208
3764.437,0.27667036971536885,184.57402242642118
3765.3032,0.2753611122761154,93.72924512320503
3766.1714,0.27519120129043934,193.99733246150413
3767.0378,0.27506296373112904,140.29403218705338
3767.9043,0.2736033666689231,103.60833113027822
3768.7732,0.2701021054501992,152.54800926308053
3769.6401,0.26497607308434673,208.8681388741945
3770.5095,0.2594857873646792,109.90707051996867
3771.377,0.2552861499686213,141.45001809661693
3772.2466,0.25370771468462583,90.26255705153753
3773.1145,0.25519162103623766,281.3251192417825
3773.9824,0.25896433374931743,300.73807173140284
3774.8528,0.2636500401902686,64.45408412420085
3775.721,0.2684224871468547,90.84472560630796
3776.5918,0.27371135247348904,13206.554039070466
3777.4604,0.280153595935805,559.6886455184838
3778.3315,0.28707033604842075,173.36280052380482
3779.201,0.29203617924577047,100.6431750633358
3780.0703,0.29279989970739145,239.8480660622957
3780.942,0.28936458783266394,294.13915447369345
3781.8118,0.2842350374026219,128.1213864752014
3782.6838,0.28043440657282087,70.80234828168705
3783.554,0.27950112225823615,85.88116602489141
3784.4265,0.28089431149116,119.5823649340354
3785.297,0.2828845087362415,94.62421097050384
3786.168,0.28380199385174076,64.49555110334971
3787.041,0.2828937688300209,112.70726260144487
3787.912,0.2805853867197528,240.88513322130675
3788.7856,0.27802511966045534,126.119895522175
3789.6572,0.27625557640249554,734.9022773954763
3790.531,0.27550196303343794,105.73176164290454
3791.403,0.2752536138046041,104.45605302460555
3792.2754,0.27490401293126804,125.06954118212346
3793.15,0.2743360314761041,139.28228985435442
3794.0225,0.2738830273291155,216.5022839575987
3794.8972,0.27381458000715275,110.98892144946349
3795.7703,0.27399600647512384,127.76373858539182
3796.6455,0.27403501723524476,106.52475789403773
3797.519,0.2736620898056296,226.25741596188644
3798.3926,0.2729162793478048,127.24857449438902
3799.2686,0.2720393258748042,252.56580026422697
3800.1426,0.2712692472345762,185.87193600165085
3801.0188,0.27063691967958625,135.85358101629313
3801.8933,0.2699130451099778,178.87836533689753
3802.77,0.2687462355421487,128.16266641494659
3803.6448,0.2670081839874088,153.03438768914626
3804.522,0.2650118199492118,132.86777496437392
3805.3972,0.2634574703362193,152.09804480271802
3806.2727,0.26303488458218577,148.38446942018973
3807.1504,0.2640651917808381,274.7881930170171
3808.0261,0.2662880214554866,191.75228817164017
3808.9043,0.2689421553536551,259.75047302518504
3809.7805,0.271014670155388,93.24118974512118
3810.659,0.27169754795979256,162.25679976896598
3811.5356,0.27068581471735226,97.31127997462221
3812.4126,0.26824980412741073,114.12419061494774
3813.2917,0.26503405184257256,342.47545487058676
3814.169,0.26188275194841615,113.04340663958811
3815.0483,0.2596535465815686,299.80136846431634
3815.926,0.25908266175286865,136.55671578019596
3816.806,0.2604179785855005,109.33051685493608
3817.684,0.263149550562919,106.89758658386455
3818.5623,0.26616376447834705,119.94810179382783
3819.4429,0.2683426889042013,165.70867643653474
3820.3215,0.26915247086036315,100.81978506393348
3821.2024,0.2688165512189637,117.43647156749098
3822.0815,0.2679595725018786,128.6717575887945
3822.963,0.2671784041308504,92.94320889496267
3823.8423,0.2668329859338705,171.5658968980711
3824.722,0.26704789795357825,191.04646501602696
3825.604,0.2678306491198177,207.85880408363374
3826.4841,0.2691116261955588,228.1213234966758
3827.3665,0.270690774759413,87.8632538672707
3828.2468,0.27212811561423467,81.31227433225592
3829.1296,0.27285305083244754,82.69821870313237
3830.0105,0.2724157918666574,118.56759667287322
3830.8916,0.2707282813490521,209.49187234674
3831.7751,0.26801226809911644,160.38582509662115
3832.6565,0.2646427187226642,146.49589657400372
3833.5403,0.26102169221393273,103.9982969978609
3834.4224,0.2577292491108798,128.3532986641543
3835.3064,0.25543920603768766,173.36725065039508
3836.1887,0.2546709818739704,127.70815120268811
3837.0713,0.25542764549928265,140.41338949047355
3837.956,0.2572427192792362,151.65921556271462
3838.839,0.25950245792752474,160.9588460677252
3839.7244,0.26177397354946325,246.74701358518266
3840.6077,0.26375350835265327,156.6701087577384
3841.4932,0.26510677056941945,106.24971066579795
3842.377,0.2653618565391908,108.05921101357487
3843.261,0.2641304675436699,192.15783780971108
3844.1472,0.2614292373555874,112.03038890541428
3845.0315,0.25790828504381164,100.07167370639878
3845.9182,0.25461344907730404,79.03663605835487
3846.803,0.25254553930198503,152.21303187430618
3847.69,0.2521743261662349,191.44235059282312
3848.5752,0.2534115869951622,127.10908476121648
3849.4604,0.2558218882999786,205.61356390500174
3850.3481,0.2588928291439781,147.23059224208245
3851.234,0.2621606073063129,127.85405218168302
3852.122,0.26532715375302557,129.1622950365371
3853.0083,0.2681223536910022,134.01071908007856
3853.8967,0.27020059270110475,92.08765898661537
3854.7832,0.27108073919376047,107.9692845360595
3855.6702,0.27045226701429115,101.67502689992311
3856.559,0.26846056293225573,102.87750271497202
3857.4463,0.26575123724647653,177.74525074215646
3858.336,0.26311797500659073,335.9745302703115
3859.2234,0.26116907276264845,169.8647996918616
3860.1135,0.2601178440308625,209.25271837984712
3861.0015,0.25989298847679987,140.54319047932654
3861.8896,0.26025262549487266,183.71636511696678
3862.7803,0.2608973886309122,157.10147296182893
3863.6687,0.26156075143593177,115.46174272901683
3864.5598,0.2621354377475463,105.97904999258162
3865.4487,0.2626243255998456,148.54338684079508
3866.34,0.26290214539603224,167.8138873158222
3867.2297,0.2625462450202227,123.44523764678084
3868.1213,0.2610988578306106,107.09895912317674
3869.0112,0.2585506114371466,173.41712397275853
3869.9014,0.25544636378903834,338.6394321249268
3870.7937,0.2525069388015195,114.90656866627076
3871.684,0.25019027349898454,190.39273887879622
3872.577,0.24849223766580225,332.89375756294066
3873.4678,0.24708577643793245,124.46425569085488
3874.361,0.245428252433172,277.29125793580823
3875.2524,0.24302329918634563,108.32662976754786
3876.1438,0.23978273587275117,269.0189343083148
3877.0376,0.2363300017089788,111.78097110103944
3877.9297,0.2338170268440066,140.3845331635425
3878.8237,0.2331300454440171,512.3334249677469
3879.716,0.23427171327512888,172.66269824900883
3880.6108,0.2364082055717551,213.48183911866025
3881.5037,0.23851412465247918,329.98508608398566
3882.3965,0.2400224323715607,89.3662260309896
3883.2917,0.24096669321124287,156.7278527451637
3884.185,0.241793000890054,444.80871250486985
3885.0808,0.243108971844886,155.42560027755044
3885.9746,0.24538882205946752,232.18125829927178
3886.8706,0.24873289512327051,125.13671323682097
3887.765,0.25266793869826065,97.49417374381603
3888.6592,0.25630004042136534,159.66447696556128
3889.556,0.258665512769662,177.91984174913694
3890.4507,0.2591719027463343,249.81069370350113
3891.348,0.25795097603028294,146.9673528570505
3892.243,0.2558652592246143,229.6363631492883
3893.1406,0.2541247794996344,124.73566274970355
3894.0361,0.2536693809646305,331.380528153562
3894.932,0.25458436450405336,176.28571051153355
3895.83,0.2561268484207857,101.52460041103174
3896.7263,0.2573049794198383,41.37063527128609
3897.625,0.25757507460222956,206.1409820189731
3898.5215,0.2569746486312211,93.86888461841676
3899.4207,0.25577316556718466,234.3904552045041
3900.3176,0.2541807810504894,186.15840053425444
3901.2148,0.25241740510350924,172.7264418860873
3902.1145,0.25093106423900796,130.26478860935742
3903.0122,0.2502981198873098,197.0043440570787
3903.912,0.2507535123395161,160.5337619935222
3904.8103,0.25186401650709705,180.38735245090575
3905.7107,0.25270395273215945,99.0380660343005
3906.6094,0.25244649795170926,143.6755222923467
3907.508,0.2509219589262765,154.61219321552673
3908.409,0.24866642501440323,114.22618300145726
3909.308,0.2465532794065731,171.4234288572604
3910.2097,0.24529839619361335,170.34760056975585
3911.1091,0.2452910530077319,197.17525160554763
3912.011,0.24660196780124918,190.72106816803506
3912.9111,0.24901769496063123,96.84762929207655
3913.8113,0.25203387118259757,249.12567408919776
3914.7136,0.2549355120061063,233.27389087646918
3915.6143,0.25703789161621793,245.56051305295642
3916.517,0.2580433324736553,112.50829190026539
3917.4182,0.2581396416553062,191.82851233997405
3918.3215,0.25785467031930026,128.1585847764304
3919.223,0.2576974936139329,126.0425587825309
3920.1245,0.25786131372317755,128.19392392126926
3921.0286,0.25818827569140035,281.83115493508296
3921.9307,0.2583822530692173,336.2523584193537
3922.835,0.25830679729532413,145.18187593766697
3923.7373,0.2581332120678868,190.8408311868779
3924.642,0.25823967129200054,96.463469616782
3925.5452,0.25891544470853367,158.80683104788392
3926.448,0.2600811997181048,145.80602628991892
3927.3535,0.2612744975617559,142.80570355497431
3928.257,0.2619310949488109,139.2498704907137
