wavl,flux,ivar
3566.9744,4.711766938225336,29.610409246714283
3567.795,4.697738009589441,32.48124275126289
3568.6177,4.684042117437024,34.00068443385715
3569.4385,4.6721937629870265,35.928373979951914
3570.2617,4.662043154144705,33.41200192976045
3571.083,4.65236401960167,31.227978019311635
3571.9065,4.642236746474253,29.287546135888196
3572.7283,4.6324480520292415,31.647998205929994
3573.55,4.624597560960736,35.90982836638403
3574.374,4.619273690693256,35.63434515260249
3575.1963,4.615230065837407,34.97434115593027
3576.0208,4.610473661150253,35.83476127385924
3576.8435,4.604159114721239,34.135276071249145
3577.6682,4.596982621787261,39.613193873552916
3578.4915,4.590258170844937,35.354600932170506
3579.3145,4.584630166538394,31.828725348040305
3580.14,4.5798458761540735,37.76970718718984
3580.9636,4.575256586841347,34.22754608247118
3581.7893,4.570176439358729,34.66185778495862
3582.6133,4.564197863860715,35.70016308344638
3583.4395,4.557352023792728,35.06737071870453
3584.264,4.550403790825714,40.00453294098263
3585.0884,4.544305684020441,31.40219525777297
3585.915,4.539169576547225,40.155205472216466
3586.74,4.5336312412634765,37.798657860876915
3587.5671,4.525551325043828,34.280243991427916
3588.3923,4.514038223477176,37.2325118306676
3589.22,4.500516902840053,39.183130458305655
3590.0457,4.488186910262077,41.65021431091205
3590.8716,4.479506623647492,39.375951075904936
3591.6995,4.474509767483308,39.87186531589599
3592.526,4.470922025690104,35.85907750104445
3593.3542,4.465908195025501,37.09081687845764
3594.181,4.458112446211752,36.168718922085496
3595.0098,4.448213785518586,34.668680496038895
3595.8367,4.43818569974613,41.44701277252293
3596.6638,4.429623791289943,39.766784266198414
3597.4934,4.4229429199281105,37.465245206300224
3598.3208,4.417648827061859,37.30959910876927
3599.1506,4.413005468229318,32.26233299687418
3599.9788,4.408625831940098,35.582858561465734
3600.8088,4.404332210458454,36.33707771921492
3601.6372,4.400179375190268,39.51928119359473
3602.4678,4.396543958139057,36.46407593065147
3603.2964,4.394202560144276,38.4267421109424
3604.1252,4.393786824519309,32.861366690550476
3604.9565,4.395249284075464,40.82705536673819
3605.786,4.39783179646686,35.893128857729145
3606.6172,4.400761877670459,34.35156113750907
3607.447,4.403782765124164,45.0681754268074
3608.2788,4.406920532151671,35.78808121481278
3609.109,4.409566411910912,35.33082342795541
3609.9392,4.410165050192818,39.029693141460626
3610.7717,4.406947621724788,36.39540936586928
3611.6023,4.399256580039422,37.19583261977129
3612.435,4.3880550401688545,39.702794349015676
3613.266,4.375468168481493,39.432264306801684
3614.0994,4.36335775568539,37.173392050273975
3614.9307,4.352644403003821,36.354544706423724
3615.7625,4.343131684044078,37.28678338539731
3616.5962,4.334381960811117,40.62695699291528
3617.4282,4.326406454992236,39.805214716832495
3618.2625,4.319440979818688,35.946853783644386
3619.0947,4.313422104135202,37.105904944757995
3619.9292,4.307475097724993,37.84539517362278
3620.762,4.300547283488727,39.253230729465365
3621.595,4.292291524028169,36.213441472355456
3622.4302,4.283587794899365,42.53683012707629
3623.2634,4.2761138851759055,49.980934907937616
3624.0989,4.2711371995107195,37.6291420762146
3624.9326,4.268825513971056,47.81559345789932
3625.7686,4.268027501472363,43.6785542348959
3626.6028,4.2668995140030415,36.60034553574509
3627.437,4.263868062671697,41.6307721189564
3628.2734,4.258447405688182,41.84572309531424
3629.1082,4.251225477523197,41.85544837229509
3629.945,4.242675446926764,45.22900363080563
3630.78,4.232356469505129,43.84058063922361
3631.6174,4.2194501388484476,37.62010587983599
3632.453,4.204958189683077,43.61802040968299
3633.2883,4.192245063398604,41.376672894374025
3634.1262,4.185112579262949,42.48375777132113
3634.9622,4.18473105706327,44.32920784139972
3635.8005,4.188552932265659,36.11840380405884
3636.637,4.192408483044046,47.67933217932686
3637.4756,4.193403410498305,39.916791075242166
3638.3123,4.191110739283411,42.43093210159869
3639.1492,4.186924139375553,51.71625323802568
3639.9885,4.182713260101447,47.42398935461061
3640.826,4.179873998957068,42.966909519460316
3641.6653,4.178706527027032,44.009146239647684
3642.5032,4.1783075297105166,40.66716744625886
3643.343,4.176884153973856,39.488039574762794
3644.1812,4.172626073516027,42.92311654179522
3645.0195,4.164638495998711,44.30890468140619
3645.86,4.153412969882479,40.85326014238932
3646.699,4.140624013284635,49.18028086590875
3647.5398,4.127975227105418,43.52576097795746
3648.379,4.11645966127455,41.93553717359053
3649.2202,4.105951589499128,40.180678633666005
3650.0596,4.096063133909983,42.194191764339976
3650.8994,4.086770991446813,42.37732284431125
3651.7412,4.078734259106197,40.5881394686764
3652.5813,4.072754850820124,46.29663643485752
3653.4236,4.0688443958953915,42.11493603859218
3654.2642,4.066018596457163,53.01707152427827
3655.1067,4.062693894585227,49.37703449364437
3655.9475,4.057610323708085,46.958287068645205
3656.7886,4.050417428898325,47.82655333252614
3657.6318,4.041849837728022,43.90419022359146
3658.4734,4.033517310637094,44.82647422150452
3659.317,4.027028850614624,45.21344616095486
3660.1587,4.023071913244541,46.745333308672535
3661.003,4.020473899854071,52.330927293556904
3661.845,4.016480546591021,51.639259023163554
3662.6875,4.008272635011894,41.80167437613485
3663.532,3.9950600049716307,43.55477130690452
3664.3748,3.979039248678554,45.976380306147156
3665.2197,3.9638470449392655,52.49464450197927
3666.063,3.952472065561791,40.97465855122414
3666.9084,3.9456917743553412,43.71972437985486
3667.752,3.942638126597312,49.6153854043109
3668.5977,3.941685736844063,54.08496539208627
3669.4417,3.9412644648260273,51.101688447586604
3670.286,3.940280463450841,41.85495343823406
3671.132,3.9384472872719876,48.09279555139472
3671.9768,3.9361712653468937,47.04482018332271
3672.8235,3.933797179350703,48.28495298391262
3673.6685,3.9309481224013214,51.01375723533668
3674.5156,3.9266067111418024,53.37366102058117
3675.3608,3.9200876627439016,47.95768477654856
3676.2063,3.9117546995246806,49.381768716308265
3677.0542,3.902895738058347,49.98446352702454
3677.9,3.8949128037777654,50.390366539081754
3678.748,3.8883815979045018,52.399138905037034
3679.5945,3.8831242898073333,52.0754523921822
3680.4429,3.8784232445515716,49.23175940014035
3681.2896,3.8734500804454575,50.998608560219324
3682.1365,3.8674629789007495,47.09129163490975
3682.9856,3.8602241053313175,47.99898790391138
3683.8328,3.852382165458567,57.09681299140411
3684.6824,3.8450743691423557,55.90060733615403
3685.53,3.839138803431325,52.205136911234625
3686.38,3.8341600817315094,44.923495620363425
3687.2278,3.8288392266418234,50.36906713214789
3688.0762,3.822116772371376,53.940147172406995
3688.9265,3.8142294204194065,52.57949234552774
3689.7751,3.806630894281529,52.996102786406496
3690.626,3.800880043302969,55.0461701652538
3691.475,3.797902436986318,55.49646567507389
3692.3264,3.7976888987338753,53.44911183299706
3693.1758,3.7995459889151637,55.53745089687737
3694.0254,3.80236000839637,47.046698054488544
3694.8772,3.8049672465096296,43.76095439443776
3695.7273,3.8065257982720015,50.933158112707964
3696.5793,3.806735672600939,50.76262538978123
3697.43,3.8056677437256052,51.917806522578594
3698.2825,3.8035302918962803,46.581264965243705
3699.1333,3.800581453677176,51.632008082095744
3699.9841,3.797076921355603,54.819373898503954
3700.8374,3.793176667283998,52.058894989774814
3701.6887,3.788826979602279,51.64060196081434
3702.5425,3.7836582061359527,55.08645007173279
3703.3943,3.777361447232402,48.66522549077622
3704.2483,3.77002730395814,56.22702664633775
3705.1003,3.7623831651604167,54.70454357697838
3705.9526,3.7551936216855704,58.91996342801192
3706.8074,3.7486758734596703,51.090636539756666
3707.66,3.7424177729035986,62.521849314425296
3708.515,3.7357613248984176,53.577894202403925
3709.3682,3.728571613958631,55.78011466045774
3710.2234,3.721280988955794,50.996913722482624
3711.0771,3.7146048327231127,62.970742935627264
3711.9307,3.708905913921529,51.733355261570225
3712.7866,3.704141580279419,55.02220327875858
3713.6409,3.7002301716393147,52.65999735222223
3714.4973,3.697078462305542,54.69104328023446
3715.3518,3.69426439323552,59.17189502451457
3716.2085,3.690652716300737,53.47854719923529
3717.0635,3.6848319450777707,50.25852143280062
3717.9185,3.6759254458950616,59.613069227854574
3718.776,3.664239663372156,56.840715562548475
3719.6313,3.651427036725873,55.08027354068258
3720.489,3.6396571726367295,58.169674195436
3721.345,3.6308205458717295,57.06200539383702
3722.2031,3.6254541072052757,61.2395775939459
3723.0593,3.622804084668772,56.979750156391354
3723.9158,3.6215188961693388,52.31281659666972
3724.7747,3.6207107747666587,57.815522199773035
3725.6316,3.6202819418659926,61.34700665926807
3726.4905,3.6203902365237184,58.96970931929072
3727.348,3.620786478922844,65.73289715994018
3728.2073,3.620779418956642,55.41371096866244
3729.065,3.619753489293884,61.03026885734772
3729.9229,3.6175011603374636,60.179850128262586
3730.783,3.6140112154884365,61.67367940547101
3731.6414,3.6091832822958483,59.56061010391631
3732.5017,3.6028013362235853,54.287086950179194
3733.3604,3.594958056681518,59.95474869703856
3734.2214,3.5862245988980486,57.520232912764676
3735.0803,3.577763896491932,55.72827867396419
3735.9417,3.5707066219363015,59.58892818689555
3736.8013,3.565571447610058,57.86660118760127
3737.661,3.5616197143688937,64.95617048377005
3738.5227,3.557255484173822,69.2611659720427
3739.3828,3.5511955135151214,60.02757081718639
3740.245,3.543410163992217,58.87587758061405
3741.1055,3.5351942771415517,64.7907523570193
3741.9683,3.5279506514962784,62.37886773615788
3742.829,3.522157817295621,65.79965512883223
3743.69,3.516910099637963,63.21426650160493
3744.5532,3.5107178416821148,60.86546102456371
3745.4148,3.502775491892194,61.498815090181786
3746.2786,3.493608286649443,62.61456985677219
3747.1404,3.4848955216471302,67.27771808763373
3748.0044,3.4781648064625887,59.820374620262434
3748.8667,3.4739089408238253,56.049749768123796
3749.729,3.4713588029838305,65.62883738132925
3750.5938,3.469319954942242,62.86833580560892
3751.4565,3.467092005399196,64.76135876328256
3752.3215,3.464742614059384,66.5186733173579
3753.1848,3.462723079262738,67.75414504725342
3754.0503,3.4611681766982385,71.4604321423997
3754.9138,3.4596775323009457,64.50013004892133
3755.7776,3.4576532500551242,60.23805024826782
3756.6438,3.4549034322780954,65.47117999004696
3757.508,3.451883451276298,63.9962676244178
3758.3745,3.449252908786162,63.2157275779269
3759.239,3.4473167476016653,59.055380612043095
3760.106,3.445732315127965,54.51859427595099
3760.971,3.4438192643535186,68.78816225617616
3761.8362,3.4409861582973598,65.9684563291523
3762.7036,3.4370254544038477,65.8086639468983
3763.5693,3.432176177280661,58.86795754485359
3764.437,3.426896443321823,64.18487956026237
3765.3032,3.4216872992480223,65.16287661202861
3766.1714,3.4167738533895777,64.09643152586975
3767.0378,3.4120723267171593,62.099087124259825
3767.9043,3.4072051266548398,61.598163031827056
3768.7732,3.4017866680455415,69.35635019464921
3769.6401,3.3957676568608113,64.55007420618713
3770.5095,3.3894786023235475,74.72762063933975
3771.377,3.3836330246490305,64.78861228350117
3772.2466,3.378878125979334,68.69308789273398
3773.1145,3.3754904374379517,67.68207588285313
3773.9824,3.372985569198692,68.92207927140944
3774.8528,3.3701809971325805,55.26552976762396
3775.721,3.3657648917134346,61.83646667112379
3776.5918,3.359150759522893,60.43654547556274
3777.4604,3.3512342657994414,69.14690909663216
3778.3315,3.3439336667246216,60.062993710367095
3779.201,3.3390663825137206,75.20220434215231
3780.0703,3.3370286125283672,67.76043970873404
3780.942,3.3368263451133147,76.5436052251862
3781.8118,3.3370718003605746,56.278596629631274
3782.6838,3.336895457020395,73.36314072472952
3783.554,3.335958145731254,74.23083065476514
3784.4265,3.33399671471808,66.61562768909299
3785.297,3.3308101982788885,67.10403724083288
3786.168,3.3265956374682633,71.52905637311977
3787.041,3.3220332234882584,65.08459025343387
3787.912,3.3178978058233195,66.1965691360222
3788.7856,3.314513772525393,61.946623068656336
3789.6572,3.311673753449989,69.01344023239268
3790.531,3.3086375544053648,69.13673242704992
3791.403,3.3043953582144634,68.12033715791037
3792.2754,3.2979873305548564,65.77644694816568
3793.15,3.2889200238556446,72.03912741143823
3794.0225,3.2774856099550878,62.821140878971086
3794.8972,3.264604278406512,69.85326435319193
3795.7703,3.2518666179574134,77.553212442127
3796.6455,3.24096350697482,67.11302737396299
3797.519,3.2333411629298148,76.19370671103437
3798.3926,3.2294980911303877,73.65341161988451
3799.2686,3.228934624791363,66.90179466059278
3800.1426,3.2304125960818326,71.43349567985595
3801.0188,3.2323696422838983,74.02865168797422
3801.8933,3.233140556749865,65.73871398856623
3802.77,3.2311741674551135,70.42835025224574
3803.6448,3.2256247625407175,69.65328675837566
3804.522,3.217126270443786,78.75105205748068
3805.3972,3.20805274051796,63.44299030900334
3806.2727,3.2012463456545124,79.23601844511832
3807.1504,3.1983338299291817,72.38072269703224
3808.0261,3.198794504003072,70.80799033694902
3808.9043,3.2006197325047574,65.89825449122758
3809.7805,3.201904313705316,68.0425472228669
3810.659,3.2018819043969766,71.03187383584655
3811.5356,3.200718451545383,69.81853620130633
3812.4126,3.198765005837234,70.71919543038005
3813.2917,3.196168187597477,70.01819006858018
3814.169,3.1930113294987756,78.54038872609554
3815.0483,3.189392317102621,77.66594921314567
3815.926,3.1854141590828706,78.58593596524338
3816.806,3.181106453521387,70.76201614209897
3817.684,3.176623394165766,90.55871695511921
3818.5623,3.1722094365825804,70.52506325154091
3819.4429,3.168057517543825,66.46463249645842
3820.3215,3.164216338019037,77.03494047370887
3821.2024,3.1605918063897525,78.0683399411271
3822.0815,3.157122722352674,74.92065294926392
3822.963,3.1536059269688046,82.81789396286784
3823.8423,3.14950405798254,78.85341133482878
3824.722,3.1438607434536707,79.0917609186658
3825.604,3.135833650525103,70.46933906830449
3826.4841,3.1256357599765514,69.35633166703366
3827.3665,3.114758494504438,72.44848798780973
3828.2468,3.105345989241838,78.70997609117721
3829.1296,3.0985326777001316,77.4200811088656
3830.0105,3.093866602203378,82.79556956254562
3830.8916,3.089893020147157,80.04157949773622
3831.7751,3.085538093808654,90.15483861001721
3832.6565,3.0807178321869912,73.70966410861719
3833.5403,3.0758222754616438,73.04712226371144
3834.4224,3.0711866838625603,73.59455150805803
3835.3064,3.0668866808631994,77.16458415479107
3836.1887,3.063055712890307,69.75112729259085
3837.0713,3.059900417017276,79.52789584897867
3837.956,3.057510091060278,79.92077685319626
3838.839,3.0556423841466676,82.26978388872026
3839.7244,3.0537765635930025,76.34633345740122
3840.6077,3.051516189800071,78.09888053032886
3841.4932,3.0488718189237485,88.38870902873786
3842.377,3.046330921835423,79.24528219035518
3843.261,3.044559070463229,84.34964353481182
3844.1472,3.0440247938868645,86.71147062148125
3845.0315,3.0446324506006257,80.49574950854188
3845.9182,3.0456330434094063,87.96088618945947
3846.803,3.0459999628463303,85.41507997043873
3847.69,3.0451221103035175,75.35026620898635
3848.5752,3.0432676956869007,84.84498793401178
3849.4604,3.041398949254882,76.23567214688018
3850.3481,3.0404838750889396,81.17665972758543
3851.234,3.040868007977536,79.94453792418125
3852.122,3.0421282249519073,74.71435872739113
3853.0083,3.043357592811737,80.12559009913683
3853.8967,3.04352989479905,81.04528767812822
3854.7832,3.0417629167303617,74.67907017544292
3855.6702,3.0376333693577844,90.33474096623222
3856.559,3.031429566861007,84.77348094648453
3857.4463,3.0241285519266,75.1343041740211
3858.336,3.0168189940595433,83.92283055894296
3859.2234,3.0103081016487376,76.94797799620756
3860.1135,3.0047644940725164,94.06493759083936
3861.0015,2.9999490699125886,91.7749360111631
3861.8896,2.9953655758395783,87.29911088609929
3862.7803,2.990649678382745,79.1185173686154
3863.6687,2.9858536156341073,88.50414252137038
3864.5598,2.9812892946046383,87.59747862027203
3865.4487,2.977196407391747,82.26523539684372
3866.34,2.9731952811586537,85.29718428083233
3867.2297,2.968381950180149,84.5146107689939
3868.1213,2.9618359839861794,81.53986279576016
3869.0112,2.9534556245730212,81.16300663214219
3869.9014,2.9441494852214976,80.79709024482628
3870.7937,2.9354775985081654,83.99847319936832
3871.684,2.9289915975521947,87.17916942556464
3872.577,2.9254896179522123,92.95142079298621
3873.4678,2.924803590217839,92.45895347240241
3874.361,2.925726020106162,97.72409604882897
3875.2524,2.926472182609009,86.13803833691651
3876.1438,2.9254877257407217,89.25554749064798
3877.0376,2.922069174310038,93.74268054436523
3877.9297,2.9163509836463217,93.49092220715622
3878.8237,2.908661894693346,87.29862690176492
3879.716,2.8992695470597942,82.96033835848999
3880.6108,2.8885188950773095,89.53558517799965
3881.5037,2.8773751135641534,83.01937581690427
3882.3965,2.8670643746547957,89.17763411561815
3883.2917,2.8584962924882937,95.5983966459233
3884.185,2.8518928234572654,86.94387500768626
3885.0808,2.846803693841486,87.07931001095241
3885.9746,2.842660194895331,81.67785094496683
3886.8706,2.8388615930225294,85.47929148122911
3887.765,2.834787774867792,90.27699410508309
3888.6592,2.829762836564692,91.20473940037044
3889.556,2.8234222703942873,91.7707836024439
3890.4507,2.81627789944709,97.44305571203869
3891.348,2.8097854463644656,96.11681699494505
3892.243,2.805960886737164,96.22525745810549
3893.1406,2.8062144103150874,98.1514278646064
3894.0361,2.8104167612028466,95.9043885427927
3894.932,2.8165983378774238,98.68314249891368
3895.83,2.821636061388255,93.145299421788
3896.7263,2.8225422172600965,91.539736921865
3897.625,2.817858219027487,89.23498406645608
3898.5215,2.8082754692325556,103.21357661227944
3899.4207,2.7962248750336953,105.4984574281648
3900.3176,2.785114751838712,91.85707137853525
3901.2148,2.778000877405029,164.02750194753744
3902.1145,2.776761298034718,101.09880818096467
3903.0122,2.781590162472252,96.176606567285
3903.912,2.7912401479936375,96.08600534632686
3904.8103,2.803661748256445,105.61960509761978
3905.7107,2.816774148029586,88.65802700042647
3906.6094,2.828529461158254,92.09489023513177
3907.508,2.837239820425297,81.98767623171484
3908.409,2.8417841306781226,98.49994228675064
3909.308,2.842016026668483,90.21160205489589
3910.2097,2.838988626057729,96.2501469235543
3911.1091,2.8345908295088926,96.4864304522439
3912.011,2.8307008209177913,86.09672278474312
3912.9111,2.82844737187251,88.97460038345352
3913.8113,2.8278592638319577,80.75774387960438
3914.7136,2.8282617271811485,99.12467886969782
3915.6143,2.8288556522322366,90.2547393185766
3916.517,2.8290917077958095,89.42214868843988
3917.4182,2.828734974587983,85.61195166989951
3918.3215,2.827827303925806,91.74449816374248
3919.223,2.826591887133957,88.65904286259308
3920.1245,2.8251695307819205,100.7376635174301
3921.0286,2.8233405694573714,90.93962397457052
3921.9307,2.8205703522332737,93.92969380664861
3922.835,2.8164068316960065,94.89295230212352
3923.7373,2.8109926211547163,105.00546172511675
3924.642,2.8050247724286788,96.27590366395077
3925.5452,2.7994530637746977,102.10164979560908
3926.448,2.7949026382074558,94.23060703490536
3927.3535,2.791480478159694,93.86635173279834
3928.257,2.7889269378278514,98.42723065762115
3929.1628,2.786847212575444,98.97883519611055
3930.0667,2.784895864432619,98.76897972941306
3930.9731,2.7825750284997945,98.04321342027289
3931.8774,2.7791606047207167,95.04166898864261
3932.782,2.77403208569156,93.12020569439682
3933.6887,2.7674050324634245,83.93504732219554
3934.5938,2.760648682708297,90.16816498619743
3935.501,2.7554192977913687,91.8035442975624
3936.4062,2.752547763974202,101.61591496697108
3937.3142,2.751461617384688,102.75870368260357
3938.22,2.7508429932169443,92.8145090707146
3939.128,2.7495280838791225,103.64246286877577
