wavl,flux,ivar
3566.9744,6.108694349841843,19.19186165932097
3567.795,6.0973518456906,17.889145185259007
3568.6177,6.07911576742109,18.26610985960849
3569.4385,6.058937773678877,19.13697233544288
3570.2617,6.041774258023408,16.156167990572904
3571.083,6.030406017781256,17.924801251033756
3571.9065,6.024400338193865,18.365341711804483
3572.7283,6.021529896531883,21.38877484716073
3573.55,6.019368971146148,19.175447564916613
3574.374,6.016229405398694,19.942626970962284
3575.1963,6.0111564970632365,19.327201556364024
3576.0208,6.003886318666937,18.088367115418805
3576.8435,5.995304066039537,21.623560820091146
3577.6682,5.987234484090048,20.726810008353066
3578.4915,5.981512241611157,18.87444337808838
3579.3145,5.978439994950372,17.817800408639222
3580.14,5.976229115055411,19.475886851942025
3580.9636,5.971852099385055,18.459581895356497
3581.7893,5.962902881157912,21.10394552412057
3582.6133,5.949355257140292,20.226436565583384
3583.4395,5.933558649556637,21.949017519789837
3584.264,5.919124792172014,20.944868075299883
3585.0884,5.908852921684493,23.365375780851593
3585.915,5.903514175347133,22.376990356239137
3586.74,5.901390455577902,19.613749886003045
3587.5671,5.8988247872568,21.7904008937737
3588.3923,5.892053449721379,18.471850899574218
3589.22,5.879200683604934,19.021239783143784
3590.0457,5.8614595518259165,18.59786091102357
3590.8716,5.841968826109028,19.909352288033627
3591.6995,5.823742870369063,21.582983493196014
3592.526,5.808089335488461,21.927983476584853
3593.3542,5.794324370667895,19.719607844461464
3594.181,5.781348618978358,19.398794898340416
3595.0098,5.768594905513164,20.454361894390534
3595.8367,5.756377238850625,22.888400905731917
3596.6638,5.745077971148617,29.909310874941532
3597.4934,5.734984980432614,20.352787274688794
3598.3208,5.726612560725142,21.787703638301146
3599.1506,5.720637625797326,22.127922469412752
3599.9788,5.717695554765456,22.303421581901326
3600.8088,5.717750458257207,21.918493039731654
3601.6372,5.71991537863516,18.453068497867417
3602.4678,5.722472585193179,19.225817900148773
3603.2964,5.723245886610935,20.609468626368642
3604.1252,5.720690717307822,20.755773685200005
3604.9565,5.715089417690041,23.379050962221854
3605.786,5.708755043169427,25.552454052433625
3606.6172,5.704430903741138,25.0306677835484
3607.447,5.703631356795615,20.662177128930843
3608.2788,5.706232914684888,19.659736260441417
3609.109,5.711305533314673,21.71596458863839
3609.9392,5.717608946799653,23.812431945291056
3610.7717,5.723222056154771,22.389297860175137
3611.6023,5.725327190174041,20.421568897411504
3612.435,5.721142386132561,19.361776222720117
3613.266,5.709300159046714,19.734477135885353
3614.0994,5.690652350031122,21.153300875270016
3614.9307,5.6683268505751006,17.641881181639558
3615.7625,5.646262469474917,20.780012426144715
3616.5962,5.627659595700702,23.341876681297325
3617.4282,5.613553800385386,21.983235012935843
3618.2625,5.602176048224852,21.271672839852773
3619.0947,5.590356558140592,22.990517603041848
3619.9292,5.575286341651538,19.184374202880687
3620.762,5.556521899786913,21.863233278467277
3621.595,5.536311616668026,22.93294183411979
3622.4302,5.518705627108586,23.8480568692318
3623.2634,5.507429643938381,23.854703627170657
3624.0989,5.503309502368253,23.20606262328094
3624.9326,5.50384995521908,22.38397283332594
3625.7686,5.504857941784083,24.399914571400803
3626.6028,5.503375360446536,22.188591997477477
3627.437,5.499623843023776,22.819964856615282
3628.2734,5.496567633178699,24.244441426894923
3629.1082,5.4975082678338945,28.1883459078323
3629.945,5.5033253214979485,21.95094351386342
3630.78,5.511366560838123,22.722899423809192
3631.6174,5.516701535647288,22.585913566425646
3632.453,5.514435436380853,22.983832013195066
3633.2883,5.5020972359356675,26.126838136085116
3634.1262,5.48077392198823,25.526273129003563
3634.9622,5.4553081099161105,25.415052804196247
3635.8005,5.432152072480195,23.911574564047886
3636.637,5.416762364160612,24.08104562865714
3637.4756,5.410403888347144,21.812408275889506
3638.3123,5.410074543178004,23.258139206394045
3639.1492,5.4108209581363855,24.792711463637126
3639.9885,5.409156890666473,24.296590155345292
3640.826,5.404701021722422,22.26009623443056
3641.6653,5.399201605195121,23.00521235400739
3642.5032,5.394399668710491,24.82777567372722
3643.343,5.390449803611241,23.538644835996998
3644.1812,5.386036360839525,24.314635593717544
3645.0195,5.3793409059946615,25.637175684679423
3645.86,5.369077416060108,24.300154444038988
3646.699,5.3551201937911435,22.288951127769575
3647.5398,5.338376715809054,23.651155029129736
3648.379,5.320715673307928,24.043776514008496
3649.2202,5.304113200638975,23.20965010595287
3650.0596,5.290256359820118,23.496279297950093
3650.8994,5.279715393923205,24.612985498537256
3651.7412,5.272058332584814,26.581278845142588
3652.5813,5.2663039594994245,23.55006957822488
3653.4236,5.26138043820721,24.746243832206396
3654.2642,5.2564293749442825,21.844786707754142
3655.1067,5.250577366528798,24.060276319723467
3655.9475,5.243082587735175,25.544384310724737
3656.7886,5.233609357642143,25.031546753747932
3657.6318,5.22237867192813,24.60813802652287
3658.4734,5.209857611041054,27.77000240440134
3659.317,5.19631581582643,24.690889733825678
3660.1587,5.182595845381334,23.86426258697714
3661.003,5.170521403443376,26.77962723746581
3661.845,5.162553791558676,31.445358859152176
3662.6875,5.159871862205365,27.582079232250745
3663.532,5.161466326587884,26.610488224034324
3664.3748,5.164793146193659,27.694259611033505
3665.2197,5.167613335123419,23.72328765249146
3666.063,5.169207926579504,26.0669133559587
3666.9084,5.1703397120824315,25.988713313079767
3667.752,5.172262764131052,26.26728987445582
3668.5977,5.175724268839259,26.310411345326536
3669.4417,5.180200469745259,22.39157661999859
3670.286,5.1837264385935695,27.42919493618461
3671.132,5.183463038174642,25.476948796208614
3671.9768,5.177186734505917,26.7897983097183
3672.8235,5.164797592098019,26.670989656945522
3673.6685,5.148746527526625,26.335257931906614
3674.5156,5.132518436494742,23.500842993279065
3675.3608,5.118891754947188,25.255880732157475
3676.2063,5.108420757626829,28.989394527082414
3677.0542,5.099823991487538,27.214852230035465
3677.9,5.091442610819565,24.18773229425324
3678.748,5.082612321749743,26.047808314839955
3679.5945,5.0742136357407315,26.97415971699975
3680.4429,5.0673026397154635,26.356754404320203
3681.2896,5.061702852283581,26.601870256308445
3682.1365,5.055790477945929,22.405326809437124
3682.9856,5.048069474948631,22.012048729062432
3683.8328,5.038599215561939,26.370847138648674
3684.6824,5.028473129837175,30.932913202044404
3685.53,5.018545601130318,26.292917634692582
3686.38,5.008656156478193,26.79192504202309
3687.2278,4.9987181497487745,29.243002880749817
3688.0762,4.989503773485602,27.62405104645502
3688.9265,4.982447165664689,31.17086821209562
3689.7751,4.978525918919699,25.90814446423461
3690.626,4.9775268962165695,26.678970415066004
3691.475,4.978494832852743,24.078163282127967
3692.3264,4.9804387510787596,30.632673977949622
3693.1758,4.982620647840888,26.691698323055594
3694.0254,4.984427665066773,26.686479715864387
3694.8772,4.98527319205784,30.017221924118445
3695.7273,4.9848204448909135,28.614948881089237
3696.5793,4.983166960838933,28.81853951518045
3697.43,4.980623301789664,30.508528047602677
3698.2825,4.9772417719163045,30.920901260779743
3699.1333,4.972630306359689,27.660093159534423
3699.9841,4.966022544525995,26.067255140780972
3700.8374,4.9565824882937255,27.624756891035897
3701.6887,4.943994388737258,27.328764566952113
3702.5425,4.92886692855371,26.757631725017383
3703.3943,4.913131103236717,29.569029883094903
3704.2483,4.898924075876571,30.91839872083601
3705.1003,4.887559345824153,29.378768626449713
3705.9526,4.87872512830162,29.097790681446767
3706.8074,4.87134949588202,28.3585794976618
3707.66,4.864759443912304,29.371066934615342
3708.515,4.858862537623377,28.51375749862915
3709.3682,4.8536946811306105,30.95320580070006
3710.2234,4.848752243273433,30.804980237112147
3711.0771,4.843259696190179,29.23256927744853
3711.9307,4.836640820322008,32.73879797442822
3712.7866,4.82873392496334,30.127947261669988
3713.6409,4.8197069808604445,28.797868681276963
3714.4973,4.809810599900287,33.140768724551855
3715.3518,4.799604313177911,31.305958787720183
3716.2085,4.789727473748293,33.11652953797416
3717.0635,4.7809568182652455,30.31018085211336
3717.9185,4.774158151258762,28.164682131649997
3718.776,4.770605964432556,31.540663229732914
3719.6313,4.7716514650208355,30.647252485287343
3720.489,4.77745089818755,28.78821917497131
3721.345,4.7857729711193,29.015607603167275
3722.2031,4.792384802375528,30.21710101903468
3723.0593,4.792991422572919,30.891236291634257
3723.9158,4.7857302415045275,26.05573535438061
3724.7747,4.771957918491683,28.81255587055454
3725.6316,4.755313036640597,31.27766935308874
3726.4905,4.739271702698359,33.35430279752649
3727.348,4.7256892302812314,32.649141574209125
3728.2073,4.714296363196823,26.984695136407687
3729.065,4.704009894683422,33.07540225640348
3729.9229,4.694156164490584,32.110079024547844
3730.783,4.685094918623435,35.06595325198379
3731.6414,4.677677081369576,31.377410472527696
3732.5017,4.672193452850349,32.08724554580496
3733.3604,4.668195817195991,30.89316218938413
3734.2214,4.6647256111058635,30.29208836688549
3735.0803,4.6607541693275705,33.05858219963392
3735.9417,4.655251312903784,32.51577569162962
3736.8013,4.647556597533105,29.999161434437738
3737.661,4.637851531418861,31.37318739413403
3738.5227,4.62756182195686,33.38313381805762
3739.3828,4.619054192101976,32.6231806827518
3740.245,4.614183087032348,34.47076510044285
3741.1055,4.6129325197409266,31.857339503900388
3741.9683,4.61283447041806,27.113191596955133
3742.829,4.610290486826085,36.38125734989606
3743.69,4.602988571887943,27.281552596880626
3744.5532,4.591642965246745,32.02436683869313
3745.4148,4.579792282432172,33.76623312387991
3746.2786,4.571420246077885,30.204063923353292
3747.1404,4.568796359674883,30.250137889281227
3748.0044,4.571469170128807,34.86831030434336
3748.8667,4.5771459415395155,30.40483260210652
3749.729,4.583234689208728,33.88291504050551
3750.5938,4.587836272453306,34.03074812201665
3751.4565,4.589632191634876,32.74119258587646
3752.3215,4.5874617808246105,33.22245825651884
3753.1848,4.58042798243897,30.85688529901769
3754.0503,4.568696318088071,30.782065374069234
3754.9138,4.554095427541116,33.480086374961424
3755.7776,4.539188994444488,33.238893894734254
3756.6438,4.525933389270771,35.586595667626455
3757.508,4.51497563701906,35.170124265229106
3758.3745,4.505836833604469,33.89396739139067
3759.239,4.498161142303239,34.378740277778384
3760.106,4.4921607549929075,30.842809194783438
3760.971,4.488508142689803,32.817539777333636
3761.8362,4.487408063770702,36.11866665360514
3762.7036,4.48799165893279,34.90543489586492
3763.5693,4.488265361150575,34.43398718202253
3764.437,4.485867124779158,33.47859946281709
3765.3032,4.479286793808602,34.05063131616954
3766.1714,4.468744575388689,36.355747998347695
3767.0378,4.456197978508065,35.36674719329624
3767.9043,4.4440075910174315,34.683799216302816
3768.7732,4.433568068308469,35.43210507767537
3769.6401,4.424854358613539,33.00710175821549
3770.5095,4.416860018061102,33.43583197458904
3771.377,4.4088291669955755,37.27329344848966
3772.2466,4.400639668169919,32.83667897849554
3773.1145,4.392835668747674,35.3521309935848
3773.9824,4.386175374233251,36.01383055325796
3774.8528,4.3815029084270565,37.33640040821023
3775.721,4.379540365261179,34.1525778085539
3776.5918,4.380300603238774,34.36653645948559
3777.4604,4.382643105802937,31.656660480952745
3778.3315,4.384423792049363,36.21406794961567
3779.201,4.383364724881969,37.098543027813314
3780.0703,4.378134564279645,35.95348390534401
3780.942,4.368885825823416,35.53102954397297
3781.8118,4.357348463833573,39.03585113368828
3782.6838,4.346119269692974,38.92650586261416
3783.554,4.337743458584602,42.54539769569209
3784.4265,4.333262796940061,38.469116378325715
3785.297,4.33182081481821,34.71740201444766
3786.168,4.331271588891831,33.92528108736113
3787.041,4.329606871489414,33.16997129689241
3787.912,4.32582971964487,36.02128271230768
3788.7856,4.319767540436978,34.9099267343798
3789.6572,4.311592839678185,36.24914579662021
3790.531,4.301576768251103,34.334793444936416
3791.403,4.290533116246302,34.88675579401565
3792.2754,4.279642003682343,36.4522704624205
3793.15,4.26983260591116,36.02976985374163
3794.0225,4.261162786845706,36.80270052842631
3794.8972,4.252791602322624,39.633444427518754
3795.7703,4.243997158219905,34.990893099489554
3796.6455,4.234706697663185,42.21116466668731
3797.519,4.2256004017950985,38.77235134084991
3798.3926,4.217421466782173,38.050643832361764
3799.2686,4.2106187993249,39.12274557053982
3800.1426,4.205396847467512,38.93887172829829
3801.0188,4.201811835194667,37.164666965255634
3801.8933,4.1999812006735,39.36039952755496
3802.77,4.199964636128238,36.68967718325693
3803.6448,4.201680670569411,40.1015275646251
3804.522,4.204812792835222,41.42090857006516
3805.3972,4.208800169692643,39.28837609484003
3806.2727,4.213095608381446,40.58636347869346
3807.1504,4.217386426384156,40.50903216706129
3808.0261,4.221563595525599,42.91730734620055
3808.9043,4.22558493129851,35.096475742131
3809.7805,4.229264365607624,43.20761378223327
3810.659,4.232371863766755,41.56542984998066
3811.5356,4.234556638920585,40.10175208803935
3812.4126,4.235385184311112,39.30912550934042
3813.2917,4.234532936761733,37.27821083510143
3814.169,4.232158893446864,36.46675458572523
3815.0483,4.2288108682146515,35.11897692024847
3815.926,4.22475287502007,38.83411808009251
3816.806,4.219238387959254,37.52991817068303
3817.684,4.210866146774122,40.44169699306727
3818.5623,4.198720112732162,36.91367978477507
3819.4429,4.183416100832021,39.31406365620378
3820.3215,4.1670886036944745,43.312791631541025
3821.2024,4.1518033536211005,39.96415366465145
3822.0815,4.138536499413801,40.423031882314696
3822.963,4.126619904978096,41.561507776686106
3823.8423,4.114691313622036,40.10660225355124
3824.722,4.1014453650619425,36.584444163770435
3825.604,4.086261610528323,41.500661864632015
3826.4841,4.069381856195983,45.51752741312819
3827.3665,4.051449308680682,44.394755343288224
3828.2468,4.0335888713434125,43.5760423062517
3829.1296,4.016744005875601,38.260128202118665
3830.0105,4.001541269948373,41.22794243040258
3830.8916,3.9876223560923583,43.539796028562336
3831.7751,3.9738498901653334,42.33235032733529
3832.6565,3.9589784707324176,47.71766649905867
3833.5403,3.9422755237118663,46.77003466158154
3834.4224,3.9246369951361544,45.41469294956891
3835.3064,3.908453307009828,48.311723326227614
3836.1887,3.8969591765951934,50.06494755099921
3837.0713,3.892263667523855,46.60280411953193
3837.956,3.89415259126035,45.034665723530225
3838.839,3.9001416697480478,46.33319038128143
3839.7244,3.9071653840276523,47.64076653843804
3840.6077,3.9134779342550954,43.45265704592487
3841.4932,3.919637430266672,47.119439816940556
3842.377,3.927592891009862,44.954388192309345
3843.261,3.9390484684567433,41.65822395335454
3844.1472,3.9541343139941283,47.44763734924906
3845.0315,3.971252559560994,42.35617211145544
3845.9182,3.988412641518646,43.55102227825385
3846.803,4.004088109509683,48.84895175549993
3847.69,4.01793383390738,44.3322194173862
3848.5752,4.030072460271541,41.81885000636061
3849.4604,4.040721305842024,43.16539698200708
3850.3481,4.049870971398301,35.52511180476503
3851.234,4.05736717683697,42.21569880097716
3852.122,4.063266408745371,42.85738164797128
3853.0083,4.0676830561246575,41.77545847060165
3853.8967,4.07064378853339,38.149583311843216
3854.7832,4.0717264646770355,41.49272223943099
3855.6702,4.070235291061703,42.68403351808353
3856.559,4.065760530205122,42.431834466509336
3857.4463,4.058872228968944,38.93351271932491
3858.336,4.051151011739637,42.93230034968135
3859.2234,4.044708530843292,43.334361138060935
3860.1135,4.041041523005071,44.52712332829804
3861.0015,4.040320827115342,40.31035143030051
3861.8896,4.04124787718603,41.898015232668996
3862.7803,4.0418605183259615,41.48864166434994
3863.6687,4.040472209203305,37.5476204076384
3864.5598,4.036188698456634,39.806488297538756
3865.4487,4.028925146221506,39.87360132398952
3866.34,4.018984239441404,37.974046979331014
3867.2297,4.006763934926985,44.00868252160155
3868.1213,3.9922534291067455,43.75738188477583
3869.0112,3.9752784289897236,40.59216374413159
3869.9014,3.95577553900092,39.87940296893363
3870.7937,3.9344242365729527,44.68926470290874
3871.684,3.9129459255893404,45.59312663478148
3872.577,3.8932120553237457,43.860433027606604
3873.4678,3.87667355787477,43.4253848353583
3874.361,3.863148549283133,44.46240822134859
3875.2524,3.8509470267814674,48.0030310951621
3876.1438,3.8371892765144024,46.943354919308575
3877.0376,3.8189808633584965,44.72257708512896
3877.9297,3.794817075489178,46.74277163574538
3878.8237,3.76517274644629,52.29574021358233
3879.716,3.7328261776042693,46.403582538137854
3880.6108,3.7010696935916556,47.724238184253934
3881.5037,3.6724386084835747,49.83744892231287
3882.3965,3.647136243745371,48.05871250691328
3883.2917,3.6236899734773864,51.9562399936191
3884.185,3.600362413292331,56.869817555187154
3885.0808,3.575757979441654,51.795226810120695
3885.9746,3.5497006272365166,52.275702470664626
3886.8706,3.5228661475595606,54.40782770232892
3887.765,3.497259492167844,58.79411436420429
3888.6592,3.4754217169046706,60.1565607254781
3889.556,3.459708800390898,58.12037270357442
3890.4507,3.451461965343413,61.318438787642165
3891.348,3.450549577709241,56.75307638026108
3892.243,3.4561230486119436,60.13063711111132
3893.1406,3.46742160969577,57.099711526735625
3894.0361,3.4840750525003403,53.38035278247017
3894.932,3.5060235036625267,64.17647998932122
3895.83,3.5326714770519874,53.04600433844411
3896.7263,3.561866463406204,55.054453971323994
3897.625,3.5905181779080673,52.89197065613218
3898.5215,3.615454839296717,51.17427585968815
3899.4207,3.6356456338882372,48.71763063100948
3900.3176,3.652153296299826,56.92398580172224
3901.2148,3.6674673807983043,57.033334682273185
3902.1145,3.683773591171643,50.96865828036109
3903.0122,3.702026926141736,53.38513072395887
3903.912,3.7222289483237,47.819701249072914
3904.8103,3.7433503023170274,50.057451456655016
3905.7107,3.7639900264577135,50.290338053374974
3906.6094,3.7826450830671163,50.89733283902404
3907.508,3.7988766160341565,51.10041779310131
3908.409,3.8135841307375746,49.36735010796942
3909.308,3.8283042469862085,45.597167572960004
3910.2097,3.8441101686719383,47.41728278881723
3911.1091,3.8603676467096224,41.59649864505306
3912.011,3.8753345137311235,46.574701864525764
3912.9111,3.8871390488081228,44.465719436039635
3913.8113,3.895235904511165,40.81112774054645
3914.7136,3.9005552921869517,44.656002195531435
3915.6143,3.904851175650915,42.90641739926207
3916.517,3.9098242851125424,46.667733411406054
3917.4182,3.916300355794778,45.28145456623813
3918.3215,3.924068153369899,42.78307528874978
3919.223,3.931993498699619,45.16327904507999
3920.1245,3.9386699366353612,45.13180432276273
3921.0286,3.9428558592241902,38.60207589602614
3921.9307,3.9436905337565444,42.837706054100956
3922.835,3.9408046707298006,45.21893846909319
3923.7373,3.934475399064003,44.747021383297955
3924.642,3.925884854926157,44.45234860082144
3925.5452,3.9172459349534714,45.63547422444267
3926.448,3.9109479677498857,44.59166449501668
3927.3535,3.9083494054154873,45.926667034157674
3928.257,3.908902921467272,40.13467384944881
3929.1628,3.9104546464562975,44.153014744338094
3930.0667,3.910670247966396,46.09505179484636
3930.9731,3.9083260679498704,46.59608117226375
3931.8774,3.9034283862932178,47.53977874740051
3932.782,3.8963266345499226,46.376559753437654
3933.6887,3.8870897921050753,43.25720349862187
3934.5938,3.875886505873231,45.09693057758159
3935.501,3.863472638825842,43.72899682583643
3936.4062,3.851393304157528,51.20882416658442
3937.3142,3.8410318153294605,45.92763384177155
3938.22,3.832999664197285,52.002285102068726
3939.128,3.8265429008089717,52.081612198591124
