wavl,flux,ivar
3566.9744,0.8191542689146932,374.79657529561337
3567.795,0.815816119881218,274.80935957384554
3568.6177,0.8155157788211106,347.0434763492324
3569.4385,0.8173800617034959,410.95680620802307
3570.2617,0.820447056152197,381.1876855831485
3571.083,0.8240596717249884,315.8220931008366
3571.9065,0.8280819772069821,499.26651758699177
3572.7283,0.8326017935816613,328.32127046453206
3573.55,0.8375670277676855,328.24942066168927
3574.374,0.8425600633437335,260.6293196132272
3575.1963,0.8469949978428497,384.5174773800465
3576.0208,0.8506510857616856,309.673804852079
3576.8435,0.8537905425517112,321.8181255923455
3577.6682,0.8569375860265037,334.36852566671155
3578.4915,0.8602809548461322,275.3177217813749
3579.3145,0.8634768223152458,290.934829091937
3580.14,0.8659475165268283,355.4776746899655
3580.9636,0.8673746262452519,324.88568872874845
3581.7893,0.8678615165725645,328.0434779677731
3582.6133,0.8674708932546733,321.25041412969796
3583.4395,0.8657374034995525,352.61856071382005
3584.264,0.8617691232758747,323.50473193548487
3585.0884,0.8549859567321443,200.29288371343569
3585.915,0.8458363982075432,337.546593453158
3586.74,0.8357983877191805,383.2154049565368
3587.5671,0.82631056308269,414.23635718885464
3588.3923,0.8181574708234807,400.07225352242517
3589.22,0.8114035680890825,268.9637098340071
3590.0457,0.8062304980076994,344.73448153765423
3590.8716,0.8030505268237059,385.25097202291727
3591.6995,0.8021038471515212,361.82304016
3592.526,0.8029210305827189,374.87586465337915
3593.3542,0.8044616550345999,338.96828803558105
3594.181,0.8057803629819913,362.64880318233855
3595.0098,0.8065597451452238,484.0985070595153
3595.8367,0.8070700784483865,364.74981781514697
3596.6638,0.8078168911503992,263.1031291410041
3597.4934,0.8091548907778459,341.040741868159
3598.3208,0.8110558166712409,366.59844106977414
3599.1506,0.8131714664736513,282.4315276006623
3599.9788,0.8150820100914565,350.37050002600034
3600.8088,0.8166561077842763,464.3085817276542
3601.6372,0.81809024756115,468.56545663564077
3602.4678,0.8197135554645548,420.92606452665564
3603.2964,0.8216209185084042,284.3957572226389
3604.1252,0.8234580892703153,386.71820642187987
3604.9565,0.8244238790139538,321.1763192297184
3605.786,0.823655170828619,379.83345045443195
3606.6172,0.820841755775857,335.8098486583873
3607.447,0.8165840440513067,342.7447430582164
3608.2788,0.8120723515080875,374.8881913892715
3609.109,0.8084323866484854,342.5378402735551
3609.9392,0.8061056033008802,328.5883652572105
3610.7717,0.8049118333465514,328.39956268271123
3611.6023,0.804484799171224,359.8706062841995
3612.435,0.8046106967201652,395.3641000314421
3613.266,0.8052111556938721,306.90771617368017
3614.0994,0.8060906734600638,434.93985363820326
3614.9307,0.8067888849555621,380.14667285536154
3615.7625,0.8067401207648582,351.89708934684836
3616.5962,0.8056159364842957,354.97450178516885
3617.4282,0.8036731207741714,413.11172792212955
3618.2625,0.8017555994649086,430.3269119217348
3619.0947,0.8009347788333849,330.1251909067028
3619.9292,0.8019158433426894,413.598769000193
3620.762,0.8046726397865578,355.1097078311879
3621.595,0.808450526349162,381.5290786952866
3622.4302,0.8120782409989078,361.0784446699081
3623.2634,0.8144360969794616,400.1351818676733
3624.0989,0.8150322308908823,321.6024724750629
3624.9326,0.8141877229925811,340.7774677322828
3625.7686,0.8127148258588305,328.3244323679975
3626.6028,0.8111932718085597,350.6232029036548
3627.437,0.809459782895577,314.31003383659964
3628.2734,0.806869306629918,280.6235456326331
3629.1082,0.8031091753729964,396.0427895636635
3629.945,0.7987114207234645,298.37258520221116
3630.78,0.7949123694630991,441.7709415984479
3631.6174,0.792819496821516,408.9279156249132
3632.453,0.7928125680541074,361.71791233363183
3633.2883,0.7943673060778689,347.0331860829466
3634.1262,0.7964610651188565,306.35876941832464
3634.9622,0.7981042733517294,333.99845842920485
3635.8005,0.7988040460585516,390.6486802617805
3636.637,0.7986061598560656,422.89632017119425
3637.4756,0.7978721119781526,360.34043236772584
3638.3123,0.7970365140578325,353.02581848814367
3639.1492,0.7965548484416679,385.8522579954494
3639.9885,0.796885177086999,329.7224404278382
3640.826,0.7982218719392765,327.87812487785544
3641.6653,0.8002052810080452,336.5931391991833
3642.5032,0.8020285643044183,269.77662693418034
3643.343,0.8030670045389723,315.93011931698396
3644.1812,0.8033616658077709,352.36692983617104
3645.0195,0.8034928449748067,492.8560265226838
3645.86,0.8039296425613419,341.6942418989732
3646.699,0.8045809744449793,365.7143323720612
3647.5398,0.8049452218463553,410.20899377484324
3648.379,0.804530229828967,435.16991753333434
3649.2202,0.8030651335925065,344.62991180702556
3650.0596,0.8004674753465263,372.64027859375716
3650.8994,0.7968067761408382,304.1438713319167
3651.7412,0.7923998085975826,368.32613660626754
3652.5813,0.7878341472940025,352.7129612261575
3653.4236,0.7837018432752296,388.56015081191634
3654.2642,0.7804649663994265,346.8434095428727
3655.1067,0.7783017624604295,432.91310810083996
3655.9475,0.7771470239893009,328.88197754896345
3656.7886,0.7766400449194139,359.9830932319362
3657.6318,0.7762326479000988,375.463484149169
3658.4734,0.775448801549495,362.9546196817681
3659.317,0.7741561335359803,394.33262717183845
3660.1587,0.7726631294883254,383.84459049342837
3661.003,0.7715621180043161,446.3399206608946
3661.845,0.7714825843235057,418.6461401251294
3662.6875,0.7727031973774676,385.942804181573
3663.532,0.7748500392383809,555.8569210503867
3664.3748,0.7769547982838815,386.6328460646343
3665.2197,0.778127959671816,406.26602678860866
3666.063,0.7782155304648661,356.1479356219269
3666.9084,0.7778065007633412,378.98453631064154
3667.752,0.7774998754648972,409.5003302409594
3668.5977,0.7772718051781613,296.0573831715531
3669.4417,0.776583144589296,332.66187354080637
3670.286,0.7749510462978674,356.1412485029973
3671.132,0.7723167954480121,342.4341536571561
3671.9768,0.7689984518297586,368.61322389010394
3672.8235,0.7654214850358756,376.76292157349724
3673.6685,0.762049697435703,435.77605249981053
3674.5156,0.7592839690441555,487.1923778120182
3675.3608,0.7574434236602655,391.2592507847861
3676.2063,0.7566380009981776,414.05526728281137
3677.0542,0.7567752258752859,352.95163372575905
3677.9,0.7575517591417107,435.6226596954273
3678.748,0.7585046833161826,407.81060931974827
3679.5945,0.7591670866357463,349.0467835544602
3680.4429,0.7593327812757932,517.4555536987134
3681.2896,0.759134052766469,422.2145465336652
3682.1365,0.7588068467964474,429.88325376605627
3682.9856,0.7583391401814492,334.57367742748716
3683.8328,0.7573963442368429,330.9463163412204
3684.6824,0.7555633521565869,468.8611017941886
3685.53,0.7526746563250434,445.327641311592
3686.38,0.7489001114518942,436.05262562060693
3687.2278,0.7447550201979497,460.16613190879144
3688.0762,0.7408923120321086,325.7550448846106
3688.9265,0.7378948669567377,421.102097669859
3689.7751,0.7360283757688146,631.8403466987166
3690.626,0.7351305134687561,630.1136390086951
3691.475,0.7348371227099715,495.41287391555744
3692.3264,0.7348445407735956,511.9506875452936
3693.1758,0.735068033421464,511.200188520637
3694.0254,0.735597684590053,390.77079494392876
3694.8772,0.7365329971955783,462.48395689485915
3695.7273,0.7377787887324576,482.26248006817195
3696.5793,0.7389912652678665,485.50904909863516
3697.43,0.7397315860042034,451.40485256594945
3698.2825,0.7397890451618844,592.6269008469419
3699.1333,0.7393360878816582,430.689294782549
3699.9841,0.7388060884139604,378.6317905032985
3700.8374,0.7386078968052632,453.4586553048519
3701.6887,0.7389329414364859,666.7835418907866
3702.5425,0.739781108318773,344.6222961099992
3703.3943,0.7411078488880122,463.64959386985765
3704.2483,0.7428715899832768,413.35821430818265
3705.1003,0.7448127201226977,423.4096944587909
3705.9526,0.7463279405774178,394.721980565914
3706.8074,0.7466953698551989,406.5069594953385
3707.66,0.745617711517993,352.9012483408903
3708.515,0.7434992929481901,431.04534725763483
3709.3682,0.7411301333924372,432.6203052112857
3710.2234,0.7390342955499133,434.8668134235978
3711.0771,0.7372198026300333,357.5590697093692
3711.9307,0.7354329234288534,395.2656880826778
3712.7866,0.7336747586318517,490.1136855639133
3713.6409,0.7324226422792519,454.2624400072213
3714.4973,0.7323015143754653,385.14679857210075
3715.3518,0.7335735439535858,481.3945754638499
3716.2085,0.7358812209834849,401.87746921935013
3717.0635,0.7384790217858949,327.26556904898183
3717.9185,0.7407917787678545,486.67129291428347
3718.776,0.7427465390545851,420.99047654115725
3719.6313,0.7446791148196175,307.2260529560955
3720.489,0.7470084209638372,366.66248346805685
3721.345,0.7498357150027718,394.7979754865538
3722.2031,0.7528140243938515,512.2360860316246
3723.0593,0.7551773867957289,354.30593698355534
3723.9158,0.7561167121515399,387.3824609230031
3724.7747,0.7551747954059947,391.6246387299399
3725.6316,0.7525374058519142,421.2104353180238
3726.4905,0.7489250863750021,467.2924262786473
3727.348,0.7452494375447423,514.2551373918006
3728.2073,0.742142767881062,406.82098692363604
3729.065,0.7397905111089343,448.26921202872956
3729.9229,0.7379472198579655,373.06115270341894
3730.783,0.7362160063788931,412.2385643648992
3731.6414,0.7343146379639426,484.6610493922747
3732.5017,0.7321745491815079,372.4253646100803
3733.3604,0.7299796629889719,460.8679236383688
3734.2214,0.7280942182446557,475.4393250547195
3735.0803,0.727015358255812,437.1852367012666
3735.9417,0.7271394007026081,491.1158741648413
3736.8013,0.728507549845724,496.26924763997295
3737.661,0.730643474867732,480.53885526589266
3738.5227,0.732693302143605,368.7306633341889
3739.3828,0.7337740643112122,459.27306394700787
3740.245,0.7333814808322073,413.54924543847494
3741.1055,0.7315704756915772,380.08545785395586
3741.9683,0.7289033908905445,432.7497140626917
3742.829,0.7262203716735964,522.4140942194076
3743.69,0.7242132257731448,408.8105587538464
3744.5532,0.723165584386479,604.8759665693128
3745.4148,0.7229707901966722,573.1241140335846
3746.2786,0.7233645068685413,675.9342518034734
3747.1404,0.7241654386117867,435.80855858088375
3748.0044,0.7253670627148939,483.08201130093823
3748.8667,0.7270933895529315,586.4034688783403
3749.729,0.7294956162885525,390.3922866994252
3750.5938,0.7325371462398788,423.79775160677195
3751.4565,0.7357519545895438,387.6036120652899
3752.3215,0.738313603418887,478.46050285816085
3753.1848,0.739349054940173,499.34260618928164
3754.0503,0.7385153109147523,391.21333076119686
3754.9138,0.7362835880693708,381.5627277323603
3755.7776,0.7337024630488876,495.1471298272269
3756.6438,0.7317702095567257,598.2441739680488
3757.508,0.7308727363868746,652.8365328306035
3758.3745,0.7306262903394842,408.5659389303106
3759.239,0.7302881343457884,407.46272477949225
3760.106,0.7293408957277887,398.01554348022256
3760.971,0.7278741031670365,387.1764184287344
3761.8362,0.7264460957949173,445.36183425947786
3762.7036,0.725583004780838,489.43707715331294
3763.5693,0.7253174457677671,444.2752500463832
3764.437,0.7251605120269088,352.4271382897459
3765.3032,0.7245296383172762,421.20700406595415
3766.1714,0.7231609850267288,432.68224543779274
3767.0378,0.7211802205850976,503.8176251504811
3767.9043,0.7188531941866636,430.8293138251651
3768.7732,0.7163727933446993,495.21375065928163
3769.6401,0.7138353327842718,481.6300275212563
3770.5095,0.7112667260542604,487.2813261549568
3771.377,0.7088078209581314,488.999715449986
3772.2466,0.706805198658168,517.1822385074905
3773.1145,0.7058404633444567,490.033968549432
3773.9824,0.7064070051985044,406.2141922002118
3774.8528,0.7085594848292835,698.6314015342049
3775.721,0.7117766583610722,479.71812470321294
3776.5918,0.7152920799855296,434.7217393075116
3777.4604,0.7184095609560903,407.223613911591
3778.3315,0.7206963856748984,646.2652417797125
3779.201,0.7218004561654865,504.9193855921559
3780.0703,0.7214379317157691,408.8210775282514
3780.942,0.7195444617288631,479.89006802445255
3781.8118,0.7165075751398051,392.40009299985735
3782.6838,0.7130360407386618,465.2912040337079
3783.554,0.7098296935845602,478.039644708154
3784.4265,0.7072468513056975,440.2946583056415
3785.297,0.7054572357100234,457.4521787590362
3786.168,0.7046349718038103,784.6308681673692
3787.041,0.704973819219139,474.1563319135242
3787.912,0.7063763123989613,451.0230684915659
3788.7856,0.7082859015379909,440.11479964680996
3789.6572,0.7098837757839978,468.0553701686235
3790.531,0.7105312957728622,386.4190357184757
3791.403,0.7099758393314957,469.18948430180586
3792.2754,0.7083288480151428,430.17560628763465
3793.15,0.7059307555179481,513.7640997555561
3794.0225,0.7032962646718446,469.56158148166685
3794.8972,0.7009830979026365,453.1205078438649
3795.7703,0.6994822711602996,471.5326025541185
3796.6455,0.699001314629518,466.55386989459464
3797.519,0.6993717828471738,433.1748706092308
3798.3926,0.7000803674156298,494.73466488640656
3799.2686,0.7005149149607544,475.9461720795772
3800.1426,0.7002579469999374,500.57326901342117
3801.0188,0.6992131761193519,403.47673356007385
3801.8933,0.6974883212725738,437.01028982084404
3802.77,0.6952243464441119,523.8646976176194
3803.6448,0.6926446887338586,426.3348144590404
3804.522,0.6901176112066063,600.8930080285503
3805.3972,0.6881542619496412,360.519957114543
3806.2727,0.6871393251984147,418.0002765589097
3807.1504,0.6871872608612709,542.1627333361162
3808.0261,0.6881660387156147,490.1211045378959
3808.9043,0.689827532014663,510.57003372670306
3809.7805,0.6918384158202007,574.0246602227004
3810.659,0.6938343240996342,506.60609827356615
3811.5356,0.6955202762218624,409.70058119388483
3812.4126,0.696857357741827,490.18567192961734
3813.2917,0.6979994844982049,447.205283217784
3814.169,0.699046232458998,425.86535138892765
3815.0483,0.6999140734200091,310.66863766768654
3815.926,0.7004371232497976,562.811404009028
3816.806,0.7005686966722036,546.8782345727712
3817.684,0.700363342709876,606.1132210006435
3818.5623,0.6998282630675176,460.26219355707855
3819.4429,0.6988674351437137,416.51805572276726
3820.3215,0.6974000227601229,504.0501501492484
3821.2024,0.6954408287158719,440.7668996410081
3822.0815,0.6931230389079176,482.6516838894323
3822.963,0.690634072804778,508.67795903058413
3823.8423,0.6882670999642282,453.06174865246663
3824.722,0.6863775868000667,441.73786244730707
3825.604,0.6853047510213623,523.2254833331427
3826.4841,0.6852075736649559,408.58716531089163
3827.3665,0.6859596956115908,497.27930946546434
3828.2468,0.6872208618443474,540.3518096911268
3829.1296,0.6885960818736411,444.3490983302448
3830.0105,0.6897020875164209,427.0078610411521
3830.8916,0.690183610629051,605.5701191311963
3831.7751,0.689699642561326,374.90795135718514
3832.6565,0.6880475796873718,474.4972714751606
3833.5403,0.6853210640032026,380.8018034122905
3834.4224,0.6819995531248717,495.7031939956687
3835.3064,0.6787537971003255,540.7819395986047
3836.1887,0.6762537656406886,474.8058791032585
3837.0713,0.6749412739592648,539.6918184645103
3837.956,0.6749391671690605,605.2687235163935
3838.839,0.6759496115869421,486.6411070661914
3839.7244,0.6773437878157537,437.767490566683
3840.6077,0.6785271451611872,507.57253557599876
3841.4932,0.6793872163671527,408.7603164261916
3842.377,0.6803256519895537,492.7720390667142
3843.261,0.681860567852586,575.43688410471
3844.1472,0.6841299416263548,553.1497862143434
3845.0315,0.686721521063032,455.3253550208089
3845.9182,0.6889695638373149,418.4892192564324
3846.803,0.6902821223666877,563.8795679014565
3847.69,0.6903529058996554,482.1888218876564
3848.5752,0.6890942228762732,533.7065652750364
3849.4604,0.6866240036672234,410.3098222795177
3850.3481,0.6833839751297719,367.7581602182905
3851.234,0.6802539404318799,590.7386593613002
3852.122,0.6782396700896944,444.74327794572565
3853.0083,0.6780016208351798,581.5170260557242
3853.8967,0.6794429476933519,566.6745582476242
3854.7832,0.6817800389886599,502.179222976869
3855.6702,0.68397343349314,504.72294574021566
3856.559,0.6851582029764626,518.1341738104124
3857.4463,0.6848876620826989,446.08128862155934
3858.336,0.6831793337671849,432.15507501306587
3859.2234,0.6804436763684495,450.1807606118831
3860.1135,0.677313998200269,669.506381076068
3861.0015,0.6745048344875876,685.3099872966268
3861.8896,0.6725238590619781,484.06779252066747
3862.7803,0.671525630392091,541.8449491474789
3863.6687,0.6712830807219015,503.62917148648444
3864.5598,0.6713310935029774,423.39021472519613
3865.4487,0.6712378075235637,492.3018865292993
3866.34,0.6708171793728274,515.4781666728109
3867.2297,0.6701790945716015,556.3766251419202
3868.1213,0.6695975775677958,558.1436767456402
3869.0112,0.6693377561431639,566.3891907829214
3869.9014,0.669533967778219,528.362206422203
3870.7937,0.6701971544726807,528.2290984053268
3871.684,0.671288697988349,483.5355039746532
3872.577,0.6727982286948975,507.45672215950043
3873.4678,0.6746468021888049,546.2443903310358
3874.361,0.6765257272178582,449.89736615894947
3875.2524,0.6777937588151495,581.5840041166491
3876.1438,0.6777546648946856,617.3321584006343
3877.0376,0.6760584944975727,547.5118861918016
3877.9297,0.6729684329997138,601.0770941775112
3878.8237,0.6691945341555146,548.5792578200711
3879.716,0.6655745102153969,539.4941231922692
3880.6108,0.662699799088485,547.1151905613249
3881.5037,0.6608157197954426,795.976324962726
3882.3965,0.6597553803096496,444.60330064593836
3883.2917,0.6590977889477496,568.6165305930338
3884.185,0.6584132921817403,544.6420058274011
3885.0808,0.6574882383462747,550.6132509576747
3885.9746,0.6564255597060991,456.62034973983214
3886.8706,0.6555597048258408,464.62186447776463
3887.765,0.6553493948467296,558.0399666974487
3888.6592,0.6562215102205503,632.9435160140722
3889.556,0.6583851428242996,539.3847026599999
3890.4507,0.6615692261909626,459.2071216283232
3891.348,0.6649863516230465,533.2374354184942
3892.243,0.6675503297939365,480.23024302150674
3893.1406,0.6684814587083863,383.60862417630915
3894.0361,0.6676982575088573,531.4488418697459
3894.932,0.6658107710036305,576.8902393652698
3895.83,0.6636451649558506,496.50912557534235
3896.7263,0.6617988058909066,578.7432197153943
3897.625,0.6604438704309202,601.2099560190153
3898.5215,0.6594794684190205,505.05186945588866
3899.4207,0.6586825887127862,603.5900484156745
3900.3176,0.6578599273930225,604.022134986817
3901.2148,0.6569316886212908,522.8245359634849
3902.1145,0.6560147109562948,626.1923730996438
3903.0122,0.655423771844777,555.320178968807
3903.912,0.6555406265215019,614.344166141294
3904.8103,0.6566578342645704,568.8681787613251
3905.7107,0.6588660104743995,535.7083080178512
3906.6094,0.6619800499412479,452.1611948776323
3907.508,0.6655438187106545,563.2306251364122
3908.409,0.6688598158128001,473.32361690535294
3909.308,0.6711568789080754,503.33758164589386
3910.2097,0.6719704613698655,455.2019287699707
3911.1091,0.6713539253449337,633.9046561517033
3912.011,0.6698322295917994,478.4475323870523
3912.9111,0.6680736553628916,535.0709153069909
3913.8113,0.6665180531228191,590.9978668916536
3914.7136,0.6652471807989243,516.0170944681674
3915.6143,0.6641438533549692,528.0519492362289
3916.517,0.6631686512051762,598.1374827101906
3917.4182,0.6625319089695908,594.3931539582946
3918.3215,0.6625194727736704,628.8863524361886
3919.223,0.6631903455022309,565.6437764050218
3920.1245,0.6642327685736684,404.7184215040542
3921.0286,0.6651286891190376,661.9621352318618
3921.9307,0.6654737070020554,575.5500449194201
3922.835,0.6652553760930371,484.77672359109175
3923.7373,0.6648473003919534,639.6509640493749
3924.642,0.6646929668404815,523.6969724440303
3925.5452,0.6649035100271236,510.5555394697576
3926.448,0.6651556654923246,534.5513824226747
3927.3535,0.665026932438879,418.0011957880552
3928.257,0.6643915189141482,598.1315503967834
3929.1628,0.6634249698819726,479.6093757567533
3930.0667,0.6622697767616843,603.8854200293147
3930.9731,0.6607820536341587,567.5965947812549
3931.8774,0.6587178403170368,516.5921731564079
3932.782,0.656060991082432,675.6334722163524
3933.6887,0.6531847726495705,686.4287032638096
