wavl,flux,ivar
3566.9744,2.5033514371491825,62.62580218126408
3567.795,2.496635693755001,64.26968831276565
3568.6177,2.492980332015639,66.57533164073176
3569.4385,2.491801348590961,69.17585293457306
3570.2617,2.4914228801675384,65.5282351989072
3571.083,2.4905636213205047,84.43959180927749
3571.9065,2.4890119185468054,71.8783489929476
3572.7283,2.4871584482644296,73.15702599615551
3573.55,2.485280419401256,83.67085913114846
3574.374,2.483491148774439,62.27636870615416
3575.1963,2.482036929232093,65.57366548624957
3576.0208,2.48119974983372,60.369919099916984
3576.8435,2.4808883871895153,70.0772367999486
3577.6682,2.480402686221131,62.519794855583406
3578.4915,2.4787917766577383,77.10711923005503
3579.3145,2.4755267304522164,72.75547941843512
3580.14,2.4709899899069097,63.03646145908653
3580.9636,2.4664522208579647,73.09856615740657
3581.7893,2.4632320364797082,73.21664090374006
3582.6133,2.4617796949229644,73.51812246147361
3583.4395,2.461300859534617,77.08040733109803
3584.264,2.4605593767007363,60.75991782827884
3585.0884,2.4590050413567552,81.04793147943451
3585.915,2.4570713002138147,61.00074944735877
3586.74,2.455365548598946,69.0722032576682
3587.5671,2.453715007669164,79.73714676424363
3588.3923,2.451300358177117,59.141343344194084
3589.22,2.447517775696085,72.72582247274205
3590.0457,2.4425311337256805,81.04551895397736
3590.8716,2.4368167867884867,65.28605514131739
3591.6995,2.4307849189779125,59.210638231897974
3592.526,2.425111597686806,62.865068737298074
3593.3542,2.4209039698758743,75.52801042446542
3594.181,2.4190124591420963,71.01533160665454
3595.0098,2.418769253370711,61.66777017442961
3595.8367,2.4179773877967774,66.55880283583845
3596.6638,2.4143185539073846,82.6269203131021
3597.4934,2.4068392924315263,63.68409747773856
3598.3208,2.3963681877140517,86.56944439608839
3599.1506,2.384557284331166,75.89171233184409
3599.9788,2.3730872543751653,59.42503415581807
3600.8088,2.362991952960394,71.08091246088885
3601.6372,2.355115986839759,62.13429725891147
3602.4678,2.3504250029887213,66.61357329773027
3603.2964,2.3499823426487354,72.47768855610882
3604.1252,2.3538846608485025,76.40951409170027
3604.9565,2.3606134328321855,85.10883466767946
3605.786,2.3675544004088542,67.22717101574814
3606.6172,2.372667935500173,70.32649949049575
3607.447,2.3753206895680585,78.95674296048517
3608.2788,2.376005021434489,70.53511022151922
3609.109,2.3753980236264263,73.89998778575826
3609.9392,2.3738871509231485,63.44560654143754
3610.7717,2.3715077482785314,88.08747937330504
3611.6023,2.3680910097490853,62.39392558961354
3612.435,2.3635345299950616,67.10982253609366
3613.266,2.358286169524395,84.72941398924027
3614.0994,2.353225077482995,74.00538329637612
3614.9307,2.349016688574166,63.77506450636825
3615.7625,2.3452504007513664,76.92205155303105
3616.5962,2.340540344820193,61.88356248469631
3617.4282,2.3334889925851847,78.1258199609211
3618.2625,2.3236455300736165,79.29646974753248
3619.0947,2.3119691449363224,82.14433324637874
3619.9292,2.300097348258104,63.40050057212376
3620.762,2.289669338895762,76.60866979035032
3621.595,2.2815175591866987,75.1220534929796
3622.4302,2.2755888133552427,99.98176809502242
3623.2634,2.271069828202981,77.71564848201976
3624.0989,2.2667131595214522,89.74261816980001
3624.9326,2.261728689790009,80.23288754048406
3625.7686,2.2563988951699065,72.97504512836817
3626.6028,2.252041637873514,81.5087678623861
3627.437,2.2499104319734196,73.10050234172054
3628.2734,2.250278460288343,94.95839989737728
3629.1082,2.2523397615090364,74.36167231313404
3629.945,2.2547913571048195,81.89864962833478
3630.78,2.256238027540689,75.56767564135947
3631.6174,2.255347524226223,77.94307988446405
3632.453,2.25113526862427,78.74373598451209
3633.2883,2.2435382803360424,68.18164130944002
3634.1262,2.233657444940927,81.42817682026731
3634.9622,2.2234722707638284,94.40215008581926
3635.8005,2.214872619448698,105.10743283341833
3636.637,2.20916238444925,90.06722390367831
3637.4756,2.206487180627024,77.8232659152343
3638.3123,2.205892814755248,84.86346593408257
3639.1492,2.205737213791577,89.32667560704836
3639.9885,2.2046304833251456,103.83082600462117
3640.826,2.202142396258489,74.24130884349793
3641.6653,2.19858317759519,78.59818107546963
3642.5032,2.194171696127138,84.98379276418346
3643.343,2.1884822156228574,88.03795277637572
3644.1812,2.181021017995601,101.86981857759038
3645.0195,2.172066679027555,83.75354643746361
3645.86,2.163001838415994,89.44905964980475
3646.699,2.1556833995745466,94.40551494302706
3647.5398,2.1511374059289428,87.82136552414788
3648.379,2.148999274900769,93.77814300182361
3649.2202,2.1477985650165694,73.11825328356014
3650.0596,2.1460477149980934,88.19715940641794
3650.8994,2.142989716376151,80.21159097200872
3651.7412,2.1386326265460984,105.15871895409558
3652.5813,2.133433570232343,81.17199217335494
3653.4236,2.1279873079578846,86.48441094340367
3654.2642,2.1229471734609002,100.48084461159947
3655.1067,2.1185686596930005,88.08494075809851
3655.9475,2.1144147434205185,97.338073965533
3656.7886,2.1094603291650094,77.7072656753775
3657.6318,2.1030390267573185,88.32200049962448
3658.4734,2.0958898148125527,90.65515753620998
3659.317,2.0900579156463186,106.48019609247282
3660.1587,2.087727965647007,91.51747031011966
3661.003,2.089563671413058,87.45107784110814
3661.845,2.0941727784727906,88.39832439794276
3662.6875,2.098958769828372,97.66116488357159
3663.532,2.1015165425578743,101.26118812486578
3664.3748,2.100567144236164,98.33108957081032
3665.2197,2.096086621270504,85.99419348435114
3666.063,2.0889496415726443,101.11207103724736
3666.9084,2.0804365823835336,108.64089011941655
3667.752,2.0720569247807425,102.90996286546158
3668.5977,2.065139929559972,107.9211051245402
3669.4417,2.0606378108602117,96.24853086591276
3670.286,2.0585925253858357,96.01068366750545
3671.132,2.0580122954180884,91.69190471105699
3671.9768,2.0572496009587344,91.46768715330703
3672.8235,2.054921891306667,95.27748582768074
3673.6685,2.0507740940507913,99.62877153251009
3674.5156,2.045702186357076,87.0868848602123
3675.3608,2.0411010950027406,94.58097094740667
3676.2063,2.0379073089639883,97.3592577739689
3677.0542,2.036247988361172,109.7825400500287
3677.9,2.0355617611835997,96.84648797491336
3678.748,2.0348579193024308,131.83027940232157
3679.5945,2.033041086017637,101.46569050180835
3680.4429,2.029381118687152,116.51450105232679
3681.2896,2.024181334270545,107.62528896484291
3682.1365,2.018874667845549,105.56602087301349
3682.9856,2.0152373085113977,94.09355588319977
3683.8328,2.014139694614577,88.21692128492997
3684.6824,2.0149060400306733,97.30569223954754
3685.53,2.0159563056486896,90.34849752793797
3686.38,2.015952064825495,140.23122375927215
3687.2278,2.01444066637634,111.53111725863057
3688.0762,2.0116926892563853,105.45114654838589
3688.9265,2.008171686368412,100.99583876019996
3689.7751,2.0042247884590005,107.37910547747695
3690.626,2.000034979446479,105.56655803802971
3691.475,1.9958441293218705,105.08074131942521
3692.3264,1.9918633124093243,107.65984690289095
3693.1758,1.9881067332904465,91.69323827727683
3694.0254,1.9841977232246264,107.07091813041849
3694.8772,1.9797416214054844,85.5458057582539
3695.7273,1.9749412491350775,101.58484939415568
3696.5793,1.9706025230342636,97.54223189404183
3697.43,1.9674470876494372,123.20719877919718
3698.2825,1.9651837393709177,110.85357268718396
3699.1333,1.9626034333024518,102.66911973755728
3699.9841,1.9584684083532184,105.74793617670069
3700.8374,1.9523351068709143,114.74069966098598
3701.6887,1.9446864425071924,122.68080931617547
3702.5425,1.93635034152999,125.87236119708189
3703.3943,1.9281910678066945,117.93099797366034
3704.2483,1.9207316790018936,118.82967893666948
3705.1003,1.9142994290782545,135.97026605573205
3705.9526,1.909003934312461,112.87245520691953
3706.8074,1.9049025727694342,110.70195055848525
3707.66,1.901984151395194,101.12953578013271
3708.515,1.8999886105551855,105.58586351132482
3709.3682,1.8985272556762,94.9384188204349
3710.2234,1.8973262119168959,105.64373980492681
3711.0771,1.8964445820365696,121.80695377965546
3711.9307,1.8960215591697251,128.4425235467505
3712.7866,1.8958800421549111,128.81139101125098
3713.6409,1.895554590961689,110.24171040059775
3714.4973,1.894879619110874,122.94354065033485
3715.3518,1.894505354715828,105.73696370330877
3716.2085,1.8956135896590696,135.50788478958003
3717.0635,1.8989228930004263,108.11897826483666
3717.9185,1.9038107349380073,122.65032467768475
3718.776,1.9083598830217687,111.16755849896896
3719.6313,1.9103945817042949,94.48380038782963
3720.489,1.9089274361422524,105.13484795531173
3721.345,1.90468232423787,126.71865881273055
3722.2031,1.8994052826921306,122.9882333354714
3723.0593,1.894721579036922,115.98679605484546
3723.9158,1.8912540905459432,125.8182260112499
3724.7747,1.8885259228285385,124.40677338479253
3725.6316,1.8852917626011894,123.39758193753488
3726.4905,1.8802039629969869,110.18349138625162
3727.348,1.8728102725788733,123.9712834819598
3728.2073,1.863962274684899,121.31108291608793
3729.065,1.8554336063077128,112.49681432329476
3729.9229,1.8486231704607672,142.11762446572536
3730.783,1.8437609569691324,124.65334228136938
3731.6414,1.8400461164648398,113.56444055817062
3732.5017,1.8364397626874875,112.60047257826861
3733.3604,1.832526931281604,120.5271416844718
3734.2214,1.8285664193029414,117.83500113294917
3735.0803,1.825116904863349,146.45090951098908
3735.9417,1.822465513835547,111.28271498583324
3736.8013,1.8205417402711261,116.35992097491133
3737.661,1.8190427169603485,124.96239415107152
3738.5227,1.817713371274818,144.62741340142853
3739.3828,1.8164638761709373,124.8113370070327
3740.245,1.8152600547202238,101.16512340029493
3741.1055,1.8139559246746377,134.72356252958255
3741.9683,1.812158743168253,125.22195692296623
3742.829,1.8094286968023807,122.21753748820691
3743.69,1.80569108142957,147.51253744500565
3744.5532,1.8015651601489573,143.73501670245534
3745.4148,1.7981785953387968,138.03446319071267
3746.2786,1.7963832835837987,137.3946987403903
3747.1404,1.7962119399890344,138.18638425233038
3748.0044,1.7969104070298059,128.76416896961732
3748.8667,1.7975917687005334,107.24737839135979
3749.729,1.7978364914406786,143.5518578688311
3750.5938,1.7976771560118459,124.52149033162549
3751.4565,1.7970865392710305,139.97000501407098
3752.3215,1.7956341738813206,133.23278827258827
3753.1848,1.7928358162453188,122.01261584843505
3754.0503,1.7887848364975187,107.66128503994712
3754.9138,1.7843960951462972,160.85509519958228
3755.7776,1.7808076997440219,130.4831194749885
3756.6438,1.7786970856202386,155.56963073209005
3757.508,1.7779855775557671,130.71210258496032
3758.3745,1.7779425231189825,118.71691141259792
3759.239,1.7774903332234075,127.08175793217875
3760.106,1.7755281840718202,119.99487264620225
3760.971,1.771382954489366,128.62948839761088
3761.8362,1.7651232798858811,124.91792700780346
3762.7036,1.7575468449297809,142.0254117739528
3763.5693,1.7499267606433502,140.4770599088332
3764.437,1.7435030346329412,119.52448147057687
3765.3032,1.7392354712943472,113.49495777836151
3766.1714,1.737315943063991,132.24857007607554
3767.0378,1.7369887386318745,153.68477930853294
3767.9043,1.7368016877377375,134.19794407283158
3768.7732,1.7354244758678434,132.94350447190627
3769.6401,1.7323358819858758,137.9216294741185
3770.5095,1.7277728720930696,146.63950732142848
3771.377,1.7223317883984548,106.69550137355874
3772.2466,1.716674858485981,122.52611469876608
3773.1145,1.7117842357228175,151.67406725606034
3773.9824,1.7087967222512883,120.63570877505666
3774.8528,1.7083442566830205,145.47693826220836
3775.721,1.7097219909721297,148.83865363173132
3776.5918,1.7109494431677057,126.6020709362564
3777.4604,1.709999720812239,144.1636226666362
3778.3315,1.7062520553612246,166.52037541595087
3779.201,1.7008488746504664,136.66049486659466
3780.0703,1.695590550726845,152.8575622146085
3780.942,1.6915472443155462,123.18161163517667
3781.8118,1.6885783389933255,135.9658844899594
3782.6838,1.685879837187575,171.77667262155686
3783.554,1.6829717375446043,137.75747799729726
3784.4265,1.6800136164006507,140.75207691500304
3785.297,1.6775517993675169,140.08585173039847
3786.168,1.6759500642738467,136.40326323346338
3787.041,1.6751359323486712,165.00227697237563
3787.912,1.6746555867433899,122.76293411929376
3788.7856,1.673955429165286,142.47370422278365
3789.6572,1.672732678623551,158.02140055655227
3790.531,1.6710653355625944,141.49425761908182
3791.403,1.669270540690407,155.15794230708278
3792.2754,1.6675450055846268,165.54808923749167
3793.15,1.6657672558710084,155.4270644403547
3794.0225,1.6635904125241603,154.2550391550362
3794.8972,1.6606518023599421,144.88066625536229
3795.7703,1.6568011100896944,136.58699368039416
3796.6455,1.6521042644919424,165.41858481935034
3797.519,1.6468781076100918,160.6373928413942
3798.3926,1.641487158069627,151.045329523471
3799.2686,1.6361733480751404,134.6835144073493
3800.1426,1.631057142392607,127.39655894797289
3801.0188,1.626275008813965,154.88218765109036
3801.8933,1.6223598693237467,141.53043232590392
3802.77,1.6201136512309222,147.99809091070153
3803.6448,1.6202130473111949,187.08556882699963
3804.522,1.622649485111864,134.60769478656286
3805.3972,1.6265112250614189,174.99310844754214
3806.2727,1.6302244725588573,139.86630441553865
3807.1504,1.632051493108266,155.11665308362996
3808.0261,1.630715432177089,132.34065943127985
3808.9043,1.6259416807689857,169.9076427004382
3809.7805,1.6186935387027392,180.84207657785163
3810.659,1.6108351536489756,163.65433343204333
3811.5356,1.6045341346933957,188.95545319738355
3812.4126,1.601191845648458,130.37293378947197
3813.2917,1.6008093384051916,163.69154329942984
3814.169,1.6020265975404833,171.4324512491831
3815.0483,1.6030458571302095,131.04860820986158
3815.926,1.6027350740462059,161.9803580197106
3816.806,1.6010242593651764,157.24305303752126
3817.684,1.5984188572280702,156.41589470068084
3818.5623,1.5953650518382927,158.84034549851907
3819.4429,1.5921791319102507,177.31044439564155
3820.3215,1.5892987765628874,172.68274332639058
3821.2024,1.5871172875508088,152.1863916836339
3822.0815,1.5855968589964806,156.7047423508589
3822.963,1.5840666826896206,155.55450110923778
3823.8423,1.5816710704863046,141.38610163218834
3824.722,1.5779541094134983,146.46189826786133
3825.604,1.573133939985603,174.37248619958288
3826.4841,1.5679683334249395,142.6117623743026
3827.3665,1.5632598637881607,151.97835593084295
3828.2468,1.5595772596717044,164.82660909543748
3829.1296,1.5570125745500525,188.7770000036055
3830.0105,1.5553363517654761,185.98441384997938
3830.8916,1.5541530231113474,185.05563796114606
3831.7751,1.5530711543763116,179.20403313309401
3832.6565,1.5517776931078118,171.25923213009506
3833.5403,1.5501468195389407,235.25804274576
3834.4224,1.548439618872911,198.9174167616936
3835.3064,1.5472391813263875,212.3832544744788
3836.1887,1.5470749346984662,142.90747652592364
3837.0713,1.5479071087366312,165.62463127586742
3837.956,1.5490333094782702,180.39652869150814
3838.839,1.549528680941125,191.0403798746533
3839.7244,1.5488880993091882,185.87140198771493
3840.6077,1.5472562922789854,190.76772975949103
3841.4932,1.5451046764946166,198.4664563788781
3842.377,1.5427637516253965,182.4232657327858
3843.261,1.540141344570183,157.32557535767782
3844.1472,1.5368614298087255,204.221856463948
3845.0315,1.5326864089225372,176.01468740329733
3845.9182,1.5278390105299011,165.16685978251658
3846.803,1.523081066395704,172.15757155376377
3847.69,1.51914412431671,188.52315076797268
3848.5752,1.5162947190527836,195.8577007022426
3849.4604,1.51428580027042,153.3034120149761
3850.3481,1.512875162470293,199.32194096808286
3851.234,1.5121555879046544,196.19531852560806
3852.122,1.512322091799329,195.28584657943765
3853.0083,1.5132215986201052,211.5359701766019
3853.8967,1.5141583186150522,190.15028822933948
3854.7832,1.5141522645121694,158.38005084883562
3855.6702,1.5124604021525443,171.0827824821142
3856.559,1.5089179651021425,179.93949116278944
3857.4463,1.5039580214387305,175.69179289579947
3858.336,1.498259781390421,164.82216892534112
3859.2234,1.492514948706994,184.80017912160528
3860.1135,1.4870823211584532,197.35366969218975
3861.0015,1.4820190241702844,153.1196004031141
3861.8896,1.477163579572786,188.6066388674928
3862.7803,1.4726063421538154,183.1102251119582
3863.6687,1.4689408715288848,214.1850595083525
3864.5598,1.4668504387085333,192.43703659087387
3865.4487,1.4665513886294645,191.2094441536356
3866.34,1.4674369634047657,187.70461917194618
3867.2297,1.4683259818115997,174.24615193393421
3868.1213,1.4680091743422223,218.86979855211914
3869.0112,1.465817619527568,183.15340329863025
3869.9014,1.4620325838742425,173.35363836435465
3870.7937,1.457878430991031,172.77392027023916
3871.684,1.4549892600991339,221.903686403224
3872.577,1.4544464951115357,203.54838365233806
3873.4678,1.4562141601739365,201.19027992704156
3874.361,1.4592406899155252,167.94500282690288
3875.2524,1.4621156344264852,188.1976249703803
3876.1438,1.4638469250791861,199.72496540800034
3877.0376,1.4641949699358114,179.30799063466958
3877.9297,1.4635465893398485,198.42194920923015
3878.8237,1.4624389269682039,186.36642520101867
3879.716,1.4610960906549464,189.11649247354944
3880.6108,1.4592972871885523,195.4132648115759
3881.5037,1.4566603368725013,187.28093152567945
3882.3965,1.4529369264214518,204.80412363848137
3883.2917,1.4481180065575705,201.22141925524292
3884.185,1.442367556523387,217.42348015986443
3885.0808,1.4357939798123018,228.4312799962113
3885.9746,1.4285758986479054,210.9224795395285
3886.8706,1.421013635267801,203.43922944052173
3887.765,1.4137965136455326,222.33497821938516
3888.6592,1.4077505559909536,213.54277714162575
3889.556,1.4035293474073927,204.22240194808438
3890.4507,1.4014087042519228,212.15584198015077
3891.348,1.4013420428727013,210.3707491622599
3892.243,1.4032271562699985,226.0802919623366
3893.1406,1.406835371056488,187.2607785191532
3894.0361,1.4114255988973485,215.53168834627428
3894.932,1.4156601118611516,204.2069271975634
3895.83,1.4179803822924626,204.62645564268152
3896.7263,1.4173467042276562,201.27023401830434
3897.625,1.4137970818331114,197.97206278860193
3898.5215,1.4084370467407594,218.6392710866422
3899.4207,1.4028832136934841,206.39761474435943
3900.3176,1.3987055426431387,217.66289955506173
3901.2148,1.39675920785474,214.95274807040335
3902.1145,1.3969043952645925,201.13056738908023
3903.0122,1.3980004265209858,209.797466344264
3903.912,1.3984502326584407,204.2105653880461
3904.8103,1.3971515682127515,200.31009186754957
3905.7107,1.3942948274990323,182.85006579719075
3906.6094,1.3913642900137106,205.10810008719602
3907.508,1.3901593443586535,266.73957673588194
3908.409,1.3916225033044027,203.78183767987323
3909.308,1.3952314862926931,224.63008131534738
3910.2097,1.3994174350095783,207.0633060647486
3911.1091,1.4025121830923093,222.10635270348257
3912.011,1.403699411682082,200.38066780266047
3912.9111,1.4031926261788878,229.36867639760388
3913.8113,1.4018159319320798,214.8488500816874
3914.7136,1.400284988412392,224.40270406156048
3915.6143,1.3988007078207199,198.2744568699262
3916.517,1.3970840954738768,228.00218035426283
3917.4182,1.3947632282564673,230.33322616143923
3918.3215,1.3916672294815942,207.5591425208634
3919.223,1.3879643337886518,232.99117453215342
3920.1245,1.384000567721643,199.6385935887234
3921.0286,1.3801566481264982,221.8884499179256
3921.9307,1.3767983686770522,240.37180279105664
3922.835,1.3741919022078735,189.02777397762102
3923.7373,1.372497878420022,213.470155032337
3924.642,1.3716395764174922,197.89960171193795
3925.5452,1.3713699707563374,219.798116122098
3926.448,1.3714243268525037,246.58467768840316
3927.3535,1.37165864116821,229.264538494924
3928.257,1.3720028741467303,236.21862276983464
3929.1628,1.3723504705690297,200.70464484219195
3930.0667,1.3724851560137665,238.39326470823246
3930.9731,1.372038718767714,225.64122739140484
3931.8774,1.3704725621139084,240.02730758092136
3932.782,1.3672312486671414,195.70149034003558
3933.6887,1.362125413752028,219.40046948544347
