wavl,flux,ivar
3566.9744,6.109246602538548,73.75067215622224
3567.795,6.107477625327412,68.52575150144499
3568.6177,6.102006784608934,68.23319409468641
3569.4385,6.095900361442696,70.81133441824713
3570.2617,6.092059631759626,75.70459043666752
3571.083,6.0919093178357,84.44439013675614
3571.9065,6.094907540294636,67.40989001777251
3572.7283,6.09925410154845,71.25594548925416
3573.55,6.1030368334996075,69.5271059823122
3574.374,6.104828755909874,76.38923423311006
3575.1963,6.103610638061861,72.41730561936241
3576.0208,6.098600207643406,68.2475219099263
3576.8435,6.089378732118955,70.87114940105793
3577.6682,6.076010535704877,74.5722310203631
3578.4915,6.059405931114547,63.1350847607782
3579.3145,6.041422979624885,71.47319380297063
3580.14,6.024819301315506,78.21623795908528
3580.9636,6.012386073984581,79.36949491053306
3581.7893,6.005057804741188,83.00216837689821
3582.6133,6.0014356124134345,72.78794632770258
3583.4395,5.99869065149976,77.60931626327744
3584.264,5.994542537174792,80.50978875348181
3585.0884,5.988340879803906,69.26869424803996
3585.915,5.980762029539535,74.94627369890462
3586.74,5.9727611258291775,81.19727801642114
3587.5671,5.964597014414702,70.78903731311853
3588.3923,5.956034536769018,78.28312172316508
3589.22,5.946803547811982,76.49557741747985
3590.0457,5.937145918998407,86.35277330633073
3590.8716,5.927419801349292,82.89273250412681
3591.6995,5.917922806767825,73.43813879670341
3592.526,5.909209261227368,76.68788829477707
3593.3542,5.9023176037466305,76.99331077460069
3594.181,5.898545014861741,82.97554863387751
3595.0098,5.898352323879649,78.92026198813188
3595.8367,5.900791931625959,80.19048099945321
3596.6638,5.903858526186946,79.63516244980147
3597.4934,5.905623883769894,72.14507774329618
3598.3208,5.90533002714866,77.683993293079
3599.1506,5.903699281946942,90.96467911499886
3599.9788,5.902113851050997,93.21552285212823
3600.8088,5.901393505192965,80.04851605081025
3601.6372,5.901268940625241,69.7827551427413
3602.4678,5.9006477498853345,83.69222949086289
3603.2964,5.898150203864051,74.66236632937608
3604.1252,5.892617646392242,79.05654268123119
3604.9565,5.883726231376507,84.19083311289238
3605.786,5.872473479146127,85.01960099704512
3606.6172,5.860489362368814,82.01678388763213
3607.447,5.849021010168288,89.97075556449991
3608.2788,5.8379569837353005,74.87615710589803
3609.109,5.826357988803765,77.43739331584668
3609.9392,5.813330692829433,83.21687447345712
3610.7717,5.7989322539218415,84.82477097061403
3611.6023,5.784394751598259,73.67598767065857
3612.435,5.771277916853943,81.49891507224697
3613.266,5.7608627518640665,81.70805379150725
3614.0994,5.753372335337924,82.88346116225655
3614.9307,5.748317860996601,84.23317457144731
3615.7625,5.744945777857934,83.80922445956841
3616.5962,5.742727932047024,86.89809248114136
3617.4282,5.7413077473277605,81.28645124257044
3618.2625,5.740306649418874,84.6232067153501
3619.0947,5.739509830589051,76.41252203293352
3619.9292,5.739227172912059,87.89259057015212
3620.762,5.740265805330869,84.87793821204141
3621.595,5.743128233881901,85.06451506636874
3622.4302,5.747174632419288,85.9902650604113
3623.2634,5.7507348571875525,77.43974738019935
3624.0989,5.75241107387645,85.50830827734796
3624.9326,5.752246131869577,79.36284042131354
3625.7686,5.75195848317889,80.2878891048924
3626.6028,5.754024735864989,80.75459946236228
3627.437,5.760156544908964,87.80667625771784
3628.2734,5.769889696223367,87.98456920265001
3629.1082,5.779967275054537,93.15798774022994
3629.945,5.785609446213195,79.92501051412648
3630.78,5.782777266423406,82.28524390645852
3631.6174,5.770425308382825,73.02692698606943
3632.453,5.751045058560732,84.4716562656284
3633.2883,5.72893078860125,93.11640184636938
3634.1262,5.70785529721995,100.73485412098808
3634.9622,5.68978310747205,85.07567734774214
3635.8005,5.674541768936388,89.99330067892645
3636.637,5.661210426803367,88.33411232037183
3637.4756,5.648850183341649,81.49958689983681
3638.3123,5.637477742557967,94.23493051722522
3639.1492,5.627963289180976,101.8641162529136
3639.9885,5.621391901180037,86.23834428215207
3640.826,5.6176984311226,103.26035936841937
3641.6653,5.6147894857926595,82.98774962001104
3642.5032,5.609692136855741,83.32990049983394
3643.343,5.600798142741717,87.06550845641532
3644.1812,5.589410619546149,82.6895371517144
3645.0195,5.5786813271604965,97.72323428790095
3645.86,5.571155378823288,93.10273204162773
3646.699,5.5669648082179455,91.93577239715994
3647.5398,5.563951732891945,91.94955121889971
3648.379,5.559533925383525,85.24586758025777
3649.2202,5.552309576014521,100.05989963196049
3650.0596,5.5427549184623865,95.96697894689187
3650.8994,5.5326889127066865,87.93989964339275
3651.7412,5.524394465217769,90.30822769810607
3652.5813,5.519584926257433,101.65567085827387
3653.4236,5.5185713814106885,96.02258790658456
3654.2642,5.520475354952202,88.23812151935975
3655.1067,5.524153346246182,84.27647282521434
3655.9475,5.529087110101615,94.34134690917155
3656.7886,5.53535061448792,84.14793896602224
3657.6318,5.542645461239837,91.75429201217314
3658.4734,5.549570600139796,92.61143351444845
3659.317,5.5542331299692425,96.13470900235696
3660.1587,5.555430866709304,83.79973648543833
3661.003,5.553615535951679,96.68995440649338
3661.845,5.5505516503461445,86.8860883231219
3662.6875,5.547889514007616,85.77684946103376
3663.532,5.545713571133473,85.95543230430893
3664.3748,5.542248998872478,81.26463160176719
3665.2197,5.535079278850227,86.16103405723774
3666.063,5.523116784382958,85.53697214752603
3666.9084,5.507483434211142,84.70732278756165
3667.752,5.491227308903757,89.59697357121719
3668.5977,5.477559896026212,85.78730870939812
3669.4417,5.468630321797987,97.28155281703316
3670.286,5.464380880326994,94.96823855721155
3671.132,5.46265682770157,90.3227624114583
3671.9768,5.460127569671338,93.18766716237867
3672.8235,5.453877758173017,92.10141974360901
3673.6685,5.4429237307791185,99.71073647006219
3674.5156,5.4285173455451154,92.90107692377777
3675.3608,5.413562157380424,92.94786619355642
3676.2063,5.4009169355896205,87.14182288291174
3677.0542,5.392235531286897,112.10074737321597
3677.9,5.387626318017862,86.8764559733186
3678.748,5.386193484063906,94.89740049196432
3679.5945,5.387230555747206,96.83959659332417
3680.4429,5.390677120301849,93.05434785167725
3681.2896,5.396686769930298,99.3782878851454
3682.1365,5.4049557380864215,98.64119610484876
3682.9856,5.414535034861608,98.10486906937803
3683.8328,5.424164239312635,98.2088563181156
3684.6824,5.43284232730451,99.20340291236298
3685.53,5.439584410441924,93.789428219479
3686.38,5.443336630296331,92.49454219995371
3687.2278,5.443002932219648,90.95700505831078
3688.0762,5.438251725066964,89.18649394745225
3688.9265,5.430221237478365,82.61986756203842
3689.7751,5.421532115395215,92.14204595527775
3690.626,5.414860119187727,91.40509436951633
3691.475,5.411349878602501,93.05119798454044
3692.3264,5.409852115480462,93.09837131814399
3693.1758,5.408060647082592,91.32983284712464
3694.0254,5.404301492185328,88.06394515190674
3694.8772,5.398492603261282,100.97264029902304
3695.7273,5.391596329003457,97.13938870634334
3696.5793,5.3841489545582295,97.57530107620512
3697.43,5.375671104293505,91.67507650850501
3698.2825,5.365093157498393,99.40804355897633
3699.1333,5.351896992980574,98.57738899665281
3699.9841,5.336289656829079,99.33959339988269
3700.8374,5.318797907833823,96.33500202178013
3701.6887,5.300072642904779,99.42203527275649
3702.5425,5.280762906700652,96.35072655703223
3703.3943,5.262271213607972,95.04140122162597
3704.2483,5.246227966450461,101.22935925248345
3705.1003,5.233998248552089,99.62576262584629
3705.9526,5.22547350767743,95.02891934413312
3706.8074,5.219128892819494,106.59648875852116
3707.66,5.213111468850683,97.63200802490128
3708.515,5.206674446193762,95.75609360823302
3709.3682,5.201046751880746,99.0105016212147
3710.2234,5.19854610967309,105.778445175698
3711.0771,5.200974351008407,100.28059365963395
3711.9307,5.208300261333225,108.03508034701757
3712.7866,5.2187624665104355,98.76982709124391
3713.6409,5.229851331727103,104.75402249063086
3714.4973,5.239720679252252,103.60649355202548
3715.3518,5.247489653789451,87.56625704733716
3716.2085,5.253120793377369,102.8361875163582
3717.0635,5.256806410987297,99.61237684849917
3717.9185,5.258881847734454,96.28108466991047
3718.776,5.259654095357021,110.09457723217184
3719.6313,5.259089060544202,101.36623205952317
3720.489,5.256593413857333,91.86824673752048
3721.345,5.2514074917334534,102.4458050066894
3722.2031,5.2433738190413175,99.29425108615936
3723.0593,5.233481827676436,101.89672664457758
3723.9158,5.223295165572132,99.31708629770687
3724.7747,5.214070505337541,105.07003661809034
3725.6316,5.206243906249045,98.3871355542958
3726.4905,5.1993675006821425,99.522684188727
3727.348,5.192648440208892,108.50604143082683
3728.2073,5.185018838210325,99.7188898461953
3729.065,5.175233076030517,97.05163290282114
3729.9229,5.161842983549833,97.22346738737144
3730.783,5.1436340892508134,102.18022280855513
3731.6414,5.1205228669284715,101.74490720762614
3732.5017,5.093993580743156,114.8289547004509
3733.3604,5.067600072883599,107.49368132578407
3734.2214,5.045419922807331,112.78341248455709
3735.0803,5.030415141002082,115.66822648203684
3735.9417,5.02238607337007,113.46476725324939
3736.8013,5.018704246741462,107.29509532890444
3737.661,5.01646519820653,110.2250171307849
3738.5227,5.014880351311325,102.6162270390913
3739.3828,5.0156213974298565,119.7571248827667
3740.245,5.021168432613244,106.65407104043487
3741.1055,5.0327409869461315,101.74863151994795
3741.9683,5.049506756809917,114.18891152234832
3742.829,5.068829853779577,110.71117854128373
3743.69,5.087797354682096,115.23859554898605
3744.5532,5.104330658321548,108.82868701672275
3745.4148,5.117509475120905,101.59794961181943
3746.2786,5.127338684141608,101.17051285920483
3747.1404,5.133654211490653,102.50107443700568
3748.0044,5.136022418548226,105.37504686631726
3748.8667,5.1341309011560785,107.27335399646371
3749.729,5.128499617593729,108.92192628074886
3750.5938,5.120537922005142,96.899953991731
3751.4565,5.1122076774255145,110.64011437725952
3752.3215,5.105242260137436,104.2194084483308
3753.1848,5.100722842963232,109.84371806023506
3754.0503,5.098647783281032,109.8588172762835
3754.9138,5.098075797798787,108.78040443546118
3755.7776,5.0974713377526015,96.55210479214237
3756.6438,5.09520539621711,102.41552054373324
3757.508,5.089948448838179,106.97862091229644
3758.3745,5.0807576744784635,107.89807620698433
3759.239,5.067094858336367,106.44227289921419
3760.106,5.048506858140952,105.0894665606886
3760.971,5.0250713778261185,103.99816089814537
3761.8362,4.997659356562402,112.45594060489223
3762.7036,4.968577778013752,109.04184529542239
3763.5693,4.941614555169354,108.26324217940413
3764.437,4.920463364958859,119.70122162737782
3765.3032,4.907576301774925,111.2943118168751
3766.1714,4.902775361392963,115.00997041639229
3767.0378,4.903564315631232,118.24778184349016
3767.9043,4.906308112709847,110.26597531705535
3768.7732,4.908076800388384,119.23814733038948
3769.6401,4.9079841140379585,115.35289836316839
3770.5095,4.907516803531905,111.58344186883724
3771.377,4.909593016918666,113.23850527906298
3772.2466,4.916839805886369,113.78160018412632
3773.1145,4.929867407971653,105.12672935772663
3773.9824,4.9468091363583575,115.07236918072698
3774.8528,4.964322257747677,107.05711877914433
3775.721,4.97924896863906,104.70434769464795
3776.5918,4.990271281341557,115.34530881959995
3777.4604,4.99756065443218,109.14623446143347
3778.3315,5.002002205189617,114.77822526556093
3779.201,5.004118413701022,109.67351450145428
3780.0703,5.004055592686519,112.00145790931987
3780.942,5.001997181212584,114.04113801351626
3781.8118,4.9986403423148,103.75478758399929
3782.6838,4.995149324374663,111.66265040640029
3783.554,4.9926112902025706,111.76773629546251
3784.4265,4.991047805185906,115.58848393945352
3785.297,4.988913424930816,103.13171939299406
3786.168,4.983639647370807,113.99881898779726
3787.041,4.973159906787952,109.90995319279847
3787.912,4.957301075983341,110.63710386579655
3788.7856,4.937488489785637,115.56699014877496
3789.6572,4.915803129371055,101.7547958695451
3790.531,4.89348486172305,116.71081946225857
3791.403,4.871186445672548,114.62846985095283
3792.2754,4.849198171795297,112.37796017330352
3793.15,4.8281608804333205,125.59822523879284
3794.0225,4.809367458204345,110.69591242316373
3794.8972,4.794179729484116,126.62341205824536
3795.7703,4.783798442737135,120.74783545897546
3796.6455,4.778325051541677,123.92721273136853
3797.519,4.7765946920506765,113.21333174690841
3798.3926,4.776426133820933,119.80374349155444
3799.2686,4.775746336980778,119.28649644444135
3800.1426,4.773806617194131,113.52142701999222
3801.0188,4.771685514405196,123.1595298402695
3801.8933,4.771621990047248,123.11727608738684
3802.77,4.775565472831819,123.6101711298469
3803.6448,4.7841479205964355,125.56970168337982
3804.522,4.796924859005618,115.23582824887792
3805.3972,4.813081025206214,122.22161783231591
3806.2727,4.832152941972828,119.67634558368654
3807.1504,4.853598928547246,106.34586184975991
3808.0261,4.875814185695485,123.99854334302643
3808.9043,4.896115091899471,115.35213120953158
3809.7805,4.910982741675696,109.25982056903636
3810.659,4.917922644787371,108.37720247970782
3811.5356,4.9165848776811245,109.82212664735245
3812.4126,4.909140146883117,112.86976817585166
3813.2917,4.899005519931427,116.79515029797493
3814.169,4.889290545926717,113.79470591082126
3815.0483,4.881573166570063,112.36595314622997
3815.926,4.875954957677234,112.50976019097115
3816.806,4.8713029629532665,114.888006501536
3817.684,4.865843882791549,106.34276230308767
3818.5623,4.857653466335648,112.2050022073715
3819.4429,4.845225678952394,111.11915266873257
3820.3215,4.82794195026237,120.95657431025535
3821.2024,4.805835507215846,117.18528553203078
3822.0815,4.779781200613814,118.89404129427409
3822.963,4.751080088812095,117.68746874770592
3823.8423,4.721902607738643,121.57689180797863
3824.722,4.694505558257655,125.1693210801451
3825.604,4.670708429161649,122.96742638310374
3826.4841,4.651297983354661,115.7688785095957
3827.3665,4.635493307680719,123.80646227937665
3828.2468,4.621958795372167,115.13528909137676
3829.1296,4.609421266630337,126.35432643085115
3830.0105,4.597518560497432,132.35051865413618
3830.8916,4.586579326776992,117.13236511298507
3831.7751,4.5775076958064345,122.26427505810292
3832.6565,4.5716927754640855,140.68774470890963
3833.5403,4.570616612165827,129.3729227969307
3834.4224,4.575301514247118,147.3785068082628
3835.3064,4.585492025100799,143.67097610661918
3836.1887,4.599474774690257,124.22386155877783
3837.0713,4.615138209144801,112.90515736747128
3837.956,4.631168938828797,122.35204652648362
3838.839,4.647401607658299,126.91827330056292
3839.7244,4.6645132271943615,119.38368374847865
3840.6077,4.682783985418129,129.43742338788687
3841.4932,4.701823462117896,123.96102464118135
3842.377,4.720297446653495,123.15873998367778
3843.261,4.736836977334183,111.5532892608723
3844.1472,4.750569910583451,113.19866009312885
3845.0315,4.761166188917419,123.92120291737669
3845.9182,4.7686167282590155,118.3871827662859
3846.803,4.772802470679688,115.50102100394554
3847.69,4.774062015320089,116.2042656185145
3848.5752,4.7735546252556205,123.48966428160293
3849.4604,4.7728661901373,120.81359001932378
3850.3481,4.772787715483409,123.22643330454935
3851.234,4.772501653337771,123.99127943195982
3852.122,4.770038736790058,118.30425773804399
3853.0083,4.763656436943095,129.93139738720004
3853.8967,4.752863337471748,119.7611936181808
3854.7832,4.738793590689912,122.17896303922446
3855.6702,4.723735384098119,119.53633205062236
3856.559,4.710665519119835,128.49569954828675
3857.4463,4.7024339175067675,127.37139166348675
3858.336,4.7004771334906215,123.51470986747107
3859.2234,4.704158478025963,123.22673825195866
3860.1135,4.710886164809865,123.85626826569685
3861.0015,4.717146157193029,114.02238165835179
3861.8896,4.720026360649024,124.45606157818013
3862.7803,4.718219500506997,127.73363649120978
3863.6687,4.712500203623862,123.2720637080566
3864.5598,4.705394718867992,124.11730134923464
3865.4487,4.700304632441333,118.74164495109004
3866.34,4.69981100495721,137.19487055458953
3867.2297,4.70417905349854,116.25209523888566
3868.1213,4.710896473241563,119.57237688923524
3869.0112,4.716005978312672,120.49985115988775
3869.9014,4.716541873649136,120.03916784361166
3870.7937,4.711949150624541,131.54673522211382
3871.684,4.703740882848649,119.10920365937962
3872.577,4.693736135962035,125.72341912940288
3873.4678,4.682797520585811,116.07666637119283
3874.361,4.670414239037342,115.78996079416864
3875.2524,4.655675908716066,127.9452336397896
3876.1438,4.637982205972337,121.29029032694336
3877.0376,4.617408156340355,128.10231144691218
3877.9297,4.594465610284789,137.67123049860623
3878.8237,4.569129704252438,128.7625321228417
3879.716,4.54106700888524,127.1002402636607
3880.6108,4.50957991753859,137.28101148890562
3881.5037,4.474523462148741,135.66567149288974
3882.3965,4.435919831062184,128.50032297637534
3883.2917,4.3942170035468235,141.2368547974723
3884.185,4.350831247890061,145.715253131115
3885.0808,4.307301236165257,134.56698716576142
3885.9746,4.265641143059969,147.8425583064963
3886.8706,4.227205430698084,147.12837635722371
3887.765,4.193702680859139,147.62796219400533
3888.6592,4.166979543066021,161.22704244574555
3889.556,4.149157756673055,156.34727547247658
3890.4507,4.141999803109387,163.64545135868573
3891.348,4.145927341261631,156.63998771462252
3892.243,4.159868317647484,166.64667196949964
3893.1406,4.181499362218287,161.07283598290752
3894.0361,4.207392481336381,162.3334424122198
3894.932,4.234096362547925,153.9020629322116
3895.83,4.2591400089893385,142.68483769439263
3896.7263,4.282198328990242,147.46362141533055
3897.625,4.306071867204528,146.20950582350994
3898.5215,4.334933587303219,151.27375453128178
3899.4207,4.372148148903625,150.44608927381287
3900.3176,4.417350560816799,139.60673698977644
3901.2148,4.467113928867906,128.1946628600034
3902.1145,4.516753651264374,130.78807706815448
3903.0122,4.562205266718525,129.13983319009265
3903.912,4.601815135024959,123.28931930113306
3904.8103,4.635197405164075,126.60453047801687
3905.7107,4.6632309608997495,115.23303559338702
3906.6094,4.686952344816406,116.47534997991204
3907.508,4.707632909498823,127.39406080951227
3908.409,4.726192347059776,118.46226778809803
3909.308,4.74277664912773,129.06929893920622
3910.2097,4.75708283520403,112.12722401804862
3911.1091,4.768534595738053,121.80276527574705
3912.011,4.777106469850991,121.39467316743482
3912.9111,4.783217272363626,115.51100581918323
3913.8113,4.787546002993011,121.20416958715366
3914.7136,4.790572222779097,118.28196161611952
3915.6143,4.792507860249672,110.56521640674713
3916.517,4.793473127461293,116.71899679258547
3917.4182,4.793444192812365,119.29440167165845
3918.3215,4.792089781583456,125.50517311617998
3919.223,4.788800983513954,118.58856006724255
3920.1245,4.783100833808498,116.65857146930674
3921.0286,4.775147164229594,123.40161035800894
3921.9307,4.7659799368011235,124.24193483168446
3922.835,4.757114129197662,117.70971450460102
3923.7373,4.7502370859141045,133.4040269676251
3924.642,4.7465978099628945,121.94197990749122
3925.5452,4.746663787016868,121.59681853479697
3926.448,4.749708560197867,126.25680682625442
3927.3535,4.754032468161454,129.75095262468662
3928.257,4.757799137146869,115.326008286009
3929.1628,4.760333449340136,122.3828221931129
3930.0667,4.762599681733136,126.22575024523327
3930.9731,4.766469419099431,122.17138836303377
3931.8774,4.773065917118548,126.52162254042288
3932.782,4.781751243575544,112.11489283229403
3933.6887,4.790386601470444,117.66883618849586
3934.5938,4.7965533071720525,114.8602148999888
3935.501,4.798882165890171,114.33656026332234
3936.4062,4.797259966559199,116.84749272718769
3937.3142,4.7923259387501504,127.99047587255433
3938.22,4.784864881304432,127.69925659707037
3939.128,4.775504485435888,115.72620940353586
