wavl,flux,ivar
3566.9744,42.3463921558497,3.886078149695834
3567.795,42.263577712810196,3.6568951672323293
3568.6177,42.1670537976333,3.865069342716563
3569.4385,42.06412323658638,3.8362512065433627
3570.2617,41.96049115697372,3.760276068511887
3571.083,41.86302351949274,3.6902897310457563
3571.9065,41.77760983037701,3.6419728594393717
3572.7283,41.709305389594455,3.824336996574799
3573.55,41.65872203540642,4.034749805300435
3574.374,41.622248699614026,3.7592736434187755
3575.1963,41.59384975541334,3.819001144656466
3576.0208,41.567094589184464,3.482551603285303
3576.8435,41.53773563901437,4.038355865969575
3577.6682,41.50421666631464,3.8910366564860226
3578.4915,41.468970669343044,3.9451660569509874
3579.3145,41.43776166309327,3.8650233473937985
3580.14,41.41683522623014,3.9327590028662938
3580.9636,41.40764369426127,3.7665035839567835
3581.7893,41.40276471421037,3.976164175295542
3582.6133,41.38864630890849,3.9950227230545403
3583.4395,41.35344802766107,3.9864173755894323
3584.264,41.2947821737846,3.7827996065999625
3585.0884,41.21942015801251,3.9071850177279757
3585.915,41.13634790629026,4.1309386137158235
3586.74,41.050333750522825,4.00884705786839
3587.5671,40.959203757765735,4.019514968201856
3588.3923,40.85964207688992,4.039269263678312
3589.22,40.749769119950166,4.183059100286909
3590.0457,40.63293116869951,4.089520915075928
3590.8716,40.51509224596022,3.969034968597104
3591.6995,40.403739297832374,4.270261113730708
3592.526,40.3053981596017,4.096152214617364
3593.3542,40.22151130306626,4.267249054872779
3594.181,40.15016559890151,3.981484055654186
3595.0098,40.0867836793364,4.120665438539632
3595.8367,40.02695009734542,4.373565492367915
3596.6638,39.965525731880724,4.39700607108818
3597.4934,39.898973673681894,3.965698197993594
3598.3208,39.82998508198217,4.038362069149295
3599.1506,39.767912943254515,4.265253135127442
3599.9788,39.72545909370038,4.31666749160113
3600.8088,39.709404774902424,4.073974384462715
3601.6372,39.716932867215775,4.087833912416158
3602.4678,39.73724589986211,4.036185329379971
3603.2964,39.7562619152774,4.167488942301427
3604.1252,39.76109899401649,4.236119299128245
3604.9565,39.74348538731288,4.284288847979363
3605.786,39.70312376910537,4.271851785067067
3606.6172,39.64734476693976,4.395308565645194
3607.447,39.58771294893862,4.083766241720016
3608.2788,39.53376407713649,4.224510152406221
3609.109,39.490323218883354,4.2505496883398495
3609.9392,39.455774924978265,4.312565367760483
3610.7717,39.4236440334232,4.540153381342024
3611.6023,39.385436393776914,4.288573598421649
3612.435,39.33355408030232,4.347387487608264
3613.266,39.26508662852001,4.374623240311546
3614.0994,39.18195976615341,4.474298379417841
3614.9307,39.09095664012511,4.306367819590377
3615.7625,38.99892028143941,4.431787261679817
3616.5962,38.90976064503163,4.327599273691633
3617.4282,38.82356950724723,4.419207413801983
3618.2625,38.73766078916532,4.519334994037104
3619.0947,38.652127472640466,4.6377162668770335
3619.9292,38.56954968350786,4.477330338829693
3620.762,38.49422151631998,4.231937948690702
3621.595,38.42770978358892,4.7447929779078954
3622.4302,38.369247162939715,4.608579211353239
3623.2634,38.31756350057087,4.579065178311818
3624.0989,38.26975391572886,4.632057469102361
3624.9326,38.22062142191945,4.484115873202423
3625.7686,38.162580835084334,4.914592451444409
3626.6028,38.091990023766485,4.654256384191036
3627.437,38.01365126671997,4.4946576285080155
3628.2734,37.94006396889569,4.85051247122596
3629.1082,37.883603188341915,4.733704478238908
3629.945,37.845796656667744,4.603964822890711
3630.78,37.81573369501992,4.827661401514444
3631.6174,37.77565222859696,4.599864772463955
3632.453,37.71188847405417,4.773806495269544
3633.2883,37.62066254108682,4.712802768247366
3634.1262,37.50794271086862,4.750096462726142
3634.9622,37.386356184923216,4.873416202327432
3635.8005,37.26806366178891,4.866955841935719
3636.637,37.16331222030074,4.851303508638724
3637.4756,37.07574870288431,4.9083544172489555
3638.3123,37.004167848786985,4.90882488021004
3639.1492,36.94309344910549,4.869953258340038
3639.9885,36.88726954953485,4.956718486649038
3640.826,36.83443835012481,5.1297137028870665
3641.6653,36.78349627749498,4.968517632319215
3642.5032,36.7326128451044,5.148679673731806
3643.343,36.67713401917068,5.35261531434773
3644.1812,36.61273206347679,5.0885032135051
3645.0195,36.5380011908458,5.01997527108744
3645.86,36.45564292227001,5.00503549705298
3646.699,36.3708979403621,5.219360568596678
3647.5398,36.28767848071487,5.120865232541947
3648.379,36.209532271249465,5.176391468634013
3649.2202,36.138611409904556,5.1599236863858975
3650.0596,36.07617287289973,5.007643731843077
3650.8994,36.01986342393445,4.975025842614269
3651.7412,35.96518767689737,5.4602274553348344
3652.5813,35.90915885071199,5.359786460301773
3653.4236,35.85252390880169,5.362874492638665
3654.2642,35.80030658278178,5.302896327836994
3655.1067,35.75681949602071,5.400128961780244
3655.9475,35.722237216148436,5.501447232506033
3656.7886,35.690989072811696,5.11531193097187
3657.6318,35.65536988300942,5.2498579527767895
3658.4734,35.610440008676115,5.345992643811663
3659.317,35.55619321525831,5.396783635606988
3660.1587,35.49836772481685,5.189216199610494
3661.003,35.44539177758266,5.531214862510434
3661.845,35.40539342265155,5.715055043087616
3662.6875,35.38039869892242,5.476038979102554
3663.532,35.364732397736724,5.499017088179486
3664.3748,35.34789435824649,5.2564572324585175
3665.2197,35.320861703262636,5.310433687542534
3666.063,35.281479461709374,5.304207383204517
3666.9084,35.23397366883529,5.153753775593833
3667.752,35.1859807474356,5.670008186965767
3668.5977,35.14358211779898,5.6297428291603895
3669.4417,35.10913252924668,5.8466943197608074
3670.286,35.07866582156793,5.605349416225169
3671.132,35.042790727548585,5.381850961697957
3671.9768,34.99153198750678,5.204118590954731
3672.8235,34.92088971202524,5.477567520386586
3673.6685,34.83795442870875,5.612107008248913
3674.5156,34.756826704769715,5.339837964300767
3675.3608,34.691323300122484,5.78507027795235
3676.2063,34.64508735956022,5.882653051280678
3677.0542,34.60973923266325,5.771821532591177
3677.9,34.56994727914218,5.5384224765934125
3678.748,34.51199463406092,5.714464912049815
3679.5945,34.43198517591302,6.022466474667759
3680.4429,34.33541513587961,5.5632208940834
3681.2896,34.23383914047209,5.770751960445309
3682.1365,34.138214565743716,5.676700065219105
3682.9856,34.056370771662124,5.896969955718073
3683.8328,33.99155407112668,5.612991546866611
3684.6824,33.94019788065059,5.803248221018578
3685.53,33.895715292126496,5.414520443098885
3686.38,33.853729695055875,5.685468599178181
3687.2278,33.81824552751399,6.193659387234904
3688.0762,33.79866229593722,6.062922009774957
3688.9265,33.80116158337301,5.96174782345581
3689.7751,33.82093593586103,5.547568446975928
3690.626,33.84370288339216,5.995199712700376
3691.475,33.854049393521066,5.63098576758407
3692.3264,33.84329731767802,5.705461159016039
3693.1758,33.81090867856159,5.503054405325947
3694.0254,33.76144553161623,6.0433026813828645
3694.8772,33.701526826211804,5.813833334690525
3695.7273,33.63922320026877,6.1470924254293156
3696.5793,33.58228469084273,5.89200470324766
3697.43,33.53679035536008,5.928801437026421
3698.2825,33.502623471351676,6.085477601428103
3699.1333,33.47227835450192,5.8297108423174295
3699.9841,33.43321232036015,6.011568508406923
3700.8374,33.37497974756501,6.192402121429305
3701.6887,33.296061526843076,6.077906608681379
3702.5425,33.20335557568514,6.138404853985759
3703.3943,33.108764647679756,5.975741730734266
3704.2483,33.021261267826226,6.144915331018526
3705.1003,32.945320855946036,6.231322198799606
3705.9526,32.87936391895772,6.188426560338501
3706.8074,32.81817547972581,6.498608172693312
3707.66,32.75596534412259,6.248258915765174
3708.515,32.688888450842015,6.00163819913888
3709.3682,32.61950914665889,6.583151059175675
3710.2234,32.55514322265695,6.518818118231859
3711.0771,32.50415080639186,6.578658985193498
3711.9307,32.46889323513259,6.410669095064187
3712.7866,32.4437888976073,6.3506444259792785
3713.6409,32.419121259967056,6.273190469203598
3714.4973,32.38758863956015,6.735553647963383
3715.3518,32.349631370567565,6.586107213063072
3716.2085,32.31156637706151,6.450352032160489
3717.0635,32.28016553959415,6.381759326726066
3717.9185,32.25644119403301,6.488129316694238
3718.776,32.23542611626174,6.400741578685623
3719.6313,32.210540814130574,6.269917904022283
3720.489,32.17734841225386,6.645615219159652
3721.345,32.13435401809477,6.714164886192402
3722.2031,32.08005156653032,6.563998697796858
3723.0593,32.0128641215356,6.32693268408075
3723.9158,31.932341027722924,6.50208056934846
3724.7747,31.842190010590247,6.356019656451556
3725.6316,31.751677481772678,6.900459208675432
3726.4905,31.671164338502827,6.884734018946658
3727.348,31.608150281076203,6.718862274503516
3728.2073,31.561181379724996,6.790293431134061
3729.065,31.52099061171622,6.647945582315937
3729.9229,31.475915850909658,6.766096513826024
3730.783,31.419935115241646,6.927619602308577
3731.6414,31.356273084412493,6.480332233768964
3732.5017,31.293099787756375,6.842873162903121
3733.3604,31.238087617728766,6.803415549856157
3734.2214,31.192966697667124,6.87983734532247
3735.0803,31.15451706118751,6.911070485664221
3735.9417,31.1166796010648,6.952274541383119
3736.8013,31.074816075914367,6.877177417838895
3737.661,31.026901557484013,7.203711216496109
3738.5227,30.973871977100494,6.883124266104259
3739.3828,30.919151670124002,7.12112939420224
3740.245,30.866111261178062,6.974025735961881
3741.1055,30.81703078405237,6.882095817691598
3741.9683,30.77101471596975,7.075972768782914
3742.829,30.726149295802237,7.039459599886713
3743.69,30.681558358670515,6.999194049909274
3744.5532,30.6396178248828,7.0234478700788765
3745.4148,30.605012214333186,7.027868511395774
3746.2786,30.580547732158344,7.146496958185743
3747.1404,30.564938773492916,7.097744986829211
3748.0044,30.552158903237935,7.287167818707992
3748.8667,30.53423992421133,7.187341546983504
3749.729,30.504883740751534,7.2096125289848265
3750.5938,30.46258351330358,7.184991289316667
3751.4565,30.411430880545524,7.2804823038669815
3752.3215,30.35773530074293,7.4211604170950505
3753.1848,30.307910434666475,7.392043309329168
3754.0503,30.266421765788113,7.342286093830735
3754.9138,30.236568955662108,7.660211233894818
3755.7776,30.21860028057746,7.166569245976357
3756.6438,30.208110258650645,7.11693241946457
3757.508,30.19579946149517,7.45584650397215
3758.3745,30.17062392276423,7.566397770782084
3759.239,30.125438178923,7.265937534466827
3760.106,30.060005851444906,7.530605249723144
3760.971,29.981521904807476,7.371065255852044
3761.8362,29.89999729690367,7.412861166599941
3762.7036,29.824511483037206,7.390889721968639
3763.5693,29.760574025725287,7.46219492617708
3764.437,29.70741755934768,7.974384891815845
3765.3032,29.659556363525265,7.81102695994841
3766.1714,29.608870512282106,7.730377818829785
3767.0378,29.549975074181596,7.669649816199527
3767.9043,29.482627778257847,7.487605208680067
3768.7732,29.4111938577154,7.697656205224544
3769.6401,29.34154334179913,7.698383780062408
3770.5095,29.27640086551508,7.805052394477705
3771.377,29.21648577018519,7.944048208022341
3772.2466,29.161603756142277,7.875510859587524
3773.1145,29.113949468812667,7.943205499992339
3773.9824,29.07693466683347,8.323226308768957
3774.8528,29.053323182299152,7.639994792362417
3775.721,29.043190438168168,7.926390022807002
3776.5918,29.043241066317254,7.8537054853625445
3777.4604,29.048291481581,8.274266579187712
3778.3315,29.052523535670936,8.007812800841982
3779.201,29.050349889329173,7.986694279357312
3780.0703,29.037827428735103,7.671988567022248
3780.942,29.014569991646916,8.111768381712766
3781.8118,28.984887754907938,8.059076112808432
3782.6838,28.954993532804277,8.548276411898339
3783.554,28.928680709703514,7.9864164615373925
3784.4265,28.903660357192702,7.675720951362654
3785.297,28.87377842520525,8.171047460616787
3786.168,28.833675327253683,8.479061959022413
3787.041,28.78288285707677,8.414232515021308
3787.912,28.7259769334868,8.167276218965826
3788.7856,28.66815860927319,7.727828350710525
3789.6572,28.61314015289949,8.093515672296302
3790.531,28.56158877756764,8.210275448823381
3791.403,28.513717071946655,8.120387042051693
3792.2754,28.469519376599603,8.379625934536783
3793.15,28.428353120919585,8.11587681158883
3794.0225,28.387647478481096,8.376726064853306
3794.8972,28.34248106660666,8.251215635615136
3795.7703,28.289369257771583,8.036161554601673
3796.6455,28.228614740446478,8.604718394936366
3797.519,28.165097915381242,8.445954665180762
3798.3926,28.10360460983047,8.768686740579334
3799.2686,28.04557241434946,8.580249857346553
3800.1426,27.989589967830433,8.46373473669438
3801.0188,27.933150951510804,8.566690833028341
3801.8933,27.875885893601293,8.5714282901417
3802.77,27.818764532694768,8.908707153076579
3803.6448,27.76501458448476,8.778161221390567
3804.522,27.71936851005398,8.767765695716301
3805.3972,27.688057568187215,8.808871487419907
3806.2727,27.674742885516903,8.898874810569943
3807.1504,27.677858468760625,8.794266950852855
3808.0261,27.690134686006495,8.534404103197035
3808.9043,27.701442004799837,8.818581650934462
3809.7805,27.70234510207654,8.757687580573492
3810.659,27.687181135132743,8.522304588481399
3811.5356,27.65564382855379,8.638630178773461
3812.4126,27.612552524735484,8.686889996568492
3813.2917,27.566119222853093,8.597682255802344
3814.169,27.525336814330803,8.744025721114284
3815.0483,27.495639060566283,8.949209905932285
3815.926,27.4767269977395,8.640498038562358
3816.806,27.461704897774794,8.950601823726087
3817.684,27.44077184476202,9.141877598919068
3818.5623,27.4064436311959,8.48217263366288
3819.4429,27.357525743095813,9.184676531940863
3820.3215,27.299325899749583,8.958878219533165
3821.2024,27.238640019746757,9.119452715999987
3822.0815,27.180361861983506,8.798248977906116
3822.963,27.125019347867372,9.10759740750188
3823.8423,27.07150249534116,9.31006137038666
3824.722,27.018527172897585,8.850772611539677
3825.604,26.96595058068463,9.241565437871596
3826.4841,26.914409331010138,9.403519781473051
3827.3665,26.86330398149237,9.876906793248773
3828.2468,26.8116116153936,9.15502752514917
3829.1296,26.757835262068046,9.07061154875033
3830.0105,26.70207553225056,9.454087535437283
3830.8916,26.645298163629903,9.505719463433518
3831.7751,26.58924570878637,9.555976401581539
3832.6565,26.536378329863894,9.551134080314458
3833.5403,26.488442069801742,9.601569365244135
3834.4224,26.44700951824541,10.250054738531652
3835.3064,26.412395336818154,9.761869968113636
3836.1887,26.384994455513844,9.87180640695036
3837.0713,26.365493628348673,9.460737711405956
3837.956,26.354789123059284,9.48921452136213
3838.839,26.352401044545054,10.070136612844328
3839.7244,26.3549975683046,9.720253157140375
3840.6077,26.356699948337475,9.53239990322123
3841.4932,26.351009747143216,9.51879050035681
3842.377,26.33367875298648,9.818470155103391
3843.261,26.305013257852906,9.875457211128518
3844.1472,26.27002429045471,9.797517272239773
3845.0315,26.23595416880131,9.529603626408255
3845.9182,26.20734093285273,9.853390890818112
3846.803,26.184028076124754,9.792052119568035
3847.69,26.161850931188372,9.767159961945804
3848.5752,26.136808657059074,9.941614993919483
3849.4604,26.1073596981783,9.882368467558724
3850.3481,26.074316598545945,9.81234640121163
3851.234,26.039477272762504,9.53490190319513
3852.122,26.004148050646098,9.937771590042882
3853.0083,25.970147608676527,9.683187427306304
3853.8967,25.93910072733134,9.842356141439854
3854.7832,25.91153146058388,10.204972740465774
3855.6702,25.884626668131514,9.872909143640268
3856.559,25.853210478009807,9.974563296023566
3857.4463,25.813521740208294,9.809467101806188
3858.336,25.76628371864779,10.421600508389018
3859.2234,25.71739122289353,9.806201092270074
3860.1135,25.67302412746131,10.306466621261324
3861.0015,25.636174487787947,10.022337587617901
3861.8896,25.604565352008503,10.150314614672139
3862.7803,25.573827015987646,10.225155372166038
3863.6687,25.541758455004256,10.22940937851553
3864.5598,25.50955642907574,10.415518936373205
3865.4487,25.480404664006652,10.280456793715674
3866.34,25.454813268328753,10.12996392606191
3867.2297,25.429248820199113,10.588757681486372
3868.1213,25.397685592036968,10.444817783783728
3869.0112,25.35625776268923,10.282435789134723
3869.9014,25.305300954258975,10.453928154944709
3870.7937,25.248631309494794,10.243881080274997
3871.684,25.191297472241292,10.601142210665207
3872.577,25.13633291399284,10.376869148970282
3873.4678,25.08501280795417,10.568347693953434
3874.361,25.036316885886247,10.65265844210402
3875.2524,24.98920045063838,11.209207252938505
3876.1438,24.94275136782033,10.896329383737406
3877.0376,24.89652239298494,10.70668820741104
3877.9297,24.85019703459394,10.728048211641115
3878.8237,24.802475872746623,11.46904745257916
3879.716,24.75218870771532,10.982685623137575
3880.6108,24.69787532856011,10.80871282831126
3881.5037,24.63893840470151,10.436585767132057
3882.3965,24.57522507817975,11.25183008266001
3883.2917,24.50801084678186,11.343924719582864
3884.185,24.440539137069475,11.453924119450914
3885.0808,24.37554935265072,11.394211306341687
3885.9746,24.3150101738735,11.35251895825833
3886.8706,24.258536710969356,11.814676786791548
3887.765,24.205644702263367,11.44492777560858
3888.6592,24.156238499325628,11.556962112266374
3889.556,24.11129762172748,12.011866493112437
3890.4507,24.072494695998344,11.441593484623736
3891.348,24.04067629801383,11.80042075377063
3892.243,24.016462276631753,11.711255395013222
3893.1406,23.999807512866195,11.631482331961722
3894.0361,23.99071342039248,11.98038082969018
3894.932,23.98903331099573,11.54571333338026
3895.83,23.994751677130505,11.319357748332814
3896.7263,24.007505942872587,11.623171235803678
3897.625,24.02613870394549,11.533324635623625
3898.5215,24.04837467218258,11.804600721707757
3899.4207,24.07192266895239,11.736409916642407
3900.3176,24.094912957016763,11.734171583043281
3901.2148,24.11661183826599,11.986152735061944
3902.1145,24.13686363783443,11.738385356943727
3903.0122,24.155451445739935,11.796273555661854
3903.912,24.172127759960432,11.84632673937398
3904.8103,24.186369903416796,11.409750922946404
3905.7107,24.19808566457692,11.889957044228682
3906.6094,24.207578375217672,11.554718736054442
3907.508,24.2152842868686,11.328135116349731
3908.409,24.220892343047705,11.892320369505587
3909.308,24.22305551993172,11.294583200157124
3910.2097,24.220216156350208,11.45467666980997
3911.1091,24.212020661119606,11.688267107141014
3912.011,24.200298078821163,11.33044250637526
3912.9111,24.188688704211568,11.495364082784352
3913.8113,24.180189745174822,11.433753628769228
3914.7136,24.174650556244636,11.786524610966078
3915.6143,24.168251895664525,11.529505437414974
3916.517,24.155852760715295,11.098561774607244
3917.4182,24.134836158721463,11.570044092492617
3918.3215,24.106731231008776,11.769121978169471
3919.223,24.07611703368007,11.677304989679145
3920.1245,24.046758128250406,11.640612184781155
3921.0286,24.019183752963183,11.698599504032229
3921.9307,23.990961628690176,11.450592922878052
3922.835,23.958589408272097,11.76288293618916
3923.7373,23.92078013424714,11.715492344154491
3924.642,23.879241491734934,11.759959102368587
3925.5452,23.83883035338879,12.123632555580933
3926.448,23.804701430740018,11.438059715875086
3927.3535,23.779826207059216,11.929194553396457
3928.257,23.763522515414945,11.22838694380696
3929.1628,23.75126639286863,12.081988450799352
3930.0667,23.73678323633171,12.129187245944397
3930.9731,23.714011568600256,11.930015209828243
3931.8774,23.679646847268813,11.854959639803806
3932.782,23.634144954881634,12.132148882024023
3933.6887,23.58156119059523,12.40734448716519
3934.5938,23.528014902117896,11.887230481621632
3935.501,23.478516113702355,12.180433037781292
3936.4062,23.43645407621748,12.433323184267936
3937.3142,23.402522690549937,12.375140999621491
3938.22,23.375825089755224,12.50516079645061
3939.128,23.3535066447078,12.442861620001676
