wavl,flux,ivar
3566.9744,3.558865668744946,174.2057305486149
3567.795,3.5489863323889748,159.99840188256462
3568.6177,3.5402402565727424,204.3486788285912
3569.4385,3.532032226392266,154.07612394296052
3570.2617,3.5232653977407713,151.0120745581303
3571.083,3.514029555656706,181.23762683742106
3571.9065,3.5057260010607925,174.0072532020225
3572.7283,3.5002338369549335,191.28194787415345
3573.55,3.4984492019514772,163.56639739342666
3574.374,3.499856333935846,181.81914249482037
3575.1963,3.5031094561323,187.19168903798922
3576.0208,3.507227563008288,186.8417858001079
3576.8435,3.5122105933507086,166.6484842282339
3577.6682,3.5187736794108253,154.30498127138543
3578.4915,3.5273352193236516,158.03374754543313
3579.3145,3.537357971866919,154.5590054126119
3580.14,3.54712210535916,176.66834372042507
3580.9636,3.553983654524223,195.64592135160999
3581.7893,3.555573445164858,160.21430415453827
3582.6133,3.55109782508528,162.584620874565
3583.4395,3.542042661910147,170.64525728969764
3584.264,3.531330489779085,173.98568682477102
3585.0884,3.5212489785907906,177.6960348038149
3585.915,3.512197169534108,185.723737683938
3586.74,3.503083172068154,168.1420200875074
3587.5671,3.492522013922529,190.87093962534834
3588.3923,3.4801899127440072,158.9479340685288
3589.22,3.4669674795521583,168.27053088725467
3590.0457,3.4547915755084015,209.52665586668763
3590.8716,3.445472681093576,171.21892294967876
3591.6995,3.4397727647109075,186.0955176693973
3592.526,3.436940871488602,171.76715805912698
3593.3542,3.4352141132868157,185.64393195613644
3594.181,3.4330482842125347,169.3716708926577
3595.0098,3.4298321580895315,179.1698718628587
3595.8367,3.425785739825657,197.16203619125523
3596.6638,3.421385264710827,176.0966274724177
3597.4934,3.4173170515227187,174.27272548837513
3598.3208,3.4148808379013254,190.6377225954322
3599.1506,3.4158497001078887,191.07976941745122
3599.9788,3.421460826774303,195.1544438021679
3600.8088,3.431143088641962,183.64540091441373
3601.6372,3.4421745627989364,168.05004115931513
3602.4678,3.4510476365420932,190.99322466131838
3603.2964,3.4551565645007174,149.98978323663357
3604.1252,3.4542313648689285,194.011356104495
3604.9565,3.4501931272183195,173.1828461783848
3605.786,3.445911305150741,169.4151758203888
3606.6172,3.4432886920239545,189.1150443961561
3607.447,3.4422025106079563,179.02188755501513
3608.2788,3.4408373538740067,176.73913048461355
3609.109,3.437197984976897,191.0451178487047
3609.9392,3.4305029334263386,169.19508653482825
3610.7717,3.4216471491553753,185.63716156793922
3611.6023,3.4127687423582405,202.78495417417253
3612.435,3.4060373347986213,152.3368125959605
3613.266,3.4028169451670753,173.20325954016278
3614.0994,3.403094751960872,176.44949685320748
3614.9307,3.405701768065782,187.92492488156287
3615.7625,3.408805170087517,205.28966675087827
3616.5962,3.4104668451121514,171.3739831928564
3617.4282,3.409253504112021,165.07961582488505
3618.2625,3.4048912571164016,192.09214466698756
3619.0947,3.3985614536980377,190.23024660339098
3619.9292,3.3922656383529315,196.44352623951204
3620.762,3.387720724742065,190.73871506029914
3621.595,3.385276398559163,173.86606418020259
3622.4302,3.3840182615680723,199.79336568834495
3623.2634,3.3827647296645686,194.27547486861582
3624.0989,3.3810928538316447,201.16368389045914
3624.9326,3.3795373962880983,206.55180616813118
3625.7686,3.3788610054768666,188.76998688248867
3626.6028,3.3793768237265467,181.2546235603346
3627.437,3.38092927275341,180.59589487786934
3628.2734,3.383345834587654,196.87232025463376
3629.1082,3.3865832743446234,179.9909547132785
3629.945,3.390510979733696,175.31653430457857
3630.78,3.3946010152486155,184.74188399254427
3631.6174,3.398122841595537,184.83762274366902
3632.453,3.400403959361986,184.21698433383423
3633.2883,3.4010853381906707,168.43427148913293
3634.1262,3.4000666533385253,193.7263073929284
3634.9622,3.3975907384169908,182.61863381060653
3635.8005,3.3944117935365505,186.31925947090573
3636.637,3.391772244958395,156.15493613917684
3637.4756,3.390683067438518,187.56653555135276
3638.3123,3.3910745582072175,172.30807095344193
3639.1492,3.391534616675336,202.35841111827781
3639.9885,3.3901459449203983,176.69035076280454
3640.826,3.38584460116009,195.31615918022942
3641.6653,3.379217911103611,192.1357751657414
3642.5032,3.372259510081276,182.48119900841917
3643.343,3.3670383023846884,174.79074533301633
3644.1812,3.364521724333528,191.88286142238184
3645.0195,3.364109162382247,204.48595443688228
3645.86,3.364405618882621,206.19062631887257
3646.699,3.3643492764735603,221.46166245367118
3647.5398,3.3638228059646207,183.37853769369747
3648.379,3.363318260564019,186.46284987327846
3649.2202,3.3631665386188088,178.11945101136342
3650.0596,3.3632114917263802,194.38093002802742
3650.8994,3.363203322485016,181.26954009899742
3651.7412,3.3634105949905915,186.2347073826537
3652.5813,3.364776223056285,192.49348717331404
3653.4236,3.368502028667171,199.03921564875657
3654.2642,3.3753498869768057,216.4693183643389
3655.1067,3.3852167560757134,184.98800568370064
3655.9475,3.3969128814010725,183.550470611706
3656.7886,3.4086545050387134,178.8930863264244
3657.6318,3.418700823196434,165.95409891980026
3658.4734,3.4260426424743358,185.86912918985195
3659.317,3.4309861061993234,185.7869412188102
3660.1587,3.434841758472663,189.72252025785815
3661.003,3.439224309016306,181.38492766612512
3661.845,3.4449106481497545,185.02334037423284
3662.6875,3.451299229527572,186.3162692034463
3663.532,3.4567149612827985,163.2598337765249
3664.3748,3.459545743412164,173.60105541091735
3665.2197,3.459358159570653,189.59142010458052
3666.063,3.4568920720973333,177.15042762311973
3666.9084,3.4532036262599837,190.2896297434534
3667.752,3.448937686115203,166.6857352220769
3668.5977,3.444347552656479,180.24962834790222
3669.4417,3.4399815413604538,190.243045840066
3670.286,3.436774746958646,201.31528780242792
3671.132,3.4354086253894143,194.12725654062007
3671.9768,3.4354388430243934,186.0958556263586
3672.8235,3.4352198213016574,185.82732268416015
3673.6685,3.4329188205579824,162.57755026535733
3674.5156,3.4277659258700846,186.92224042551092
3675.3608,3.420580918152131,184.16233945417767
3676.2063,3.412992785844589,186.33483582028097
3677.0542,3.4062553663603192,217.02892376203363
3677.9,3.400622892151614,169.25567170208254
3678.748,3.3955534619225296,188.21761025055955
3679.5945,3.3907159071183943,180.63437259624834
3680.4429,3.3864246753842546,199.10037574650568
3681.2896,3.383417575837862,197.74734357592695
3682.1365,3.3820198370095933,218.8193690550485
3682.9856,3.381872326776929,194.3531921091475
3683.8328,3.382459831766082,183.54962368624186
3684.6824,3.383813001350282,185.0928493034842
3685.53,3.386397418651333,184.1894723627199
3686.38,3.390351230977372,169.8839881559302
3687.2278,3.3949868048627625,199.9874594917065
3688.0762,3.399311632566653,175.92375502586094
3688.9265,3.4027485472288967,184.59926624270517
3689.7751,3.4053230720601575,192.40189838194505
3690.626,3.4073189187734716,168.6192209918808
3691.475,3.4088756745011652,174.3619140359639
3692.3264,3.4100593518895232,200.67894629783467
3693.1758,3.410958296159073,190.81244348668537
3694.0254,3.4115581606527194,175.57410324176507
3694.8772,3.411420484065218,184.3134530483907
3695.7273,3.4096424034503836,187.7664819935458
3696.5793,3.4052778200817047,179.7275282881452
3697.43,3.398050129366391,166.578403540739
3698.2825,3.3886669378490897,197.62752553792203
3699.1333,3.3786019152495297,194.47231884965635
3699.9841,3.3690826680954755,185.81080431209452
3700.8374,3.360485416808028,181.7313920642164
3701.6887,3.3526057960013986,187.97606035996498
3702.5425,3.3452647040812424,202.14738919874992
3703.3943,3.3388826290102576,184.34272721683166
3704.2483,3.333964949350133,210.1446193376689
3705.1003,3.330573742895489,177.61683927446666
3705.9526,3.3280213019998,169.70840052618522
3706.8074,3.3252944536467663,197.51455056936146
3707.66,3.32169613936269,178.2729719968525
3708.515,3.3172692391725485,193.76959013227057
3709.3682,3.3129810302014495,193.8375120154555
3710.2234,3.310328147562966,179.96073602661434
3711.0771,3.3107349911566653,202.49250325952735
3711.9307,3.3147549661084454,177.30825765740636
3712.7866,3.321649643085992,189.84603355853005
3713.6409,3.329412606695882,194.26880961649744
3714.4973,3.3356805415196944,183.52364467499078
3715.3518,3.3387966295917213,168.4030129186115
3716.2085,3.338806292985865,192.68119908047933
3717.0635,3.337322997553266,168.2130339387017
3717.9185,3.336418890452427,203.88798991501758
3718.776,3.3371762097443995,171.17841705421287
3719.6313,3.338948962802935,188.51450774168637
3720.489,3.339847151416937,198.4731645366828
3721.345,3.33793577817071,206.15330153887618
3722.2031,3.3323034282741824,178.4914943227752
3723.0593,3.3235328241150484,173.945672429484
3723.9158,3.3134414260789526,197.46844462121533
3724.7747,3.304494615030188,194.83862208303168
3725.6316,3.298930729164004,183.3672182194072
3726.4905,3.2976352312311974,211.5711373294212
3727.348,3.299818139178693,181.79500979734019
3728.2073,3.303461038201258,190.0294120712633
3729.065,3.306356755211971,213.03387978588384
3729.9229,3.3070436320750614,184.0065094754525
3730.783,3.3050098944424464,170.8431692807586
3731.6414,3.3004874846441927,197.8980186444278
3732.5017,3.2940854114277838,195.5623963821165
3733.3604,3.2866305940188933,196.62753292690198
3734.2214,3.278901100247692,187.48035905714192
3735.0803,3.2717107815889803,186.59776038601188
3735.9417,3.2658411787947967,189.11856443300582
3736.8013,3.262177130844511,237.40499483257864
3737.661,3.261250556099889,186.23363178105538
3738.5227,3.262839997053792,194.28946327163166
3739.3828,3.2658429383548944,190.27811515997664
3740.245,3.268718969724696,194.699717456444
3741.1055,3.2700456242018667,184.34765245452024
3741.9683,3.2690541397816504,179.53262195294943
3742.829,3.265967435272039,195.2453508309144
3743.69,3.262089117681209,204.30538577628178
3744.5532,3.259395500508124,192.1338325183805
3745.4148,3.2596833191287917,196.39745119087078
3746.2786,3.26363684755875,209.72170984789656
3747.1404,3.2704294621513457,199.0574276672819
3748.0044,3.2780926111403406,198.39325957296109
3748.8667,3.2841874979986345,220.54613411461347
3749.729,3.2868554778120065,186.11532546827482
3750.5938,3.2854810472477034,189.06393975216133
3751.4565,3.2809269971751873,200.71929711953868
3752.3215,3.2750269115017225,181.15098570607722
3753.1848,3.269780182394755,185.30748408808583
3754.0503,3.266477992189957,216.7097220877078
3754.9138,3.2653861247182827,185.8337458344926
3755.7776,3.2657065774939564,199.42268172199624
3756.6438,3.2659623339944397,220.6429854856073
3757.508,3.264578676270435,193.89959512319518
3758.3745,3.260625516090753,198.0303343836846
3759.239,3.254425964760795,215.08957718907635
3760.106,3.247409117419349,196.1910730036948
3760.971,3.2413881264408007,226.41783672748645
3761.8362,3.2374569556538595,217.34292144013023
3762.7036,3.235734523618822,200.50500399431087
3763.5693,3.235794264817018,214.69108710344707
3764.437,3.237170181231526,217.43797026968355
3765.3032,3.2393643621423416,228.37962697295828
3766.1714,3.241519270689326,203.40551572281964
3767.0378,3.2423776863269436,198.4203577277308
3767.9043,3.240950219000726,201.20182086231742
3768.7732,3.237291177555073,222.88891033527224
3769.6401,3.2327002982054944,205.9060766908087
3770.5095,3.228848211626368,229.85728551420735
3771.377,3.2267175265816714,214.12410111573996
3772.2466,3.2260555605280143,188.20486726606006
3773.1145,3.2259074393658618,207.18248989315865
3773.9824,3.22549457683642,190.21932244912753
3774.8528,3.2247621242207165,221.25686509089974
3775.721,3.224251415694419,222.51845002094853
3776.5918,3.224507453470532,199.36521075921024
3777.4604,3.225612826254523,208.43973978387206
3778.3315,3.2272395276493278,193.67857151324702
3779.201,3.2289881287306303,210.82437547225385
3780.0703,3.2305205059916853,190.08044613308616
3780.942,3.2313391923327432,219.06333696874032
3781.8118,3.2308438659650083,195.39574106260633
3782.6838,3.2289562088139054,207.11365733127312
3783.554,3.226628643646138,219.52059275379088
3784.4265,3.2253706658185815,218.0056838426864
3785.297,3.2261595854351195,191.14683228054935
3786.168,3.228747394756262,210.9682022331405
3787.041,3.232001292524581,207.12239179929554
3787.912,3.2345979623410765,215.97302272087532
3788.7856,3.235567995958375,202.1658646723036
3789.6572,3.23450150052602,208.10643708888114
3790.531,3.2316682927254816,190.94750751515085
3791.403,3.2277588360279217,199.61658893694928
3792.2754,3.2231659681773217,199.95977823461257
3793.15,3.2175213622102263,204.52001839487895
3794.0225,3.210086105387669,175.4999982865407
3794.8972,3.2005699115987074,214.02794816173454
3795.7703,3.1899490058627147,221.3558604053028
3796.6455,3.180161522031414,188.12549789377016
3797.519,3.1733629705285593,216.33031177750163
3798.3926,3.1706534959564334,216.46836718685446
3799.2686,3.171624308349332,212.24112016695443
3800.1426,3.1747488150504832,206.70160703260106
3801.0188,3.1784591277146736,212.1533579328027
3801.8933,3.18193923538087,204.8807241875229
3802.77,3.1852671536792156,213.31131335650215
3803.6448,3.18881630578808,250.31334397369372
3804.522,3.1926934429065827,204.64878825950615
3805.3972,3.1964416553661548,203.91208625301985
3806.2727,3.1994448562601456,222.8179773437597
3807.1504,3.2014969242508204,215.7447097161947
3808.0261,3.203117936317257,220.2809319262251
3808.9043,3.2052883917737716,220.36259270017987
3809.7805,3.2086916096507943,232.4045044489045
3810.659,3.21319718272712,213.20641385205028
3811.5356,3.2178163724126856,203.95335782443007
3812.4126,3.221362579307476,212.90179857538578
3813.2917,3.223184041779665,201.927776901423
3814.169,3.223499735879543,200.55489865543083
3815.0483,3.2229398200590693,218.5696874315585
3815.926,3.221599403260223,212.65506756944245
3816.806,3.2186349385921083,201.93549625267912
3817.684,3.2129802228330293,186.98748140447242
3818.5623,3.204424458178011,199.30796506764702
3819.4429,3.1940202663526187,223.49403062691692
3820.3215,3.1836121814191918,226.13037001266235
3821.2024,3.174687274219736,201.82062918511784
3822.0815,3.16789617203728,222.7422965389523
3822.963,3.1627430016648956,230.38691136636427
3823.8423,3.1579746136654685,201.57027816767567
3824.722,3.1520994916064726,209.6857115385154
3825.604,3.144195030662705,204.0755159571726
3826.4841,3.1344852084206978,211.2685189239385
3827.3665,3.123986575776803,215.68829488658125
3828.2468,3.1138450233476562,228.124787436176
3829.1296,3.104376567322411,219.2719578249352
3830.0105,3.095199053353762,216.72039984078367
3830.8916,3.085650026362779,204.9272527246607
3831.7751,3.0754460514877064,232.39055086409695
3832.6565,3.064841358506629,213.70070877532842
3833.5403,3.0541437952694626,229.07549134796253
3834.4224,3.043844970902012,216.0955640028239
3835.3064,3.0347911401693097,240.14222175229747
3836.1887,3.028629591415751,239.6452485894131
3837.0713,3.0271717481727904,232.25162896572294
3837.956,3.031375976643969,259.79412160836125
3838.839,3.040510962280135,216.51752435373493
3839.7244,3.0525631400618716,241.05920926732105
3840.6077,3.0652277442434386,240.44493440268988
3841.4932,3.077210052158066,207.2278708432673
3842.377,3.088476188039718,210.06698683698244
3843.261,3.1001286020908654,214.05344315764341
3844.1472,3.1133491699695175,220.18735280723794
3845.0315,3.1281509230984232,209.84178907953577
3845.9182,3.1431485252070708,205.4510489422773
3846.803,3.156015337406231,247.67221526221417
3847.69,3.165122232429803,208.26273873376286
3848.5752,3.170230916039393,241.33726914795201
3849.4604,3.17264314718439,214.01843542531765
3850.3481,3.174482598138069,242.00614850699907
3851.234,3.177850401798945,203.7965052397447
3852.122,3.1839756014523823,224.07198082229542
3853.0083,3.192483985265176,205.1961084573136
3853.8967,3.201649190475232,191.07243999489083
3854.7832,3.20935688528085,198.32082784240296
3855.6702,3.2145703448528447,199.69772460490483
3856.559,3.2176096275419193,221.60517119117708
3857.4463,3.219321520856019,209.2894892647708
3858.336,3.2200546981348315,196.32902057966513
3859.2234,3.2194994372236105,204.83660582196123
3860.1135,3.217521904273831,206.5316719010773
3861.0015,3.2149083752709484,221.8450467521081
3861.8896,3.2130383493598904,204.71855692764217
3862.7803,3.212747286592816,226.78706933223907
3863.6687,3.2133930226787597,210.3624401144769
3864.5598,3.2131123615777777,211.07561868686835
3865.4487,3.2101602941361795,186.66014246806054
3866.34,3.204227879464554,208.26847038719447
3867.2297,3.1967815970679196,225.6700064047443
3868.1213,3.189969200287571,202.45446780889594
3869.0112,3.185163407190553,206.8295772578661
3869.9014,3.1818644183834563,201.7516687953984
3870.7937,3.1779901302598663,209.80133380541412
3871.684,3.1711938261900556,197.2797453205046
3872.577,3.160266628831859,223.44651079998337
3873.4678,3.145943117144524,209.09147526382887
3874.361,3.13008122398802,234.2857244334401
3875.2524,3.114546925670181,222.59877320158404
3876.1438,3.099909139277953,209.17862196041733
3877.0376,3.085539659928937,214.2480632569746
3877.9297,3.0705346223827816,232.68450018805552
3878.8237,3.054324032618077,222.16486828833638
3879.716,3.0371771721014142,250.1954093151693
3880.6108,3.0195318024143707,238.16835517268623
3881.5037,3.0017348443148455,241.6809994649023
3882.3965,2.98353458432463,234.52178378745694
3883.2917,2.964440706949567,229.99561588042235
3884.185,2.944286732145295,243.7885136267044
3885.0808,2.9231244163370524,237.05350863564436
3885.9746,2.901626277965198,247.32701742865925
3886.8706,2.8805543927954624,257.37905405252985
3887.765,2.8609800911586474,253.5075935033385
3888.6592,2.8438843992347986,263.0405271490225
3889.556,2.830414003068776,258.5067178445236
3890.4507,2.8221001655258644,282.82902298038437
3891.348,2.8204523485945288,262.85056531065135
3892.243,2.8264474313907058,273.9014160721355
3893.1406,2.839797238320852,278.4274347689525
3894.0361,2.858714825016955,240.8021260380862
3894.932,2.8809054762571056,244.10175874185148
3895.83,2.9046321259192616,305.87814435443386
3896.7263,2.9290951627068016,275.6954552543931
3897.625,2.954512684641123,243.667912841592
3898.5215,2.980843020566446,240.08382599688792
3899.4207,3.007787199654025,226.19098458717664
3900.3176,3.034317575991913,259.5177618896573
3901.2148,3.0597335690434453,226.21787076911377
3902.1145,3.083959608226834,228.17108140853634
3903.0122,3.107466468991507,213.84847903646022
3903.912,3.1312330190423183,212.1189510915297
3904.8103,3.1556872784052126,209.45564751072948
3905.7107,3.1807797324307256,216.4221210254681
3906.6094,3.2056209204317625,204.95783780670374
3907.508,3.2291969736847475,192.18635202299853
3908.409,3.250632695374197,199.10463972687486
3909.308,3.2693605161054067,195.89158398336852
3910.2097,3.2855191186065573,193.3715096088879
3911.1091,3.2994635960552867,194.47837228548715
3912.011,3.311918444274705,186.18520842301982
3912.9111,3.323583028295623,193.80662667028346
3913.8113,3.3351655021886653,185.4556393880749
3914.7136,3.3469692855590303,193.64321966339327
3915.6143,3.3585952945293935,200.07498726226288
3916.517,3.3693579555936846,182.98083521641792
3917.4182,3.378650269063294,187.9411448948755
3918.3215,3.3864936589012746,179.8682959065683
3919.223,3.3932581833495234,178.13586627239818
3920.1245,3.3994069713781894,176.7790309584055
3921.0286,3.4051607897411067,184.21322061488257
3921.9307,3.4104326311715356,188.9283467339794
3922.835,3.4150019296294545,183.06329519506906
3923.7373,3.4184801364627053,183.30923232629803
3924.642,3.4204497393090074,184.48390635643108
3925.5452,3.4205590281617724,176.91858943836203
3926.448,3.4188064940845524,172.61928742016616
3927.3535,3.415632874261006,170.98332376661506
3928.257,3.411818472305542,184.6792649188914
3929.1628,3.4081296236582768,172.6304691421047
3930.0667,3.4051635024923765,191.82418372953194
3930.9731,3.403129453822034,179.52922840628133
3931.8774,3.4016917824558788,170.8091661924705
3932.782,3.3998154282789077,186.43465223455627
3933.6887,3.3960915701907766,181.20203672578856
