wavl,flux,ivar
3566.9744,6.886545067653371,70.46656435558282
3567.795,6.88999803621132,76.80922012990506
3568.6177,6.887568289455835,66.44044134928502
3569.4385,6.879254558124971,82.1901828500847
3570.2617,6.865932948463678,80.48143526642309
3571.083,6.849149235955974,76.40326795285714
3571.9065,6.831131965288438,74.86505306656355
3572.7283,6.815236513882396,74.12740117988385
3573.55,6.804773811021202,76.33163972098522
3574.374,6.801456876211462,85.72902033894462
3575.1963,6.804176438587931,77.25927013741435
3576.0208,6.809490242621885,87.43610377523913
3576.8435,6.813573613382401,74.7862965544721
3577.6682,6.814152955399435,77.31844938147488
3578.4915,6.810987043973431,79.87275596698603
3579.3145,6.805127423298288,78.90718852792885
3580.14,6.797697389493314,78.79026568397528
3580.9636,6.789248626299029,88.17277494094925
3581.7893,6.779675145595053,81.81114465854056
3582.6133,6.769005639651029,81.6468086557109
3583.4395,6.7578582039279915,86.18375130028718
3584.264,6.747681882069842,83.43882690204201
3585.0884,6.740013726356449,79.51004736376868
3585.915,6.735825258342822,82.65375403011453
3586.74,6.734964246157352,89.46317873126212
3587.5671,6.735941080667646,84.00850660284051
3588.3923,6.7364639644357505,76.92570007953465
3589.22,6.734466367791318,84.24110667372103
3590.0457,6.7289743170556955,85.82652946761797
3590.8716,6.720170126391845,80.77140940045874
3591.6995,6.7088927777507585,83.63734035807362
3592.526,6.696203199767538,79.50123979302376
3593.3542,6.682831810688126,85.61971450543504
3594.181,6.669129475259035,82.48274363496594
3595.0098,6.654875958082618,81.59826937082339
3595.8367,6.640066554169255,85.2967118745607
3596.6638,6.625336860025762,86.88485067538161
3597.4934,6.612133452603038,81.47140030832759
3598.3208,6.601922615217233,81.67066330699555
3599.1506,6.594767686813376,77.99496708981353
3599.9788,6.589245269082196,88.8815419957674
3600.8088,6.583304634127312,80.35562863889903
3601.6372,6.5758687770900695,91.40379157526822
3602.4678,6.567258489207187,89.6901403176124
3603.2964,6.5585658848502035,88.56702399492761
3604.1252,6.550503779420976,86.52140169124873
3604.9565,6.54340676957684,91.37881105385094
3605.786,6.538014707659504,76.69310638383939
3606.6172,6.535705561338834,95.87115117780873
3607.447,6.53784751946358,85.75730298202598
3608.2788,6.544544538427149,86.5117081214227
3609.109,6.553985366251536,86.68058373185983
3609.9392,6.562944147158686,81.57742821832686
3610.7717,6.567852624380607,90.05624043909508
3611.6023,6.566158563569087,82.81441320613509
3612.435,6.557505783472861,82.64253174195126
3613.266,6.54400883568803,89.27249404763198
3614.0994,6.529223314928346,88.6664146389155
3614.9307,6.516778147719915,79.97683034638052
3615.7625,6.508627933794408,97.0776669952645
3616.5962,6.504471100791823,82.27235086476699
3617.4282,6.502139662435584,87.08599112305396
3618.2625,6.498977125623236,86.71550436336281
3619.0947,6.49347049356904,87.00751969444885
3619.9292,6.485888478061001,81.80683789607485
3620.762,6.478000516520043,83.37959418127149
3621.595,6.471916531145819,90.25513532609905
3622.4302,6.468954748207786,88.87791569524778
3623.2634,6.468689291367003,87.13499707718236
3624.0989,6.468730722198131,89.80884048029188
3624.9326,6.465833054447727,83.6491371888359
3625.7686,6.457881744344266,91.93364519262305
3626.6028,6.445623418046216,89.29543772524863
3627.437,6.432503877111277,93.11698040085577
3628.2734,6.422825067489302,83.27155424102999
3629.1082,6.419328024897071,92.69165675122225
3629.945,6.421404242409366,95.13121610642197
3630.78,6.425357447352209,83.71445601563522
3631.6174,6.426595275509513,87.2761750603082
3632.453,6.422676863770453,92.68324753664031
3633.2883,6.41504870565999,88.75296352376519
3634.1262,6.407618733896696,91.9960800073516
3634.9622,6.403318797343544,95.20112025946102
3635.8005,6.401448143835224,84.27874310178237
3636.637,6.398528103648958,78.89444111740181
3637.4756,6.391279800133848,84.8450524364341
3638.3123,6.379093294903293,83.99792899847388
3639.1492,6.363887106829781,86.95159662862784
3639.9885,6.348408654638042,97.20005630791744
3640.826,6.334703771695519,98.82921276905878
3641.6653,6.3233833389902525,89.22459388694116
3642.5032,6.314626809477684,95.1112799122413
3643.343,6.308907060784184,93.13501520920124
3644.1812,6.307059556038049,82.52144305856915
3645.0195,6.309165860054213,94.5246063514851
3645.86,6.313954334147895,95.33853540194275
3646.699,6.319382035622946,98.92626766442334
3647.5398,6.3241415128288345,96.94578122207945
3648.379,6.328345538958357,95.03503868056785
3649.2202,6.333029313809625,90.07331132042589
3650.0596,6.338759213289086,88.98344472300782
3650.8994,6.3448571441522255,93.32257851786154
3651.7412,6.349624697840296,94.24281746530801
3652.5813,6.351466959545892,97.66017485629943
3653.4236,6.350043333912975,88.52411212324333
3654.2642,6.3464692147288595,91.04834631058574
3655.1067,6.3426087556951245,88.29231604956793
3655.9475,6.34007151358877,87.74024956860052
3656.7886,6.339372546879783,86.43682879663461
3657.6318,6.339801489002295,93.06095284329969
3658.4734,6.339970241449078,102.61337452012184
3659.317,6.33884946571583,88.95298964076487
3660.1587,6.33655268182962,93.34976203558604
3661.003,6.334220670801405,93.66604030884568
3661.845,6.333263874144948,96.02001224670524
3662.6875,6.334628533034131,97.75129151934216
3663.532,6.338785134973834,87.212148584414
3664.3748,6.345976380348902,86.12912384552907
3665.2197,6.356234131261473,89.89383944034728
3666.063,6.368568432457713,90.63294544352715
3666.9084,6.3805297681151885,91.64202159073466
3667.752,6.3884542232538175,88.93375220598213
3668.5977,6.389331160673137,91.07185060894193
3669.4417,6.382490664905875,84.75651637650599
3670.286,6.370175804141597,90.41119579675055
3671.132,6.356202706506743,95.72899465487721
3671.9768,6.343927129407619,88.71890533090449
3672.8235,6.334617852508706,87.55279550135803
3673.6685,6.327848262805692,86.63840807701325
3674.5156,6.322550688563385,96.35101255664163
3675.3608,6.3180324457365025,96.8012973000295
3676.2063,6.313899271825963,95.82451745999573
3677.0542,6.309839096134747,101.4875502218162
3677.9,6.30569597556909,90.49897506002242
3678.748,6.301601857672451,92.58899528362605
3679.5945,6.298038794822347,98.0002341646155
3680.4429,6.295484971201946,86.67421976069262
3681.2896,6.294180730238304,98.14486334146855
3682.1365,6.293936603732254,89.99750319884215
3682.9856,6.294264729418205,92.36227209122285
3683.8328,6.294794435361447,85.58980697838615
3684.6824,6.295783370582341,89.4638482237599
3685.53,6.298132569011857,87.79209860647765
3686.38,6.302695080434892,95.04030628370056
3687.2278,6.309245654014026,95.39848028491618
3688.0762,6.316277265208179,88.95572838341091
3688.9265,6.321834332103548,81.79686450936387
3689.7751,6.324810579363534,94.28601055140894
3690.626,6.325542879566542,83.27340812825553
3691.475,6.3249780810426595,91.06094992032132
3692.3264,6.323409149769243,99.37945548509197
3693.1758,6.319885222260689,99.31981873258124
3694.0254,6.312781255883758,89.18664025422198
3694.8772,6.301143161720991,89.06687394297329
3695.7273,6.286047657978432,99.57436655368409
3696.5793,6.270573470856635,96.3676051679642
3697.43,6.258710018280614,101.82565226029611
3698.2825,6.252972055146762,96.0416541467263
3699.1333,6.252969880248182,92.0582070196398
3699.9841,6.25542220188248,96.7310632966452
3700.8374,6.256012615874779,89.76769002702802
3701.6887,6.251643265400858,89.81237162459333
3702.5425,6.241701267283925,93.92125976133929
3703.3943,6.227832109520361,93.43089729775069
3704.2483,6.212468216604128,105.16493301065036
3705.1003,6.19792043665332,95.60585227049935
3705.9526,6.1855924895143835,92.81487567719256
3706.8074,6.176004816456545,97.75318788463142
3707.66,6.168904749127315,96.08741866400055
3708.515,6.163328696629205,94.40368384212987
3709.3682,6.158192599094414,96.96172159975363
3710.2234,6.152635383446718,91.75400615258363
3711.0771,6.146407477942064,94.46972039322209
3711.9307,6.139799605916213,99.93654565131166
3712.7866,6.133384348196327,103.34913155935357
3713.6409,6.12764649431894,93.8929800340084
3714.4973,6.122553259424969,92.31542776230097
3715.3518,6.11773918791725,94.48474488474109
3716.2085,6.112850087159686,96.20522187995358
3717.0635,6.108069304560051,100.40269312702614
3717.9185,6.104080584110394,99.38206758673654
3718.776,6.101722405904142,100.08518494210782
3719.6313,6.101506549720652,106.27756181412401
3720.489,6.103367191607517,115.29467118352024
3721.345,6.1067908608223265,90.47934957893605
3722.2031,6.110953034330494,96.21217820968907
3723.0593,6.11450849288623,97.79778364959107
3723.9158,6.1155746778855296,102.65489287465161
3724.7747,6.1121429783153935,91.79503311344644
3725.6316,6.103073652826876,96.41855758772763
3726.4905,6.088814648128995,98.68718226880385
3727.348,6.071601287279698,97.50237177980405
3728.2073,6.054309652616511,97.61073256810009
3729.065,6.0391700467683895,104.77789115710017
3729.9229,6.026495758714312,101.574940507375
3730.783,6.0152428605853565,94.27859136396901
3731.6414,6.004542604951208,96.37201957095294
3732.5017,5.994623245586375,100.10086161108643
3733.3604,5.986710265437792,99.15978173109184
3734.2214,5.981570144782364,104.53120579616773
3735.0803,5.978581452309395,96.79109883196757
3735.9417,5.9757974365644,103.77308393349813
3736.8013,5.971405815650056,99.73087063991225
3737.661,5.965110058325106,106.77999617010715
3738.5227,5.958322249763466,96.35183870227193
3739.3828,5.952979049506658,102.93615262125658
3740.245,5.949882840556632,103.57601652740614
3741.1055,5.948255013421881,103.23540555936509
3741.9683,5.946381801522054,102.72058512707358
3742.829,5.942776156126807,102.16028988315784
3743.69,5.936857692503544,97.61157948703297
3744.5532,5.929150140087586,100.91429026590751
3745.4148,5.921226802222151,102.21597531848396
3746.2786,5.915059453749911,107.35709928415336
3747.1404,5.912251096103964,99.55839326837551
3748.0044,5.913129139871676,101.01403993134818
3748.8667,5.9166156354509924,114.22772871720926
3749.729,5.920721698206631,109.08300924248901
3750.5938,5.923368319859446,103.08889145693763
3751.4565,5.9231387148635175,104.66991562942175
3752.3215,5.9198586533180695,100.04257639175765
3753.1848,5.914632614403776,104.46249811331978
3754.0503,5.9091088446991815,101.27290975295583
3754.9138,5.9044348084215255,104.93050749451419
3755.7776,5.900407069714178,99.83066659219807
3756.6438,5.895735533076746,112.08941953813412
3757.508,5.889100684634028,101.5879486173256
3758.3745,5.880085529799968,110.39064740599807
3759.239,5.869632300894713,103.88065446688553
3760.106,5.859433952026883,108.4705583166941
3760.971,5.85133548692633,112.07144452091529
3761.8362,5.846472696219507,104.80375186145608
3762.7036,5.84502770400849,102.38296519395598
3763.5693,5.846204366094101,111.20415453432172
3764.437,5.84851952743842,99.69578209038212
3765.3032,5.85029849025204,111.25627237251868
3766.1714,5.850205716725486,106.21637667340072
3767.0378,5.847580094410631,101.78944284670108
3767.9043,5.84254782743231,105.6771486112165
3768.7732,5.835835529669349,106.23575924085796
3769.6401,5.828506695925672,115.41410803783786
3770.5095,5.821541359161504,112.79834392368318
3771.377,5.81585441570975,104.22425169118996
3772.2466,5.812089160145489,108.78270286507151
3773.1145,5.81056728243113,112.78816966587674
3773.9824,5.811200158224545,109.89970195156333
3774.8528,5.813833250640349,99.58371838398787
3775.721,5.81847861065019,101.81923064421834
3776.5918,5.825153478678171,103.8481499550185
3777.4604,5.833199733884586,110.74389818222429
3778.3315,5.841269404776559,108.56036703314953
3779.201,5.847880968367417,104.99916867964993
3780.0703,5.852548786764756,105.28463705066035
3780.942,5.855974935756986,110.05431310399348
3781.8118,5.8592781677496015,106.8580881606141
3782.6838,5.8630446935958345,103.80873388678283
3783.554,5.866875360326312,110.63746311343624
3784.4265,5.869737805036836,108.93874405457359
3785.297,5.8703838099081675,103.67528809367786
3786.168,5.867851816854826,111.23919662401069
3787.041,5.861846821985129,108.98666598262635
3787.912,5.853058904914195,110.53279549500101
3788.7856,5.842789688351524,111.4176601942518
3789.6572,5.832420428374513,112.37611848172651
3790.531,5.822633518312137,98.61901311953119
3791.403,5.8135023601454545,109.77811724028376
3792.2754,5.804505767485058,108.4545889373549
3793.15,5.794706903502836,108.71418676487278
3794.0225,5.783066850882979,102.4653738742492
3794.8972,5.768952655320203,122.02877742909132
3795.7703,5.7530904672208445,122.01835580221615
3796.6455,5.737318720432512,121.91760739537558
3797.519,5.7240061793122194,109.43140804302512
3798.3926,5.714859488704795,117.92809377182914
3799.2686,5.710654815139169,105.21463625852358
3800.1426,5.711291299995777,104.35230090996764
3801.0188,5.715833798562857,108.88155060894066
3801.8933,5.722612869117935,109.40516490122174
3802.77,5.729677310904399,116.90669105592264
3803.6448,5.735467858493507,113.22215271216899
3804.522,5.739705857356053,110.85570286585619
3805.3972,5.743407771864894,109.10643399553881
3806.2727,5.748128654056349,117.83556777383816
3807.1504,5.754612680969706,112.56010082239143
3808.0261,5.76198809456774,111.53269548690983
3808.9043,5.768365625849171,106.94292810039751
3809.7805,5.771948994467872,105.82345409920478
3810.659,5.771970539410543,107.07859089908048
3811.5356,5.768541332858567,109.96757560159485
3812.4126,5.762284410411099,109.32976624379084
3813.2917,5.754333785207393,107.26607179368735
3814.169,5.746644796057213,113.39495217838581
3815.0483,5.741526121893306,111.83943567535574
3815.926,5.740667349602321,106.59601871984297
3816.806,5.743969409234686,98.5594702265303
3817.684,5.7493334041294615,110.94533162543016
3818.5623,5.75353422867887,114.34635643178477
3819.4429,5.753626303450859,109.1577411360081
3820.3215,5.748174960377062,120.00177386280774
3821.2024,5.737522318665079,114.95611430450309
3822.0815,5.72310636626343,111.73751708668837
3822.963,5.706171830197508,111.89126859850488
3823.8423,5.687479625173163,111.6286028454913
3824.722,5.667328012909449,111.9722812440399
3825.604,5.646220059580108,121.08074262659694
3826.4841,5.6251924758072755,116.02329703008442
3827.3665,5.605041272120115,115.7823602176086
3828.2468,5.5861594743459655,120.9031920130104
3829.1296,5.5680104433351305,113.33766487059641
3830.0105,5.549886437779394,107.55470657737365
3830.8916,5.531095038749145,123.89642071846978
3831.7751,5.511317758509255,120.46011930946561
3832.6565,5.490807439658836,117.58255782715895
3833.5403,5.47019022352536,122.68038780897088
3834.4224,5.4510829300815855,121.1954546179814
3835.3064,5.435518192774951,121.13670528808909
3836.1887,5.425558928158586,122.00789798010999
3837.0713,5.422354652163281,124.73814164831153
3837.956,5.4259972150075075,111.38058791102728
3838.839,5.435450363643922,127.9099330499387
3839.7244,5.448887049143853,128.54466684294405
3840.6077,5.464146963305353,117.83080013904443
3841.4932,5.47980584521137,127.55522468303735
3842.377,5.495414338499484,121.61435184269247
3843.261,5.51149393568967,112.90703633091447
3844.1472,5.528653567533777,125.38573528050544
3845.0315,5.546721380110946,118.09834731440877
3845.9182,5.564834337547547,117.53829937148399
3846.803,5.5816392813030635,113.22719524589024
3847.69,5.596629168273906,124.09254778756608
3848.5752,5.61046180615524,118.30549501388438
3849.4604,5.624743091202944,113.31820699699189
3850.3481,5.640622156622993,116.0440333651306
3851.234,5.657587302920531,112.00379452383655
3852.122,5.673841750735554,110.47856510799713
3853.0083,5.687062973414182,109.01323473040576
3853.8967,5.695826453276829,114.29708104944602
3854.7832,5.6998478073974885,106.34019197425854
3855.6702,5.69992368261169,110.20627822310956
3856.559,5.697246594176471,116.99471224637622
3857.4463,5.692922157963917,115.5404229249524
3858.336,5.6877049138104825,120.08578767468083
3859.2234,5.682247754914337,118.3040183828117
3860.1135,5.67727440822825,112.08285634276069
3861.0015,5.6736285423463215,114.49167059268638
3861.8896,5.671682656750365,116.98696846020093
3862.7803,5.670916221615531,114.7510973802225
3863.6687,5.670010349185246,119.42311612014014
3864.5598,5.6675764589828805,106.80138474406658
3865.4487,5.6629603153111905,116.19098615689364
3866.34,5.656249195206842,112.82721546298804
3867.2297,5.647653787252163,109.65851531115929
3868.1213,5.636643527809136,116.82005196208681
3869.0112,5.622150750645678,110.5703272524388
3869.9014,5.603340591612501,119.30434807845698
3870.7937,5.580590898572791,112.67675305206414
3871.684,5.555707612824024,114.66177755447545
3872.577,5.530489431114139,117.23520934744177
3873.4678,5.505962197104935,113.79079554325347
3874.361,5.481565021598089,119.19351679881106
3875.2524,5.456447490453515,127.29275821696238
3876.1438,5.430205132260295,127.3167043145423
3877.0376,5.403535413628225,127.68174894727483
3877.9297,5.377971729645004,123.72761020492605
3878.8237,5.354384268701343,125.71876357902366
3879.716,5.3324896858505575,129.15572068253158
3880.6108,5.3103222667509655,134.12433830412365
3881.5037,5.285473793658564,131.12808991176797
3882.3965,5.256086522240801,123.42699243235363
3883.2917,5.222012149137873,141.88686412397348
3884.185,5.185131466656846,128.05117664465328
3885.0808,5.147609047196779,147.90721124478506
3885.9746,5.11122092010872,139.00795160796562
3886.8706,5.076323437463025,144.88287507962067
3887.765,5.043576184726487,140.91987845533302
3888.6592,5.014710718655591,157.74044982643466
3889.556,4.992932165689918,143.87179313085434
3890.4507,4.981839825260984,146.853154937259
3891.348,4.983551393005238,153.16275304256263
3892.243,4.998153771050066,142.01274730720232
3893.1406,5.024061995948219,153.89728895988506
3894.0361,5.058490128854493,149.53436838064428
3894.932,5.098531822268106,140.14502025757415
3895.83,5.141492823859383,130.0103784103396
3896.7263,5.184941760666256,133.49171535993673
3897.625,5.227683653419923,126.52551266829316
3898.5215,5.26879062397166,138.41851979135922
3899.4207,5.308200518870828,133.38545058742602
3900.3176,5.345830608714357,128.81739118285307
3901.2148,5.382554734106321,125.66560917657154
3902.1145,5.419713175346966,125.27237843623644
3903.0122,5.458055676461168,126.70662789489677
3903.912,5.497542010355788,122.82237513094182
3904.8103,5.536716865211601,115.7585889585135
3905.7107,5.574436503693965,113.45914240677826
3906.6094,5.610221177500011,123.22559312200457
3907.508,5.644858303535117,114.34790169638143
3908.409,5.6792785628578555,120.1356123219657
3909.308,5.7133918355768625,116.98499212878359
3910.2097,5.746471246720946,105.75839995388472
3911.1091,5.777159551815179,110.8151291812605
3912.011,5.80491863835101,103.53583981473103
3912.9111,5.829749939179798,106.27014982371567
3913.8113,5.852386454556797,108.21025450826714
3914.7136,5.873511781236346,110.31349605820863
3915.6143,5.89313090873936,104.70620756995949
3916.517,5.910730842068876,103.44220408504762
3917.4182,5.925196337279864,104.31348664029662
3918.3215,5.935699915535686,101.9764857357074
3919.223,5.942131644640261,98.76767098873545
3920.1245,5.945573974152856,103.95913051499551
3921.0286,5.947789389311249,103.11428872653484
3921.9307,5.950338622217182,107.10041054562208
3922.835,5.953880241569971,107.82665911120993
3923.7373,5.958058655209381,101.7925327399057
3924.642,5.962098828204579,107.17892085988538
3925.5452,5.965313268968494,102.95820992451648
3926.448,5.967385106752411,99.8074223129846
3927.3535,5.9682232500774015,106.70300619838605
3928.257,5.9677427899191,97.17952788792705
3929.1628,5.965646378287264,103.80582658980448
3930.0667,5.961255456208695,101.37724322543042
3930.9731,5.953570403785262,103.96940512336967
3931.8774,5.942003097411207,101.54708921375611
3932.782,5.927096864011379,107.67875484954888
3933.6887,5.910773774079899,105.57626296009154
3934.5938,5.895486660266592,105.54875370900737
3935.501,5.882384173136944,104.64925313904372
3936.4062,5.870664272797786,99.43410794623352
3937.3142,5.857894131934901,108.19269732996202
3938.22,5.841840061023326,105.24327049730874
3939.128,5.82158975607297,112.23568356410676
3940.0342,5.798220229804001,109.68744540983887
