wavl,flux,ivar
3566.9744,8.7816314622384,0.34034099621083247
3567.795,7.981453547473178,0.12237662614217723
3568.6177,7.498168406172834,0.06936089513346338
3569.4385,7.1452562578050065,0.16097781092029856
3570.2617,6.888383352872799,0.2216666758806788
3571.083,6.865140533892143,13.715491452769333
3571.9065,7.227093782273528,0.23119260450567755
3572.7283,7.979706400145828,0.29442441095450483
3573.55,8.953477971365366,2.3289745593249354
3574.374,9.89464579310945,0.06790035447815489
3575.1963,10.569968300146531,0.03753161075084302
3576.0208,10.836064164067158,0.22292310993505415
3576.8435,10.625962339601557,0.06691600917059685
3577.6682,9.950043877183354,0.032038490183550886
3578.4915,8.917640710055842,0.08881718268225852
3579.3145,7.732679679114529,0.4008612690539174
3580.14,6.641052253783704,0.43410326422611256
3580.9636,5.857272058126038,0.22811406934320214
3581.7893,5.479069369108737,0.8728214335473765
3582.6133,5.477255404747739,1.0065960256454656
3583.4395,5.7084865576704695,0.2406050372663734
3584.264,5.9832726844562165,0.14890420235337148
3585.0884,6.1707626303729315,0.08589686045165035
3585.915,6.276475059903856,0.34435964115325035
3586.74,6.434828817006354,2.805236662764031
3587.5671,6.822009374996681,0.4045009437120886
3588.3923,7.549190513865362,0.32327127596199734
3589.22,8.615557116561797,0.05868335839548901
3590.0457,9.879433088529815,0.22484186664541994
3590.8716,11.092552734794904,0.07258927404047584
3591.6995,11.96614496427381,0.01829414181921814
3592.526,12.324620868077606,0.07457156009051676
3593.3542,12.271582967172971,0.025895748589159752
3594.181,12.173825381517775,0.37870375509137577
3595.0098,12.435919123613257,0.231443738678615
3595.8367,13.221513017624003,0.16562857859522867
3596.6638,14.377748563563232,0.01950465714191504
3597.4934,15.611436080374336,0.017000531393593782
3598.3208,16.70849013796652,0.02229689870072968
3599.1506,17.61689362326656,0.02876537110530178
3599.9788,18.289937040641956,0.10646015833068202
3600.8088,18.575220066748443,0.016004408077313865
3601.6372,18.253324365306195,0.012111812384880419
3602.4678,17.22427101765722,0.020419891688815847
3603.2964,15.637119041992634,0.31518408293050626
3604.1252,13.819099469388801,0.09362622158142292
3604.9565,12.114892586441039,0.1088214008832262
3605.786,10.761845046659817,0.1399556303935052
3606.6172,9.811392542509076,0.5284756576884101
3607.447,9.19464545681797,0.07969645217078143
3608.2788,8.8110041553308,0.03226541563282623
3609.109,8.650998535262058,0.1715511452754046
3609.9392,8.808777414373338,2.8126717820683256
3610.7717,9.380257832027292,0.10482086567723202
3611.6023,10.322063015119392,0.37558750174982675
3612.435,11.447143133098857,0.026704144853284113
3613.266,12.52074082581374,0.037212318748321885
3614.0994,13.383583534005867,0.07156815799352391
3614.9307,13.9220295700194,0.1897179460026705
3615.7625,14.013816212727649,0.22382319128878436
3616.5962,13.528890988982347,0.022179742882291822
3617.4282,12.466764360820898,0.03231582749700684
3618.2625,11.064963170024868,0.05733247679361543
3619.0947,9.781379315377773,0.22549746356834718
3619.9292,9.071406700724078,1.6273785573366548
3620.762,9.181190069742406,0.35352689003168836
3621.595,10.034569223749548,0.06248502794319876
3622.4302,11.330357047602309,0.21436189624980606
3623.2634,12.725539226035341,0.03441981748103235
3624.0989,14.032946994382959,0.043668402760888056
3624.9326,15.226577363134435,0.17276192635584428
3625.7686,16.340714535876533,0.5170956676652364
3626.6028,17.28641212219065,0.023467268637391465
3627.437,17.827938721337983,0.012755940953160584
3628.2734,17.687145434381897,0.014666209832933357
3629.1082,16.723479389023787,0.0639879901962677
3629.945,15.041347349217602,0.02993757498132333
3630.78,13.004762964820793,0.10445457586431596
3631.6174,11.092742502121839,0.1580953675461899
3632.453,9.747405896536943,4.440372376197619
3633.2883,9.16805958974988,0.1686299081047499
3634.1262,9.293462286742324,0.44423796558141654
3634.9622,9.90666635913051,0.08887290337997475
3635.8005,10.797512132615207,0.1328122862629341
3636.637,11.82685005102904,0.08821774631514272
3637.4756,12.91517932885292,0.05124579260360272
3638.3123,13.967053442412158,0.06538689163481877
3639.1492,14.868373569318635,0.1646640026306695
3639.9885,15.493136788334201,0.02412338424188388
3640.826,15.731692100943839,0.09999057592001367
3641.6653,15.53025006644062,0.0332713397406231
3642.5032,14.906346773881102,0.0719484634943866
3643.343,13.946535368492027,0.03021015958103286
3644.1812,12.789715440367797,0.18669581725941947
3645.0195,11.56975052446533,0.031233829789913802
3645.86,10.387392591296642,0.332696906679574
3646.699,9.32523468160915,0.03658513135394671
3647.5398,8.4715602649991,0.07258837938888336
3648.379,7.968881537026706,0.4768715432724959
3649.2202,7.968097944937152,0.6781658935474639
3650.0596,8.54753991448614,0.2110993093849502
3650.8994,9.638644405726248,0.13466418562181298
3651.7412,11.036087184219726,0.024597072974664527
3652.5813,12.47150081902183,0.285852718732973
3653.4236,13.747721033904655,0.017611563570565873
3654.2642,14.789068203455038,0.025693620973622024
3655.1067,15.660788050075567,0.02980617557239463
3655.9475,16.474075724681462,0.0178970876569249
3656.7886,17.30696165892369,0.05167425450180355
3657.6318,18.150948370241714,0.014267788114525032
3658.4734,18.924375823198538,0.03948212949842927
3659.317,19.53996148827678,0.013839872277102844
3660.1587,19.93593918193637,0.01221436172835813
3661.003,20.09640062562177,0.015694561816811614
3661.845,20.033653340824177,0.03155664656075563
3662.6875,19.78979372692396,0.01179431765872001
3663.532,19.44344738687639,0.011090516357259947
3664.3748,19.09971328148352,0.05187968255851369
3665.2197,18.825573720002435,0.1151345105098345
3666.063,18.599286873722296,0.026057600815091717
3666.9084,18.323568053446856,0.014530048743930879
3667.752,17.923544679998763,0.04141218670069492
3668.5977,17.43018722647433,0.011757726747675137
3669.4417,17.000846311339455,0.01810140807510279
3670.286,16.830845977852295,0.39909943755547245
3671.132,17.025073757519813,0.1698711066535849
3671.9768,17.49835835391437,0.017627344313569108
3672.8235,18.010038563752698,0.018697445904933527
3673.6685,18.303974998702703,0.020995132184217044
3674.5156,18.244521063003678,0.02725178110111428
3675.3608,17.819962611348057,0.030482789618491674
3676.2063,17.06419161003157,0.016134905869235716
3677.0542,16.00726777483473,0.01834503360154162
3677.9,14.71940578747934,0.09186030914263218
3678.748,13.337728603700038,0.23379311473683895
3679.5945,12.086135495743331,0.021510255776178686
3680.4429,11.180097419738564,0.15403468269544396
3681.2896,10.752186450615936,0.32082291378212374
3682.1365,10.774510974181236,0.035963592816193705
3682.9856,11.077601092158474,0.03924556257469344
3683.8328,11.417760929410592,0.06073118887281105
3684.6824,11.57632098582612,0.060608985028199
3685.53,11.437890579755807,0.05514382649273683
3686.38,11.053004050921833,0.08309087240492187
3687.2278,10.652549338285084,0.12510834811057064
3688.0762,10.568721962615369,0.22223396937457668
3688.9265,11.087108652865666,0.19737218663413036
3689.7751,12.277996396897802,0.0392408076560874
3690.626,13.934532268673074,0.09773460876438576
3691.475,15.624643393334598,0.05271600545649216
3692.3264,16.912558779155408,0.03311901190453229
3693.1758,17.552860656279076,0.023117781790861176
3694.0254,17.62106008855964,0.0277911663963656
3694.8772,17.417797361170887,0.08254669174142494
3695.7273,17.272510679012854,0.017389526034962573
3696.5793,17.370885945088823,0.034487464216580964
3697.43,17.717455297368012,0.03652921359184002
3698.2825,18.19261916062406,0.019622456723013125
3699.1333,18.613274547881876,0.03053543435222215
3699.9841,18.787002038145992,0.015198630359133821
3700.8374,18.5542813545436,0.024036405740564613
3701.6887,17.83394448935165,0.03037308984355625
3702.5425,16.625881023098675,0.02552747366820438
3703.3943,15.013323349882185,0.06156924996577473
3704.2483,13.139926119457414,0.020957062833561645
3705.1003,11.245609688594909,0.34228290988865967
3705.9526,9.595010071964014,0.12275656750151315
3706.8074,8.402606728187456,0.8846851702042788
3707.66,7.776228975573134,0.06272926974416962
3708.515,7.725528740963839,0.3051796377372011
3709.3682,8.24660706143814,0.08153792354796408
3710.2234,9.331569905453073,1.53003662698145
3711.0771,10.891267019934807,0.14827756755722354
3711.9307,12.69917135419252,0.03106150878776006
3712.7866,14.409753369408575,0.026326909476288025
3713.6409,15.642198067684197,0.02078659940427173
3714.4973,16.12631551741408,0.024515117460130846
3715.3518,15.758326950909524,0.023204760069175843
3716.2085,14.620634868248327,0.0392116852179106
3717.0635,12.941234634482909,0.07700617261962724
3717.9185,11.003517369944209,0.05289070716349767
3718.776,9.081859046858884,0.09313649594780012
3719.6313,7.427702026287497,0.2681909974635381
3720.489,6.225273155356271,0.7844844175180594
3721.345,5.6081495645992385,0.982554834904029
3722.2031,5.61753012793565,0.4173433755925148
3723.0593,6.195031783703716,0.4118817473391186
3723.9158,7.172172099187258,0.47468398506165244
3724.7747,8.289421092397268,0.09309621862657505
3725.6316,9.246420897297758,0.17368598278697592
3726.4905,9.83352992808337,0.06701113539831696
3727.348,10.013710490337337,0.04138005553756272
3728.2073,9.921822744720496,0.3568683051269992
3729.065,9.727649418285154,0.3730086270962123
3729.9229,9.49037801142741,0.0869207572388615
3730.783,9.131471419624487,0.18447635791249273
3731.6414,8.539290419934439,0.10271025391969042
3732.5017,7.682942458017661,0.11505995695043923
3733.3604,6.662575345493836,0.2746989955375259
3734.2214,5.648640288429567,0.9009615169957459
3735.0803,4.823228320292765,0.5493718791934128
3735.9417,4.306343950260069,16.686806060883907
3736.8013,4.157999255138802,0.4733862675346857
3737.661,4.3781132396614515,0.7902576673902134
3738.5227,4.92103286088117,0.6949060068861521
3739.3828,5.677917702903129,0.7130368279617879
3740.245,6.478510773134823,0.6627784671486168
3741.1055,7.106268509487174,0.1567330940281128
3741.9683,7.380931057981931,0.09417783230449836
3742.829,7.225885201160518,0.07069757309501458
3743.69,6.709353239841671,0.6033342571270366
3744.5532,6.002622796839194,1.4942294926706716
3745.4148,5.305819915391379,0.20732788317316714
3746.2786,4.759238217156753,0.7643535255521571
3747.1404,4.428753031902756,0.937132090720448
3748.0044,4.3275418879023615,0.8312326226441554
3748.8667,4.475296939458669,0.4726322858454855
3749.729,4.917098760648762,0.5816521289546727
3750.5938,5.693400851585775,7.836918730900566
3751.4565,6.772278992111379,0.270578407119983
3752.3215,8.042515839750152,0.09696592189938859
3753.1848,9.327163154810103,0.048137044066854984
3754.0503,10.44684025104966,0.21100771091685566
3754.9138,11.212720080024907,0.05015064937491295
3755.7776,11.464742161784496,0.035544591459071725
3756.6438,11.130098527572006,0.03731960673265629
3757.508,10.325452697204891,0.052971634244171534
3758.3745,9.356749258429556,0.16012849706483015
3759.239,8.592779624316258,3.5139645416525656
3760.106,8.246228858477451,0.2451812973555884
3760.971,8.275342609977212,0.08583830744538468
3761.8362,8.445297241258077,0.04877992495150228
3762.7036,8.518513953260591,0.062100946812696775
3763.5693,8.406166488751044,0.06376287031843654
3764.437,8.187076788988202,0.348187451024584
3765.3032,8.01652202860918,0.4036276480303321
3766.1714,8.031731090883664,0.06656880228437298
3767.0378,8.331158840816418,0.060452393444620126
3767.9043,8.984352351210159,0.3397514159852895
3768.7732,10.009951313543421,0.21899000040548833
3769.6401,11.314010666643712,0.05047932460060742
3770.5095,12.711126649819425,0.034423891960465774
3771.377,13.974109708026383,0.16872060263085623
3772.2466,14.940056506878651,0.02822469080525133
3773.1145,15.52008990252105,0.02576910036227422
3773.9824,15.717757499583838,0.023481270262003973
3774.8528,15.622044804299275,0.043100380185814906
3775.721,15.400945067421011,0.08553636820808573
3776.5918,15.24479630633611,0.3496917620409492
3777.4604,15.291048585414364,0.05676049113500063
3778.3315,15.57754469527097,0.027476948153799766
3779.201,16.05289315174521,0.060472186959504994
3780.0703,16.617504265149368,0.021141082554058038
3780.942,17.155807146015817,0.018208990077180576
3781.8118,17.556017467921663,0.06781490527626426
3782.6838,17.73290853201587,0.05758531126871714
3783.554,17.614415792524547,0.05834345052174183
3784.4265,17.126289841895957,0.05336934828156333
3785.297,16.213764234114993,0.021233300309621568
3786.168,14.906703326697547,0.01721862672739703
3787.041,13.382656260891867,0.46845808739066824
3787.912,11.951080644514185,0.05311213677157574
3788.7856,10.903904300166946,0.3773715892836555
3789.6572,10.406573778311687,0.05295314018287969
3790.531,10.416513083067999,0.17733189390999715
3791.403,10.720236971544052,0.18999676167403629
3792.2754,11.026685303394252,0.03138425726271116
3793.15,11.101280289057865,0.059243127622962424
3794.0225,10.875053632744342,0.0452349309421536
3794.8972,10.451203593479711,0.1321157357494559
3795.7703,9.997599965626671,0.25938357518678695
3796.6455,9.610550549676345,0.15672752474288518
3797.519,9.296558430111878,0.03627703888604078
3798.3926,9.05860536745035,0.05060290463574307
3799.2686,8.987489630568643,0.2265970418905353
3800.1426,9.228726101675958,0.15954443584655675
3801.0188,9.855971957008837,0.36326348302579115
3801.8933,10.776552468061299,0.03068186533805878
3802.77,11.769755770464563,0.24562345049871145
3803.6448,12.578019879194922,0.027636684630687833
3804.522,13.02449302291559,0.07262821742596078
3805.3972,13.06020341113167,0.025616620158212377
3806.2727,12.792919418350658,0.06942809384339413
3807.1504,12.446316267822624,0.043253500107382985
3808.0261,12.261196725807903,0.0923476141883314
3808.9043,12.351408685627252,0.033516606342194014
3809.7805,12.621465426884848,0.1970641241267031
3810.659,12.811172012314197,0.34175587099458793
3811.5356,12.647105860184038,0.02381678583720645
3812.4126,12.004991285173517,0.10745140610055384
3813.2917,10.966275683576551,0.0665063504182444
3814.169,9.769279767403182,0.6915907134117895
3815.0483,8.667335685839333,0.2248217863952835
3815.926,7.839460709041455,0.23960427732412654
3816.806,7.320415285474633,0.998748240438307
3817.684,7.023600210402993,0.15776411988408015
3818.5623,6.794883648426102,0.08432486678570049
3819.4429,6.514012914225658,0.1636360019129317
3820.3215,6.16918538364178,0.26910697438982467
3821.2024,5.837738459948166,0.9039212284738438
3822.0815,5.598351812700542,0.49034318944572824
3822.963,5.444408237593235,0.43301611917075544
3823.8423,5.2996323098678895,0.12396825050377498
3824.722,5.099806364278433,0.18899736463072178
3825.604,4.858533816433922,2.7698400813969557
3826.4841,4.6553542017386835,0.6670239127206462
3827.3665,4.5662118457889,0.5626918444598623
3828.2468,4.615132792421529,0.247978703699901
3829.1296,4.7664127302295904,0.5563181102125555
3830.0105,4.947309015636488,0.2520430594248693
3830.8916,5.082354979254638,0.3421363409834377
3831.7751,5.127244627752334,0.23036451384931875
3832.6565,5.097172545991414,0.2738531232383081
3833.5403,5.0630753052619335,0.9676595621332966
3834.4224,5.101855809106613,0.6130448651910121
3835.3064,5.231609336592288,9.936608897581792
3836.1887,5.38732706742662,0.20483203042482317
3837.0713,5.469033810480794,0.18415944313468705
3837.956,5.42457363775467,0.20910689876346264
3838.839,5.305619659661078,0.45049374506383016
3839.7244,5.251928975642986,0.5993281042110042
3840.6077,5.422225542878763,0.22396572507960424
3841.4932,5.9165778359822285,3.8739256347949915
3842.377,6.723145632599527,0.49233925802494816
3843.261,7.723379030408131,0.08637262344148176
3844.1472,8.73957638740535,0.27504971456751115
3845.0315,9.601381827458766,0.08806767857051231
3845.9182,10.215833971437773,0.03459185987066711
3846.803,10.552849384247246,0.10140670647127822
3847.69,10.623250083773701,0.11368280396564673
3848.5752,10.453957176901381,0.041640367067941095
3849.4604,10.111030894098834,0.05586583751043013
3850.3481,9.713030120724456,0.08458688422221991
3851.234,9.390824730669758,0.46965517104279325
3852.122,9.192139680043883,0.1108457673669776
3853.0083,9.043781417674285,0.038999101970926174
3853.8967,8.804558085752666,0.045981459306793426
3854.7832,8.378237845950947,0.11433058299700191
3855.6702,7.773025570572954,0.272456903137587
3856.559,7.081208210473007,0.18854484932135157
3857.4463,6.419059927460627,4.018428807520636
3858.336,5.872495847354543,0.14294670145243682
3859.2234,5.511857052460731,0.32442943168835164
3860.1135,5.4034375542671915,0.3498811865771383
3861.0015,5.604772349182886,7.078711225853192
3861.8896,6.107204560145016,0.3793994034839279
3862.7803,6.798249606161772,0.3041000050562241
3863.6687,7.485802884985071,0.12020972604883907
3864.5598,8.010383872172797,0.12672804435459334
3865.4487,8.31813968401442,0.0928938323046962
3866.34,8.469637149972435,0.2431700159899633
3867.2297,8.550419234225133,0.14912850771548958
3868.1213,8.593132826457435,0.12351507121881936
3869.0112,8.56425887403381,0.21504918291968292
3869.9014,8.423035720040012,0.12448032920718899
3870.7937,8.190634036056728,0.16439880991328754
3871.684,7.977018679616674,0.19264918585447688
3872.577,7.932487157513691,0.20295050113751456
3873.4678,8.15615201885836,0.48014103371652267
3874.361,8.6098993225657,0.1394876307569396
3875.2524,9.104887800782292,0.13876460943051994
3876.1438,9.403147610266972,0.1196337052154618
3877.0376,9.361561096314285,0.2995755158854513
3877.9297,9.028658047663106,0.18662723842717954
3878.8237,8.607164084996421,0.2122697408035449
3879.716,8.314581280229282,4.080012405493316
3880.6108,8.246022376672242,0.07684271739444808
3881.5037,8.35573472443088,0.22447832503299
3882.3965,8.52704414031766,0.16437608677943855
3883.2917,8.645284666375675,0.21443464977778115
3884.185,8.618309012316496,0.41501877749413324
3885.0808,8.395159375640608,0.028441831890105185
3885.9746,8.018876302772874,0.05886247532224051
3886.8706,7.658591806190754,0.33407386743891315
3887.765,7.559610782081676,0.43137052302625867
3888.6592,7.90773636941698,0.13017726429303958
3889.556,8.727426878988648,0.9491361864165659
3890.4507,9.853169554376693,0.12929564369250804
3891.348,11.010055936559006,0.09766365052507246
3892.243,11.900742473073551,0.053946626554379554
3893.1406,12.333994954474797,0.043744224561020076
3894.0361,12.27904556874765,0.21647655272219912
3894.932,11.873306152292486,0.042588980782662565
3895.83,11.330512058314195,0.0470341377605562
3896.7263,10.82842940246286,1.7283082055570695
3897.625,10.427839784030194,0.09471663114886743
3898.5215,10.10989469508237,0.10114681383753815
3899.4207,9.854740520758698,0.07364589025593538
3900.3176,9.692121989965628,0.15030997644734448
3901.2148,9.652735367863102,0.21840141680871197
3902.1145,9.710105927310796,0.11430619141589837
3903.0122,9.787247503012315,0.08914083970913392
3903.912,9.83144641518123,0.41702839675952
3904.8103,9.874981747313484,0.06042596316351675
3905.7107,10.03355585384483,0.04985362005815927
3906.6094,10.443449348742545,1.0003496682241182
3907.508,11.177546870017288,0.6319492024544914
3908.409,12.185659889314266,0.03350087754579902
3909.308,13.296879368331316,0.027819542508235172
3910.2097,14.322873806900276,0.018537465707354126
3911.1091,15.130857489985358,0.08175639928969813
3912.011,15.686258749389475,0.06532244903034554
3912.9111,15.994962482796877,0.11686646251187038
3913.8113,16.067488197148244,0.01944056816304001
3914.7136,15.90043410789313,0.1550586390137478
3915.6143,15.49164200647955,0.04619705139690635
3916.517,14.848462754220657,0.02674498462322026
3917.4182,13.99799453297063,0.07571979699579758
3918.3215,12.977430205944948,0.6844163145854407
3919.223,11.857513461552214,0.03039464155432525
3920.1245,10.739228057923839,0.08556343328996205
3921.0286,9.755128738137744,0.16675211076180524
3921.9307,9.036588439225643,0.22472779495353
3922.835,8.641528516218354,0.11429657800622972
3923.7373,8.530713413038113,0.27961884810166204
3924.642,8.567181261311125,0.11780214632713086
3925.5452,8.568856950550272,0.10049650374040618
