wavl,flux,ivar
3566.9744,2.43079716683061,57.77464519539881
3567.795,2.4297099074684265,66.29665643003666
3568.6177,2.429202255559473,82.07034450526994
3569.4385,2.42915687665244,88.20356294157857
3570.2617,2.428510161262186,83.74185677586851
3571.083,2.425630527387972,70.54150388828947
3571.9065,2.4194550085597077,63.32018129484377
3572.7283,2.4105748127408106,88.2447288818095
3573.55,2.4010607619014017,79.59863108023781
3574.374,2.3932759252987696,82.88707289962208
3575.1963,2.388675879989883,67.0988665162577
3576.0208,2.3874249462964614,75.16052406261565
3576.8435,2.389149595312434,61.33698163128906
3577.6682,2.3935166671055503,67.4589650949335
3578.4915,2.400084156181044,85.80141931160657
3579.3145,2.4078476974288265,75.94584624052649
3580.14,2.4151704701551058,71.52263094343417
3580.9636,2.4202930163648215,63.11040151326188
3581.7893,2.422205790693321,75.52393839328921
3582.6133,2.420885613482199,60.61934630440193
3583.4395,2.4170969447512043,73.70425291964874
3584.264,2.4118908708683406,67.6059982699624
3585.0884,2.4060574233293908,65.4569676018547
3585.915,2.3998095054569184,87.82213662278083
3586.74,2.392766741657278,75.78932820832233
3587.5671,2.3841355162505358,70.23419823042633
3588.3923,2.3734867521073344,83.7734073468998
3589.22,2.3611619666191004,85.93241243549201
3590.0457,2.3485336288670475,79.409620822162
3590.8716,2.337211722511557,87.8027348459618
3591.6995,2.3284226822484246,84.04908771098684
3592.526,2.3226127593733894,78.18216026799752
3593.3542,2.319311801509694,70.96827414585314
3594.181,2.317461321522229,74.25267102738687
3595.0098,2.3156414754460046,76.52958483324404
3595.8367,2.312450772298095,66.7941738210109
3596.6638,2.306909427748763,69.8485789606072
3597.4934,2.298923000848476,75.22461268285949
3598.3208,2.2895563887647414,82.1466020324575
3599.1506,2.280464363871993,84.46547987815698
3599.9788,2.2732198702799753,91.64804728803573
3600.8088,2.268393785408546,99.74961916560846
3601.6372,2.26560834273629,80.80533433190406
3602.4678,2.2641638768413976,93.91551323427328
3603.2964,2.264021966127882,73.56200583658863
3604.1252,2.265985500797571,90.42782889078168
3604.9565,2.270889029907627,78.20151934706776
3605.786,2.27838145011178,69.51594950148106
3606.6172,2.2867067894818716,86.18546261262892
3607.447,2.2934042358715887,74.41722562346308
3608.2788,2.296613662619899,85.36996106536418
3609.109,2.2956811459291098,67.7610088806619
3609.9392,2.2912428682138613,92.38765939308571
3610.7717,2.2847614463253745,85.64772803398998
3611.6023,2.2779176423817273,92.50243009484149
3612.435,2.271756431778749,75.89304152073277
3613.266,2.266525091722884,91.39858052764328
3614.0994,2.2619857909595797,90.40924693686547
3614.9307,2.258143572643017,92.36212032448556
3615.7625,2.255294000947284,85.06491592690992
3616.5962,2.2537416058429014,95.22907498065993
3617.4282,2.2535144952898802,85.89117131147906
3618.2625,2.254266595676375,70.44733989624167
3619.0947,2.2552508729802567,86.403386996948
3619.9292,2.255476463795493,78.53373633950677
3620.762,2.2541794530216688,80.41520793418299
3621.595,2.2512401315706105,79.06546411942136
3622.4302,2.2470617855653923,103.29955157975627
3623.2634,2.2422579753101277,85.04427182624512
3624.0989,2.237492422061002,90.62575268985685
3624.9326,2.233643542949126,86.85370168938888
3625.7686,2.231428756561872,88.65005289964937
3626.6028,2.2308639474395915,85.64655739142403
3627.437,2.231028294615979,72.69979484304099
3628.2734,2.2306521206342884,100.87849139756918
3629.1082,2.2288694289868625,84.22402549400934
3629.945,2.225433144110021,83.59796418842137
3630.78,2.220463990607565,94.49383639335633
3631.6174,2.214134823774437,85.85100586040386
3632.453,2.20689690000573,87.71873825748986
3633.2883,2.1995903732013,81.57379504185108
3634.1262,2.1932619145005146,97.48736393790269
3634.9622,2.188450000809668,98.56900137375378
3635.8005,2.1844205890776958,83.65961643667912
3636.637,2.1795624021185467,84.56975400782945
3637.4756,2.1724068502252156,100.8799921158056
3638.3123,2.162716436004923,101.23685827649066
3639.1492,2.151514186569106,77.4305128165211
3639.9885,2.1406428462515,86.76845039711391
3640.826,2.132190234549577,98.25396005701903
3641.6653,2.127625081745764,106.51701981694528
3642.5032,2.127436850865961,95.13438453933028
3643.343,2.1309654464068686,100.82566676937202
3644.1812,2.1367073978006292,88.56273341647997
3645.0195,2.1427412385450824,99.70104553832142
3645.86,2.1470855296169793,86.1525247333129
3646.699,2.1481906264269344,85.52234891767483
3647.5398,2.1455538502845615,100.31538848609043
3648.379,2.13984836977797,85.60628025869661
3649.2202,2.1324273339626436,98.33351380334655
3650.0596,2.124780314893125,90.14467420950695
3650.8994,2.1180308448303102,90.93632389729173
3651.7412,2.1128482141414695,113.90668505105685
3652.5813,2.1093450478411917,92.62604646951215
3653.4236,2.107095820076709,110.1531241181326
3654.2642,2.105662861978803,94.05976840510161
3655.1067,2.1050109485241486,99.22986789766793
3655.9475,2.10543586719023,111.9540081905247
3656.7886,2.1069673220479364,86.50111020311556
3657.6318,2.1090065134749434,112.60462491455766
3658.4734,2.1105739231079856,95.2545939192434
3659.317,2.1109459058617333,114.37818882221983
3660.1587,2.10997654717184,107.19237686527876
3661.003,2.1080030196600434,131.43245911740442
3661.845,2.105578116730736,86.42686732866105
3662.6875,2.103151362117361,98.56725704584761
3663.532,2.100800140820869,99.26273993177895
3664.3748,2.0981081309404623,110.58201550830302
3665.2197,2.0944419572028066,105.16367004026706
3666.063,2.089651841501841,101.6813170089051
3666.9084,2.084354554195139,96.64345975493954
3667.752,2.0797092266805524,81.48202767682486
3668.5977,2.0767239375572526,104.80321851984232
3669.4417,2.0759810677298516,96.7415474191297
3670.286,2.077498515633562,96.18823957554493
3671.132,2.0806696120753183,105.32886045399968
3671.9768,2.084118128979565,94.41328214426646
3672.8235,2.085989041624375,90.23673662182651
3673.6685,2.0846918446052394,89.00380580900169
3674.5156,2.0798471556150337,103.62428060578665
3675.3608,2.072676325232986,97.8617264634036
3676.2063,2.0652714881262515,93.95724965956768
3677.0542,2.059276647960125,122.18120948009152
3677.9,2.0548783555833086,87.76426063134804
3678.748,2.050783429099791,80.45987153250636
3679.5945,2.0455027211088295,125.72743070879575
3680.4429,2.0385491798192095,96.31896654577923
3681.2896,2.0309320526595873,111.33522247178668
3682.1365,2.024331176051552,102.72450295975054
3682.9856,2.0199462500327137,123.77738345773318
3683.8328,2.017771981718897,104.56167268150085
3684.6824,2.01682099271821,111.26199028075058
3685.53,2.0161816387491798,117.47263872712446
3686.38,2.0156933477125847,98.87675120760944
3687.2278,2.0156846655263916,110.45087213820356
3688.0762,2.0161688528700723,133.6635877027094
3688.9265,2.0165370061844023,100.968082313092
3689.7751,2.0160000609703896,104.85224324121192
3690.626,2.014172582029384,127.25822656453808
3691.475,2.011202869055503,85.76563597096444
3692.3264,2.007394304867501,96.7576816803503
3693.1758,2.0028522776084956,124.48467676609366
3694.0254,1.997355026822007,103.154480200984
3694.8772,1.9907422863405104,104.2267603263115
3695.7273,1.9834484600622242,92.98152650721323
3696.5793,1.9765247156371388,107.61598324272767
3697.43,1.971422728706528,101.11154241445149
3698.2825,1.9693341302337442,105.36860423351769
3699.1333,1.9706813514213972,116.1135489060348
3699.9841,1.9747171698669745,112.75952274272547
3700.8374,1.979781283430624,112.33745224448616
3701.6887,1.984020302815153,102.45986337666861
3702.5425,1.9861868785252033,114.72205938734837
3703.3943,1.9856004087428019,128.98715893705588
3704.2483,1.9818091085027314,93.11601010759405
3705.1003,1.974545709901017,113.2919575052841
3705.9526,1.9640439394828608,116.69759562726549
3706.8074,1.951237901155725,108.78318243383687
3707.66,1.937606971553984,105.508139560698
3708.515,1.9245236284262652,128.27716406629855
3709.3682,1.913442939640014,102.07011657492914
3710.2234,1.9056904761058773,116.96928581247208
3711.0771,1.902292046732295,130.50430064136813
3711.9307,1.903195003915622,135.74831417144136
3712.7866,1.9071277944824825,112.87741859629494
3713.6409,1.9121435038389756,101.78367116324725
3714.4973,1.9166656627333885,111.3246138321663
3715.3518,1.919996538977468,115.86653980466414
3716.2085,1.9223268606431998,106.15968365815428
3717.0635,1.92422282609155,149.4551585888636
3717.9185,1.9261431877394144,175.01058279611448
3718.776,1.9280182885110433,112.44615925553057
3719.6313,1.9291961518387453,94.48546292831355
3720.489,1.9289170967106555,106.45781733046508
3721.345,1.9268976485828353,109.83845004069917
3722.2031,1.9234871454017053,129.5788601071611
3723.0593,1.9192168461106311,138.19962447490502
3723.9158,1.9141221735791434,116.29536674665897
3724.7747,1.9077564983171529,126.84973325328346
3725.6316,1.9000266851954963,107.48487300069753
3726.4905,1.891828324592221,135.85642945020894
3727.348,1.8849452322844464,128.78011853281754
3728.2073,1.8807743828107955,135.34649841772807
3729.065,1.8794307217076522,130.03004652673468
3729.9229,1.8797339616554618,122.68088819416374
3730.783,1.8801146592436735,123.94456176676023
3731.6414,1.8794013544637929,134.14827527135407
3732.5017,1.8771226677512394,117.1456291523003
3733.3604,1.8734902088950838,127.6009781298089
3734.2214,1.8691626239534447,125.25721520550074
3735.0803,1.8648513334498962,158.47306688942692
3735.9417,1.8606148825370754,132.1486764273055
3736.8013,1.8557593096488953,134.4129402988638
3737.661,1.8494369161090705,113.00382773585117
3738.5227,1.841690066501847,138.97647512544458
3739.3828,1.8338301790040772,132.29242734362253
3740.245,1.8274397936799318,126.14338256752099
3741.1055,1.8231740642349423,124.11766696413184
3741.9683,1.8200895451676797,134.26875616776547
3742.829,1.8164692866579055,129.31139704142265
3743.69,1.8111987851724112,118.31713030175183
3744.5532,1.8047748320913375,135.9776323564468
3745.4148,1.7991321670051021,156.84018233406317
3746.2786,1.796191726895779,136.38102157390077
3747.1404,1.7965108988773917,121.59558782137907
3748.0044,1.7988878492114442,123.8001084838933
3748.8667,1.801404400509876,122.47812000175033
3749.729,1.802955721508656,144.18101463048592
3750.5938,1.8038901141760473,141.46097833739398
3751.4565,1.8053370015689396,172.6429719984346
3752.3215,1.8079797560994364,182.9221582185794
3753.1848,1.811347671323976,94.2437312704021
3754.0503,1.8142201381776164,152.9344240741714
3754.9138,1.8154675416028494,148.5158339459245
3755.7776,1.8146908935415222,133.2679869790773
3756.6438,1.8121147075129336,137.17085390127946
3757.508,1.80819122170205,123.95785123699356
3758.3745,1.8032316368761239,110.98482422452534
3759.239,1.7974699361287247,142.58314049044603
3760.106,1.7910890649025548,141.52192346577596
3760.971,1.7843554538797837,132.6758129904925
3761.8362,1.777453804307017,139.3896151388527
3762.7036,1.7706184514702452,151.81080990958014
3763.5693,1.7644452362947958,144.44073470465344
3764.437,1.7598873922302156,150.16649195622708
3765.3032,1.7578826396340304,134.1767088733016
3766.1714,1.7584712571068721,142.07267644538655
3767.0378,1.760526892890556,139.7950958339121
3767.9043,1.7624688722897717,128.78291352852114
3768.7732,1.763298584147178,144.18810696820853
3769.6401,1.7628066885865246,134.14620295226217
3770.5095,1.7608474589775347,143.92517217838403
3771.377,1.7567898274457419,130.19089066541366
3772.2466,1.7499929949740118,112.94835539107996
3773.1145,1.7409515399725046,141.99726464501182
3773.9824,1.7314847371028297,170.33260044138285
3774.8528,1.7237870439951553,129.07636518968675
3775.721,1.7191854603896337,119.06796070395787
3776.5918,1.717570538100361,139.14478501814813
3777.4604,1.7180842480415475,155.89794260093146
3778.3315,1.7198224536599507,153.09743966609187
3779.201,1.7220188383070414,144.40689295612748
3780.0703,1.7238513921259442,129.807977339488
3780.942,1.7244637722532965,154.34348267299399
3781.8118,1.7234272500024264,155.30318832104967
3782.6838,1.7211275031653028,151.91019458712475
3783.554,1.7185848253098,140.96286198303332
3784.4265,1.7168312508752503,154.86613390681282
3785.297,1.7165015482454355,144.6750830138797
3786.168,1.7176429776384388,155.04237748997363
3787.041,1.719666051563942,170.0302867666046
3787.912,1.7213427489959927,149.8526274876911
3788.7856,1.72126831033332,131.374484048275
3789.6572,1.7186607705932304,134.96234323672957
3790.531,1.71393100498179,137.10336362043154
3791.403,1.708437108952727,157.2909045592154
3792.2754,1.7034413811986875,153.95229757304062
3793.15,1.6993280418045797,141.41773009654887
3794.0225,1.6956010692253234,145.69117797457614
3794.8972,1.6913935190139127,173.95626491304898
3795.7703,1.686163131739551,169.78599270585346
3796.6455,1.6799733023852192,140.0675643575308
3797.519,1.673665297403612,154.19731864070917
3798.3926,1.6684628505662973,154.0221076850279
3799.2686,1.665296014229821,160.9846935962825
3800.1426,1.66411486603921,151.38128518599632
3801.0188,1.6638690997252021,150.8280702582605
3801.8933,1.6634740577084193,160.78020037721336
3802.77,1.6627902631998117,150.65807170798166
3803.6448,1.662600924729232,182.66724770133638
3804.522,1.6634778603512121,146.64127928366932
3805.3972,1.6647803539774932,163.33851807467187
3806.2727,1.6650114784104215,156.8010421790452
3807.1504,1.6632249208566987,157.47935796153067
3808.0261,1.6600323802159198,148.16687690964807
3808.9043,1.6570738408781762,197.594883421783
3809.7805,1.6556503673648184,133.31409214000612
3810.659,1.6557773177530488,183.5327613099964
3811.5356,1.6565308076695655,166.93440765160878
3812.4126,1.6569883689440017,153.76800512548527
3813.2917,1.6567880885024528,145.85312925826926
3814.169,1.6559913962418495,154.42269694647473
3815.0483,1.6547000686408277,153.5036901852319
3815.926,1.652925405888417,173.23956568291624
3816.806,1.6506313423371886,140.5501584081249
3817.684,1.6478211986698261,158.4991166410998
3818.5623,1.6445033817350563,176.58490706815869
3819.4429,1.6406889482207698,186.2864187365857
3820.3215,1.6364116119017502,190.00742913808048
3821.2024,1.6316576115338512,169.95106322795917
3822.0815,1.6265367897775092,170.31024720564326
3822.963,1.621349934649701,160.6098203797401
3823.8423,1.6167037041130015,176.291762218187
3824.722,1.6132005696117744,163.13541765591307
3825.604,1.6111312084729135,170.42842539027555
3826.4841,1.610237670472806,167.46336245529457
3827.3665,1.6097055861084264,145.92529913502275
3828.2468,1.6084758586494665,151.95062804643337
3829.1296,1.6056647526349204,169.13044933158744
3830.0105,1.6009757401763411,156.15413414390005
3830.8916,1.5946877539267972,185.56881858565686
3831.7751,1.587314715716148,191.7578427672343
3832.6565,1.5793231440628006,181.71143251592844
3833.5403,1.5709974850461264,160.70738488305054
3834.4224,1.5628901360397953,197.3928773254555
3835.3064,1.5558244509674315,156.10467340285717
3836.1887,1.5508018601405706,160.09408679250228
3837.0713,1.5484664076586987,159.73929579159966
3837.956,1.5488491430928721,215.6865548508308
3838.839,1.551300690726738,173.42376046016474
3839.7244,1.554790311704661,182.86081435567627
3840.6077,1.5583924478024684,184.70366172153587
3841.4932,1.5617919754839966,177.2629562209738
3842.377,1.5652158629575548,190.00481910713555
3843.261,1.5689727351761251,182.30789560769813
3844.1472,1.5728437828900748,182.27159556676722
3845.0315,1.5759555764815105,168.0192672351022
3845.9182,1.5773739639580175,176.99941415047851
3846.803,1.57679074496909,207.80797773723154
3847.69,1.5748721619667878,191.22715197360066
3848.5752,1.572915144807375,167.70558519395337
3849.4604,1.572081667281099,183.03096687050768
3850.3481,1.572797561668564,172.95368944510474
3851.234,1.574616604480284,172.91361885870012
3852.122,1.5766154058232578,169.51037819629724
3853.0083,1.57787533529457,164.55090344818632
3853.8967,1.5777684723430698,192.65236102197005
3854.7832,1.5759609354554283,168.31623320481145
3855.6702,1.5724763468198288,157.56469804320324
3856.559,1.5677961101555569,175.63920237152126
3857.4463,1.5627702690654028,175.05706108902598
3858.336,1.5581588521097898,199.01566250908508
3859.2234,1.5544686001530739,167.79774170193534
3860.1135,1.5519676602043992,174.98713970314307
3861.0015,1.550867227709314,190.67598154912514
3861.8896,1.5510287250026231,186.03891591910363
3862.7803,1.5516872492907972,175.9285302543782
3863.6687,1.551583992090433,175.22856866017122
3864.5598,1.549589042571934,179.03538820289103
3865.4487,1.5452191753638023,170.44125053164169
3866.34,1.5385672309720262,186.04396160900836
3867.2297,1.5301219674458113,176.0940110512731
3868.1213,1.52063355401963,184.82589429094855
3869.0112,1.5113721014050632,209.19002188838567
3869.9014,1.5037222408443274,206.45366482867564
3870.7937,1.4985432678510306,219.26173413200956
3871.684,1.495707083845742,210.35843520157576
3872.577,1.4942775505153718,208.80632983010577
3873.4678,1.4932816187887334,205.39235115867515
3874.361,1.4922200287442953,198.18896053967524
3875.2524,1.4911827814665293,183.77328608193017
3876.1438,1.4905043946230379,194.50865279729933
3877.0376,1.4902571494241177,240.97684981201277
3877.9297,1.4899476649531027,193.5651887284288
3878.8237,1.4888014480031169,180.54942501551656
3879.716,1.4864867635337924,186.56119503209155
3880.6108,1.4834601362552406,170.5155960273695
3881.5037,1.4805174714038105,204.80413717866819
3882.3965,1.4778681406882967,192.17482290557973
3883.2917,1.4748596726189545,157.04194303609748
3884.185,1.4706215571026047,175.58224139623115
3885.0808,1.464880450931834,221.3371773550383
3885.9746,1.458343722978784,209.6423838104482
3886.8706,1.4521517496630547,180.6838192986731
3887.765,1.447265771008912,231.07235508162427
3888.6592,1.4438873044263887,198.9239075301537
3889.556,1.44149431788792,169.96470244662842
3890.4507,1.4392373853594411,231.00870444925403
3891.348,1.436389572977978,205.17176427416098
3892.243,1.4326781367800152,212.85128813988922
3893.1406,1.428189018738842,207.48984402733322
3894.0361,1.423267968983128,198.73120640412685
3894.932,1.4183398793062723,203.2824282060284
3895.83,1.41399993649384,213.1248131373692
3896.7263,1.4110774309977632,209.9954086751755
3897.625,1.4103467283348063,279.62311806475157
3898.5215,1.4121715694186356,230.5056037201353
3899.4207,1.4163305857597956,237.20519727028164
3900.3176,1.4222334001804793,241.40614898214673
3901.2148,1.4292889531629647,184.47621987041055
3902.1145,1.4368648913331468,216.7883041600947
3903.0122,1.4440638787168854,212.06478118402785
3903.912,1.449981896641033,191.03617686401884
3904.8103,1.4540285288689283,250.8005456614578
3905.7107,1.4563532951900529,211.0952026381409
3906.6094,1.4576636386460913,204.05337650340203
3907.508,1.458865841798672,194.46838214896457
3908.409,1.4607070394612494,217.47995357658868
3909.308,1.4635978238762537,197.64107981371754
3910.2097,1.4675116457565234,205.3863555778927
3911.1091,1.4718052277126763,199.79982317046102
3912.011,1.4754225947515525,191.84920603859422
3912.9111,1.4773604389144526,218.1636868030392
3913.8113,1.4773808838557887,182.4934271646541
3914.7136,1.4761774721968879,216.83462412691827
3915.6143,1.4749417746875995,218.3077294474577
3916.517,1.474582588994968,216.51498231693853
3917.4182,1.4752442836605044,178.639539607379
3918.3215,1.476366885101895,184.571403944236
3919.223,1.4771750131460843,201.78478420632928
3920.1245,1.4772529712393538,215.43241627468626
3921.0286,1.476780677820329,200.88548795070582
3921.9307,1.4763139778100507,220.07839274902264
3922.835,1.4762771345214318,201.16477926501165
3923.7373,1.476634727518904,192.0494362739253
3924.642,1.4769584279524435,190.34975752505414
3925.5452,1.4767123457878368,205.34781504664966
3926.448,1.4754724324997455,184.43599786182392
3927.3535,1.4729879544690119,189.86383551159463
3928.257,1.4692880472729442,185.93083701991526
3929.1628,1.4647617158585922,228.61684130530023
3930.0667,1.460244841823916,229.258925499562
3930.9731,1.4566998186783127,187.27420835929303
3931.8774,1.4548421545745887,220.2688876042742
3932.782,1.454671089192248,215.0640663474257
3933.6887,1.4554104282473328,218.33843325832532
3934.5938,1.4557223420952021,203.13104757581556
