wavl,flux,ivar
3566.9744,1.290968910305442,508.6388296067003
3567.795,1.2879795305864397,519.5288301956556
3568.6177,1.281241779537216,572.3861132481923
3569.4385,1.2725060242654782,524.7814606873552
3570.2617,1.2638889384347545,504.75990388475736
3571.083,1.2571991901427317,516.6865555043534
3571.9065,1.2533205404715018,1653.3420176603854
3572.7283,1.2521498918565823,559.6330521483128
3573.55,1.2524887987731275,1232.1093008283096
3574.374,1.252548202036449,461.6561245128571
3575.1963,1.251024446659608,570.863320309315
3576.0208,1.2480722981336236,418.94650859750215
3576.8435,1.2451998337269872,664.9421970905244
3577.6682,1.2439990665704084,819.820477548592
3578.4915,1.2450321930028527,574.0593673670844
3579.3145,1.2477540116424735,622.3243613084337
3580.14,1.2513126362456382,450.09319077954314
3580.9636,1.2549834070770716,659.9887867106163
3581.7893,1.2579489620223683,562.3239281235421
3582.6133,1.2589648578385142,476.02661010354393
3583.4395,1.2569536992324175,338.18651352476434
3584.264,1.2519482501909,635.4900916533077
3585.0884,1.245236306098435,627.6141186482386
3585.915,1.2384325165712973,530.9173433579859
3586.74,1.2325219607175322,372.47286627226526
3587.5671,1.2275555739024286,515.3877588964156
3588.3923,1.2233578503807412,605.6112684331883
3589.22,1.2201339857631386,566.377856716836
3590.0457,1.2187932803724302,655.0746365726527
3590.8716,1.220426319714732,455.4094914508534
3591.6995,1.2254159584054753,534.4084166895327
3592.526,1.232634415693169,765.1198065555807
3593.3542,1.2396994805503208,539.2694433412826
3594.181,1.2439487654719932,466.8375354287485
3595.0098,1.243716689840813,552.48052267139
3595.8367,1.238831712642966,474.2381780908553
3596.6638,1.230423370737107,471.17744249770607
3597.4934,1.2201583387510502,625.0391578185302
3598.3208,1.209529998694151,612.315957612541
3599.1506,1.1993152134188525,552.5887965900806
3599.9788,1.1902743246567662,511.3720563443933
3600.8088,1.1837314335379125,498.24769346415815
3601.6372,1.1817823561284524,756.8774037073779
3602.4678,1.186133411614805,496.7839146747631
3603.2964,1.1966935103760898,637.7423873780854
3604.1252,1.211085799882739,590.8242243619211
3604.9565,1.2255466628531926,580.8582638329434
3605.786,1.2365202753272002,531.1933740438652
3606.6172,1.2423121067539677,589.0742605972166
3607.447,1.2431642048082667,555.335334116694
3608.2788,1.2406336688083708,478.5434112418519
3609.109,1.2365778615081586,550.0672810348591
3609.9392,1.232494185896623,393.2101028795432
3610.7717,1.2293569925936418,742.9849234187363
3611.6023,1.2276623912807922,549.9567837216913
3612.435,1.2273775252479455,593.7075351902852
3613.266,1.228018423522261,451.73449768005304
3614.0994,1.2289040666012974,654.041760108351
3614.9307,1.2295612667239695,562.112126167977
3615.7625,1.2299801014175251,552.6242967235312
3616.5962,1.2305054882357076,483.3750688416125
3617.4282,1.2314980846435963,650.7389432747551
3618.2625,1.2329769407218123,713.2988561020517
3619.0947,1.2344062180200348,552.6956907385713
3619.9292,1.2348898804254576,514.4502129372812
3620.762,1.2337048192900009,673.8662170691853
3621.595,1.230889435909802,493.7430661631612
3622.4302,1.2272967796128733,516.1509542308593
3623.2634,1.2240346984546389,647.1543135840425
3624.0989,1.2216126149987876,607.726934876977
3624.9326,1.219729596115799,644.743388541684
3625.7686,1.2177353501242494,358.1738356258293
3626.6028,1.2154691858602513,498.1918645846101
3627.437,1.2135013094217078,527.3670720008588
3628.2734,1.2125987449929425,771.7081290883253
3629.1082,1.2129338996136914,541.6895039094709
3629.945,1.2138594196529475,612.1242639023715
3630.78,1.2144423893405025,540.0943530644159
3631.6174,1.2141887519854737,451.02557472652467
3632.453,1.2133620526767677,443.59424866650147
3633.2883,1.21277111660253,572.8274833645432
3634.1262,1.213194677883311,674.0185561727155
3634.9622,1.2147836059259904,575.8196941780155
3635.8005,1.216932632417199,656.0832048328892
3636.637,1.2187480487406206,766.0571030040803
3637.4756,1.2198069206380524,572.7267904003188
3638.3123,1.2204620775102486,477.4670821689582
3639.1492,1.2216178086835527,714.9824574525476
3639.9885,1.2241576272662735,548.8537596357322
3640.826,1.228315614534741,553.1253246974287
3641.6653,1.2333211676574294,604.1549291866385
3642.5032,1.2374740929685357,696.7893044905836
3643.343,1.2391208839461911,568.9355927698929
3644.1812,1.2377682995244557,551.3595876576279
3645.0195,1.2344634334978029,601.4422346212967
3645.86,1.2308475873343374,510.64674522301914
3646.699,1.2278926289439758,451.03383544860446
3647.5398,1.2254253660642183,545.1477736823039
3648.379,1.2229144601409445,494.5036920543701
3649.2202,1.220353772073696,592.4073683235082
3650.0596,1.2184260616127696,459.66063326259103
3650.8994,1.217777562540274,468.93257713702366
3651.7412,1.2184696557953112,645.5005922408566
3652.5813,1.2200858134705006,560.3763063588746
3653.4236,1.2221811764477122,477.4119884420506
3654.2642,1.2243015440547327,625.0614225260107
3655.1067,1.2257651925255997,461.9920494954399
3655.9475,1.22574137125113,427.1687588756548
3656.7886,1.22387589633204,496.4350464382513
3657.6318,1.2207479037437565,566.8979271648542
3658.4734,1.21770632187726,711.5630153940576
3659.317,1.2159969998727003,636.535107112015
3660.1587,1.2159232496647865,1027.6008067920561
3661.003,1.216568731330222,494.69842429477626
3661.845,1.2164567691562183,612.4962004360796
3662.6875,1.2145943999558892,771.8923035095231
3663.532,1.2109589150421347,569.3656249439712
3664.3748,1.2061648417227333,492.6957860969858
3665.2197,1.2007229726286772,712.3536082242426
3666.063,1.1949027414663351,566.2143822963839
3666.9084,1.1890197620104546,700.2622145744014
3667.752,1.1840252272430642,762.6479035407299
3668.5977,1.1813631191824538,720.3404112751746
3669.4417,1.1822867617334638,536.4789496606069
3670.286,1.186792182704027,1066.8224238734535
3671.132,1.1933081717532572,688.5967964374264
3671.9768,1.1993753223962105,467.11047454282783
3672.8235,1.2030540754484222,594.3791527958672
3673.6685,1.2037349341868873,521.7662027709868
3674.5156,1.20218573537126,666.117355816451
3675.3608,1.1999539599922737,671.8845754919931
3676.2063,1.1986910112498668,697.953432621599
3677.0542,1.1995938319842978,648.3464130193444
3677.9,1.2028635492881696,653.740345400094
3678.748,1.2075138164486185,554.4646517505604
3679.5945,1.2117650817680072,487.11506859731634
3680.4429,1.2140912889016193,556.5402721583324
3681.2896,1.213868853389106,678.5816224987018
3682.1365,1.2112866348019258,565.1972194822251
3682.9856,1.2066888761467152,620.7074537544778
3683.8328,1.2002866870517959,435.6185875969063
3684.6824,1.1922200314308131,593.8859690289047
3685.53,1.182986758175633,765.2897959560952
3686.38,1.1734732546119204,567.6404237573955
3687.2278,1.1652241392131093,709.2733744281329
3688.0762,1.1601009794333577,635.2577536197036
3688.9265,1.1595934687117833,575.3412125453067
3689.7751,1.1636357435267624,593.9479002991678
3690.626,1.1702114164948048,468.51275745563726
3691.475,1.1763681926786047,858.1401060349862
3692.3264,1.1801818607165873,564.4393034932381
3693.1758,1.1817536296228541,484.09546346832764
3694.0254,1.1826875170849491,555.8355923282309
3694.8772,1.1844043644548135,567.178144150053
3695.7273,1.1868773835068258,653.899533432364
3696.5793,1.188771320875636,497.62994386129975
3697.43,1.1886865454402138,578.6725302624511
3698.2825,1.1864653087198656,551.2545218860098
3699.1333,1.1833976330063807,488.84366845656166
3699.9841,1.1812214991278298,1048.4694167335406
3700.8374,1.1809429098157236,597.4291768738738
3701.6887,1.182407951941212,653.8872905010073
3702.5425,1.184745696661725,524.6368798047212
3703.3943,1.1869795271629469,700.9658611112794
3704.2483,1.1883659603332284,690.4154854031591
3705.1003,1.188422458703683,551.5483739635758
3705.9526,1.1870451141132279,659.3361730431099
3706.8074,1.1845731265853545,652.0023108725986
3707.66,1.1817448787489628,636.156235204921
3708.515,1.1794137262624096,618.9187304690417
3709.3682,1.1783182088349535,506.4538513242563
3710.2234,1.1787537437832343,709.435933423621
3711.0771,1.1803657279582487,628.3636005894931
3711.9307,1.1822120798466706,573.1518085046964
3712.7866,1.18324666165837,550.0091660141285
3713.6409,1.1829356516859322,668.1719207294294
3714.4973,1.1815416936586551,570.1990715115168
3715.3518,1.1797663927720132,624.2379684666446
3716.2085,1.1780248663807014,812.1741477640834
3717.0635,1.17606494203396,541.461363753034
3717.9185,1.173228956983931,567.080486571297
3718.776,1.169181886630863,595.6206800564449
3719.6313,1.1644270212280232,537.5131002499533
3720.489,1.1600301321379947,619.5282881431251
3721.345,1.1570464643143519,673.7289607780862
3722.2031,1.155865479450525,764.8813756130659
3723.0593,1.1560641524423787,435.96454933871655
3723.9158,1.1566305595926853,638.7923888470032
3724.7747,1.1565693716543888,548.5172779661865
3725.6316,1.1554884171894284,633.3770929174287
3726.4905,1.1537251359563714,724.3358171785648
3727.348,1.1519508296249883,785.590149781516
3728.2073,1.1506553625316283,633.0061162675622
3729.065,1.1500245464741818,602.5774383749282
3729.9229,1.1500408512373577,688.1054435943018
3730.783,1.1505781033664433,704.8852546913735
3731.6414,1.1514114317371755,732.8166003914259
3732.5017,1.1523887293909099,704.3809059088754
3733.3604,1.1536754515970649,622.859827409804
3734.2214,1.1557717052809462,574.6307250704186
3735.0803,1.1590406586495556,704.1580194695955
3735.9417,1.1632241580034655,497.4553046087789
3736.8013,1.167288197382034,854.530385441611
3737.661,1.1699726083974205,633.0198848747111
3738.5227,1.1704116001559042,512.1156642688404
3739.3828,1.168476618457315,785.2338111333494
3740.245,1.1646094136188756,640.7611716066152
3741.1055,1.1594350357323384,665.2583341068134
3741.9683,1.1534459564022388,696.1657005849804
3742.829,1.1472043614144416,747.0838693393304
3743.69,1.1414098652354927,658.1112668800636
3744.5532,1.1368001777990036,838.6722071372179
3745.4148,1.1337997499140169,621.6544550334737
3746.2786,1.1322838197414933,607.0522350246969
3747.1404,1.131933927501694,618.2094335251171
3748.0044,1.1326565608232968,744.4331699409753
3748.8667,1.134705497679586,551.1906294430485
3749.729,1.1383465026706312,727.5368491101686
3750.5938,1.1434098693629702,579.8443255809175
3751.4565,1.1490699605383272,631.5193957922652
3752.3215,1.1542095023751637,528.1907674463612
3753.1848,1.1578121075716523,593.3893179052185
3754.0503,1.1594214172079482,564.6658147599783
3754.9138,1.159202995580884,693.7021412903978
3755.7776,1.1578800231198776,648.7776668631393
3756.6438,1.156418105096419,673.6805501544445
3757.508,1.1556018958464047,764.80241625753
3758.3745,1.1556310910980783,628.4353650373345
3759.239,1.1561203507173279,584.1480798713112
3760.106,1.1564600205669735,652.7222695748623
3760.971,1.1562060967375611,690.1771730622002
3761.8362,1.1551984370318291,638.4782357099245
3762.7036,1.1534182597307798,656.3483425775103
3763.5693,1.1508474837719582,626.1723566089144
3764.437,1.147409687772819,627.1950333172962
3765.3032,1.1432073073392799,758.4197122610927
3766.1714,1.1388027519509927,702.5451746742148
3767.0378,1.1353403636489918,689.0735286366124
3767.9043,1.13388821604065,696.050391057566
3768.7732,1.1345669551569229,558.1179273962344
3769.6401,1.1362142141113443,671.4495525409296
3770.5095,1.1371453589484657,579.952615695004
3771.377,1.1363427727312558,597.4224883900274
3772.2466,1.134078574663105,655.9418030810758
3773.1145,1.1315362477277155,661.183797584148
3773.9824,1.1298681141819074,598.1198028671539
3774.8528,1.1295415183469237,689.0273664795595
3775.721,1.1302818716083862,778.8086671030019
3776.5918,1.1314761572285355,1060.1721283622626
3777.4604,1.132604761720895,673.2920948257643
3778.3315,1.1334172067631307,664.8830349593218
3779.201,1.1337620617061674,669.0233590926241
3780.0703,1.133426838925947,665.4501320507675
3780.942,1.1322383738610087,618.6358203021418
3781.8118,1.1304486676024168,652.597077838459
3782.6838,1.12890257507585,731.7934220513146
3783.554,1.128691091808347,655.3327344932582
3784.4265,1.1304043325743784,656.0457364188816
3785.297,1.1336572259747715,579.8263479902622
3786.168,1.1372918729366106,539.7500975984428
3787.041,1.1400191390476797,664.2640783486636
3787.912,1.1409880852671146,666.2095858424707
3788.7856,1.1399843533112501,705.515848576935
3789.6572,1.1372312109734783,581.1750498046433
3790.531,1.1331644738759796,641.7962385286988
3791.403,1.1283683217766625,551.9044615584269
3792.2754,1.1233639911491156,846.9130575332405
3793.15,1.1184051132005577,749.1043583625599
3794.0225,1.1134808631012083,725.4092236034995
3794.8972,1.1085759370369792,628.6863253169438
3795.7703,1.1041618743086037,661.1803996446446
3796.6455,1.1010261092929894,684.633243152071
3797.519,1.0997341692734992,762.1719332896184
3798.3926,1.1000968888133222,631.1780621282028
3799.2686,1.1014474658307796,662.967009566082
3800.1426,1.103347402652037,684.7679224590031
3801.0188,1.1060250109770051,638.3963053785872
3801.8933,1.1099574183137855,607.9700825105045
3802.77,1.115118368256949,602.7690601390437
3803.6448,1.1204745526842235,551.4664083406059
3804.522,1.1244459990207902,509.6227205960901
3805.3972,1.1257038761350842,676.9109427998203
3806.2727,1.1239379802177476,739.0906496678867
3807.1504,1.1198230978607262,659.279270931927
3808.0261,1.1145563786571977,571.4836930652054
3808.9043,1.109229850546866,764.028645557804
3809.7805,1.1047374343664407,645.5714806101882
3810.659,1.1018088047071357,569.8764932723209
3811.5356,1.1011512395142264,634.3866550007124
3812.4126,1.1031111867261045,741.4569565412469
3813.2917,1.1072582811824216,893.5226665822366
3814.169,1.1122025872295564,630.6911437609958
3815.0483,1.1161657484524588,743.7873979691142
3815.926,1.1177613764369754,593.1901831557774
3816.806,1.1166625636427068,681.9976541076965
3817.684,1.1136316827037591,635.9839506410012
3818.5623,1.1101450278756697,700.6359881335686
3819.4429,1.1077942516167407,732.6334537053687
3820.3215,1.1076116935274283,1062.3043068848583
3821.2024,1.1095366586499733,687.1200357941331
3822.0815,1.1125397223400804,590.8495189387295
3822.963,1.1153618270630106,675.6082558284327
3823.8423,1.1171962231043429,628.5771824238813
3824.722,1.1179234796050017,725.3389682841289
3825.604,1.1177754384122223,631.8480256912106
3826.4841,1.1169266583070285,651.8128599256416
3827.3665,1.1152331165831002,660.9224921347266
3828.2468,1.1122767484974763,848.7744715619624
3829.1296,1.1076391754671235,760.8315374189724
3830.0105,1.1013707613431747,629.5274840628024
3830.8916,1.0940840411247397,734.8102193149842
3831.7751,1.086722628834457,738.6207553823263
3832.6565,1.0801381525711078,543.6545085093728
3833.5403,1.0746391907726218,701.279260301792
3834.4224,1.0702276720287751,578.3085212647364
3835.3064,1.0668840795738055,684.8608223709385
3836.1887,1.0648914281355957,739.072018187525
3837.0713,1.064592696514646,634.5756127793312
3837.956,1.065994126202174,738.7004604279505
3838.839,1.0685411482828446,774.7438007699483
3839.7244,1.0714253097751647,850.0815778482773
3840.6077,1.074061270594012,691.3161793826625
3841.4932,1.0764305380916117,841.2035236881644
3842.377,1.07889159334971,830.7705804994246
3843.261,1.0818055323771372,687.5731274432626
3844.1472,1.0851886468871281,769.985720082462
3845.0315,1.0886506961572213,593.7503114192104
3845.9182,1.0916848860920476,836.4696371981079
3846.803,1.0939252001354203,600.6830916864267
3847.69,1.0954151416434645,583.2505539563745
3848.5752,1.0965430377342875,746.5013566577636
3849.4604,1.0978199090665113,647.7132167411543
3850.3481,1.0995463291777259,766.4104172284532
3851.234,1.101588031426105,846.1099515307877
3852.122,1.1034234270264418,611.9449327584509
3853.0083,1.1043575446836529,694.4529110004376
3853.8967,1.1039247308416387,718.9120878631107
3854.7832,1.1021682900685472,789.1112606833999
3855.6702,1.0996616351961175,728.180759165642
3856.559,1.097229304472234,667.7091732735527
3857.4463,1.0955358126168488,968.6025003794615
3858.336,1.0947286705259562,616.9031974888057
3859.2234,1.0944725882060113,656.8995966764227
3860.1135,1.0942782418345667,746.2511634241422
3861.0015,1.0939329807099025,748.9330048622063
3861.8896,1.0936519856211304,745.1332860001223
3862.7803,1.0938891820824512,725.5040097732157
3863.6687,1.0950024257692363,777.9505481157705
3864.5598,1.0970422058387717,689.0459613381194
3865.4487,1.099670536997481,665.158254530342
3866.34,1.1022433060461827,692.8766305806688
3867.2297,1.1039107510135815,603.7927226630385
3868.1213,1.1039580347994289,703.8048223202906
3869.0112,1.1021118755147472,623.6317738726254
3869.9014,1.098625626086454,739.1349864898391
3870.7937,1.0940099372888399,623.7165586213624
3871.684,1.0887662732338967,704.6028573019194
3872.577,1.0832610689285558,655.3069262753604
3873.4678,1.0780252667686165,701.8933948193956
3874.361,1.073760806655008,684.8383482884142
3875.2524,1.071209167061392,844.2830158794711
3876.1438,1.0706458196629658,811.3413194743639
3877.0376,1.071664666734654,721.1325153472942
3877.9297,1.073267302013468,589.6483059791112
3878.8237,1.0742697357468078,839.9881085881755
3879.716,1.0737143056777159,708.3181714514542
3880.6108,1.071181827625008,715.4938590217117
3881.5037,1.066925738711597,667.180421597906
3882.3965,1.0616554965562026,734.765342772802
3883.2917,1.0560019940625534,861.4104684163698
3884.185,1.0499499683146412,722.7824766939079
3885.0808,1.0425856876726,679.6707337452937
3885.9746,1.0329342459464057,729.0735440340264
3886.8706,1.0210163330006632,827.9281859629062
3887.765,1.0087359383450178,903.1312165076511
3888.6592,0.9991658520728656,986.9103910041188
3889.556,0.9951114404000293,861.146284497183
3890.4507,0.997694678807871,686.8079131972452
3891.348,1.0059448883330164,947.8225855234883
3892.243,1.0175141390913218,777.265972879074
3893.1406,1.0300264853019037,738.1494865851613
3894.0361,1.0417162914475981,789.6932796494275
3894.932,1.0518295225557988,704.8785141773595
3895.83,1.0601499537860628,654.9932323623497
3896.7263,1.0664832868918883,1036.430410085522
3897.625,1.0705435463914799,752.9741947642488
3898.5215,1.071940336900646,719.3605893770118
3899.4207,1.0706095593902796,718.1071347474268
3900.3176,1.067119742815135,717.4921338557036
3901.2148,1.0626794405271567,775.922608152017
3902.1145,1.0587493658717937,705.0331383979359
3903.0122,1.056528906245062,747.7902034440282
3903.912,1.0565147972318312,792.178681808401
3904.8103,1.0584627581400883,889.8030170626389
3905.7107,1.0615463290675191,797.0350929621458
3906.6094,1.0646635292469686,699.1818464809775
3907.508,1.0669193748686423,659.4416174701898
3908.409,1.0679927325124234,716.8122968987375
3909.308,1.0682531539824278,664.2471876446923
3910.2097,1.0685123369348901,568.3005402172821
3911.1091,1.0694765656165717,653.7255959892119
3912.011,1.0712645332380513,801.7126589787016
3912.9111,1.0732895646849598,834.2005908795343
3913.8113,1.0746927067118266,716.1783814176107
3914.7136,1.0749307732659905,661.4418995910655
3915.6143,1.0740744094475798,685.0784181621312
3916.517,1.0726250922755722,701.120137912135
3917.4182,1.0711643593763074,935.6008188249989
3918.3215,1.0701325104735835,777.6259549306094
3919.223,1.0697901319583416,710.9960889092691
3920.1245,1.070117574567818,744.2205956903806
3921.0286,1.0707725442370677,674.3587719080508
3921.9307,1.0712244986938684,729.786425694307
3922.835,1.0710859678230273,764.2064353641817
3923.7373,1.0703559362192454,736.2039613678403
3924.642,1.0693910049433035,769.0360127978876
3925.5452,1.0686484314288176,747.7534614056772
3926.448,1.0683774056697095,732.7727495362626
3927.3535,1.0685257981250238,673.3098559975863
3928.257,1.0688762928918427,687.3782254919565
3929.1628,1.0692745562338966,702.3901476670142
3930.0667,1.069708496618297,793.751861723432
3930.9731,1.070185033602653,653.5538845128651
3931.8774,1.0705353173034242,669.8069869790937
3932.782,1.0704016328775938,574.4305540257208
3933.6887,1.069420222316003,667.8041514946766
3934.5938,1.0674805679887236,689.7403275958409
3935.501,1.0647985058858385,714.8921928310832
3936.4062,1.0617919383485144,816.6197522020124
3937.3142,1.0587508698028476,781.6675061972833
