wavl,flux,ivar
3566.9744,2.6408664102998594,220.45743685685437
3567.795,2.6362642201797324,188.7455287257759
3568.6177,2.6311458079568197,231.63750691578116
3569.4385,2.624653543840567,213.30358482789345
3570.2617,2.6171264661672105,278.79819615655
3571.083,2.6097866988575804,242.80812547898336
3571.9065,2.6037970849084977,251.04285727392906
3572.7283,2.6001287336092647,222.28233107351195
3573.55,2.5996426775299617,263.2969785410406
3574.374,2.6030792910500007,302.66332665222325
3575.1963,2.6103380085036942,257.0173342451097
3576.0208,2.6199397105435676,262.23387365460724
3576.8435,2.629253443370544,301.31769950745854
3577.6682,2.635971453764955,211.9805081226802
3578.4915,2.639180890004065,206.01101566603694
3579.3145,2.639578135390991,231.78711171241912
3580.14,2.6385429918483307,225.1239772045724
3580.9636,2.6373128865878224,203.33443541689047
3581.7893,2.6366199984468373,266.4750789272538
3582.6133,2.636522159032569,225.84920474092436
3583.4395,2.6360948046105634,212.8290426467729
3584.264,2.6335463886285853,237.94731363801338
3585.0884,2.6272772554235977,266.36972620470095
3585.915,2.617265456547796,228.99058387820568
3586.74,2.605507355120203,247.28264003424067
3587.5671,2.594496149477714,252.50051193653272
3588.3923,2.585601641073786,304.63616230492477
3589.22,2.578301373911312,240.78848211116625
3590.0457,2.571373228811143,250.47144236448884
3590.8716,2.5640735632538516,233.47709863016442
3591.6995,2.556645635898788,254.57702837525318
3592.526,2.5499162340981316,239.51069851334762
3593.3542,2.5446213213719084,263.4399936553013
3594.181,2.5413200953486297,230.79351752910242
3595.0098,2.5403320394825575,265.5108752827989
3595.8367,2.541604995289694,227.1435263737159
3596.6638,2.544282697855622,270.65222159148385
3597.4934,2.5466344718771463,241.78599838389957
3598.3208,2.546679027971167,206.81936756758475
3599.1506,2.5433062403992035,233.34653398282126
3599.9788,2.5369831562942706,264.6269207731132
3600.8088,2.5295366007006472,222.0230184105158
3601.6372,2.5234530507964466,271.9482490131426
3602.4678,2.52081520924355,234.20592581484334
3603.2964,2.5225829209899953,247.2552689579993
3604.1252,2.5281439074273604,217.4102573945416
3604.9565,2.5356368750658054,239.02686846543315
3605.786,2.542647492289615,231.47118396131177
3606.6172,2.5472187232556185,242.2606595563375
3607.447,2.5483289791883657,245.15855359241357
3608.2788,2.5461197192749787,238.6549702042521
3609.109,2.5415519276457736,289.4128739308865
3609.9392,2.535744941887265,266.15234231191425
3610.7717,2.529501330076922,280.34287638724567
3611.6023,2.5234099819993783,276.2743908159172
3612.435,2.518098065881597,269.10787306105567
3613.266,2.5144433257239713,280.14549440140297
3614.0994,2.5130406722070333,276.6612083176083
3614.9307,2.5136829365029167,241.10411674139118
3615.7625,2.5153065521214906,219.55693077643684
3616.5962,2.5167628182629493,239.5193551976598
3617.4282,2.5177096139677553,237.19444884496087
3618.2625,2.5187734156245822,290.5603631015637
3619.0947,2.520625226394092,278.3263662656242
3619.9292,2.5228416219584613,285.35399731753563
3620.762,2.5236046621975663,234.289917635619
3621.595,2.5207902192453457,238.321940232218
3622.4302,2.513505864878317,261.7526882311426
3623.2634,2.502993461671221,319.0584897164266
3624.0989,2.4918842276690345,264.1341265467793
3624.9326,2.482879879594952,288.5607901341565
3625.7686,2.4773299481029856,248.24057013032703
3626.6028,2.4751275220597537,285.43499682340337
3627.437,2.4751287303342853,266.4099941051118
3628.2734,2.4758230579112803,255.21277508686654
3629.1082,2.4756692965070184,251.25350225494407
3629.945,2.473453491823196,314.1159226316705
3630.78,2.4687943066258695,285.8701191508623
3631.6174,2.4623755039056343,259.13615095787037
3632.453,2.455759166894692,270.73083538958525
3633.2883,2.4505606695385658,243.1786691698753
3634.1262,2.4477312667553544,284.5158150448435
3634.9622,2.4470562961417848,320.5881383077479
3635.8005,2.447112967546442,242.12271201125478
3636.637,2.445963418079024,267.04960785472656
3637.4756,2.44222220362252,263.79951787671934
3638.3123,2.43600953908135,261.2043612093546
3639.1492,2.4290502749925995,240.03888397084714
3639.9885,2.423836463293981,244.83599674629048
3640.826,2.4221429045509417,291.98304769202974
3641.6653,2.4237564893647665,267.9404677338899
3642.5032,2.4266964041478056,274.83028210377535
3643.343,2.4287039472625724,288.24546407224074
3644.1812,2.42872362127102,248.4883676390275
3645.0195,2.427206440171698,265.98357876247337
3645.86,2.425140912206602,265.31335153357736
3646.699,2.4230228141367944,270.88526135167444
3647.5398,2.42055373663814,261.3305431092401
3648.379,2.417130294149416,272.46307869702747
3649.2202,2.412312255877119,274.46738658822244
3650.0596,2.4061392385808147,293.0446378686671
3650.8994,2.3991499774241434,260.3733774216781
3651.7412,2.3924609753063475,298.2081061877071
3652.5813,2.387603755374639,286.3724054831213
3653.4236,2.385885863317168,309.2016480691318
3654.2642,2.387815169880018,327.87755055476623
3655.1067,2.392739284224255,326.8679836878466
3655.9475,2.399030559715652,275.42250704910083
3656.7886,2.404797079285451,268.0234640171572
3657.6318,2.408611168878166,244.63544404506194
3658.4734,2.4099753063093527,253.78267690249353
3659.317,2.4093336440986324,265.01859920639663
3660.1587,2.407563425094079,320.3012627798789
3661.003,2.405452649668411,314.2150544116445
3661.845,2.4035323973457503,296.5859893314913
3662.6875,2.4021784000145865,278.4936673250203
3663.532,2.401809265273699,319.67078428850795
3664.3748,2.402770364167395,300.24721901776894
3665.2197,2.404949901895481,315.2468962951658
3666.063,2.4075057454188635,303.3262986716497
3666.9084,2.409216498548519,238.6115909138638
3667.752,2.409247886606338,297.3090098073247
3668.5977,2.407753682960764,287.91689315859935
3669.4417,2.4056209829179154,278.86026731726236
3670.286,2.4036061929397814,300.08775964153403
3671.132,2.4017861741382323,234.27262105479534
3671.9768,2.3998341913675016,282.9815545166862
3672.8235,2.397629744581792,253.7869055360265
3673.6685,2.395464310722946,275.68044620725476
3674.5156,2.393572280188047,299.7258860600386
3675.3608,2.391765342087302,295.9080483196798
3676.2063,2.389499952941513,296.30625527208656
3677.0542,2.386267519801729,292.1919631261491
3677.9,2.381890343388256,296.30997180159466
3678.748,2.3765799004882218,278.8459968619258
3679.5945,2.371118758198088,277.06225814291497
3680.4429,2.3666035611531897,336.3087489605476
3681.2896,2.363883047432452,271.62587183241095
3682.1365,2.3627635436637453,284.0774654460794
3682.9856,2.3621044885356515,272.5589698408587
3683.8328,2.3608893636566464,306.01076724731877
3684.6824,2.359391834150762,296.75458257573274
3685.53,2.3592039110112184,307.3763670980925
3686.38,2.3618750138422246,346.01796344270673
3687.2278,2.3674212988418684,264.6644349019009
3688.0762,2.374096499556702,270.22043466207515
3688.9265,2.379481076014938,324.8195243996793
3689.7751,2.381974028951424,304.87386734783945
3690.626,2.381680399042983,261.0801239119597
3691.475,2.3799472850777255,299.81088886538276
3692.3264,2.3780636619947066,268.39190385946307
3693.1758,2.3761418620356003,297.24371842681387
3694.0254,2.3731137041136092,274.75982182375094
3694.8772,2.367909156236246,227.57411127987248
3695.7273,2.360774088328854,296.41828811131387
3696.5793,2.3534264455916762,301.93569309507666
3697.43,2.3481973814840145,308.7458659890424
3698.2825,2.3465391294674034,274.15946440442025
3699.1333,2.348237780852745,295.3619543175608
3699.9841,2.351532461316165,324.2972857804226
3700.8374,2.3541392292037613,289.9186997069678
3701.6887,2.3543822573087874,292.940430606718
3702.5425,2.3518343035365437,292.6062048676159
3703.3943,2.347128554431282,310.1546606795256
3704.2483,2.341338328452541,347.56198689745645
3705.1003,2.335596634678606,319.4247300261848
3705.9526,2.3307528946535108,272.5392059236122
3706.8074,2.3272299314827416,318.68209622246496
3707.66,2.324917989684222,303.8284015348454
3708.515,2.32324198716995,304.6944253365394
3709.3682,2.3216071918251817,354.8571105797864
3710.2234,2.3197095702915855,280.4463119464622
3711.0771,2.317540316029925,295.5959495738965
3711.9307,2.314977691823596,340.6200754131106
3712.7866,2.3115055133134796,303.7599872322338
3713.6409,2.306513202586679,325.4324534326886
3714.4973,2.299922113702793,352.14159279517526
3715.3518,2.292758662335,309.671920956277
3716.2085,2.286789065278789,332.519502185672
3717.0635,2.28379043584605,335.19934787425194
3717.9185,2.2846054499369277,276.6206855157631
3718.776,2.288902285473147,289.55044387597434
3719.6313,2.295374903683995,342.3395655248353
3720.489,2.3023481169251645,277.19160409025585
3721.345,2.3081517939956298,337.3785881953496
3722.2031,2.3116313791543184,318.9177911254467
3723.0593,2.312365357019699,343.1006575723315
3723.9158,2.310751528052577,325.60562444380895
3724.7747,2.3075482528918485,316.89100441302827
3725.6316,2.303368439537095,365.972643796252
3726.4905,2.2983825195617325,330.00984360154445
3727.348,2.292622756371823,297.8171104072613
3728.2073,2.2863031098442694,303.0494889331573
3729.065,2.2800930667566064,313.02582355469497
3729.9229,2.274862011219265,327.3571252165093
3730.783,2.27136394818902,339.2550885889774
3731.6414,2.2699347320361607,309.81618233735554
3732.5017,2.2703666086981307,294.15678737912344
3733.3604,2.272059880819321,298.03276433662404
3734.2214,2.274146737047164,304.63984150836734
3735.0803,2.27551214414485,313.1107141494538
3735.9417,2.2749980127448555,322.1594477714185
3736.8013,2.2718289156248774,306.28848201581167
3737.661,2.2660765668412743,327.96682304256564
3738.5227,2.2587457004500116,343.23367250013854
3739.3828,2.251594552966073,305.7605071821328
3740.245,2.2465638978145717,312.93930305311767
3741.1055,2.245180707077519,353.1274074897141
3741.9683,2.2475534002058932,337.3470007790734
3742.829,2.2519131931724914,333.36344965410075
3743.69,2.2554024123848473,303.24297405715487
3744.5532,2.2558379590461466,360.03343552158816
3745.4148,2.2530979473203137,302.3136250910689
3746.2786,2.2489369080604495,375.03512114956686
3747.1404,2.2455681281889426,268.7991807711341
3748.0044,2.2442507103862366,346.1966072374126
3748.8667,2.244973296205502,316.51990099945306
3749.729,2.246796765268907,393.02013504646374
3750.5938,2.248366932940275,292.6618265989319
3751.4565,2.248334441937828,284.3601517304934
3752.3215,2.2459164049697034,321.59679824855846
3753.1848,2.2413579770642285,331.3704086296273
3754.0503,2.2357859961938824,390.63355461346555
3754.9138,2.230540631150395,323.7295233024912
3755.7776,2.2263152346870223,394.4296519729389
3756.6438,2.2230530007806335,326.1041256974268
3757.508,2.2204381575856713,372.6738985354611
3758.3745,2.2183900422220932,354.39668655516755
3759.239,2.2171948674491033,343.56224131807625
3760.106,2.2170379094338233,358.84471023177286
3760.971,2.2175714582818524,315.6188291074052
3761.8362,2.2179944570098047,326.9495654519117
3762.7036,2.217693189856949,329.14133955690505
3763.5693,2.2167875810189304,293.72059592244307
3764.437,2.2159633314609968,371.77285028511545
3765.3032,2.2157782963642245,325.1799276919423
3766.1714,2.21618496345257,321.8921795794625
3767.0378,2.216749447768744,335.98779153646177
3767.9043,2.2171845442786196,329.41919308936724
3768.7732,2.217572276465525,342.65337378978234
3769.6401,2.2182045981217233,341.00888155341266
3770.5095,2.219383218818747,360.18540681608454
3771.377,2.2212224085792758,329.6293683977234
3772.2466,2.223406849635391,350.5249948322464
3773.1145,2.2250676280645845,331.2103150181023
3773.9824,2.22531323206669,294.222862870091
3774.8528,2.2240170335361307,306.9390307004467
3775.721,2.2220944697774128,339.7694281547642
3776.5918,2.2208211136937774,347.09876290196485
3777.4604,2.220938493527533,322.2562037957357
3778.3315,2.2222429017419114,317.44885512474013
3779.201,2.22388631072058,327.5222230572623
3780.0703,2.2250342185755643,320.4554065651581
3780.942,2.225424123431104,338.82940646513373
3781.8118,2.2255077270247363,351.24020423615747
3782.6838,2.226051038307448,331.7500485832515
3783.554,2.22744981921777,293.47622705784875
3784.4265,2.2293216885550113,349.5398061752856
3785.297,2.230616036226435,316.1314889884357
3786.168,2.2301923453182337,336.43970699268124
3787.041,2.2273354600838906,338.61262258634815
3787.912,2.2220264100772416,341.5712359032007
3788.7856,2.2148070129594384,325.32675407587084
3789.6572,2.2066765619925,309.2246586333067
3790.531,2.198699680961072,374.09508526869615
3791.403,2.1918117893153677,354.5073707130941
3792.2754,2.186382906265305,284.3859873913643
3793.15,2.182182993402699,336.02808816773455
3794.0225,2.178524421245591,389.56661395214655
3794.8972,2.1744509180359963,347.2035865436117
3795.7703,2.1692137085497327,328.98739165512035
3796.6455,2.162734425503064,332.57733976836624
3797.519,2.156026407478958,330.0024193525242
3798.3926,2.150695590782392,330.9715966455661
3799.2686,2.1479571583454673,356.0989146117107
3800.1426,2.1478989709260987,359.5948970584569
3801.0188,2.1497284212863286,315.3460579616451
3801.8933,2.1527215427315505,366.1760941055623
3802.77,2.1567584385250407,361.81407200074784
3803.6448,2.16192861908324,332.3571543541187
3804.522,2.1680507016224375,378.86171289795783
3805.3972,2.1744864317964296,327.2464804167589
3806.2727,2.1805372834176664,346.90738166309393
3807.1504,2.1856282817046035,325.1426105008158
3808.0261,2.1894079589970064,313.34936643202406
3808.9043,2.192004593696762,388.34362895958725
3809.7805,2.1939926273662436,373.9764057390379
3810.659,2.196109601780761,338.73721104535963
3811.5356,2.1988033274904804,361.5542846746418
3812.4126,2.2023105225774815,308.66424847677143
3813.2917,2.2069668212874047,365.0422441071988
3814.169,2.213005099992065,379.8039207196838
3815.0483,2.219854188579328,332.2339246692595
3815.926,2.2255290280715383,275.3402005649617
3816.806,2.2274008082127494,327.8215826788993
3817.684,2.223691160660337,329.01239588113583
3818.5623,2.214740943482119,344.2995548284567
3819.4429,2.2027904732368415,357.16241271452907
3820.3215,2.190727223743582,331.56718013903054
3821.2024,2.1803505760006434,391.5289060578174
3822.0815,2.172037864101151,421.7476325908998
3822.963,2.165125894035684,330.27404993481883
3823.8423,2.1589187205066662,346.82990338402624
3824.722,2.152889851074763,357.42048759273104
3825.604,2.146494271143596,389.3585420600514
3826.4841,2.13901964953579,354.72132884691507
3827.3665,2.129794331104901,403.22576758906314
3828.2468,2.1189665843050225,376.1084447859926
3829.1296,2.1075488838873717,362.2315941032383
3830.0105,2.0969839676025592,363.88745373245143
3830.8916,2.087873058212125,371.5916454946123
3831.7751,2.079545092915752,389.02131416410253
3832.6565,2.0707043628889084,356.9396493122556
3833.5403,2.0605055298859316,338.62529916474034
3834.4224,2.0495223053711356,393.3038666810058
3835.3064,2.0392853905791357,414.9853344953256
3836.1887,2.0315020905606183,379.5947139018094
3837.0713,2.027139277856009,407.35138454135136
3837.956,2.0264063888414885,408.5629550716447
3838.839,2.029030701004886,455.2447562973861
3839.7244,2.034512663014787,414.6164742741372
3840.6077,2.0421497418182124,420.23851661027356
3841.4932,2.0512644670863565,339.03602745762726
3842.377,2.061409667745395,404.0703409556794
3843.261,2.0727957438984106,360.55429961529825
3844.1472,2.086154129127548,413.6070877520334
3845.0315,2.102125512647638,371.43604725857193
3845.9182,2.120860958559299,351.9121330255467
3846.803,2.1413144700226683,351.4135019951799
3847.69,2.1617788109445684,330.020681805101
3848.5752,2.1803221384671807,339.41421258969086
3849.4604,2.1960352857934047,322.34609247581096
3850.3481,2.2091874433714116,385.2507202172736
3851.234,2.2205314880925173,300.69641810981756
3852.122,2.2306370839179928,322.8413827040286
3853.0083,2.2393335868291664,315.12155534785734
3853.8967,2.246314721278708,314.36897409359733
3854.7832,2.251546552050035,315.79908795771166
3855.6702,2.2555746347708636,327.19290035112016
3856.559,2.259219490359891,330.5589082801339
3857.4463,2.263176216010382,325.39330048918794
3858.336,2.267710242195564,315.5403500834486
3859.2234,2.272377450212868,376.4392462942216
3860.1135,2.2761834741057765,302.29109528084217
3861.0015,2.277876521577753,345.0166211433238
3861.8896,2.276588419013513,293.3779046976454
3862.7803,2.2722495253699853,270.05301241145673
3863.6687,2.2657183292263814,301.34767460296956
3864.5598,2.2581705880283205,351.3462201561137
3865.4487,2.2504607393250913,316.391825149587
3866.34,2.2426397441409267,314.2770407087845
3867.2297,2.234501617315827,302.62756891320095
3868.1213,2.226003348612314,291.8629549848374
3869.0112,2.2174739858805066,345.4352508446349
3869.9014,2.20911004977339,333.37151648511417
3870.7937,2.2007425371708003,347.4071503624953
3871.684,2.191949351085553,316.096289231117
3872.577,2.1821008556573656,325.1638622046199
3873.4678,2.1706981367172897,347.158929171092
3874.361,2.1573889296142723,347.819032380877
3875.2524,2.1424092234329524,366.40638763550373
3876.1438,2.126269235712269,354.1572665473772
3877.0376,2.1093235213372727,363.826639744473
3877.9297,2.0914454126810633,377.55878274986657
3878.8237,2.0718213410609234,351.3881255971161
3879.716,2.0498694281485776,407.22105536069586
3880.6108,2.025511058063933,398.5074046079607
3881.5037,1.999678981527311,383.3942788522021
3882.3965,1.9734637777015618,450.90005167987636
3883.2917,1.947644903599811,417.7136358373287
3884.185,1.9225897580711775,413.3114961381222
3885.0808,1.8979617330892817,438.48356774969574
3885.9746,1.8736781570451504,468.89196739454246
3886.8706,1.849885822148005,497.2242869351363
3887.765,1.8275964070328237,561.5355310390746
3888.6592,1.8081481106469341,455.6072454651084
3889.556,1.7929828845394775,531.343384307024
3890.4507,1.7834319057246542,538.4059061344765
3891.348,1.7803889080323017,526.8423554418814
3892.243,1.7844668274193503,571.414993834491
3893.1406,1.7957940139200672,459.02015213739793
3894.0361,1.8136945567696225,541.8260593354362
3894.932,1.8368362992015277,501.7098331610769
3895.83,1.8635157373317361,497.51159833690315
3896.7263,1.8919145621619446,443.1678659413798
3897.625,1.920967408650747,502.43025705516794
3898.5215,1.9499211958203282,430.42316198674126
3899.4207,1.9787664660609088,371.4478055205311
3900.3176,2.0073660446790704,377.40147156059624
3901.2148,2.035840490253754,406.4934493192897
3902.1145,2.06428284477968,395.07289160828566
3903.0122,2.092576529957479,373.5610070997681
3903.912,2.12088336820002,358.94386656629905
3904.8103,2.1490708375160597,352.2462119499462
3905.7107,2.177067491565826,329.35273039843906
3906.6094,2.204215757947058,373.89306606190974
3907.508,2.2297452779261526,301.0963809284823
3908.409,2.253003009985397,307.65103390251744
3909.308,2.2738077778910313,322.87295519804843
3910.2097,2.292900410174833,323.67168551585803
3911.1091,2.3110067743372036,329.8401112474051
3912.011,2.3284654057583603,314.64507474690606
3912.9111,2.344591615398209,306.6245739742857
3913.8113,2.358493580198738,244.12603640675542
3914.7136,2.3698575184844755,291.75673834232606
3915.6143,2.3794072796883596,291.48236238309863
3916.517,2.388768165283695,258.4385147040988
3917.4182,2.399403160892415,304.5353602434184
3918.3215,2.4120075597851014,302.47611370751855
3919.223,2.4260846470939526,292.360369518249
3920.1245,2.440425598919321,309.0019744314233
3921.0286,2.4535436461709526,285.9374285772159
3921.9307,2.464109046667268,272.9675102179688
3922.835,2.471565635091588,280.87276199370365
3923.7373,2.4760719138138896,276.3127817875387
3924.642,2.478406108058642,276.214694383691
3925.5452,2.479409881955164,245.47799917406778
3926.448,2.479675359802634,242.49387754289728
3927.3535,2.479468103206693,285.8054887914167
3928.257,2.47891740338159,255.94776856517373
3929.1628,2.47819926712657,263.7470799542986
3930.0667,2.4775686942112105,263.1687916383659
3930.9731,2.4771931867575887,289.22381183100384
3931.8774,2.476970840956485,264.6976629395068
3932.782,2.476473388118996,284.2099132201333
3933.6887,2.475066316318743,252.23616643756253
3934.5938,2.4720915196852875,250.325921142918
3935.501,2.467009909395901,287.0356980406398
