wavl,flux,ivar
3566.9744,2.2653516361825443,100.64814845803859
3567.795,2.2603992171666083,118.30595500313561
3568.6177,2.2543211428304573,107.0353981835908
3569.4385,2.247287773319479,107.38207646651804
3570.2617,2.2390508631984063,89.546084654939
3571.083,2.2298477641232775,97.04701022271746
3571.9065,2.220843332159227,105.35928715825062
3572.7283,2.214250683323328,114.99818749575476
3573.55,2.2123683019240814,100.34614840048857
3574.374,2.2165441166635906,122.74658817847919
3575.1963,2.226250418424753,118.59862971490433
3576.0208,2.2390983910330435,99.67799125973012
3576.8435,2.2515197307926886,93.39964488008695
3577.6682,2.2604004206838475,98.54103508054733
3578.4915,2.264107254256533,105.22020770661462
3579.3145,2.2629144075462815,97.76199256797562
3580.14,2.258248628080057,90.59890447805198
3580.9636,2.2518286594810992,93.73502147683314
3581.7893,2.2449414352299994,104.89571351063391
3582.6133,2.238307199191901,110.31003110805665
3583.4395,2.2320123006050117,113.52087646799839
3584.264,2.2258657203098124,113.26129023224657
3585.0884,2.219580674435059,100.66446866763988
3585.915,2.212979388124137,132.45227300658675
3586.74,2.2061078065819593,106.28338561049465
3587.5671,2.199268192920052,91.95721069216567
3588.3923,2.1933227843398138,106.11337587531877
3589.22,2.189361223123553,105.98178497072918
3590.0457,2.188036527517684,100.70186329362612
3590.8716,2.188675128139471,115.3679235710456
3591.6995,2.189301481386478,100.156395051103
3592.526,2.187600370073198,109.3094922615355
3593.3542,2.1822711524048155,141.06197617901162
3594.181,2.173810322828732,111.18139966893365
3595.0098,2.1640091206979375,117.38298927472073
3595.8367,2.154936443115705,105.08403898823605
3596.6638,2.147853757966449,99.39048293516639
3597.4934,2.14321455141222,124.58265667877454
3598.3208,2.1410820300543367,110.72532955183115
3599.1506,2.141294434302509,113.7482395180168
3599.9788,2.1434767775424493,102.80289862746126
3600.8088,2.1470500508988053,103.96035498610311
3601.6372,2.151336025563541,105.15432777153666
3602.4678,2.155642524073338,112.64958275267941
3603.2964,2.1591625669272823,142.3698754634584
3604.1252,2.161304571500902,108.20200819826832
3604.9565,2.162176416478092,143.85801371665946
3605.786,2.1628602111717385,137.98341159715903
3606.6172,2.1649810019914666,132.90697123808044
3607.447,2.1696568211637244,105.20934972886458
3608.2788,2.1765869780778586,99.02087010740324
3609.109,2.1837610643784435,102.95823271684631
3609.9392,2.1883416775445257,94.6975948288571
3610.7717,2.187938724665932,108.14272315621186
3611.6023,2.1816998895751896,89.40611094503257
3612.435,2.1704850847412565,109.32210728654104
3613.266,2.1564731897851708,107.77154826282175
3614.0994,2.142247256980415,122.56126046479847
3614.9307,2.130347529031141,111.73842477419247
3615.7625,2.1223724819729175,118.29026879761066
3616.5962,2.1185895191111053,161.14458241026523
3617.4282,2.1178331156387866,95.42847138399814
3618.2625,2.1181690918157012,126.39673318597164
3619.0947,2.1180508623055556,107.55035295632653
3619.9292,2.1170057594358687,107.98552848138539
3620.762,2.1154205106205466,121.4006485831383
3621.595,2.113785292193406,128.54545332477178
3622.4302,2.112174830757027,123.12170207255093
3623.2634,2.110252900666588,183.22873049952113
3624.0989,2.1075594055420854,121.39564610430806
3624.9326,2.103952380973461,137.92585353006268
3625.7686,2.0998486300818313,129.74675016387224
3626.6028,2.0962154034378218,137.43234609640862
3627.437,2.093927568458301,118.17469503923773
3628.2734,2.0930203159136993,108.65985150224935
3629.1082,2.0923307295484572,120.91356957487243
3629.945,2.089973762641562,117.56947782092415
3630.78,2.0844959858293133,126.84599954131053
3631.6174,2.0757662082261197,123.46905718189056
3632.453,2.0651718317848973,117.51012328742225
3633.2883,2.0546542678927806,95.94830915719338
3634.1262,2.0457133462263073,119.14505882847006
3634.9622,2.0389271253708836,124.771035496624
3635.8005,2.033919341593771,160.42148667391763
3636.637,2.029985207405032,105.85814162004222
3637.4756,2.0264040224408038,129.91380588010333
3638.3123,2.022749657342973,110.89281965189423
3639.1492,2.01892297112841,147.40434606275198
3639.9885,2.01521980535426,123.61293868766307
3640.826,2.012257625727337,130.36675048485387
3641.6653,2.0105678215509237,148.83742607380685
3642.5032,2.0102006789096443,120.43059266237545
3643.343,2.010510875344473,129.0970696089329
3644.1812,2.010453313243867,140.77386830898035
3645.0195,2.0091316738970435,123.91352657889688
3645.86,2.0062066339925297,139.15326471201803
3646.699,2.00203426848943,138.77950984889162
3647.5398,1.9974488800911308,136.83173322407202
3648.379,1.9934622980414847,123.88632548695736
3649.2202,1.9907270684282579,152.9483753528212
3650.0596,1.9892907242174316,138.0572930283735
3650.8994,1.9886636140175706,117.29573076875482
3651.7412,1.9883052450415746,121.88997648213083
3652.5813,1.9879614660506357,134.07772224149926
3653.4236,1.9876005761854343,140.86403243340405
3654.2642,1.9871022241267897,138.2026019052202
3655.1067,1.9859972638736358,133.6415701156637
3655.9475,1.983530961313252,155.42102988347423
3656.7886,1.979115330483442,127.49429949667004
3657.6318,1.9730294256789065,125.12218636227011
3658.4734,1.9668066581445993,126.26985501915975
3659.317,1.962527065432115,172.25396741518387
3660.1587,1.9617041015971703,140.64017581134183
3661.003,1.9645522881330886,119.12776178381174
3661.845,1.9703712753950733,135.0482174984553
3662.6875,1.9782580593868482,138.1228654094801
3663.532,1.987124371470079,114.21625916542088
3664.3748,1.9952797963122322,137.43937777779777
3665.2197,2.0008186543591022,143.89767848203059
3666.063,2.0024863400878004,143.06372499083332
3666.9084,2.000481351619047,124.36310436711035
3667.752,1.9960900409326834,123.88953627329236
3668.5977,1.9907396424564665,123.72514611309334
3669.4417,1.9855175121634858,129.94186047143515
3670.286,1.9811145564003676,127.22749579554444
3671.132,1.9779372969571114,135.66324245467126
3671.9768,1.975937047454711,124.09753170614937
3672.8235,1.9744667022355242,159.23060692895982
3673.6685,1.9726347758860678,145.88860750230754
3674.5156,1.9698007213221214,125.42784889820994
3675.3608,1.9659229774148197,141.32452067690977
3676.2063,1.9614808726372563,141.61926132078045
3677.0542,1.9572841453093288,134.2715276726504
3677.9,1.9541953979160316,150.86724897662708
3678.748,1.9526306502365423,154.0777432476168
3679.5945,1.9523527229136235,148.64216405635904
3680.4429,1.9526760563332428,125.69774745753914
3681.2896,1.9530707259342552,149.49667010092293
3682.1365,1.953466815612486,145.21725355004855
3682.9856,1.9540140255850527,133.03471733166504
3683.8328,1.9547226086017595,125.64639241416246
3684.6824,1.955386622144646,134.79690391949705
3685.53,1.9556177641719459,143.54329066590628
3686.38,1.954898358159979,129.84587214239994
3687.2278,1.9528558939721674,165.04149432276645
3688.0762,1.9497688288140647,117.64140015013722
3688.9265,1.946707631204732,153.98516947510225
3689.7751,1.9448663360911176,143.67235911164155
3690.626,1.9445793226534436,149.17234165614698
3691.475,1.9452080270422616,140.39771459589758
3692.3264,1.9459302338114377,142.0080682572954
3693.1758,1.9465014281763267,135.28320372469275
3694.0254,1.9471695357137224,145.66078351392667
3694.8772,1.9480167911135895,135.84891831389257
3695.7273,1.9486216295366454,124.75422708115242
3696.5793,1.9483726598568858,137.37293794220028
3697.43,1.9469143812101561,132.71337526102172
3698.2825,1.9442258243280852,136.95199668781945
3699.1333,1.9404396388631069,141.16676582233217
3699.9841,1.9357215318989698,135.98124057390933
3700.8374,1.9304381375240791,151.787397280466
3701.6887,1.9253149552009123,133.30211661831348
3702.5425,1.9210473562504613,150.08666288692805
3703.3943,1.9178188328536974,175.1991025705629
3704.2483,1.9149033392333832,135.43117352237138
3705.1003,1.9111455962935089,129.12709816836886
3705.9526,1.9058540749387867,141.00123354025803
3706.8074,1.8995252234995679,141.89043938119912
3707.66,1.8936980107316856,160.40286122082617
3708.515,1.8897780053110276,152.69729786050075
3709.3682,1.8880824403799352,167.54739740623342
3710.2234,1.887560364796142,153.63138942914603
3711.0771,1.8866010855069446,145.78007335876336
3711.9307,1.8840692704405289,148.0700184764218
3712.7866,1.8798235725690557,147.94786583472745
3713.6409,1.8745683956519759,117.91444454396077
3714.4973,1.8692318415135047,145.07302155231858
3715.3518,1.8645907724059574,149.11560504204286
3716.2085,1.8609606933621174,141.7228560542528
3717.0635,1.8583447963076578,153.87617382359278
3717.9185,1.8567114110600678,156.42971895264017
3718.776,1.8564220624734398,140.48589288214453
3719.6313,1.8582373490331872,157.32931131504404
3720.489,1.8627427899888906,167.09452701723285
3721.345,1.8694843747620096,138.0385172464839
3722.2031,1.8767209234057265,147.108495835556
3723.0593,1.8820347398634751,159.57337429256827
3723.9158,1.8838795045356522,144.77222120698914
3724.7747,1.8824649191090235,155.5910037441437
3725.6316,1.879363942009565,145.230441391453
3726.4905,1.8760382735569423,136.69018600855097
3727.348,1.8728310479930959,138.48270900242943
3728.2073,1.8691153706213952,133.38034300647703
3729.065,1.864303552771523,151.282730113273
3729.9229,1.8584922014444418,130.0789551737592
3730.783,1.852459394489717,159.85926060672168
3731.6414,1.847154332974241,153.1286970361631
3732.5017,1.8429248389678479,157.07587714494994
3733.3604,1.839279221931595,147.22534890048064
3734.2214,1.8351691999502395,144.0939187010017
3735.0803,1.8299405280942163,154.16880667226104
3735.9417,1.8238938878172324,141.87282022523218
3736.8013,1.8182311991618445,173.55577433649464
3737.661,1.8141680856933469,171.31130508658035
3738.5227,1.812319979238743,177.8706396050576
3739.3828,1.8126034477065887,166.43548894091776
3740.245,1.8144019901363568,181.18040953527114
3741.1055,1.8166155212990773,156.08675628456555
3741.9683,1.817720380050076,154.20937806238024
3742.829,1.8162294748463221,141.99771180863974
3743.69,1.8116086412022883,161.66231045792975
3744.5532,1.8048116367853408,154.52831351983835
3745.4148,1.798058645685087,161.9025541697717
3746.2786,1.793764336181809,169.88136308134204
3747.1404,1.7936759236249993,163.3459695331803
3748.0044,1.798269352831221,141.24422021449658
3748.8667,1.8066641872021212,136.51227436829492
3749.729,1.816971102148914,157.17050071244464
3750.5938,1.8269005432155334,171.20725018856365
3751.4565,1.8343668330601568,153.34925131282938
3752.3215,1.8381904861537721,157.62549560333295
3753.1848,1.8381782218551925,176.28498048438675
3754.0503,1.8350655603557404,159.40648768283768
3754.9138,1.8300887870697822,159.47543987466528
3755.7776,1.8243758827320038,141.02513637163582
3756.6438,1.8185381529353808,166.52009765942788
3757.508,1.812717540598311,160.83814407738404
3758.3745,1.8068563504099666,160.6323392604379
3759.239,1.8012270787989582,156.99694835594696
3760.106,1.7964091380807299,165.13195359415147
3760.971,1.7930477955685435,184.11292273044612
3761.8362,1.7912680401175787,176.30491542335758
3762.7036,1.7905483011314505,153.88166289934432
3763.5693,1.7900382650723088,167.1313498266737
3764.437,1.7890467439265256,158.57500054063917
3765.3032,1.7872323454887173,146.4328541832826
3766.1714,1.7843937551287716,157.73423495379745
3767.0378,1.780369791640151,163.45405901584616
3767.9043,1.7752205794863083,172.49669222311798
3768.7732,1.7695393108780955,154.28574047645165
3769.6401,1.7644179068235382,179.27097208152512
3770.5095,1.7607559813802012,168.84290575730185
3771.377,1.7587259082572277,178.76416872913273
3772.2466,1.757605938008134,172.49968217884492
3773.1145,1.7563634802376202,209.39816305410986
3773.9824,1.7543688806007796,152.44154350254684
3774.8528,1.751785944369556,167.3264905434897
3775.721,1.7494060506344975,159.07320588019556
3776.5918,1.7480605466645138,171.95121202159407
3777.4604,1.7482651188468195,152.47133992546893
3778.3315,1.7501843685621374,159.4640890767359
3779.201,1.7537466316063393,157.04368692270262
3780.0703,1.7585829049535922,165.02438539324027
3780.942,1.763895331850649,150.90926498430636
3781.8118,1.768600871978221,167.1513953425919
3782.6838,1.7718698009134195,153.8893157978461
3783.554,1.7732930282261719,195.50945296967137
3784.4265,1.7728309685584391,161.1740571853441
3785.297,1.7707389384690169,166.56783641172944
3786.168,1.7677835252450695,185.50367894206445
3787.041,1.7652502526574831,195.6540314689702
3787.912,1.7643296016350771,166.6658942817762
3788.7856,1.7651830295805793,171.7326340206503
3789.6572,1.7666973061024303,171.552125978792
3790.531,1.7672156870107782,165.3902908770735
3791.403,1.7656199226097795,166.68655273074106
3792.2754,1.7619111527515365,163.52434358450768
3793.15,1.7569104988211925,171.39924169931442
3794.0225,1.7515850836522124,173.13962913239996
3794.8972,1.7464309058108598,201.51988643775437
3795.7703,1.741594277254929,173.24578560800043
3796.6455,1.7371813265977714,167.72147349994083
3797.519,1.733594322410148,167.21624766890008
3798.3926,1.7312455736834897,181.60934480187473
3799.2686,1.7301262465849856,197.62247988852573
3800.1426,1.729554975523426,150.03143282360656
3801.0188,1.7283844513000917,172.69752750435896
3801.8933,1.7256295999474587,189.01580256186895
3802.77,1.721097599543477,178.64474966121
3803.6448,1.7157322462622147,193.00071495423134
3804.522,1.7111638121291424,190.77279107062512
3805.3972,1.7089168817958464,200.81153292341205
3806.2727,1.7095518679504442,195.97559102997025
3807.1504,1.712579419255494,165.2437513721609
3808.0261,1.7168525148082066,182.1074206658495
3808.9043,1.7212162001471438,154.7295945532435
3809.7805,1.7248316189269757,156.66191705512796
3810.659,1.7273995466919685,188.322199467243
3811.5356,1.7290583999436278,169.70775512772656
3812.4126,1.7302647025460793,177.66540664481604
3813.2917,1.7315059634758683,176.41644177421108
3814.169,1.7330049749853091,179.17332514403563
3815.0483,1.7345829304405762,173.52615629672027
3815.926,1.7357446510498606,173.35830831334354
3816.806,1.736014557640709,185.82604955525267
3817.684,1.7351974353269382,189.2903120584835
3818.5623,1.7334608640001599,186.2434779086196
3819.4429,1.731188984010905,175.992080387063
3820.3215,1.728742833233327,170.98988868840274
3821.2024,1.7261515916984602,171.0417599793779
3822.0815,1.7231130939789459,161.12354061535387
3822.963,1.7192502147974726,191.19470860243263
3823.8423,1.714600677124221,190.69949936459724
3824.722,1.7096617506064675,175.9660722892531
3825.604,1.7050430480236491,178.3054893589966
3826.4841,1.701042511886563,183.0023924356136
3827.3665,1.6975247725293598,182.61992447450342
3828.2468,1.6943848190606805,186.0638279763888
3829.1296,1.6918113931653904,171.473631243833
3830.0105,1.6902255034395934,183.24543431280074
3830.8916,1.6897754700409342,204.4405640796359
3831.7751,1.6900179804679747,161.05794775161468
3832.6565,1.6899783093228138,176.97338040281596
3833.5403,1.6886130152526218,184.7969894449637
3834.4224,1.6853895007766337,170.37369525578333
3835.3064,1.6805663381211107,210.95177456691587
3836.1887,1.6750523369961303,177.84528704308966
3837.0713,1.6697878082585311,185.23679288563838
3837.956,1.6653284434987625,178.09848932054896
3838.839,1.661880843570088,177.60903170494416
3839.7244,1.65953908539738,195.30008257458832
3840.6077,1.6584836576820465,200.64856057497886
3841.4932,1.6587596498331407,203.81100657217647
3842.377,1.6601289037250453,187.03742713277128
3843.261,1.6622473366226307,184.43957596098545
3844.1472,1.6650241753201542,182.8169612464629
3845.0315,1.6686221858041814,187.45505019715097
3845.9182,1.6730701588510304,206.64058880263
3846.803,1.677774850953567,164.667450094493
3847.69,1.6817665698522528,172.78925675720146
3848.5752,1.6842846097210304,175.80222160174236
3849.4604,1.6853562911076285,191.4348299567934
3850.3481,1.6856646518817537,184.13946867883138
3851.234,1.6860090707596094,162.3191997989874
3852.122,1.6867915070010844,176.70172934322366
3853.0083,1.687825761425992,172.48941632112445
3853.8967,1.6885179635995924,195.99246532766801
3854.7832,1.688193451004442,167.76082731317453
3855.6702,1.6864304420285432,174.20688385184766
3856.559,1.6832226143914684,170.93045160627952
3857.4463,1.6790055290765327,182.74050907441057
3858.336,1.674433792366602,204.68940183876427
3859.2234,1.6701866812622916,184.82208667798372
3860.1135,1.6666288181170115,179.2805035781539
3861.0015,1.6637881394720924,190.60256701134847
3861.8896,1.661393518032324,195.21151716632664
3862.7803,1.6591723119830215,198.04510401698735
3863.6687,1.6570846371229724,194.43558111015
3864.5598,1.655311242613933,197.81220259231895
3865.4487,1.654136720746887,185.76486996553115
3866.34,1.6536757940398055,188.18149538771897
3867.2297,1.6536789774005354,174.1159504823708
3868.1213,1.653447791148857,185.86655528189385
3869.0112,1.6520854710494222,177.2258230340385
3869.9014,1.6490216942582119,166.59043855723917
3870.7937,1.6444310609831398,184.02275577456857
3871.684,1.6392124103933459,192.21628214676414
3872.577,1.6344041164111351,175.00602187360866
3873.4678,1.6307994142717674,196.59387223534847
3874.361,1.6287201579167037,208.34417851162678
3875.2524,1.6281437043943447,189.0151539064386
3876.1438,1.62867837402559,203.70934327530796
3877.0376,1.6295952122899993,170.6943773381791
3877.9297,1.6299872224489,198.08145598271838
3878.8237,1.6291470924886768,181.61463397845566
3879.716,1.6268750959641005,196.18038467724827
3880.6108,1.6234349561771542,184.88410673809543
3881.5037,1.6192693876712145,194.2511362810024
3882.3965,1.6146571899436888,216.10763320343193
3883.2917,1.6097137482121064,194.09544690571533
3884.185,1.604581019409387,211.59414911385105
3885.0808,1.5993838589388214,226.55627548246915
3885.9746,1.5942243484351486,229.84053149094936
3886.8706,1.5890284667210424,213.34545993830943
3887.765,1.583809951283199,203.66239560498025
3888.6592,1.5788651958584679,216.61633355469783
3889.556,1.5748571957115751,207.62935788311725
3890.4507,1.572499451413321,211.87275150671752
3891.348,1.5719971633420542,259.9292985114183
3892.243,1.572914061427107,203.63344988989596
3893.1406,1.5745226619128505,209.28922398353367
3894.0361,1.5763905668094305,208.31995474867063
3894.932,1.578650872760914,204.80064549132763
3895.83,1.5816215877608772,194.8890591757531
3896.7263,1.58518560772164,212.75130584741353
3897.625,1.588700792618445,192.21551725563674
3898.5215,1.5914453558762744,203.78213488322857
3899.4207,1.5933438658856345,214.98911067202417
3900.3176,1.595089278468327,191.41608679987294
3901.2148,1.5977405431110796,202.2078179316035
3902.1145,1.602024004805104,216.51096407897418
3903.0122,1.6078394141876877,223.15853429009445
3903.912,1.6143958287284956,196.07686963465582
3904.8103,1.6206242040633567,192.68197269340834
3905.7107,1.6258729431052277,193.64962955106103
3906.6094,1.6300692599126363,179.9450810807626
3907.508,1.6336146811655212,180.1254455227014
3908.409,1.6369394867438223,197.16663646523693
3909.308,1.64018288744557,197.08546429238777
3910.2097,1.643221444953635,220.52556855159816
3911.1091,1.6458154841784471,202.15873466040549
3912.011,1.6478999548721518,183.0698359248746
3912.9111,1.6495874387453586,179.24888833820265
3913.8113,1.6510730354553285,167.42928243756896
3914.7136,1.6525168096902219,164.790601313125
3915.6143,1.654102436820316,196.83416432326624
3916.517,1.6560959164947544,182.9521747931331
3917.4182,1.6585597113388058,218.50942609900176
3918.3215,1.6610174686143644,189.59787094342295
3919.223,1.6624472480891226,180.01442357426527
3920.1245,1.6619524207381597,176.0454847619636
3921.0286,1.6594818672228873,185.3335019198345
3921.9307,1.656036085462221,185.6933757247865
3922.835,1.6530107165723955,206.53257054322737
3923.7373,1.6513825224734315,186.94918721770662
3924.642,1.6512522981964843,192.85304018288892
3925.5452,1.6520954115857576,187.45762411718567
3926.448,1.6532164628400778,215.59650017335198
3927.3535,1.6539943271985529,193.8438883412198
3928.257,1.6537932289213266,199.93967110793358
3929.1628,1.6518990397708395,195.9759231359214
3930.0667,1.6477879073321768,198.57919124980293
3930.9731,1.6415627790995426,204.6392198315756
3931.8774,1.6342483122923237,182.71503001973926
