wavl,flux,ivar
3566.9744,1.3423984341274864,379.1693963827711
3567.795,1.3397385721162645,327.61675394314
3568.6177,1.3358316262813672,333.4567413457961
3569.4385,1.3308605509762013,343.16473001338136
3570.2617,1.325573768309493,574.4400103972349
3571.083,1.3211007189099568,383.098396682895
3571.9065,1.3182850571921312,536.3603588982188
3572.7283,1.3173822205472943,469.33706861089127
3573.55,1.3180778403780498,589.3750486293676
3574.374,1.3198896175571149,508.77807485759433
3575.1963,1.3224197678820737,399.61550757606074
3576.0208,1.3253290834349558,450.6419141297838
3576.8435,1.3279546277448717,368.52597336496103
3577.6682,1.3291923409823034,393.1469744766969
3578.4915,1.3279549511502777,352.2300434551105
3579.3145,1.324204370121892,455.6295058651318
3580.14,1.319516316257585,319.3482986941761
3580.9636,1.3164946392414745,328.88023474212946
3581.7893,1.3170453494268306,414.0058670853332
3582.6133,1.321070413136675,472.3453880524505
3583.4395,1.3266493355648665,525.3067426974736
3584.264,1.3314642943925525,379.6001679075933
3585.0884,1.3342697992204309,666.0137033712317
3585.915,1.3350084351486133,392.2011346246302
3586.74,1.3340204682885664,517.3282667349416
3587.5671,1.3313918300334289,443.48417301531765
3588.3923,1.3271401071900764,300.05967038128114
3589.22,1.3218057435873167,505.6113850688717
3590.0457,1.3167882614027022,316.1646472586449
3590.8716,1.3136496250111365,396.531803143654
3591.6995,1.3131044993760257,415.78924007981254
3592.526,1.3143201260527475,434.3663455318193
3593.3542,1.3152180356361767,408.756190758876
3594.181,1.3136769646627051,374.8975150291578
3595.0098,1.3089101109530459,367.47683476989835
3595.8367,1.302123539091094,497.96544636890644
3596.6638,1.2957736611834338,403.1154029314355
3597.4934,1.2920602311699,393.70468105278786
3598.3208,1.2916471823630802,347.05685880824564
3599.1506,1.2934245400547923,573.5078779368429
3599.9788,1.2953942526022346,574.0855239062475
3600.8088,1.2958559137794332,410.63832067417894
3601.6372,1.2942006836005495,417.4953114524211
3602.4678,1.2910985746164236,593.6838957632029
3603.2964,1.288136867280211,358.0283667116478
3604.1252,1.2869830659433188,386.0515345582633
3604.9565,1.2884789208111582,579.1142721165481
3605.786,1.2920048155095707,449.30443370805966
3606.6172,1.2958846270317033,381.2483981253088
3607.447,1.2986544247588752,418.74770017393894
3608.2788,1.300206008536787,365.81365299634916
3609.109,1.3014045860842125,550.2721975116555
3609.9392,1.3026761802544233,409.7043634795955
3610.7717,1.303120982350411,592.1941398820179
3611.6023,1.301255703539894,424.3562979327495
3612.435,1.2965368743128416,428.790866025489
3613.266,1.2900438298980086,693.5144105589675
3614.0994,1.2835632532045838,492.049096437263
3614.9307,1.2783375081606154,501.14219222779053
3615.7625,1.2743866379352355,389.7468975221918
3616.5962,1.2711239969519963,614.3764827440308
3617.4282,1.2682609948386245,479.26450112970156
3618.2625,1.26610232713206,397.95967280679315
3619.0947,1.2652004214638488,508.2914401635441
3619.9292,1.265724493592434,595.9521683129885
3620.762,1.2672056952590045,360.02691352402616
3621.595,1.268688077852921,539.0728002702169
3622.4302,1.269172759459594,398.921122205096
3623.2634,1.2681793136026531,520.9084184017496
3624.0989,1.2660687659231415,410.2057489034041
3624.9326,1.2637416153705994,469.9020409415744
3625.7686,1.261762719536639,451.0010363828159
3626.6028,1.2598125727864755,418.9034720015162
3627.437,1.2570215866978265,433.36332793772124
3628.2734,1.2530408107243425,614.0451847481445
3629.1082,1.2488107476807926,758.4537021019403
3629.945,1.2460887740115574,378.71160225531537
3630.78,1.246162523907422,802.5161750266196
3631.6174,1.2486567928209638,321.03351332942
3632.453,1.2516738438947932,489.8705599329984
3633.2883,1.253264945480489,344.02921048728126
3634.1262,1.252898122385524,464.9005441272093
3634.9622,1.2516766869799891,492.2128154603635
3635.8005,1.2510635649529538,501.08814031593477
3636.637,1.2512926376252353,486.34347338785676
3637.4756,1.2508436622508132,385.4890115670573
3638.3123,1.2474659327725983,382.8426230287035
3639.1492,1.239838477355102,494.97463424343846
3639.9885,1.2285410755010142,409.64546091182524
3640.826,1.215926155367215,700.1325964133307
3641.6653,1.2048173447553938,417.9540067981306
3642.5032,1.1975966819454145,534.1811571940598
3643.343,1.1953592263039812,736.1963306782669
3644.1812,1.1977743073885454,431.3557133126937
3645.0195,1.2031682891359514,522.6016328422312
3645.86,1.209184787681508,620.955163306195
3646.699,1.2137631310655692,456.2480410989787
3647.5398,1.2161604350328457,460.5432169641761
3648.379,1.2169634008336172,489.8579011829937
3649.2202,1.2172993588288932,453.55673797150524
3650.0596,1.2178363873552807,500.0967139588823
3650.8994,1.2185080251158114,540.1689438779935
3651.7412,1.2189295172040475,408.477532792348
3652.5813,1.2188542999848235,399.6765302963255
3653.4236,1.218195572379229,481.7449041770281
3654.2642,1.2168251709135638,517.2339954376077
3655.1067,1.214617825930433,498.63028219564046
3655.9475,1.211768533025443,405.6089211504437
3656.7886,1.2087858739377357,531.8853667880162
3657.6318,1.2061246023591918,424.3220337728492
3658.4734,1.2039485474183673,684.2503395988335
3659.317,1.2023087451701127,485.25855683389176
3660.1587,1.2014450415686195,720.9218292630143
3661.003,1.2015703770823385,372.897521081173
3661.845,1.2025086372993767,424.0791984345019
3662.6875,1.203742992080782,480.2074121928181
3663.532,1.2049372803978748,437.2133208624228
3664.3748,1.2063875316840242,415.96894169504793
3665.2197,1.2089563659181393,561.5598002491121
3666.063,1.2133298912119683,502.88080050268127
3666.9084,1.2191898645914658,702.2423001667636
3667.752,1.2248838617963476,486.5899570559768
3668.5977,1.228363515300606,454.94166225235494
3669.4417,1.2284560959718298,542.8471296533728
3670.286,1.2256556386905977,384.8732664126625
3671.132,1.2215996068949802,501.05105138012993
3671.9768,1.217950895824083,571.4337087236498
3672.8235,1.2154002128700183,369.1520622196509
3673.6685,1.2135601118182877,626.674477639546
3674.5156,1.2115143804787534,816.4661683497861
3675.3608,1.2087163859757002,372.7354421150813
3676.2063,1.205381867601397,701.8058987322703
3677.0542,1.2021551587646988,678.0176402501872
3677.9,1.1994476825945461,388.8123481217277
3678.748,1.1971378508968205,510.3404829790459
3679.5945,1.195032551875023,497.4072551989425
3680.4429,1.1932036309157363,375.7066317642908
3681.2896,1.1918039539710152,487.78655160198747
3682.1365,1.190519482191658,512.0063824642973
3682.9856,1.1885727005796403,524.1179297944391
3683.8328,1.1854878929294468,727.110495172687
3684.6824,1.1818249958314326,589.335240019238
3685.53,1.1790685287166676,767.0211493000265
3686.38,1.1784242598261097,464.60069297542543
3687.2278,1.179834002654937,536.5839673958204
3688.0762,1.1820815495224735,458.2304133965798
3688.9265,1.1838963127240207,397.2463773697928
3689.7751,1.184899428781078,812.6000866108411
3690.626,1.1857251163299194,706.6691421482408
3691.475,1.1874487711875894,598.4673359798771
3692.3264,1.1910119345430166,575.3626594737573
3693.1758,1.196742406153379,464.88183888010497
3694.0254,1.2040448566838817,463.7407503282451
3694.8772,1.2112304594979084,441.4048926161383
3695.7273,1.215937222043759,577.9583403707022
3696.5793,1.2164093371577454,362.57001266235466
3697.43,1.2124991912963874,508.28898471487923
3698.2825,1.2056497409729001,458.0379476072692
3699.1333,1.1978474631160543,584.8697437169699
3699.9841,1.190484512186578,396.5762546860885
3700.8374,1.1842480727109381,559.6006029745761
3701.6887,1.179584452400521,520.458730156171
3702.5425,1.1767878181074938,618.9500809370667
3703.3943,1.1759547059881277,466.3109077834916
3704.2483,1.1768263857641383,556.5117300222824
3705.1003,1.1788060319683287,511.7944487789449
3705.9526,1.1808760168187389,553.4185392483784
3706.8074,1.1816061983557822,525.6298219750848
3707.66,1.179695637634303,508.8567450124524
3708.515,1.1749271703847946,580.2893452295708
3709.3682,1.1687140567988645,587.3464043523085
3710.2234,1.1633681696859173,502.4772439167894
3711.0771,1.1607226208859682,495.21936664222847
3711.9307,1.1610191186557317,430.3611019398646
3712.7866,1.1631929868435666,539.3943274007925
3713.6409,1.165879811383231,510.30990708865716
3714.4973,1.1681616622754865,464.74016490352756
3715.3518,1.1693975002863641,427.76726076148543
3716.2085,1.1689292542384713,574.6681509949678
3717.0635,1.1663143401867695,503.80683905773316
3717.9185,1.1619695797091079,601.1863682790429
3718.776,1.15733673583161,464.35885843447403
3719.6313,1.1542899684212606,607.4687359870122
3720.489,1.1540836201323663,586.6977277493271
3721.345,1.1567996835260148,498.7486345163761
3722.2031,1.1614079325187323,693.2611973081541
3723.0593,1.1662755474429223,562.1734286961313
3723.9158,1.1699083035753324,654.5800871433419
3724.7747,1.1714396254247441,532.9470718862441
3725.6316,1.1709250405146923,506.92398523773585
3726.4905,1.1693013450210075,527.8127004606
3727.348,1.1678313757962446,583.1676816589721
3728.2073,1.1672376362182204,586.7820650322567
3729.065,1.167206035257452,482.1718337773866
3729.9229,1.166758159715509,529.8805099190687
3730.783,1.1652642161086322,519.97678766025
3731.6414,1.1630781952552673,675.0333457237684
3732.5017,1.1610317210676964,624.9096539562025
3733.3604,1.159422807896191,504.3396113335439
3734.2214,1.1576286995977234,449.5040300997522
3735.0803,1.1548733591400708,517.3111667528837
3735.9417,1.1510960851902219,568.6793083258157
3736.8013,1.1471452740273675,526.0659294797553
3737.661,1.14412615577736,411.49547709321575
3738.5227,1.1427491500086824,542.7882916959575
3739.3828,1.1429466692983292,574.0246114666202
3740.245,1.143843816169552,707.8438112497923
3741.1055,1.144168338887654,582.0838245828463
3741.9683,1.1429246965067805,555.8009549603769
3742.829,1.139887854856891,449.2476445390935
3743.69,1.1355674697194926,525.5255197714299
3744.5532,1.130844306194588,766.7847003718962
3745.4148,1.1267341201765122,863.5907381756795
3746.2786,1.1241851403253456,606.560579606262
3747.1404,1.1239455972686088,733.0719736475432
3748.0044,1.1261897333798707,512.9005552821504
3748.8667,1.130336924478133,632.8375355120336
3749.729,1.1352617943461123,631.1677469608861
3750.5938,1.1397264325804466,459.4621790711645
3751.4565,1.1427498250254917,599.8114662499438
3752.3215,1.1439647500967565,531.4894623952442
3753.1848,1.143654829877803,919.3406157806305
3754.0503,1.1425674516994406,625.3862490868112
3754.9138,1.1414346886136117,673.4567883860713
3755.7776,1.140566932639871,449.37274607370995
3756.6438,1.1398887345031374,534.176864307756
3757.508,1.1392915430251653,774.1847318025776
3758.3745,1.1388793030333748,539.2426638954876
3759.239,1.1388718398658928,602.6981129125834
3760.106,1.1392313721275944,574.569178937111
3760.971,1.1393934700998567,556.1566156745388
3761.8362,1.138462667736656,666.947928112541
3762.7036,1.135854136612054,570.1657528671665
3763.5693,1.1318835288673925,615.7550850165117
3764.437,1.1275495057355862,620.223401027639
3765.3032,1.123790229877175,512.7369043619918
3766.1714,1.1208315961888196,461.317374321856
3767.0378,1.118428348669608,649.8842447450021
3767.9043,1.116440532736657,548.0635197615661
3768.7732,1.1151861462905588,529.5161299407191
3769.6401,1.115165544224282,453.7108887629082
3770.5095,1.116470658352173,562.1881289693368
3771.377,1.1185321772478969,580.2308132254456
3772.2466,1.120533153936499,541.4328526382036
3773.1145,1.1220564244877202,546.1880270602178
3773.9824,1.123330594042574,538.5336259986288
3774.8528,1.1246574127998796,465.2473794340379
3775.721,1.125633504946346,621.8462156293783
3776.5918,1.1250983984603609,462.2898588466939
3777.4604,1.1219928981873006,869.747336293654
3778.3315,1.1163431028478732,510.46062197187655
3779.201,1.1094651304962,755.2744097062076
3780.0703,1.1031006633255789,655.9725673839765
3780.942,1.0986094841552734,518.9304552495457
3781.8118,1.0967877871988911,623.8938243603556
3782.6838,1.0979988683540598,422.28635170500644
3783.554,1.1021724718637886,573.8805446030098
3784.4265,1.1085147019338824,569.7754069072374
3785.297,1.115405690466672,543.5793420653853
3786.168,1.121145668436284,469.6291581415285
3787.041,1.124783003720904,677.8153465003898
3787.912,1.1264114154585896,734.9691383842061
3788.7856,1.1267361359850592,603.2569331942212
3789.6572,1.12633964198261,470.74431008211997
3790.531,1.1254130229112493,698.9415553104744
3791.403,1.123906060708959,548.8523653240668
3792.2754,1.1216962184818582,543.7183364355517
3793.15,1.1186007894438206,563.2448766718553
3794.0225,1.1144166345671829,666.7127993781512
3794.8972,1.1090435945631794,644.8239699287667
3795.7703,1.1027945889693729,556.2377797411901
3796.6455,1.096325565404754,715.3108384307101
3797.519,1.0904937771009813,542.0764495016301
3798.3926,1.0859390155014483,710.3981307882201
3799.2686,1.0829602626070671,659.2104521002129
3800.1426,1.0815725716740063,620.5745207562074
3801.0188,1.0816343405778117,581.1250646570434
3801.8933,1.0830020923424761,630.9283548151667
3802.77,1.085472270051202,545.8353444554732
3803.6448,1.0886339584860298,682.1932318143671
3804.522,1.0920234723608695,629.0613755060293
3805.3972,1.0954671276609347,608.2600968381545
3806.2727,1.0993745095430367,585.6042258909823
3807.1504,1.1043006245635167,560.6445677221795
3808.0261,1.1100485310695534,472.97678827982156
3808.9043,1.115360226620247,626.8625878800493
3809.7805,1.1185455169438068,550.4249279054116
3810.659,1.118982206552415,582.6973823278918
3811.5356,1.1178852283317864,649.5724651784774
3812.4126,1.1176950510496306,767.9743626511853
3813.2917,1.1203580657888823,612.9832084257009
3814.169,1.1257917550250105,773.3604810838634
3815.0483,1.1318186472690803,569.9307774695097
3815.926,1.1354801016496336,600.312524534322
3816.806,1.1349979151743346,670.3608520494175
3817.684,1.130724159034401,585.3412649959917
3818.5623,1.1246503362112925,389.87844291787974
3819.4429,1.1189618112336768,625.9697260263649
3820.3215,1.1148925916847163,488.3061807339687
3821.2024,1.1123170644482059,710.6805301301423
3822.0815,1.110326859133972,496.6737047224269
3822.963,1.107955323701021,602.7131815221932
3823.8423,1.104776232610648,528.8972739251188
3824.722,1.1009139976794662,592.410535360602
3825.604,1.0966628004791952,626.2328570477947
3826.4841,1.0920647826276149,568.3424841570672
3827.3665,1.086718487268013,717.7318592047349
3828.2468,1.0801929165217863,783.881690610021
3829.1296,1.0723653167534248,492.05558670837274
3830.0105,1.0637106694695446,615.0515955706917
3830.8916,1.0549304252951826,555.9785458298777
3831.7751,1.0466169762684308,618.8161990500836
3832.6565,1.0391395842565818,583.5568531325684
3833.5403,1.0326606795268998,757.1154342412566
3834.4224,1.0275660511799103,632.0918352759286
3835.3064,1.02439733081573,676.7257460896057
3836.1887,1.0236820567407199,680.02999864185
3837.0713,1.025550699638708,515.2934544509792
3837.956,1.0296196264660782,698.9776849503255
3838.839,1.034979254201222,869.5659879247305
3839.7244,1.040472426762933,484.07978048761646
3840.6077,1.0450161258805664,610.6352841856548
3841.4932,1.048202794164732,572.5441460787088
3842.377,1.0505233365561342,736.626838940787
3843.261,1.0532377445621157,692.728704066694
3844.1472,1.0577687091187868,747.8129547427699
3845.0315,1.0650579733498309,622.5345754187329
3845.9182,1.075349305038267,528.3427399344627
3846.803,1.0880185725502944,784.151386865043
3847.69,1.1018727231219456,543.4785257951437
3848.5752,1.1151508586859549,499.5844628675454
3849.4604,1.126170123247965,540.2630433996615
3850.3481,1.133841166030636,558.5094895258767
3851.234,1.1381064554778386,406.00716985144214
3852.122,1.1400686850921098,563.5613184547666
3853.0083,1.141347807259494,576.6070295780022
3853.8967,1.1433637790424855,525.3324728331254
3854.7832,1.146752821708422,482.6802765222618
3855.6702,1.151286021225536,598.7003947899144
3856.559,1.156098103384954,563.9880507162252
3857.4463,1.160106673205755,458.7591158791708
3858.336,1.1625617553202696,410.10076423791395
3859.2234,1.1632190309791994,543.6915997021906
3860.1135,1.1622128344575366,571.4021754682539
3861.0015,1.159695485557987,575.7888305732536
3861.8896,1.1557597440624452,442.36304544632173
3862.7803,1.150759809174018,585.0435590606481
3863.6687,1.1456485453879122,473.34241169384944
3864.5598,1.1416166523949396,538.741804497334
3865.4487,1.1394495601610088,495.7981505914615
3866.34,1.1388936035466832,551.509555767741
3867.2297,1.1388604574215353,532.319454820157
3868.1213,1.1381064488431518,475.58780522873906
3869.0112,1.1358984973363184,600.7905200490036
3869.9014,1.1321769898290694,623.224864988829
3870.7937,1.1273025094589821,595.3840547827828
3871.684,1.121774627848815,457.9459144439231
3872.577,1.115943240334412,569.1100275170563
3873.4678,1.1099879546859226,486.0422955211292
3874.361,1.1037048216668497,612.091050445487
3875.2524,1.0966905151389605,657.7856581595378
3876.1438,1.0885691781744675,640.5784573211158
3877.0376,1.0793726686281826,621.6348640152366
3877.9297,1.0696037487795955,566.9346474270338
3878.8237,1.0596801031928968,684.1068312337629
3879.716,1.0497278641184133,721.9236213437562
3880.6108,1.0394674436384626,712.6815280879911
3881.5037,1.0287636871190853,980.1725693856584
3882.3965,1.0176881884297717,688.1585447252414
3883.2917,1.0064091328870328,669.8785331449382
3884.185,0.9949008465957138,628.8257735182168
3885.0808,0.982587033563306,609.2192911726771
3885.9746,0.9688973290663829,633.7716031998704
3886.8706,0.9536362343733159,669.3033454202968
3887.765,0.9376449265827015,1115.353531809494
3888.6592,0.9224195487711417,1231.2789253804597
3889.556,0.9096136637405651,816.3452731207391
3890.4507,0.9005968697742385,781.7589547567852
3891.348,0.8960681857775505,974.8227460602589
3892.243,0.8962567110507905,836.9857161819833
3893.1406,0.9008386880943461,1102.3850101428714
3894.0361,0.9089806528097544,693.6992604707475
3894.932,0.9196826612890845,706.8483830753357
3895.83,0.9321714404754307,776.8737527820413
3896.7263,0.9459626726378326,968.7307861719928
3897.625,0.9609645423498987,835.0494612344853
3898.5215,0.9770065168061871,730.4625879584538
3899.4207,0.9939939115895903,719.6484700499265
3900.3176,1.011387931683213,800.6820985340993
3901.2148,1.0284096105485,696.6458104183367
3902.1145,1.0441116533812826,715.9668132507736
3903.0122,1.0578530138406297,635.8736701135709
3903.912,1.0700532295134444,508.71542067622516
3904.8103,1.0818242939166958,2051.616102979633
3905.7107,1.0944738606402975,635.6162815075941
3906.6094,1.1084802529328368,833.1652629940572
3907.508,1.1233463423594383,660.8688259557747
3908.409,1.1378232088530322,419.7466992587136
3909.308,1.1504706841787138,564.8795663158849
3910.2097,1.160565853392553,532.9219423443917
3911.1091,1.1682611370414882,607.3598632811179
3912.011,1.1746567937353916,557.1465977536135
3912.9111,1.1810125164186405,511.042284301567
3913.8113,1.1880726010126508,599.5281101807162
3914.7136,1.1955927455977622,440.4315006600756
3915.6143,1.2025528474107472,561.5608105069233
3916.517,1.208084038594783,438.65956848047364
3917.4182,1.2120994846343245,467.52795937453146
3918.3215,1.215464936139286,449.4863453495034
3919.223,1.2192612515639911,517.3297608135787
3920.1245,1.223994205886584,404.10822372988434
3921.0286,1.2292513321630387,404.3044671185694
3921.9307,1.2340878674054951,487.5190494567215
3922.835,1.237879585615517,470.846998249052
3923.7373,1.2407031538036117,413.3285494769468
3924.642,1.243271344915749,431.8137211539713
3925.5452,1.246317972155782,499.27961580476267
3926.448,1.2500815241918197,476.4851808106492
3927.3535,1.2540902433755026,453.8795317194894
3928.257,1.2573319179009401,411.3946090647739
3929.1628,1.2587728657349613,424.0228452939279
3930.0667,1.2577701943011834,424.8257862868758
3930.9731,1.2544692894678027,405.8370243228117
3931.8774,1.2500149165729333,497.7218933398123
3932.782,1.2462214861163567,486.92133827257317
3933.6887,1.244716178729111,543.920973061834
3934.5938,1.2459005737320097,526.4435497718562
3935.501,1.2486125190162425,491.7964051849063
3936.4062,1.250857969190293,466.16664096031036
3937.3142,1.2509500900139034,443.58304421622665
