wavl,flux,ivar
3566.9744,0.41990667450692404,1410.2579112001188
3567.795,0.4181022417026804,2083.445019148462
3568.6177,0.41572020102484086,2070.27303106922
3569.4385,0.41363790241416176,2236.300499009755
3570.2617,0.41239545780915765,1842.0898286415281
3571.083,0.411848637568217,2594.348336306906
3571.9065,0.4113597741386072,2789.157683329176
3572.7283,0.4103751513864319,1456.2056633701923
3573.55,0.4088351413766227,2447.758864651215
3574.374,0.4071301748379435,1674.8488706478597
3575.1963,0.4056863406008242,1123.978601983161
3576.0208,0.4045795517751954,2375.2335498022985
3576.8435,0.40369890443988377,2249.929373693745
3577.6682,0.40317359993971535,1292.3902060009827
3578.4915,0.4035028636512654,2927.8833361499583
3579.3145,0.40507328284018645,2065.9069527557367
3580.14,0.4076579592545768,1412.9961942006491
3580.9636,0.41045777952930135,1339.952068369454
3581.7893,0.4127183212643839,1253.10528231066
3582.6133,0.414119193712588,1198.718365530838
3583.4395,0.41477721893876435,1097.2456017533684
3584.264,0.4149865140649297,2033.4604426360704
3585.0884,0.4151235971142551,1367.9301737661667
3585.915,0.41561082287216006,2104.987885089905
3586.74,0.4167727553671609,2471.8598194541064
3587.5671,0.4186286285803045,2273.2119387099306
3588.3923,0.42078766558230335,2866.219293148739
3589.22,0.42264686314942684,1620.6352084187192
3590.0457,0.42363514872410557,1404.036274854248
3590.8716,0.42344235780152223,1397.3437763781176
3591.6995,0.422020371904617,1652.5095011971796
3592.526,0.4195655788558889,1664.4579478196174
3593.3542,0.41648491658101605,1567.9335958092502
3594.181,0.4133897460826211,1765.1057292413066
3595.0098,0.4108637722485711,2839.5038554322105
3595.8367,0.40926433760930686,1529.3661790277274
3596.6638,0.40857204301364264,1198.278234663914
3597.4934,0.40853313977047073,2044.9353548836834
3598.3208,0.4088476862761581,994.6806336657337
3599.1506,0.40933005688236246,1021.8684718265897
3599.9788,0.409996145167787,1683.1932598239557
3600.8088,0.4110194886137248,1834.6868811168274
3601.6372,0.41242006961856587,2058.6376059944464
3602.4678,0.4137110244607709,1566.6428572457587
3603.2964,0.41388260103242,1630.0461994603363
3604.1252,0.4120239565431874,1146.8580003798688
3604.9565,0.4080874685703869,2819.9551731190995
3605.786,0.4032467679400569,1675.2080848662713
3606.6172,0.39930025839804345,1638.0850778761323
3607.447,0.39768896005108145,1624.332167135774
3608.2788,0.398570888599782,2261.588247481828
3609.109,0.4008156290291407,1059.7368418747062
3609.9392,0.40287454418718616,1409.2582915892576
3610.7717,0.4038274030875293,1290.3492496343424
3611.6023,0.403749664839498,2505.463131151312
3612.435,0.40324981568955054,1536.2361156210666
3613.266,0.4027785240129657,2104.5200414693195
3614.0994,0.4023958942250212,1761.9960580220766
3614.9307,0.4020383977248933,1476.6901669489039
3615.7625,0.40179725569212943,1692.6455745996313
3616.5962,0.40189630362016915,1794.0430282633415
3617.4282,0.40244442557391885,1756.873447338582
3618.2625,0.40327712809610944,1778.161672312085
3619.0947,0.4039988400900976,1793.9091051352664
3619.9292,0.4041640406516577,1869.7260801286338
3620.762,0.4034467301185976,1962.1399179269185
3621.595,0.4017956130485463,1858.296334959569
3622.4302,0.3994837457178099,1946.7425658622024
3623.2634,0.3970414641478141,1469.8022402777042
3624.0989,0.3950118785984136,1340.6561707829712
3624.9326,0.393778782889435,1553.6076165334086
3625.7686,0.3933668901422265,2410.860229443501
3626.6028,0.39342938203528327,1673.9405568410978
3627.437,0.3934492819327582,1397.8764844415487
3628.2734,0.3931554716572425,2481.5998818602598
3629.1082,0.39280341979903394,1813.1151553989346
3629.945,0.39297831484715234,1943.0246284199516
3630.78,0.3940086910203594,2044.4022680821606
3631.6174,0.39553366133596535,2305.3318546517926
3632.453,0.39668866631875993,955.1628071520506
3633.2883,0.39686312374980903,2475.001230597182
3634.1262,0.3962397116249889,2202.048412729777
3634.9622,0.3956173343505313,1815.2886709251447
3635.8005,0.3956342183670426,1831.9400114275977
3636.637,0.39616560723447886,2272.419232136974
3637.4756,0.3964315327541047,2061.508885081152
3638.3123,0.3957014084670922,1032.6207474216678
3639.1492,0.39395088909166565,1791.2804941828622
3639.9885,0.39186766202729495,2301.586676421649
3640.826,0.3902950611685047,1678.4696443754403
3641.6653,0.3896130390744894,1804.9456629561091
3642.5032,0.38967079083604794,1573.811693216011
3643.343,0.3900539154003781,1480.4875443403503
3644.1812,0.39033261265579017,2227.7401438078923
3645.0195,0.390146821189241,1901.6951561944652
3645.86,0.3893028815533878,2251.427009554865
3646.699,0.38797417623589536,1731.5310256384496
3647.5398,0.3867368479276063,1558.8551986384093
3648.379,0.38631194838629657,2327.1819584065333
3649.2202,0.38711624012795864,1698.2052389850646
3650.0596,0.38901428960376855,1924.6018189649735
3650.8994,0.39141636079729,2636.0892265221773
3651.7412,0.393588989374611,2187.291966406521
3652.5813,0.3949765135248365,1498.9485141698406
3653.4236,0.3954173990876577,1274.937982079703
3654.2642,0.39508053338979243,1836.8423609230651
3655.1067,0.3942700042803156,1821.103484862118
3655.9475,0.3932153994544612,1345.2562030849467
3656.7886,0.3919721961835142,2267.5539319185345
3657.6318,0.39049101743902975,1988.631986878739
3658.4734,0.38879698567616205,1531.0245028739298
3659.317,0.387104000685229,2152.561734562327
3660.1587,0.3858203924057088,1597.9698279442287
3661.003,0.3853384597076247,1706.2440265800788
3661.845,0.38585259565765867,2501.825203749295
3662.6875,0.38726191346666994,1875.6337123747064
3663.532,0.38921485408801637,4043.9636578189575
3664.3748,0.3912132872851557,2042.5204368354925
3665.2197,0.3928443190707074,2923.9669927102686
3666.063,0.3939097166714313,2218.7618597873534
3666.9084,0.3943820233907061,1783.1260381360134
3667.752,0.3941357937228948,3887.312463880146
3668.5977,0.3929111257452417,1497.5530908749988
3669.4417,0.3906921865314574,1222.9476490059617
3670.286,0.3880993874043805,1790.1113206520597
3671.132,0.386273341362974,2493.816810189222
3671.9768,0.3862216929713344,2202.2502895093585
3672.8235,0.38817441050102497,2331.440289103918
3673.6685,0.3914873959975288,1611.9939637063176
3674.5156,0.3950656131852684,1720.4423962036112
3675.3608,0.3978366193597027,2035.784333170545
3676.2063,0.39921133189055286,1664.6506029471068
3677.0542,0.39923110050150135,1763.0664406103506
3677.9,0.39848686579362375,2040.7769589759114
3678.748,0.3977308240666154,1939.9762746722242
3679.5945,0.39741204912148426,1829.5417602041975
3680.4429,0.3974567694098992,1166.0123568234635
3681.2896,0.39747792787724273,2051.5540525765105
3682.1365,0.3971429641285686,1464.990968872003
3682.9856,0.39633909440741044,1477.1505780349567
3683.8328,0.39507833534437425,1944.7666198394072
3684.6824,0.39332673582343514,1012.136826205757
3685.53,0.39103495246253006,1677.6476054330744
3686.38,0.38826630632550657,2119.5162056205327
3687.2278,0.38539705848932987,2581.14716536385
3688.0762,0.38301784810263906,3106.6738420200168
3688.9265,0.3816604398601463,2156.488262538115
3689.7751,0.3814713973867045,2148.28327125884
3690.626,0.38214922787080874,1988.6593432826683
3691.475,0.3832044957390613,2170.8664318128913
3692.3264,0.3842526820169955,1739.5797657506955
3693.1758,0.38507228232269436,1611.1414245364854
3694.0254,0.38552301884100015,1653.1452521854508
3694.8772,0.38546586245553327,2130.2831603763525
3695.7273,0.3848216447393831,2602.6548436225903
3696.5793,0.38363241854398056,1381.7859214393739
3697.43,0.3820197991015953,2237.374683333786
3698.2825,0.38007448450194986,1967.0923899957484
3699.1333,0.3779332820190158,1484.0992072887998
3699.9841,0.3759298900642047,2195.476607338251
3700.8374,0.37465473233502183,2562.739777476932
3701.6887,0.37471747621270063,1356.5915095320988
3702.5425,0.3763441461454778,1832.1686861825738
3703.3943,0.37913783698307013,1550.0150487487015
3704.2483,0.38217572141107437,1461.2210684484983
3705.1003,0.384314679171866,1763.2382337532777
3705.9526,0.38473216008293437,2473.7491527078305
3706.8074,0.3832930720561656,1613.5659917473317
3707.66,0.380661984247089,1893.3499536828922
3708.515,0.37795840350762827,2264.1258457200283
3709.3682,0.37627665357214396,1878.072041497549
3710.2234,0.37618615332815875,2720.762895507011
3711.0771,0.37754613919675545,1881.1306327014197
3711.9307,0.37958892867454547,1783.3326022531116
3712.7866,0.38132056856113583,1866.7512367386291
3713.6409,0.3820510825847517,1496.098757660981
3714.4973,0.38180528669009817,1311.9389818119087
3715.3518,0.3811861557218513,2691.7180577121285
3716.2085,0.3808097337989082,1910.8347963761748
3717.0635,0.3808303926929025,1625.3629042551456
3717.9185,0.3809846424126272,1532.6975062054316
3718.776,0.3810284413207407,2141.0121260537762
3719.6313,0.38101137444868766,1974.9658258498637
3720.489,0.38111398714426475,2098.0079627270147
3721.345,0.38130271949057076,2017.8521561177806
3722.2031,0.3812576913783653,1632.8211356484817
3723.0593,0.38069689047158206,1968.4708690149882
3723.9158,0.379770195369633,2061.7373967381523
3724.7747,0.3790632614514555,1833.2938328561404
3725.6316,0.3791160376003675,3117.451245741581
3726.4905,0.3798706482350917,2506.1511874296752
3727.348,0.3806560218337248,1657.0117440596582
3728.2073,0.3807413973983515,2080.114901403375
3729.065,0.3798684289137581,2140.3021617656623
3729.9229,0.3782738882040161,2356.378569607065
3730.783,0.37630477669767365,1991.2375194513036
3731.6414,0.3741836651761748,1415.3982099062416
3732.5017,0.3721137064374668,1791.5520343032715
3733.3604,0.3705493068525608,1887.8762613290594
3734.2214,0.3700467649240598,2488.6063549025116
3735.0803,0.3708336572220999,1659.5445177913073
3735.9417,0.37253654597349856,1481.215792984767
3736.8013,0.3744430837760515,2382.686575623059
3737.661,0.3760512342021294,1511.5394474216766
3738.5227,0.3772957753526358,1507.5826281978752
3739.3828,0.3783172616839895,1767.500774110353
3740.245,0.379125952029657,1663.4945448283502
3741.1055,0.3795139868598803,1573.6935050483423
3741.9683,0.3793526474992868,1521.0079527485818
3742.829,0.3788932567882049,1712.945752740543
3743.69,0.37874030044876345,1683.0172016006168
3744.5532,0.37947382276166575,2034.742124585696
3745.4148,0.38120098353171433,2242.831615717658
3746.2786,0.3833966662104379,1523.9672296371925
3747.1404,0.38509757927666805,2445.596098026403
3748.0044,0.38542311452351546,1906.4626189849507
3748.8667,0.3840230814258487,1660.8841409091256
3749.729,0.3812577138014593,2169.1713929981065
3750.5938,0.37794652011103225,1709.6103291490037
3751.4565,0.37494666290780126,2619.8219045185197
3752.3215,0.37272272258624106,1831.7136822375624
3753.1848,0.3713291553318184,1576.0525221101568
3754.0503,0.37056805594805275,2450.158766937941
3754.9138,0.37028318082702355,2812.9550587977237
3755.7776,0.3704793633387613,2133.894654707851
3756.6438,0.3712626897463202,2921.015384612905
3757.508,0.3726362963502087,2096.2513882807875
3758.3745,0.37439240546320957,1847.6887610003178
3759.239,0.37616930934050935,1752.4350289405947
3760.106,0.37770264352371036,2245.410004848366
3760.971,0.3789373183523742,1631.2813270419203
3761.8362,0.37998734292661723,1740.799723561347
3762.7036,0.3809232316462393,1716.0602012444685
3763.5693,0.38164817296480125,1639.0842509673394
3764.437,0.3819928304773175,1415.2667381000686
3765.3032,0.381893720458541,1880.6220789751571
3766.1714,0.381467304459444,2016.1593728813473
3767.0378,0.3808648745009412,1879.3286346269454
3767.9043,0.38009858413591147,1924.6613987069522
3768.7732,0.37909330666321583,2516.7105754587355
3769.6401,0.3779247494720831,1516.4505669056527
3770.5095,0.3769201003034335,2079.755576704301
3771.377,0.376537999258369,2150.701448557396
3772.2466,0.3770857998560209,3991.979218507993
3773.1145,0.378528502415892,1531.7585766780714
3773.9824,0.38046355415912764,2082.118673849355
3774.8528,0.3822963465966015,1903.7130215671366
3775.721,0.38353067819604875,2066.929698773793
3776.5918,0.3840249502259936,1992.6596342886314
3777.4604,0.38393200966235624,2079.2335138123085
3778.3315,0.3835294908445696,1678.3033130167296
3779.201,0.383105304818254,1850.9862094867285
3780.0703,0.382896351477971,2713.231489681334
3780.942,0.38296511184940946,3377.294996980699
3781.8118,0.38309829214167757,1923.0013824772143
3782.6838,0.3829426239452869,1719.9498136716286
3783.554,0.382296891434573,2121.5007928334176
3784.4265,0.38122799977694,1409.764433035592
3785.297,0.3799241112090468,1988.6657495897916
3786.168,0.3784746568798373,1417.6122179923068
3787.041,0.37685955230590096,2384.8215817465116
3787.912,0.3750852226040136,1827.0126268192873
3788.7856,0.3732422979190018,1659.0093256270543
3789.6572,0.37151279121244274,1780.0646617549253
3790.531,0.37003791378942946,2054.093989974753
3791.403,0.3688512668733661,1985.7737051483978
3792.2754,0.3678218260802823,2366.769384507918
3793.15,0.36674228135313464,1707.6276793864201
3794.0225,0.3654732155943952,1885.818745323771
3794.8972,0.3640010536961879,2466.5696435792916
3795.7703,0.3624431060139992,2187.3523671654834
3796.6455,0.3610111335073386,1967.559508647103
3797.519,0.3600733673462429,1981.5437583465582
3798.3926,0.360066920327393,2771.1495022840627
3799.2686,0.3612531474268018,3038.3022118127733
3800.1426,0.36343321074319174,1830.428614044566
3801.0188,0.3659975840158129,1824.2517479959413
3801.8933,0.36821886660083786,1908.2094246744941
3802.77,0.3696329288102182,1909.0023864817742
3803.6448,0.37014822531951724,1784.2589889416095
3804.522,0.3700332985377125,2504.4211804757283
3805.3972,0.3697749216203428,2475.1943955698916
3806.2727,0.36990261692110504,2831.038741930495
3807.1504,0.3708215029938341,2380.887914370074
3808.0261,0.37269693115000163,2204.4408002205723
3808.9043,0.3754347579373286,2158.960484409107
3809.7805,0.37864359738334874,1996.053268813191
3810.659,0.38175955465859596,2970.6792440113195
3811.5356,0.384190681418534,2647.2988261603605
3812.4126,0.38561006164492656,1749.6733620930659
3813.2917,0.3860412319425561,2380.0340266738967
3814.169,0.3857693515907084,2120.525650434259
3815.0483,0.38512778708875034,2283.9126457591046
3815.926,0.38432072896381997,2365.2472355063983
3816.806,0.38336679139343416,1462.4121571813582
3817.684,0.38218968603802744,2182.068707749243
3818.5623,0.38072735204220864,1555.0548950584923
3819.4429,0.37902243916711537,2662.237626029818
3820.3215,0.37725987173933406,1376.8298244277792
3821.2024,0.37568493592348473,2053.269423206137
3822.0815,0.3745033349888699,1962.9048673330049
3822.963,0.3736839805630681,1835.8750046253595
3823.8423,0.37289300402119824,2392.0458966156266
3824.722,0.3716135002253388,1978.9244750819928
3825.604,0.3694982160911267,1727.7879631185695
3826.4841,0.36672511630682,1943.9933841327336
3827.3665,0.3639507520640601,2365.8682262658904
3828.2468,0.36190336185150707,2140.896611192284
3829.1296,0.3607583706294132,2287.371101997377
3830.0105,0.3599691873397063,1807.8241216277252
3830.8916,0.35862297599382037,2074.615158952972
3831.7751,0.35611067908521205,2237.745605700068
3832.6565,0.3525607906718495,1936.5241759830358
3833.5403,0.34862968787339993,4357.566207220848
3834.4224,0.3450360651714117,2895.5218515481606
3835.3064,0.3420873005751461,2100.146259480397
3836.1887,0.33977432140407793,2567.5506626744605
3837.0713,0.3380775543239727,2580.597239176029
3837.956,0.3372683942626868,3300.240136171532
3838.839,0.3378423241503715,3175.7014505407205
3839.7244,0.3401678620831342,2992.1782225740862
3840.6077,0.3441475847879019,2650.838657275777
3841.4932,0.34923645714549156,2554.7580463199324
3842.377,0.3546449194652212,2627.6791957415867
3843.261,0.3597375807280574,2853.414229566008
3844.1472,0.36417315095960784,2778.5909428660525
3845.0315,0.3678651661743532,1660.5103949345457
3845.9182,0.3709057086711375,2236.566037085157
3846.803,0.373309762746757,1879.8374454056345
3847.69,0.3750171144374363,1649.6459527868028
3848.5752,0.3760133137306245,2281.9102981705328
3849.4604,0.3766042800331734,2379.2686811979233
3850.3481,0.377434116516401,2296.488125536951
3851.234,0.37919529781588446,1862.7201846683213
3852.122,0.38225524738242633,2018.9300251049453
3853.0083,0.3864151828592031,2151.686084568181
3853.8967,0.39106320509561576,1875.434650170218
3854.7832,0.39538773677045486,2154.4384703365627
3855.6702,0.3987579496310232,2000.9756481835193
3856.559,0.40089261520405356,2151.6547354661857
3857.4463,0.4019183222723559,1692.9556980343002
3858.336,0.4022666823712419,1716.7734197540615
3859.2234,0.40240027605670087,2094.777538057902
3860.1135,0.4025797687739876,1841.9121522881915
3861.0015,0.40275325091034336,1904.038175661119
3861.8896,0.4026365564319671,1801.2604352951255
3862.7803,0.4019057122261713,1548.988721301156
3863.6687,0.40040699159534565,1894.1645692018365
3864.5598,0.3982341078789432,1641.9752777887602
3865.4487,0.3957055808151186,1445.392573207275
3866.34,0.3931545392120406,2394.755430763223
3867.2297,0.3907964371683588,1558.3132413138428
3868.1213,0.38860514022140447,1522.3615101874395
3869.0112,0.3864345609078261,1892.3390160071558
3869.9014,0.38415887168591256,1497.2948347695474
3870.7937,0.38179190578132766,1896.2086072298307
3871.684,0.3794413023461702,2212.185194230024
3872.577,0.377104891641432,2284.002225617383
3873.4678,0.3746206640473555,1609.3724225985286
3874.361,0.37168501575756674,2145.0705617291733
3875.2524,0.36807409101041483,1952.7261454208362
3876.1438,0.3637573513866313,2064.1722134229985
3877.0376,0.35898213447367583,1643.7292876375204
3877.9297,0.3542378233530007,3281.134031496941
3878.8237,0.34991508940525895,2781.8735358569706
3879.716,0.3460639765219944,3175.040389710031
3880.6108,0.342233848842847,1967.287047249696
3881.5037,0.33785257518156786,2220.638756019832
3882.3965,0.33264422139457567,2328.7746821036217
3883.2917,0.32687210989187343,2139.371042249256
3884.185,0.3211694037266295,2616.9431152935595
3885.0808,0.3160091679343128,2970.7384204177097
3885.9746,0.3115666282218758,3552.059166643726
3886.8706,0.30772146702247777,3014.7416405426125
3887.765,0.30443238523565247,3605.485178468308
3888.6592,0.3018792637086743,3218.276356480809
3889.556,0.30044144673650985,3207.140961628984
3890.4507,0.3004375075695491,4423.999133226133
3891.348,0.30186059680138805,2677.478276348747
3892.243,0.3043785421806798,3517.561512884993
3893.1406,0.3076063672511255,2870.579926005914
3894.0361,0.3113142003366427,2936.6663798422683
3894.932,0.31554622573258506,2902.1555575447364
3895.83,0.32045541974399966,1890.077047071477
3896.7263,0.3260491046973669,3181.7159189115855
3897.625,0.3321705122501601,2655.9140571714033
3898.5215,0.3384923476812661,2093.890145941057
3899.4207,0.3448614483688682,2806.5377243929365
3900.3176,0.35125596133652304,2053.0472016614694
3901.2148,0.35774423655441867,3750.721585607905
3902.1145,0.36421675268000664,1275.032873535221
3903.0122,0.37036067084778845,1607.6715577913128
3903.912,0.3760175368009376,1806.7720947831049
3904.8103,0.38124716099689504,1773.6019074281696
3905.7107,0.38630994541704033,1792.6694691752396
3906.6094,0.3912876263163179,1862.4450463243982
3907.508,0.3960241602890163,2061.0982365325
3908.409,0.4002587008634788,1594.7614465177157
3909.308,0.40389071726043907,1778.1238844769794
3910.2097,0.4071677996823309,1664.2402197289584
3911.1091,0.41045867904413724,1565.8850407501839
3912.011,0.41405146556074146,1654.2009813229483
3912.9111,0.4179271132646661,1467.6042511367757
3913.8113,0.4218362608964282,2335.2880713371137
3914.7136,0.42540312493856836,1162.1843804548969
3915.6143,0.4282569321444814,1169.2247067708452
3916.517,0.4302385640766607,1533.4916269559167
3917.4182,0.4314479118790836,1917.9718773849884
3918.3215,0.43224804934230765,1516.4800846699352
3919.223,0.4330811070967055,1474.7073975272986
3920.1245,0.43428577433808085,1464.7964740175407
3921.0286,0.4359803738629838,1331.6121812652643
3921.9307,0.4380828255324503,1349.1366109445125
3922.835,0.44048546909823455,1506.8236081264665
3923.7373,0.4431253999227737,1276.459578086149
3924.642,0.4459769484394296,1378.587963866259
3925.5452,0.4488454263379962,1132.4169357654662
3926.448,0.4513578867345571,1202.4785186765605
3927.3535,0.4531208925663355,1268.9451728278493
