wavl,flux,ivar
3566.9744,3.6792711767832835,120.25399054886884
3567.795,3.672779139635476,118.30748873370895
3568.6177,3.6671833971169985,123.35219321557842
3569.4385,3.6630740862581033,114.45390622610844
3570.2617,3.659840658777457,113.95086590037327
3571.083,3.6565559471381697,131.40314536787272
3571.9065,3.6528470913243543,116.66272720210785
3572.7283,3.6492183715790794,126.69054830131654
3573.55,3.6462795133034294,134.13579984171085
3574.374,3.6437914003942002,128.84268711507596
3575.1963,3.640484390403642,120.93241729914968
3576.0208,3.634965769550386,109.75484046793935
3576.8435,3.627138939122952,106.0664885362168
3577.6682,3.618590330490811,122.26967442891646
3578.4915,3.6118170868458286,120.0898608847234
3579.3145,3.608534663053172,119.69483791174287
3580.14,3.6087494717132915,126.14556166879167
3580.9636,3.6110275744652505,127.04127063229656
3581.7893,3.6137387009718713,105.76682249084263
3582.6133,3.6161731071410563,126.78186050012721
3583.4395,3.618666377904617,136.32870964805
3584.264,3.621607064029257,119.1887981128182
3585.0884,3.6245226798066734,128.83172467237486
3585.915,3.626000840750358,128.2462357322555
3586.74,3.624402989223979,146.18104760791545
3587.5671,3.618682156547529,122.09663345821284
3588.3923,3.6088730315524606,115.84926533103155
3589.22,3.5959858856395455,119.56720243269432
3590.0457,3.581851563973569,130.55797202072833
3590.8716,3.5683875633152833,117.30369488267279
3591.6995,3.557313846471822,125.03112806476756
3592.526,3.5499241276492577,123.09532946765599
3593.3542,3.5465648691447003,132.67346909635714
3594.181,3.5463786942383595,120.59605477283698
3595.0098,3.5473887175197616,118.26265147976922
3595.8367,3.547425819057682,129.92710543223686
3596.6638,3.545203231674112,128.27735310540496
3597.4934,3.5406986315429037,134.1878756956839
3598.3208,3.5348855337837852,125.59993762584185
3599.1506,3.5291299798782263,119.60589975199412
3599.9788,3.5248938779114987,105.14701034318713
3600.8088,3.5231429358267903,131.0387384429069
3601.6372,3.5239077581505605,129.12610139645363
3602.4678,3.526273384542467,112.90713919707478
3603.2964,3.529154752541153,122.0149337179823
3604.1252,3.532207047550852,125.53578928686383
3604.9565,3.535856053546957,122.55980982504047
3605.786,3.5404002983063902,138.51361248423422
3606.6172,3.5452437810472963,128.32176964421825
3607.447,3.548882014609867,126.55035725932444
3608.2788,3.549805527460523,130.17546866306833
3609.109,3.5473038010696394,120.44561120062207
3609.9392,3.5418706370640543,113.28283843027874
3610.7717,3.5350622221209886,125.09930791886354
3611.6023,3.5290707180143506,128.26675401235417
3612.435,3.5258722977178616,126.52173910312969
3613.266,3.526601064054452,118.6364416510489
3614.0994,3.530865571702243,122.18064445437335
3614.9307,3.53618586710828,134.41590423705404
3615.7625,3.5381716085452464,129.71911739009875
3616.5962,3.5322234041819653,134.0177580411216
3617.4282,3.5167397780163676,139.92040645763893
3618.2625,3.4948974975583824,113.70403734211894
3619.0947,3.4732734133010066,137.85622018366092
3619.9292,3.4572561065300382,134.20212378018874
3620.762,3.4483221207861035,136.32299137542313
3621.595,3.444134355356055,136.03865061047745
3622.4302,3.4413865732838613,144.9666205221021
3623.2634,3.4380205110111963,138.9902268340924
3624.0989,3.4335828651024696,142.37196612077008
3624.9326,3.4285094253090844,135.28692265499964
3625.7686,3.4232912192430938,127.74819100480089
3626.6028,3.4182574628345685,138.46446536227597
3627.437,3.413298686357943,137.56074087777557
3628.2734,3.407702697522826,146.65197858784794
3629.1082,3.4004144587257388,146.131297124148
3629.945,3.3907217404669097,165.00680674342533
3630.78,3.379160235268083,134.61058724731058
3631.6174,3.3673783065393947,129.98966873820257
3632.453,3.3577616880226975,149.48452117825536
3633.2883,3.352418143443655,130.75072983298077
3634.1262,3.352436210939184,139.38165427775795
3634.9622,3.3569405527847165,152.1868825439182
3635.8005,3.3628130887820267,142.57139199468648
3636.637,3.3657677021943915,137.91156938288813
3637.4756,3.3627459778261115,129.404689101306
3638.3123,3.3538035784723186,117.25970788633529
3639.1492,3.342047515132666,151.2501687209199
3639.9885,3.331647769588541,154.95692740498131
3640.826,3.325496664367774,142.0890922503103
3641.6653,3.3237945200296757,144.0819523394385
3642.5032,3.324674883525923,151.9914189816144
3643.343,3.3256513867939175,143.17557269929927
3644.1812,3.3249421992816317,141.44735133277203
3645.0195,3.321942993120735,138.19380466399002
3645.86,3.31686978133396,154.01880731622325
3646.699,3.310218812356461,139.71861917400693
3647.5398,3.302373796206205,146.83346392964972
3648.379,3.293878901846666,140.30871887891345
3649.2202,3.2855715975867765,140.20801013087444
3650.0596,3.278611926074069,156.06209253650303
3650.8994,3.2738063843943053,148.52676012835624
3651.7412,3.2712440305671335,144.03682440582256
3652.5813,3.27034968292497,142.19517817908402
3653.4236,3.270357486210424,145.1329039442716
3654.2642,3.2707609939298585,148.21198060012057
3655.1067,3.271304858457048,148.43634853982408
3655.9475,3.271703592989565,151.17783364708882
3656.7886,3.271538154699831,143.3793954624578
3657.6318,3.270468311639362,152.92000336690293
3658.4734,3.2684891420185465,147.35720864782502
3659.317,3.2658431355678266,150.41576996777403
3660.1587,3.2628033844333957,151.15045872543058
3661.003,3.259575744811613,146.5671032401258
3661.845,3.256547512018427,144.85967788474144
3662.6875,3.2543279400647287,152.81831087094787
3663.532,3.253576002566551,145.40139967300954
3664.3748,3.25458084946532,145.05732856463226
3665.2197,3.2569168294522424,151.19813925210735
3666.063,3.2594242969947045,155.48144867863147
3666.9084,3.260751084443451,139.39778110470488
3667.752,3.2601128457259816,147.96803092134945
3668.5977,3.257685356597904,158.84522646268664
3669.4417,3.254153125400747,145.57078530726156
3670.286,3.2499170704658287,161.70179893716548
3671.132,3.2449438146452056,148.28742961546945
3671.9768,3.2393394441151866,145.61117052596285
3672.8235,3.233676487656688,148.61992891294665
3673.6685,3.2287323046727807,154.53126793623574
3674.5156,3.224750526234074,158.6377399394439
3675.3608,3.221441212908505,148.87617791864022
3676.2063,3.2184494738777727,161.80943360259002
3677.0542,3.215782431505237,143.94393158093916
3677.9,3.2135944199433086,174.2654595127179
3678.748,3.211713269777149,162.64028198735707
3679.5945,3.209657700203993,159.6293093303567
3680.4429,3.2068622212423876,164.51126833235233
3681.2896,3.202857599470757,161.19029628756874
3682.1365,3.1973092602088897,148.59156008127044
3682.9856,3.190411996054147,147.7424556023842
3683.8328,3.183407029541096,159.4893641367041
3684.6824,3.1781693458120532,158.46097903388312
3685.53,3.176108091955283,165.05363018168066
3686.38,3.176967158151246,148.12471347803316
3687.2278,3.1790465107997363,154.11197850235865
3688.0762,3.1805732040533448,142.32813913600546
3688.9265,3.1810318646833173,157.63799890747234
3689.7751,3.1814038933836364,152.50751031354542
3690.626,3.1832739024782866,160.45551700519607
3691.475,3.1875390822886662,172.89420529798412
3692.3264,3.1937031374494174,173.02540237066648
3693.1758,3.2000368496279012,155.90765272648477
3694.0254,3.204668843839756,146.88345383444343
3694.8772,3.2064730085416047,156.67980050231907
3695.7273,3.2053111965604577,162.78182008404804
3696.5793,3.201625605049864,156.14992288601377
3697.43,3.1959409196865987,154.1221813157562
3698.2825,3.1886375058994907,168.02763915677906
3699.1333,3.1802202622910603,156.53878672357152
3699.9841,3.171516397935372,156.07350524807438
3700.8374,3.1637629916481256,161.4800239550715
3701.6887,3.158202912562035,160.02638272139887
3702.5425,3.155174404596453,165.8325922639958
3703.3943,3.1538400041655428,147.0280797681915
3704.2483,3.1526058223545217,175.41327607653864
3705.1003,3.150184875449518,168.12157472620004
3705.9526,3.146303512681224,164.29684965446202
3706.8074,3.1416152048620356,166.97826889658782
3707.66,3.1369821158306737,157.37812731906098
3708.515,3.132565155453996,191.12959438608473
3709.3682,3.127732901373247,167.21684158413387
3710.2234,3.1215791814563123,150.71716214570063
3711.0771,3.113873641735168,159.21811472861273
3711.9307,3.105329560757884,161.88199996358128
3712.7866,3.0971836053994477,164.47824405318713
3713.6409,3.090494300439596,162.07850898152304
3714.4973,3.085534768469685,172.92421504594532
3715.3518,3.0820998254051517,182.8450406544309
3716.2085,3.0799709596182514,151.0336844212553
3717.0635,3.079289447191809,151.61068225750816
3717.9185,3.0802385534341052,153.26957833754804
3718.776,3.082580273419013,169.04411204612975
3719.6313,3.0855390658914934,160.52417860741394
3720.489,3.088324557156395,166.34702009596475
3721.345,3.0906024239849645,168.30721549456362
3722.2031,3.092549911888113,164.10877824229468
3723.0593,3.0943849121570475,162.91719556241617
3723.9158,3.0960386569699963,155.3760978172591
3724.7747,3.097078233339871,159.23992042882895
3725.6316,3.096808739706546,171.94658376076873
3726.4905,3.0945015352976077,164.55557622664278
3727.348,3.0898021905899764,159.38939599726422
3728.2073,3.083069641326425,163.77718811204326
3729.065,3.0753642077865067,157.91504372933161
3729.9229,3.0677333388666863,171.93822878470155
3730.783,3.0606362818221897,184.22015719687013
3731.6414,3.0539900373539215,166.86603753016493
3732.5017,3.0476847263752456,180.1393215727992
3733.3604,3.042255037516313,170.91888714682395
3734.2214,3.038538407178077,186.2108055222966
3735.0803,3.036863101930723,191.01428624910932
3735.9417,3.036365788626073,159.3467632568444
3736.8013,3.0354403401903207,175.99834235867476
3737.661,3.032772363653919,180.0705848135699
3738.5227,3.028084983274837,168.1692079041806
3739.3828,3.022198026476607,183.23752122540634
3740.245,3.0164537834784286,173.93751317647036
3741.1055,3.012187561314942,189.53700969725517
3741.9683,3.0100944782526122,181.39813400562338
3742.829,3.010032697459499,180.55212939011847
3743.69,3.0111207333781547,161.67082860647176
3744.5532,3.0122687508691883,170.5739073062007
3745.4148,3.012713914350443,173.31541381134056
3746.2786,3.012339907751149,171.51815155452834
3747.1404,3.011596263184416,164.853003224289
3748.0044,3.011118222804775,174.63339067904587
3748.8667,3.0112785982363874,171.80789694983733
3749.729,3.0119530775104044,177.61603829749245
3750.5938,3.012727422101215,171.95892403710843
3751.4565,3.0133339084421262,161.0671618240389
3752.3215,3.0138960392808074,183.34917645387492
3753.1848,3.0146994875177904,179.34377970535047
3754.0503,3.0158642495548986,147.81181580371413
3754.9138,3.01729675555471,164.9251535212544
3755.7776,3.0188955445426995,175.23222516790048
3756.6438,3.020500917959991,172.02383259671714
3757.508,3.021559440671679,167.37794646298212
3758.3745,3.021073328048343,200.09085905516912
3759.239,3.0181266431128466,164.14019810378198
3760.106,3.0126231963990615,177.1236517946641
3760.971,3.005577181104749,166.1893448702222
3761.8362,2.9984639606142336,189.5201241699525
3762.7036,2.9924033034336057,186.5873508304369
3763.5693,2.987761503125671,182.09101634407088
3764.437,2.9842242665386793,172.29818845437805
3765.3032,2.9812041347385563,180.3529359666003
3766.1714,2.9778891349543577,183.53524464408943
3767.0378,2.973406890159616,177.59778589971168
3767.9043,2.9672428438301885,172.57147020083985
3768.7732,2.959807291811341,200.9617578464844
3769.6401,2.952465117179336,199.527081660555
3770.5095,2.9465592269706424,204.13885441363644
3771.377,2.9426627034683968,192.17220736551974
3772.2466,2.940400361058281,180.35690026096205
3773.1145,2.93917553583357,175.00498025693267
3773.9824,2.938678704011847,185.5709319496675
3774.8528,2.9389655041895253,194.3809068443671
3775.721,2.9402903557061735,182.45363844165348
3776.5918,2.943005408710666,181.42589785584525
3777.4604,2.9472906877133975,197.70335534747292
3778.3315,2.9528335589313226,190.99940614407964
3779.201,2.9586347970111415,190.16985373998074
3780.0703,2.9635147196706413,183.79010151450322
3780.942,2.9666665137562567,184.1722060941235
3781.8118,2.9678706546471156,187.724223412333
3782.6838,2.967318189054359,177.79626620061225
3783.554,2.9652561211311497,193.7937303870956
3784.4265,2.961837636412891,194.4553445514504
3785.297,2.957233482143507,163.20874934738043
3786.168,2.951696466328591,178.73505995324217
3787.041,2.9455962182601896,180.05559315486894
3787.912,2.939360708905068,186.3026360457548
3788.7856,2.933221808935169,176.0868521473889
3789.6572,2.927280236305977,199.70708928410585
3790.531,2.921494597858365,182.71396622443132
3791.403,2.9160031361858922,187.50071251638343
3792.2754,2.911176141964243,190.42252966864976
3793.15,2.9075925409573236,179.70665773255965
3794.0225,2.905708469283032,201.00546003275767
3794.8972,2.9053138991765772,223.14278627115985
3795.7703,2.905314715487981,181.51402094125785
3796.6455,2.9040898405654656,184.23146718261106
3797.519,2.9004670493222338,194.3328147816021
3798.3926,2.8945903251894527,192.45763420297067
3799.2686,2.8879444718164997,196.16839796719424
3800.1426,2.8824945245717704,202.62519642339808
3801.0188,2.879355033972909,192.07138306590986
3801.8933,2.8783142569010542,195.9029458412931
3802.77,2.878218438417327,179.37838062888991
3803.6448,2.8779629450036572,193.21779440704518
3804.522,2.877164586837595,200.48537884445105
3805.3972,2.8762307781436016,201.79364991906922
3806.2727,2.87599212239651,165.42165072746002
3807.1504,2.877243050011213,208.48811316007797
3808.0261,2.8802614588059288,205.90672162534747
3808.9043,2.8845663936822623,184.74857174905583
3809.7805,2.8890475455879705,179.5399164964074
3810.659,2.8926234604488177,205.39657301832335
3811.5356,2.8946595988362085,193.29879308446516
3812.4126,2.8950650662237702,181.85699967556184
3813.2917,2.8940002328209173,204.302518949623
3814.169,2.891723049509624,188.23928731735478
3815.0483,2.888564506731311,179.19738738540107
3815.926,2.88498809819648,194.64649331760452
3816.806,2.8814689762303867,186.86747820160258
3817.684,2.8784316431943067,197.37543146572185
3818.5623,2.8760630484365595,195.00807747650774
3819.4429,2.874158365772054,192.79627518958384
3820.3215,2.871982784486887,188.88568006886825
3821.2024,2.868413347029081,206.98461102023427
3822.0815,2.8626178136690976,207.40532428553018
3822.963,2.8545944157695406,205.41891641340712
3823.8423,2.845245622466033,204.33536971197307
3824.722,2.8356399583095224,190.6976919828034
3825.604,2.8265615049077617,193.99546845938073
3826.4841,2.818571130685601,203.282646976891
3827.3665,2.812027451099898,205.20071913543867
3828.2468,2.8071774791579016,195.39577304766283
3829.1296,2.8037649483370086,199.57707568260312
3830.0105,2.80093978507283,185.5572883484936
3830.8916,2.7973619838192705,197.11645715818162
3831.7751,2.7918659139130013,197.72988898044062
3832.6565,2.784351349912116,195.68190855811815
3833.5403,2.775999401497553,204.84009904060832
3834.4224,2.768725581260354,230.46004957244395
3835.3064,2.7637828651207434,213.59065491285992
3836.1887,2.761136054950872,205.86465113402042
3837.0713,2.759768591521846,203.11199466572828
3837.956,2.7587431881864815,194.37531349960545
3838.839,2.757891626666231,189.270845223482
3839.7244,2.7577724267083434,218.62670833289764
3840.6077,2.7592395387571234,207.4979524432707
3841.4932,2.7630165321662967,208.11509088938024
3842.377,2.7693230718272392,224.6361653949845
3843.261,2.777652820955438,213.3664479009609
3844.1472,2.78675641125941,207.30281076093468
3845.0315,2.7950203619983727,193.6667474679781
3845.9182,2.8013361531434224,218.73096335946272
3846.803,2.8054056949345374,230.7779044592278
3847.69,2.807753038890832,191.07992181632488
3848.5752,2.8091990338397377,191.4172493162851
3849.4604,2.810529956782314,195.92909012281194
3850.3481,2.8122995470951397,219.56371349826344
3851.234,2.814777652216398,212.9090921683013
3852.122,2.818040464107562,200.35954912824596
3853.0083,2.8219800901918464,231.24826410815953
3853.8967,2.826313287328762,197.42785022027675
3854.7832,2.8304376675458944,207.04559239579137
3855.6702,2.8336837515855477,195.329384885744
3856.559,2.835712253875164,196.3367605618572
3857.4463,2.8367769584562312,188.725570175887
3858.336,2.837440428009197,199.27333565514175
3859.2234,2.837886045201227,228.61485550934873
3860.1135,2.8375991747719405,188.18038662441955
3861.0015,2.835788843935275,179.62732269277373
3861.8896,2.8321893539154446,198.2314666267098
3862.7803,2.8273742061308305,215.67706182269043
3863.6687,2.8223109212531416,207.46859111276157
3864.5598,2.8175331534206833,187.67849093147734
3865.4487,2.81304883238405,216.29054278207627
3866.34,2.8085830768691715,208.864392320275
3867.2297,2.803942600014625,198.22325355423558
3868.1213,2.798831440345146,179.09925677189867
3869.0112,2.7928027392894945,207.7876869054157
3869.9014,2.7853840295226977,206.7521828277344
3870.7937,2.776497055924608,190.55263439678242
3871.684,2.7667221126905632,224.89733872329666
3872.577,2.756920610158866,218.64865507617094
3873.4678,2.7479400526246875,221.29541092869377
3874.361,2.7400233866170733,209.41360529529064
3875.2524,2.7328514356533486,205.01524684346438
3876.1438,2.7255684842906236,225.61252074024938
3877.0376,2.7172016546267392,204.1651455494935
3877.9297,2.707132482614451,208.10170444683314
3878.8237,2.695198476309468,210.45545421144394
3879.716,2.681813302330507,225.38345874391294
3880.6108,2.667508746854284,197.63475467533962
3881.5037,2.6529548608916493,236.7014432820365
3882.3965,2.638682013702802,232.54001401273658
3883.2917,2.6252188355282464,227.11935556828206
3884.185,2.613185588011437,248.61112424012387
3885.0808,2.6030295510933823,220.42315464822337
3885.9746,2.5953468093224252,241.29197134061846
3886.8706,2.5909131035786386,237.04514590041632
3887.765,2.5908558910688555,228.45737485696068
3888.6592,2.5959347774760593,245.0034056940005
3889.556,2.6053438338052284,224.72243834161978
3890.4507,2.6157822259051513,249.76710670190153
3891.348,2.6227636137645676,237.4996567499332
3892.243,2.623425230260605,268.4716487654803
3893.1406,2.618951075378639,226.8807042525623
3894.0361,2.6138608271308046,222.5389243707637
3894.932,2.612823236153403,242.50679149323602
3895.83,2.617931453997282,234.59995568848194
3896.7263,2.6281288534741636,223.96768310070752
3897.625,2.6407448937777396,216.83067072909932
3898.5215,2.6531131674105826,241.8303081996474
3899.4207,2.663830311034966,234.93663731571118
3900.3176,2.672613711528945,227.2313627635652
3901.2148,2.6801259835680455,226.54028443180394
3902.1145,2.6874325411864035,227.03329050299206
3903.0122,2.695622515018733,196.6090707966176
3903.912,2.7056373130812976,225.91908887634875
3904.8103,2.717847320522786,226.6545797024497
3905.7107,2.732087373557713,206.27230067760598
3906.6094,2.747484560383182,220.42249753185763
3907.508,2.7628771008591575,209.559766237747
3908.409,2.7770883164741758,188.94743640237604
3909.308,2.78921078840332,197.74594507594452
3910.2097,2.7990557161975174,185.26023891952954
3911.1091,2.806871537206506,183.80720619956776
3912.011,2.813236018935259,214.5833975336125
3912.9111,2.818580369280313,207.26061744653614
3913.8113,2.8231850084159094,191.0125613823024
3914.7136,2.827170955241872,201.31203346560832
3915.6143,2.830522284356013,188.62019702438542
3916.517,2.833169336306376,204.07718172823778
3917.4182,2.835035458989817,187.39232109760007
3918.3215,2.8362409836144273,206.84844243887989
3919.223,2.837095497712217,196.82838224964266
3920.1245,2.837939917723317,206.21895089942782
3921.0286,2.8389300362941507,197.13469144654903
3921.9307,2.8399964689000683,214.06969255319171
3922.835,2.840981756860996,205.0346502937901
3923.7373,2.8417129387882025,194.60847900254726
3924.642,2.841981399095023,207.63218242950143
3925.5452,2.8414899727712064,197.74046385213023
3926.448,2.8399779853691305,190.81095310865376
3927.3535,2.837413033572007,208.3083295289337
3928.257,2.8340753066033026,202.76018347277082
3929.1628,2.8303039471656,188.97909997588394
3930.0667,2.826239131610449,186.33162697414488
3930.9731,2.8215581816157624,202.6657653727007
3931.8774,2.815667985503569,182.65028387575143
3932.782,2.8080468042677054,190.61790462130605
