wavl,flux,ivar
3566.9744,3.239175929322747,1.0469636517730547
3567.795,3.236583786914136,1.0304634456478323
3568.6177,3.2334392373262273,1.3031545155106448
3569.4385,3.2293820614480526,1.114720615993154
3570.2617,3.2246906150771117,0.9969361795228754
3571.083,3.220461006788256,1.1512031863277645
3571.9065,3.2177581912766318,1.1553113364006051
3572.7283,3.2167472314799412,1.011274294379288
3573.55,3.2165849527540984,1.025341594839808
3574.374,3.2164090321137637,1.2287882444170914
3575.1963,3.2162242586751324,1.1234402230050855
3576.0208,3.2167777381579934,1.2901693802007097
3576.8435,3.2187849217498825,1.3322741713602995
3577.6682,3.222534046092814,1.1803934740421251
3578.4915,3.2279318168694435,1.1595297413102268
3579.3145,3.234438478365093,1.177471700873009
3580.14,3.2406698852852065,1.13176789601273
3580.9636,3.2444271386551473,1.0050674038477043
3581.7893,3.2437642083466076,1.0819243506442358
3582.6133,3.237970238912646,1.2599448223642606
3583.4395,3.2277423312881917,1.2290278182811496
3584.264,3.2147851296831975,0.9723696935775451
3585.0884,3.2011488970707624,1.1599111520830856
3585.915,3.188943364174336,1.074205978351226
3586.74,3.179990485344303,1.1919635506571502
3587.5671,3.175037460165741,1.0601766743176597
3588.3923,3.173555859036312,1.354458043213351
3589.22,3.1738298047726388,1.1542892186588596
3590.0457,3.1737290288688698,1.2599349938195308
3590.8716,3.1716745430478466,1.1050085560383014
3591.6995,3.1673320289958444,1.3332760761244375
3592.526,3.1615664131043824,1.0884928165565457
3593.3542,3.155511891035482,1.1168333690251615
3594.181,3.1497423141038077,1.0500110499928863
3595.0098,3.1439057241376984,0.970440461279686
3595.8367,3.1372682813116493,1.3047009203756168
3596.6638,3.1293317426476874,1.3871380381937355
3597.4934,3.1204545585259127,1.0861865141716294
3598.3208,3.1120637991905586,1.300336898046949
3599.1506,3.1059983391417143,1.1165822424114413
3599.9788,3.1037702797015077,1.374502651290558
3600.8088,3.1056000650813362,1.2212606451786217
3601.6372,3.110133611687176,1.3126136816711527
3602.4678,3.1150094559425088,1.21496255353546
3603.2964,3.11813053560285,1.174173806483445
3604.1252,3.119027140911919,1.1802062939430769
3604.9565,3.118854828215004,1.1698639529767778
3605.786,3.118988454948965,1.0985138948806366
3606.6172,3.1193984107223782,1.1925400445288823
3607.447,3.1184725144108603,1.2764648983753624
3608.2788,3.1144280609941966,1.0488497596930342
3609.109,3.106948280742441,1.4320285088002673
3609.9392,3.0975541250156597,1.3870095393523632
3610.7717,3.0887348512336295,1.1251961598279077
3611.6023,3.0826207035241886,1.527756031447701
3612.435,3.0798277709520505,1.2501651820121682
3613.266,3.0795153115519103,1.321050845663915
3614.0994,3.080110012149633,1.1633327460195488
3614.9307,3.080241346890739,1.2590483573017943
3615.7625,3.079129762982142,1.0455633330436465
3616.5962,3.0764589658557764,1.1825845118171665
3617.4282,3.0722310223287077,1.4097016634790713
3618.2625,3.0666880024055474,1.3774366722247344
3619.0947,3.060316588773387,1.147390012476916
3619.9292,3.0533922004559697,1.251170607145594
3620.762,3.045656893726041,1.2014236760243102
3621.595,3.0362679531528585,1.1473860847397648
3622.4302,3.0247138050470124,1.2295012835220944
3623.2634,3.0120142073566973,1.6498435653220855
3624.0989,3.0007055663893403,1.2376522590317174
3624.9326,2.9938880700283064,1.5507441100152255
3625.7686,2.993307429852873,1.2858388297013676
3626.6028,2.998476539268239,1.3685177988665564
3627.437,3.0070289171491345,1.3180325219617077
3628.2734,3.0160676458324724,1.3272317220819474
3629.1082,3.023352088817482,1.2013527495855039
3629.945,3.0281268009860662,1.2143781021304478
3630.78,3.030922261631881,1.3542506631041447
3631.6174,3.032958172610497,1.1986414782384731
3632.453,3.035177098197258,1.3425653431305309
3633.2883,3.0377216035530354,1.191040348514973
3634.1262,3.039925848827813,1.3321060981680173
3634.9622,3.040766720264314,1.1888218865860507
3635.8005,3.039590827817333,1.1810973498540134
3636.637,3.036652258839846,1.0741086928635435
3637.4756,3.033053546232348,1.3911729170919136
3638.3123,3.0301189370985258,1.3576611037647444
3639.1492,3.0285908011105374,1.7656456156652773
3639.9885,3.028444249815069,1.3050729660649936
3640.826,3.029153864505326,1.393347750450615
3641.6653,3.0300330328630687,1.0875689687328542
3642.5032,3.0304077600841377,1.2598424753099362
3643.343,3.02980814579684,1.30126964016595
3644.1812,3.0282617680533606,1.2676727344241483
3645.0195,3.0264332572918873,1.37986454041873
3645.86,3.0253036051601065,1.3634222233013877
3646.699,3.0254779104137026,1.240714736354454
3647.5398,3.0266147986680814,1.1692038232229987
3648.379,3.027505952567777,1.267732177397072
3649.2202,3.026824154302862,1.4758493703559221
3650.0596,3.024075741892344,1.2380767200807885
3650.8994,3.0201028490369937,1.242740818671765
3651.7412,3.0166840754657227,1.2696924779906584
3652.5813,3.0153836301627157,1.180317866317947
3653.4236,3.0164106146777727,1.3563747027035218
3654.2642,3.018577337597409,1.38570648363533
3655.1067,3.0203906160659546,1.1937168721430012
3655.9475,3.021260180753401,1.2149278403482922
3656.7886,3.0217704088545174,1.1016888762036192
3657.6318,3.0228269712183593,1.4210683711460002
3658.4734,3.0246564398310922,1.1813990589405203
3659.317,3.0265628452261013,1.1729015928310682
3660.1587,3.0274335834896173,1.4153506428940095
3661.003,3.0265228472634456,1.4391932609423363
3661.845,3.023922783316091,1.2043888094662187
3662.6875,3.020557054494746,1.1530192511083508
3663.532,3.01778199575841,1.1022774080119777
3664.3748,3.0167952779286153,1.1460966543517077
3665.2197,3.01808973692034,1.4351961042992336
3666.063,3.021329347882327,1.227795168734232
3666.9084,3.0256486570754264,1.4027328446131249
3667.752,3.029995682012967,1.181206094038442
3668.5977,3.033353359976122,1.276234033384745
3669.4417,3.0345994020626246,1.12225478543849
3670.286,3.032705804024825,1.4130926638918433
3671.132,3.0272162377579668,1.2629711206852563
3671.9768,3.018772548924887,1.1409628566422898
3672.8235,3.0087973941539774,1.2103525966154338
3673.6685,2.998788386980864,1.3747015762427184
3674.5156,2.9896116529978034,1.2726846944182002
3675.3608,2.9819922304877706,1.2393770947857927
3676.2063,2.9768818350742468,1.0589286128370345
3677.0542,2.975208086212298,1.5414255758638702
3677.9,2.976748944437413,1.0813662760693123
3678.748,2.9796343850240183,1.2479775739154348
3679.5945,2.9813415032717843,1.4612193705641334
3680.4429,2.9803705556781726,1.379703567992208
3681.2896,2.976934047302941,1.3589994734859299
3682.1365,2.9722173528211853,1.5150936570585312
3682.9856,2.9671945526257355,1.2911789437822767
3683.8328,2.962290177006524,1.4124645059898349
3684.6824,2.957853368759307,1.2327255342844545
3685.53,2.9548603980916837,1.5668096636150015
3686.38,2.9546631603524984,1.3065752421968366
3687.2278,2.958166133243352,1.252967777800735
3688.0762,2.9649916849306357,1.369858355635645
3688.9265,2.973414948729021,1.3711663271639083
3689.7751,2.981080005825131,1.2524542124416425
3690.626,2.986314082465925,1.2409033800011862
3691.475,2.9887666821280074,1.1929145130800753
3692.3264,2.9893273450500604,1.2659067355781732
3693.1758,2.9892006462983467,1.308701553999221
3694.0254,2.9890637606202093,1.3504333380802183
3694.8772,2.9887643703629196,1.1857545443428368
3695.7273,2.9876665743497486,1.492945643829867
3696.5793,2.9852541866450832,1.4613472918109887
3697.43,2.9815383888611238,1.3186798794570733
3698.2825,2.9769475437908324,1.4755938799779738
3699.1333,2.972058726357213,1.3254298874347743
3699.9841,2.9673247516221513,1.1279965888661165
3700.8374,2.963118384851546,1.5133397547443208
3701.6887,2.9597629948959834,1.3678417810401804
3702.5425,2.957164401609152,1.3931478911944581
3703.3943,2.9544730687331144,1.274897263338989
3704.2483,2.9500890189962314,1.4015219983941043
3705.1003,2.9425949979004855,1.3106814330611183
3705.9526,2.9317894404861575,1.3208604114360165
3706.8074,2.9190042508957186,1.2306173101928513
3707.66,2.906442094082413,1.3737350500644445
3708.515,2.8957980396933607,1.4666492741744637
3709.3682,2.888013284401632,1.525798864242385
3710.2234,2.8833514075561997,1.455309725837696
3711.0771,2.8819135832899057,1.4027326270318525
3711.9307,2.883439625167908,1.432084500777279
3712.7866,2.8868993659127082,1.3912180706026676
3713.6409,2.8903166358991226,1.3320122052479113
3714.4973,2.8914976185115107,1.1827363265882
3715.3518,2.8891210172526467,1.2196436844754905
3716.2085,2.8834970537539824,1.3844816372228828
3717.0635,2.876463447783696,1.4956794574407497
3717.9185,2.8704295671565516,1.393299391361936
3718.776,2.8673041531699925,1.5785965506718318
3719.6313,2.8677198946090448,1.4170074399222392
3720.489,2.8708848557267506,1.2236651983912614
3721.345,2.875135210463657,1.2620236008625125
3722.2031,2.878653770677322,1.4649875446744973
3723.0593,2.879797764086238,1.555781688968649
3723.9158,2.8775181300600816,1.2625367305245465
3724.7747,2.87198273972851,1.4777108478934025
3725.6316,2.8650933317875062,1.6816937393123552
3726.4905,2.8595582614281323,1.5876254955072528
3727.348,2.857102374369881,1.6397784366934154
3728.2073,2.8571273383946925,1.3268186986916575
3729.065,2.8573762711089574,1.4296302924904911
3729.9229,2.8557629686175114,1.4479726145020946
3730.783,2.8516737750191967,1.29704930997552
3731.6414,2.8459405121959818,1.4349391771328635
3732.5017,2.839868967066262,1.2984767620609803
3733.3604,2.8345573344685837,1.5093224292939584
3734.2214,2.8305389168196537,1.4858491506186655
3735.0803,2.8279100620558575,1.4994468385657997
3735.9417,2.8263340148407816,1.4157238739507556
3736.8013,2.8252088269183058,1.4624744393611948
3737.661,2.8238018354544576,1.4561419389246208
3738.5227,2.8214373746394847,1.4615640059008341
3739.3828,2.817654647935423,1.6670266425541767
3740.245,2.8123349871443772,1.459493175967481
3741.1055,2.8060295701864595,1.623263213141823
3741.9683,2.799930299423503,1.4536416800886838
3742.829,2.795469465756649,1.4071077509465209
3743.69,2.7933002791679558,1.5314321486530598
3744.5532,2.7929357828932266,1.4612262906350575
3745.4148,2.7933453605044427,1.5606447444239988
3746.2786,2.7939516881864175,1.5339670356486126
3747.1404,2.7949055642115743,1.566708685664134
3748.0044,2.7964899821418725,1.5283438216449214
3748.8667,2.798492834272443,1.399476958866831
3749.729,2.8002923320277358,1.6166676229408485
3750.5938,2.8013392248344147,1.5434351082496978
3751.4565,2.801480007898988,1.6761075165781416
3752.3215,2.8009197181900465,1.3353966042496392
3753.1848,2.7999734070312976,1.5351367109045075
3754.0503,2.798888339626795,1.413301287948382
3754.9138,2.797816335750083,1.2797836125572815
3755.7776,2.796776453271839,1.6814956629346143
3756.6438,2.7956368567993435,1.3883690987861381
3757.508,2.7942183393561324,1.4960737983487564
3758.3745,2.792515138673756,1.4526639540320332
3759.239,2.7908743138345637,1.8332435634276125
3760.106,2.789784680395493,1.7110472849862592
3760.971,2.7894747193143803,1.4572836644383038
3761.8362,2.789594492057947,1.6367850569017655
3762.7036,2.7893689047388097,1.295262026339767
3763.5693,2.7880672634583017,1.5869743040092865
3764.437,2.7853633450786295,1.4762954488684812
3765.3032,2.7813886500378717,1.6032208884431867
3766.1714,2.7765912715071495,1.5178475664743551
3767.0378,2.7717959588981667,1.5004570460327393
3767.9043,2.768071951028807,1.5344582280180867
3768.7732,2.7663758497671687,1.4251808697836634
3769.6401,2.7669496124558384,1.5557296354150931
3770.5095,2.768906698920937,1.5462697708823847
3771.377,2.770391374130961,1.5978977240126817
3772.2466,2.7693157524241068,1.7263770635276554
3773.1145,2.764350042446194,1.4532759689854866
3773.9824,2.755729950085331,1.993796842684823
3774.8528,2.745363862799893,1.418828905150108
3775.721,2.7362095065166203,1.675441382592527
3776.5918,2.7307573687360307,1.5532099273769613
3777.4604,2.730043468890781,1.4085787214789331
3778.3315,2.7332390332725867,1.7355812383404357
3779.201,2.73828540796922,1.4102525630434555
3780.0703,2.742843272956973,1.827697863454989
3780.942,2.7450424852688378,1.450409138034544
3781.8118,2.7440562061259604,1.5674535605014854
3782.6838,2.7404931440347693,1.5028589527036273
3783.554,2.7361552978235464,1.7074987485350024
3784.4265,2.7329454292940487,1.7497625394875698
3785.297,2.731818702809116,1.7682544179708575
3786.168,2.7324769738150723,1.456603963734236
3787.041,2.734054789641404,1.5046266808587434
3787.912,2.7357397238892798,1.7806137938193851
3788.7856,2.736876573405093,1.4536819271956172
3789.6572,2.736809581985607,1.4923447722624723
3790.531,2.7351066735700176,1.5852591700596623
3791.403,2.731993053809763,1.4712875282783358
3792.2754,2.7284173719827893,1.7088524717035705
3793.15,2.725544622083008,1.8319153996667734
3794.0225,2.723994949021166,1.5909521111050102
3794.8972,2.7233596124849964,1.6687617991970303
3795.7703,2.722491282214371,1.7173860851526452
3796.6455,2.7202053922691922,1.9335111022646487
3797.519,2.715907169650914,1.5558282943452428
3798.3926,2.7096764448225725,1.5917249970799234
3799.2686,2.702049521554022,1.7879503498662508
3800.1426,2.6939347529082807,1.748687450002011
3801.0188,2.6864582114611935,1.7426863958719732
3801.8933,2.681019218589743,1.6219629359513792
3802.77,2.678837346878531,1.7234074737180913
3803.6448,2.6805467656809707,1.3481926486471676
3804.522,2.6857789597615946,1.9129495221258315
3805.3972,2.6931258734840466,1.7588646212233898
3806.2727,2.700726116219316,1.722741701875252
3807.1504,2.707008709500789,1.7530029349441092
3808.0261,2.711098736280558,1.6376329315455034
3808.9043,2.7127538610692623,1.6167354231681572
3809.7805,2.7120000342893817,1.4139403239459676
3810.659,2.70926922209155,1.4265215318922078
3811.5356,2.7056279303946065,1.641117224360335
3812.4126,2.702417050831901,1.8213370453032656
3813.2917,2.7004181216180374,1.771466586599859
3814.169,2.699306701457446,1.641067093136567
3815.0483,2.6979490599109774,1.9545959480290427
3815.926,2.695310871575197,1.8054632365054406
3816.806,2.6910834779542636,1.620863510035648
3817.684,2.6858427282367314,1.6740932430934865
3818.5623,2.6807203669288886,1.5657837453218428
3819.4429,2.6769921274628716,1.8072027696888484
3820.3215,2.6756126862501026,1.6788764801761857
3821.2024,2.6767637821819816,1.835250867845053
3822.0815,2.679709413737545,1.5541877606206966
3822.963,2.682835821777126,1.568416939534361
3823.8423,2.683910723576806,1.6898372574061216
3824.722,2.6808762902880408,1.522464452264124
3825.604,2.672808675632241,1.617153815404553
3826.4841,2.6606402500612756,1.8059037284871327
3827.3665,2.6466896595412432,1.7866071678981013
3828.2468,2.633854283091503,1.7923809497459338
3829.1296,2.6243730173142557,1.6219098050002336
3830.0105,2.619485678776691,1.5676741785485346
3830.8916,2.619056981556285,1.7529714762843276
3831.7751,2.6217525249436853,1.560905057709075
3832.6565,2.6253643965112228,1.79257743538891
3833.5403,2.627617066728693,1.913558076220092
3834.4224,2.6269521659236785,1.9036960533791638
3835.3064,2.62306398994224,1.8026723079967883
3836.1887,2.616877525159048,1.6400728895212935
3837.0713,2.6100142343795465,1.8457099271217003
3837.956,2.6041403532572236,1.6804920676018824
3838.839,2.60050295365349,1.6016024855914823
3839.7244,2.5997054844710212,1.8053009533012452
3840.6077,2.601840334949651,1.9001556110374915
3841.4932,2.6064651324274215,1.5751933965045803
3842.377,2.612490869185209,1.7326460435503457
3843.261,2.6184805183240956,1.6842261497817845
3844.1472,2.6233203249999533,1.6053235258745644
3845.0315,2.6268267753664682,1.79836625587723
3845.9182,2.629730699658727,1.5663887824242284
3846.803,2.632850636536313,1.8893561808263417
3847.69,2.636536215926436,1.6526340307565497
3848.5752,2.6406622285949477,1.7776695659375077
3849.4604,2.6451236189311147,1.6815315584647061
3850.3481,2.650020502742909,1.6071175369163069
3851.234,2.6553679657350524,1.7969888312624342
3852.122,2.6608150129223755,1.6298534428716747
3853.0083,2.665488805553948,1.5994759810189323
3853.8967,2.668477243850279,1.6031064750852748
3854.7832,2.669257069851394,1.5790012884408198
3855.6702,2.6679337474410536,1.7166183537080755
3856.559,2.664965269681529,1.5058279119072533
3857.4463,2.6608693279798303,1.768842914946454
3858.336,2.65605992200798,1.8068520889979671
3859.2234,2.6509801405609688,1.646028349417909
3860.1135,2.6459753725327935,1.7896570919015202
3861.0015,2.6412297355022,1.5913664459540873
3861.8896,2.636626975390557,1.7407191049296467
3862.7803,2.6320648775611213,1.7082833705382094
3863.6687,2.627826687239113,1.7108579062220788
3864.5598,2.624474557799002,1.750848095357202
3865.4487,2.6224868173076668,1.618670751276238
3866.34,2.621745264185372,1.7864564966240444
3867.2297,2.621541626038235,1.7903471312350503
3868.1213,2.6209174076184127,1.743589631078443
3869.0112,2.6191778272892297,1.8748453228127708
3869.9014,2.616277636544739,1.6866409188488023
3870.7937,2.61293208439828,1.625722891586476
3871.684,2.610319240987977,1.603000656270215
3872.577,2.609257958131249,1.7094876571955981
3873.4678,2.609473081932428,1.7331084000736903
3874.361,2.609537303039441,1.7756223185066409
3875.2524,2.607889388663486,1.4449092467347824
3876.1438,2.604114494352138,1.9083229279047602
3877.0376,2.599222114609976,1.7149433830701657
3877.9297,2.594649720117332,1.9144633552278076
3878.8237,2.590782030130514,1.7320278665737845
3879.716,2.586601348165703,1.5812410289410948
3880.6108,2.5804785992076336,1.6563566764289506
3881.5037,2.571511964159981,1.5982760191530123
3882.3965,2.559959207872846,1.439438104080823
3883.2917,2.5468105125847846,2.0029836780838552
3884.185,2.533142627921104,1.81662309205758
3885.0808,2.5194299866690555,1.8845160075856537
3885.9746,2.5058593462704866,2.2101390960550513
3886.8706,2.492483589239535,1.8168366630180914
3887.765,2.47997994660303,2.099582814391428
3888.6592,2.4696316804567657,2.134181198363134
3889.556,2.4629964473694814,2.0662676130029127
3890.4507,2.461132575662348,2.0905565089026372
3891.348,2.464008145008902,1.9939171751191709
3892.243,2.470772685021167,1.7532919194665455
3893.1406,2.4804580917546355,2.036882525861017
3894.0361,2.4921702061163478,1.9498570893125455
3894.932,2.504976557561119,1.8801647090853013
3895.83,2.5174623510522083,1.8266131185888763
3896.7263,2.5278599773681774,1.8382220110427785
3897.625,2.5351363994490064,1.9685968873614688
3898.5215,2.5396749591356644,1.6671715667814577
3899.4207,2.543563663257326,1.7570810123125267
3900.3176,2.549653855558325,1.9332665848654023
3901.2148,2.560223111990438,2.034664978855727
3902.1145,2.575774972992115,1.8663484530829098
3903.0122,2.5946720267358416,1.946240762045398
3903.912,2.614375921928397,1.7121518081605809
3904.8103,2.6325563837907935,1.5832658044590344
3905.7107,2.648240071050608,1.56929348356255
3906.6094,2.6612273123764916,1.6822717502885787
3907.508,2.671455780788832,1.5582025470813874
3908.409,2.6784083655179125,1.576017643352887
3909.308,2.681512090903818,1.6078569827402935
3910.2097,2.6810221790239948,1.674363867951471
3911.1091,2.678277523750023,1.5860571052083154
3912.011,2.6752774517352833,1.6130449430317497
3912.9111,2.6739567298758384,1.8460305146240752
3913.8113,2.6754881394129115,1.858412316593199
3914.7136,2.679975826240667,1.5923487416252335
3915.6143,2.686446296043212,1.7020639342956005
3916.517,2.6933986556007583,1.4522545154248019
3917.4182,2.6994692073046505,1.6063165709775498
3918.3215,2.704157090299635,1.621900289159174
3919.223,2.707712346730609,1.7510905873859706
3920.1245,2.710525080479764,1.7375828350047111
3921.0286,2.7123224702331967,1.6521160164372914
3921.9307,2.7121308593418445,1.6954229441833233
3922.835,2.709153238992576,1.733014618653519
3923.7373,2.7038050939241787,1.6273527647680417
3924.642,2.6978732046367675,1.6274985981663699
3925.5452,2.6936862172378113,1.7606875351309752
3926.448,2.6926771185536214,1.7337162423655335
3927.3535,2.6947329743567283,1.8152613856773285
3928.257,2.6985079320060223,1.4978898794001443
3929.1628,2.7023711926684846,1.530424882650247
3930.0667,2.704999926476954,1.493694394878878
3930.9731,2.7055195465558133,1.8803169115546372
3931.8774,2.703363828716434,1.5216757580450708
3932.782,2.698431589561336,1.5562723043653497
