wavl,flux,ivar
3566.9744,0.3997110784295551,54.00147267863649
3567.795,0.3973710141245308,126.24714761892506
3568.6177,0.3949526288165412,34.64754270373244
3569.4385,0.3921568855391889,112.69183850678175
3570.2617,0.38896762996938233,44.304086645848656
3571.083,0.38569668355002046,65.47633634745272
3571.9065,0.3826606549341811,180.9559032193017
3572.7283,0.3801108471705218,43.42557685544781
3573.55,0.3783257270443361,77.08018283219846
3574.374,0.3776970434894068,90.79695043706502
3575.1963,0.3784178026437588,85.97702035732833
3576.0208,0.38015369559087997,84.04608897418353
3576.8435,0.382193728541769,74.54471640939079
3577.6682,0.3839953002755676,65.0197245922652
3578.4915,0.3854653005307146,90.03344255651298
3579.3145,0.3868833892200897,56.07887363897962
3580.14,0.38869657171951727,26.342533326119874
3580.9636,0.3914302346931119,53.82407781222201
3581.7893,0.39554403288626655,57.66672568554173
3582.6133,0.400882775852039,49.78122509667648
3583.4395,0.40632860300153945,55.12821512464329
3584.264,0.4100300188293145,45.45028777892263
3585.0884,0.4106026242653361,291.7862735303345
3585.915,0.4081138094467041,147.17678426778642
3586.74,0.40415202206862083,47.53089599856326
3587.5671,0.40072162361376945,74.80187992439694
3588.3923,0.39905274104456107,38.78716414126474
3589.22,0.39904448889290506,102.88587949163937
3590.0457,0.399665436605735,79.38626644045237
3590.8716,0.39971043564370684,50.389064627159215
3591.6995,0.3984830844313821,39.083598643476606
3592.526,0.39613109716484407,58.34253868942584
3593.3542,0.3934359450572733,94.2233617338312
3594.181,0.39123631507354056,69.46117030294556
3595.0098,0.3897754566586156,85.933600072253
3595.8367,0.38861557766830135,81.65408081154312
3596.6638,0.387095110508795,80.3343244936019
3597.4934,0.38499009609015916,55.23787539432962
3598.3208,0.3827340626403049,910.1733209808043
3599.1506,0.38098045325294944,53.333728464191665
3599.9788,0.38013863852442975,40.464800083905935
3600.8088,0.38025918125037705,64.53210962844729
3601.6372,0.3813769937725815,79.0750528843538
3602.4678,0.38377201837063046,214.060210338539
3603.2964,0.3877368201875736,154.40927189870519
3604.1252,0.39308158022441664,59.665047911931545
3604.9565,0.3988627109348659,123.51382811747922
3605.786,0.40374923729221635,35.03676278597051
3606.6172,0.4069568195093044,51.45923676672537
3607.447,0.40865043601521345,122.16812348662494
3608.2788,0.40972521391531325,24.02021146532271
3609.109,0.41103313246781,56.99879588919518
3609.9392,0.4127963978747325,27.944348959707522
3610.7717,0.41443864386014406,34.71767901040086
3611.6023,0.41485681063924534,55.320608663663975
3612.435,0.41307520178922663,37.21842640835643
3613.266,0.40892979979962985,53.765514771165236
3614.0994,0.4032252598320349,92.01658602495462
3614.9307,0.39722154471752086,130.2936432521849
3615.7625,0.39168518798828267,73.25396933415598
3616.5962,0.3866782535662741,63.52940265658219
3617.4282,0.3820672299717375,77.17993005851994
3618.2625,0.37796602766188214,48.15246210363165
3619.0947,0.3747533098274146,65.04260069299653
3619.9292,0.37260580568011237,123.22294926078568
3620.762,0.37141826887760504,63.103609080816135
3621.595,0.37088205948573755,37.48893049868793
3622.4302,0.3705423166301128,64.92638617965076
3623.2634,0.36978323971154664,37.98647796506726
3624.0989,0.3681150514657853,35.772368444548654
3624.9326,0.36572404366271316,69.24857197868494
3625.7686,0.36359224144585667,134.6497509800255
3626.6028,0.36291718479624063,426.90136554159346
3627.437,0.3641242690147123,71.75917736972741
3628.2734,0.36647931133224515,80.18903795579533
3629.1082,0.3686205637374371,719.0687417910912
3629.945,0.36971189178274766,71.212280038383
3630.78,0.37009966505696856,62.17047812012035
3631.6174,0.37094976637449495,83.67166213168716
3632.453,0.3731131863740984,157.2651876249615
3633.2883,0.37635990824631593,30.510487722224273
3634.1262,0.3796463768291233,57.60991814777193
3634.9622,0.38197621350450117,33.67100333258866
3635.8005,0.3829430376293057,121.04634826124298
3636.637,0.38232599101631176,187.91486694831337
3637.4756,0.37962511628294887,55.663349545828346
3638.3123,0.3743817871169633,64.08311272995172
3639.1492,0.36702104872050834,67.82978045340184
3639.9885,0.35917836641758766,64.87915422639821
3640.826,0.35297176686663606,169.09511418857124
3641.6653,0.3496368723320001,117.60211053635304
3642.5032,0.3490671543259365,71.35935759381579
3643.343,0.35012008045305615,114.11198261467646
3644.1812,0.351382914193292,56.85039993611994
3645.0195,0.35177670440526837,76.12641243726813
3645.86,0.35088209137673987,47.634269772603815
3646.699,0.3490683000698484,59.47142763059341
3647.5398,0.34727590592657837,88.02590800854607
3648.379,0.3465057017971474,57.33203486927748
3649.2202,0.34724223661247466,100.90379865484331
3650.0596,0.34926738571636856,94.46345303660709
3650.8994,0.3518573334516974,164.49093261143997
3651.7412,0.3540777582011981,111.73612814410383
3652.5813,0.355064964793423,56.78163595315567
3653.4236,0.3544113038592837,37.703394098151804
3654.2642,0.3524211256384509,46.76151934081608
3655.1067,0.3499286662952589,74.27927421570715
3655.9475,0.3476961956866369,129.12903340969856
3656.7886,0.34586486158440344,40.00131284080787
3657.6318,0.3441355132112231,94.92567896049096
3658.4734,0.3424797061577567,121.41410786711742
3659.317,0.34159012253258986,139.08678675503552
3660.1587,0.3425640481713284,166.34181777132267
3661.003,0.34597466463921406,58.15156526280811
3661.845,0.35116058197707606,116.66422019251162
3662.6875,0.3565047717200567,288.7770168151547
3663.532,0.36042351192705047,54.89533145024201
3664.3748,0.362422147540423,159.49786863958155
3665.2197,0.3634769209957073,88.23286908264805
3666.063,0.3653189535622949,211.4775423145431
3666.9084,0.36923373210832533,40.74160295217035
3667.752,0.3750458123875669,40.77939147490289
3668.5977,0.38120387832385555,46.896732915901296
3669.4417,0.3856973211792159,77.58308461688692
3670.286,0.3873870099512491,48.4344653834572
3671.132,0.38640717049357676,52.51508687390986
3671.9768,0.3836617861393319,54.02748155225685
3672.8235,0.38001562099536795,66.5248987965715
3673.6685,0.37610507657231684,83.01777386631552
3674.5156,0.3725507300284764,59.554865338741074
3675.3608,0.37010766047465377,49.628433144248056
3676.2063,0.36924669430487256,78.04362887960208
3677.0542,0.36985348083360264,276.9811395345448
3677.9,0.37130298176869625,59.00789198038275
3678.748,0.37285302742239795,285.20624258751
3679.5945,0.37388398827633434,69.42157693951327
3680.4429,0.37400705591870426,63.67815611498039
3681.2896,0.3731399263300301,29.568801284731013
3682.1365,0.37161603847228825,80.51093131953665
3682.9856,0.37010553939130386,68.13028484592617
3683.8328,0.3693080009418543,217.54329241975358
3684.6824,0.3695560628658415,96.56947168128906
3685.53,0.3706906252380206,111.15523269939823
3686.38,0.37225404436676957,47.92911100472439
3687.2278,0.37376391752900007,41.80300853462105
3688.0762,0.37480891699430785,84.50064552101256
3688.9265,0.37483482338587126,37.03996249330495
3689.7751,0.37303006798987715,69.97594163816996
3690.626,0.3686779368270783,45.30862833177459
3691.475,0.36197291830755873,77.97566336657253
3692.3264,0.35440420174916765,73.5340031715229
3693.1758,0.34832172652637544,152.3368400204207
3694.0254,0.3455001681658778,118.15658877706204
3694.8772,0.3461794704530097,48.19620720752886
3695.7273,0.3490143602300735,39.5718316354218
3696.5793,0.3520021223538946,56.21925229312301
3697.43,0.3535941875628589,54.387398422418244
3698.2825,0.35339693337625455,199.75659616434177
3699.1333,0.3520091790227932,83.67471387422744
3699.9841,0.35032675262014307,80.73787847962825
3700.8374,0.3489503289010695,156.1317383126246
3701.6887,0.3481706981791435,53.71343784749499
3702.5425,0.34828014414126307,150.7437254146474
3703.3943,0.3497572554894989,88.4588637670601
3704.2483,0.3530411793056951,59.69513145887046
3705.1003,0.358047144361645,72.90148152639556
3705.9526,0.3638525938563151,64.46040929941034
3706.8074,0.36867107674987026,93.56917793859351
3707.66,0.3703932848648479,74.17979001878382
3708.515,0.36777738776484037,38.75308131635115
3709.3682,0.3613877429464952,329.37292864555377
3710.2234,0.35346563830916394,114.97924646812493
3711.0771,0.34675797044437207,54.28171654658474
3711.9307,0.3430031293232489,44.10472657979925
3712.7866,0.3424902660210654,67.90422982187613
3713.6409,0.3444862155271492,99.3277162790254
3714.4973,0.34783730300677584,170.9174533632405
3715.3518,0.3512206563614294,34.294836378040394
3716.2085,0.3533571098495236,96.16715473604275
3717.0635,0.3533731447404358,38.233751666772605
3717.9185,0.3513478076660813,54.71228237973858
3718.776,0.3483353642837971,44.95892841755831
3719.6313,0.34579244731568415,125.27893998423934
3720.489,0.34469224506788615,255.01227732329767
3721.345,0.34517713703512093,75.55784195525318
3722.2031,0.34676850904157197,72.13248448410452
3723.0593,0.34879081327329076,77.5769663453202
3723.9158,0.35061052733334264,71.17830417396783
3724.7747,0.3516429285718081,89.61044069535318
3725.6316,0.3514063306053042,88.40400654454626
3726.4905,0.3497383960889075,67.13388964733973
3727.348,0.3470325786095785,82.91841349410016
3728.2073,0.34423993306667483,37.08008394764815
3729.065,0.34252569947069506,96.07247528521636
3729.9229,0.34257855578860213,125.4136450340683
3730.783,0.34420866273792144,58.42127697341899
3731.6414,0.3464742306559756,71.39103416286304
3732.5017,0.3482725645576981,47.63778723268384
3733.3604,0.34879566760185443,326.96100139051214
3734.2214,0.34775007476963826,80.55344176743347
3735.0803,0.3453929022534249,123.58626120428427
3735.9417,0.3424185661573805,87.92632203950643
3736.8013,0.3396699063786679,170.4938018848179
3737.661,0.33765815992791476,76.30739762875513
3738.5227,0.3364149374496885,143.91870597602815
3739.3828,0.33569879449474327,138.9365370231859
3740.245,0.33525076149458916,165.43322602926017
3741.1055,0.33485391439583384,70.93520534227993
3741.9683,0.33419609862882693,71.49137594742744
3742.829,0.3328536451443639,70.30509150370219
3743.69,0.3304827064677513,49.21075682923353
3744.5532,0.3271401442742419,59.99371729952787
3745.4148,0.3235357875965105,117.4137249937497
3746.2786,0.32082633352080886,209.3153756105019
3747.1404,0.3200967312827408,190.74058703439078
3748.0044,0.32167431230715915,135.28920424876466
3748.8667,0.32495201575788407,170.23523665973556
3749.729,0.32884182661734745,188.73297759296634
3750.5938,0.3324831954889407,46.00504109296118
3751.4565,0.3356301357875089,229.05506693026197
3752.3215,0.33858254336858046,159.56876920826784
3753.1848,0.3415944565572871,142.91689529783562
3754.0503,0.34447666099527857,31.527980558505526
3754.9138,0.34656299232846927,387.22109225679355
3755.7776,0.3472239288862576,106.7734882367759
3756.6438,0.3463252505126009,99.02293985939716
3757.508,0.3443747263717236,75.23217430303107
3758.3745,0.342188390593856,46.21967690159836
3759.239,0.34044825225921677,42.50801283876996
3760.106,0.33944070024234074,55.66750852776387
3760.971,0.3392498590886094,46.76559578444105
3761.8362,0.3399999086664843,50.56171285787561
3762.7036,0.34184158535378995,72.69108168844404
3763.5693,0.3446130706377575,44.778835773639486
3764.437,0.34767059986768123,81.23409169040771
3765.3032,0.3500226462482838,99.32440886676486
3766.1714,0.35079027272903085,72.23489947190231
3767.0378,0.3495878781387949,58.587072504707336
3767.9043,0.34673935631842173,82.63995954149473
3768.7732,0.34308574835505545,114.24886926549529
3769.6401,0.33955626896277874,124.48535915705712
3770.5095,0.3367301653421795,84.37446167077678
3771.377,0.33492397428439435,99.16790183812225
3772.2466,0.334319418998011,123.62842149839148
3773.1145,0.33494059083759337,101.19163852555124
3773.9824,0.33642061888758723,116.06195979870523
3774.8528,0.33803967564325754,53.38679889590575
3775.721,0.33904692633742445,141.7944923115594
3776.5918,0.33901233841132794,92.04213794936437
3777.4604,0.3378616396730514,45.97790958108496
3778.3315,0.3357544048717934,130.0066362096455
3779.201,0.3330021013060771,176.75371976498326
3780.0703,0.32996924282961826,46.97583892907773
3780.942,0.3269969578524041,156.6457181774731
3781.8118,0.3244207681392502,110.90342643912012
3782.6838,0.32270403544575327,42.38996209808913
3783.554,0.32265947223837876,38.0575074565654
3784.4265,0.32519857481531317,83.8649958459881
3785.297,0.33061712243657604,163.90244302081902
3786.168,0.3380394743143117,114.08905670036907
3787.041,0.3456212965405709,220.5049780354393
3787.912,0.3513904439970593,109.59321897060869
3788.7856,0.3542043027544395,66.04518757471335
3789.6572,0.3538735211830024,47.7237349524521
3790.531,0.3509605005822218,73.48209407668752
3791.403,0.3464400861661212,73.33464813190292
3792.2754,0.34140983913271855,121.04817405636858
3793.15,0.33686653556092094,194.23291593907845
3794.0225,0.33349418292391886,113.31278048989464
3794.8972,0.33139662718472274,78.09823050561
3795.7703,0.33015569460826344,90.2618892452222
3796.6455,0.32907727106688667,60.92351793630552
3797.519,0.3276754113514168,83.88150981457983
3798.3926,0.325944235098555,62.913102884751574
3799.2686,0.3242910078568854,169.49532574275736
3800.1426,0.32324652028652695,69.42059694078874
3801.0188,0.32313495625301186,115.86367332825007
3801.8933,0.32391677935098906,79.60928659467693
3802.77,0.3251976572925113,91.9837998386262
3803.6448,0.3264296610997037,1752.6605958327873
3804.522,0.32721496508656894,105.84230983898239
3805.3972,0.3274417369768147,69.0547642027195
3806.2727,0.32724626913636795,48.95493052558023
3807.1504,0.326826566414583,174.29195916741497
3808.0261,0.3263014062384241,105.44094173949297
3808.9043,0.32570872311520116,59.350797389586496
3809.7805,0.3251675913433538,160.36889880858428
3810.659,0.32498667573074086,71.10319625195436
3811.5356,0.32559860326426027,321.40538053256535
3812.4126,0.3273176709832549,78.65970188474913
3813.2917,0.33005930940617173,131.64731670023502
3814.169,0.3330908394313716,86.87617592970345
3815.0483,0.33517501349200596,128.1228833970794
3815.926,0.33517083773815615,51.67580053487308
3816.806,0.3329583936163704,81.82553667155038
3817.684,0.32976597217074255,117.4890305367594
3818.5623,0.3273911202079629,64.48693447843294
3819.4429,0.32690597554913803,201.12775995299538
3820.3215,0.3279207499059922,75.43365160060179
3821.2024,0.32905646559920376,49.014133370152976
3822.0815,0.32918065313732914,58.31142431608387
3822.963,0.32829867736116464,102.30149350864103
3823.8423,0.32736733580837823,90.63402077692209
3824.722,0.32737779657755517,80.7939260447754
3825.604,0.3286744998224683,183.2192072176763
3826.4841,0.33092853412658196,62.10128858188197
3827.3665,0.33353694847483556,58.705471792506856
3828.2468,0.3358340708160092,90.0916456002279
3829.1296,0.3371608774205196,61.854465386963405
3830.0105,0.3369018359847722,47.3528743480827
3830.8916,0.3347976237423792,61.659180095390276
3831.7751,0.3312206783504193,91.463172125054
3832.6565,0.32720060742465734,70.89418633251996
3833.5403,0.32388857844736096,143.32953732319606
3834.4224,0.32194862046796513,90.39797645937833
3835.3064,0.32108508412008807,135.46122512615995
3836.1887,0.3203184280123935,68.06929479337718
3837.0713,0.3187900895725937,49.09142904407982
3837.956,0.3165613996567351,70.61023262175351
3838.839,0.31473086702378356,130.48362710127262
3839.7244,0.31469095072003384,168.24429903348454
3840.6077,0.31718474383359685,430.85207869824984
3841.4932,0.32181430452081355,61.99638890567713
3842.377,0.3272588792864043,75.77478060753222
3843.261,0.33211179087989334,67.4218048937206
3844.1472,0.3355731525553177,69.19970944201964
3845.0315,0.33760906565855975,135.8292322948412
3845.9182,0.33855214328940025,96.16798222363816
3846.803,0.3384282794313481,71.49077435633065
3847.69,0.3367706082266212,68.91700723629681
3848.5752,0.33307470682982027,52.08474169515785
3849.4604,0.32750581694520503,101.62934620000266
3850.3481,0.3212098061402684,52.28342605207877
3851.234,0.3159416162473867,76.63516365998767
3852.122,0.31306430604976937,58.46911616759095
3853.0083,0.31295582025962937,130.94388966746348
3853.8967,0.31493143014140706,140.39510721954633
3854.7832,0.31776355658913485,43.41027920887056
3855.6702,0.32031133343640644,218.33667741227976
3856.559,0.32188291835927935,90.73784595711783
3857.4463,0.32230857513154193,89.93097756185736
3858.336,0.3218043833328756,108.62153803258732
3859.2234,0.32071990082369456,102.90745999715934
3860.1135,0.31934991766128007,173.27078460807857
3861.0015,0.31792281461396904,121.77938953146254
3861.8896,0.31664999067117666,67.74133193496928
3862.7803,0.3157933823943287,95.80668392796204
3863.6687,0.31557720476432366,64.70500891362997
3864.5598,0.3159216340496863,89.0615473407544
3865.4487,0.3162580461591143,210.879612042965
3866.34,0.31577324615254837,53.60730486344222
3867.2297,0.31412604900369445,242.9398352337655
3868.1213,0.31203332175434983,62.95665134589997
3869.0112,0.3110342506996665,363.50896156722723
3869.9014,0.312389333255128,189.49272172279194
3870.7937,0.3161433434738328,81.13815223167757
3871.684,0.3210561833318994,82.19019670334612
3872.577,0.3255077963661107,78.80363765417262
3873.4678,0.32833255146520296,70.53354053582318
3874.361,0.3292738777438212,31.724398126056442
3875.2524,0.32873982279352637,77.69788479126764
3876.1438,0.3273867304888708,105.92165094494817
3877.0376,0.32574669310818777,42.20842938887808
3877.9297,0.3241485087863008,64.73337792053395
3878.8237,0.32277716123095995,180.64263809934556
3879.716,0.3217842987068373,63.45471898426323
3880.6108,0.32126987966784915,72.05553817456241
3881.5037,0.32128642054008805,41.39207924672187
3882.3965,0.3218437391451606,83.50524208233087
3883.2917,0.3228868504145779,72.27779083970145
3884.185,0.32415200421180285,69.32008404917862
3885.0808,0.32508446842435024,149.70008620151407
3885.9746,0.32494731741617505,119.25758603087331
3886.8706,0.3231948534416909,101.62954105434744
3887.765,0.3198409612355711,75.8209521932187
3888.6592,0.31553120561925274,96.00783925512138
3889.556,0.3112737076830041,102.1180602552756
3890.4507,0.30800091719818146,75.22478168750085
3891.348,0.3061177826435765,69.00196793765306
3892.243,0.3055558411743057,240.87604410336564
3893.1406,0.30604527730703235,187.94856874021133
3894.0361,0.30734549389368915,101.97790800120765
3894.932,0.3091057439264417,37.74965885876132
3895.83,0.31064876026136573,45.63264265241693
3896.7263,0.31114707317337953,128.62018025257805
3897.625,0.31024747019869586,141.3419157642989
3898.5215,0.3085353069151345,79.16961117325378
3899.4207,0.30733916898894875,123.79422174995459
3900.3176,0.30794622943793903,274.7163509952128
3901.2148,0.3107052406129078,107.40127351491248
3902.1145,0.3147992135264623,97.04573779725735
3903.0122,0.31879982234733056,134.4050385107297
3903.912,0.3217507513828428,69.8672775121158
3904.8103,0.32372647679050426,65.14895372960177
3905.7107,0.3256788649129195,404.4209765062595
3906.6094,0.3286279883897209,70.21097601915616
3907.508,0.3329991550907729,71.88034243036415
3908.409,0.33841391771329515,118.70565147105144
3909.308,0.34388565225359297,63.90291199060927
3910.2097,0.34838494036189477,76.71594695556095
3911.1091,0.35124637035416906,70.92422779497056
3912.011,0.35250485338847554,90.29430274437948
3912.9111,0.35262652456598403,77.50604908213653
3913.8113,0.35198444488771347,104.08519368095696
3914.7136,0.35043522426163126,62.10414092429069
3915.6143,0.3475167547771405,71.76163163492461
3916.517,0.3430478347157361,54.54844086150432
3917.4182,0.33762318978581957,52.1185828699256
3918.3215,0.332290774006123,100.33022861465876
3919.223,0.32791557916613623,145.82464323821716
3920.1245,0.32464208165350944,65.76533760265131
3921.0286,0.3221414549393378,95.34980370758936
3921.9307,0.32006786847015917,123.41556075856201
3922.835,0.3181326545690515,45.85938055417319
3923.7373,0.31596375405324517,277.6945283337432
3924.642,0.31309751264516567,50.655882534265636
3925.5452,0.30942875937249503,125.58107896477198
3926.448,0.3054931509009115,170.0775021226081
3927.3535,0.3022963042863975,105.55504421475057
3928.257,0.3007999482151029,103.54086593821765
3929.1628,0.30139983164988743,76.45911035550392
