wavl,flux,ivar
3566.9744,2.156273100435359,254.56396099612874
3567.795,2.158008292561712,232.55325431303345
3568.6177,2.1539321616845437,244.20852520533043
3569.4385,2.145250082121242,238.90705031970313
3570.2617,2.133907193114695,283.04298854550854
3571.083,2.1224335518465924,291.29651429875196
3571.9065,2.1128929143767454,284.2500410308344
3572.7283,2.106136149368975,298.4895330503464
3573.55,2.1013772422267603,260.7851181642693
3574.374,2.097019291511486,239.56299604996826
3575.1963,2.0918661074859726,296.7549369544252
3576.0208,2.0858167514330437,279.15198309456
3576.8435,2.07984904600264,255.73151125408248
3577.6682,2.0751069152519728,235.51013776068856
3578.4915,2.0721114019235665,270.75766397980686
3579.3145,2.0703245560587415,236.64712187101804
3580.14,2.068556752643646,287.20899798248394
3580.9636,2.0658190615532126,271.3491278724527
3581.7893,2.0620899128082333,260.53642107440965
3582.6133,2.058634958125234,279.4412651202978
3583.4395,2.0574094327004793,289.0354984623491
3584.264,2.059896897814024,286.0724087157828
3585.0884,2.0659678563415587,292.7615862269348
3585.915,2.0738471282378885,251.34916889500954
3586.74,2.0811019228284193,308.9603428432041
3587.5671,2.0860464989485665,254.68669321655386
3588.3923,2.08801920751518,270.69333637222775
3589.22,2.0869739055530037,291.4339510207687
3590.0457,2.0829796494713686,252.51740187336546
3590.8716,2.0763817200957493,224.37210653099214
3591.6995,2.0681173953916114,321.2970563902711
3592.526,2.0595461226725233,260.2295216478895
3593.3542,2.0515896692821194,300.1251199838546
3594.181,2.04443960476335,271.21861848791883
3595.0098,2.0377633155104418,268.04773634249835
3595.8367,2.031544958317967,315.90231746210003
3596.6638,2.0263117312168584,253.03662138198612
3597.4934,2.022904134772814,299.81561845923676
3598.3208,2.021869762089639,334.324468515547
3599.1506,2.023051193649464,281.38721740056104
3599.9788,2.02584815623508,284.8910230762272
3600.8088,2.029767648761961,338.8814898767681
3601.6372,2.034588391611858,258.8369439226552
3602.4678,2.040123038289099,262.2761654424464
3603.2964,2.045819189732547,295.2588395399365
3604.1252,2.0510590644967386,248.99339741488615
3604.9565,2.0556604607522795,266.58720662427817
3605.786,2.060010627614819,264.35505634389926
3606.6172,2.0645302130106034,306.63810387687136
3607.447,2.0687327195877323,242.42102962566338
3608.2788,2.071228678270936,275.94681851245
3609.109,2.070622613442282,227.49073015558588
3609.9392,2.0665494387295897,263.9666946742614
3610.7717,2.0596219293458127,283.2755892387189
3611.6023,2.0507227949211124,240.32500564481145
3612.435,2.0403748586171235,253.9279623411178
3613.266,2.0292255836329574,273.5568911478208
3614.0994,2.018345908978797,299.2944146390327
3614.9307,2.009241341813305,297.05142931509664
3615.7625,2.002859437248678,293.2716419670932
3616.5962,1.9990992900093292,301.3825619143441
3617.4282,1.9969351721933393,276.8924115529738
3618.2625,1.995049401726076,291.4332487173193
3619.0947,1.9925402535387926,289.3905906281342
3619.9292,1.9891816746446807,263.5276969596602
3620.762,1.9854521606667217,266.76778506682354
3621.595,1.982238544444738,332.0768533690819
3622.4302,1.9804478152799447,312.1147723897767
3623.2634,1.9805383718705418,340.37422483699356
3624.0989,1.9822188272560186,296.4549531385504
3624.9326,1.9845801911952434,271.72071981806516
3625.7686,1.9866086688576028,321.34485259052997
3626.6028,1.9876983025896375,302.9222101655649
3627.437,1.9879360703126538,291.66406828997674
3628.2734,1.9878620113356211,291.6153051408082
3629.1082,1.9879380853628832,284.50419156248097
3629.945,1.9881251634574675,325.6568537870025
3630.78,1.987953795374945,300.9451541922104
3631.6174,1.9869679255497439,280.1403407682147
3632.453,1.9850216128800662,300.24569775546115
3633.2883,1.982123062298396,271.84370645095214
3634.1262,1.9782123015548465,263.8968359675844
3634.9622,1.9733611008670788,261.80017151698377
3635.8005,1.968047433140783,325.9451055998723
3636.637,1.963200113702941,316.7673227358863
3637.4756,1.9594849568391832,367.6677767968033
3638.3123,1.9568238925064136,304.41430172058637
3639.1492,1.9544662077376644,301.44820516413733
3639.9885,1.951758848684813,265.8294617684109
3640.826,1.9486935344044514,282.99608630383904
3641.6653,1.945662957822271,323.46639723341286
3642.5032,1.942996085726859,313.66293859371086
3643.343,1.9407526076212471,299.08304576957664
3644.1812,1.9389812564062998,339.6852174918689
3645.0195,1.9377827631970934,336.06074201808997
3645.86,1.9371556571456467,337.64404862893815
3646.699,1.9368418219807781,321.82154477591314
3647.5398,1.9363941307865147,294.2635964621266
3648.379,1.9354104534744039,298.9904215490519
3649.2202,1.9337424841741842,336.3907072096697
3650.0596,1.9316265641598722,321.8525482228299
3650.8994,1.9295619601621077,308.96906769747767
3651.7412,1.9280450693350994,308.4632067909368
3652.5813,1.9272682333424291,327.8606012843309
3653.4236,1.9269355000662816,355.0491351448411
3654.2642,1.9263492739125139,393.834228999008
3655.1067,1.924762780465482,273.365403106092
3655.9475,1.92196523436464,331.91837999318824
3656.7886,1.9186180064956684,356.3054548957317
3657.6318,1.9159529767180503,325.51610749173244
3658.4734,1.9149225191928563,376.5289886954821
3659.317,1.9154856138515441,353.2402119029115
3660.1587,1.916777816812533,327.92786824370665
3661.003,1.9179015162631936,355.7760663000906
3661.845,1.9185981989764915,314.7728769311004
3662.6875,1.9193672601318958,308.53612416454973
3663.532,1.9210113398303486,345.3363824117457
3664.3748,1.9240147294936965,291.4046043103162
3665.2197,1.9282241035757626,261.4385314192694
3666.063,1.9328790722757367,359.8599267323405
3666.9084,1.9369967977196139,326.8346223212379
3667.752,1.9395773145003539,300.9200797367362
3668.5977,1.939934319984222,292.8783545026921
3669.4417,1.9379830068515786,313.43354472184035
3670.286,1.9344745080360242,331.4986010339999
3671.132,1.9307806465613668,318.1511988536174
3671.9768,1.928330570782109,354.2199223691845
3672.8235,1.927922952419159,320.66085230562436
3673.6685,1.9294423624107309,300.4067373508392
3674.5156,1.931991666460552,321.0517780233882
3675.3608,1.9343329750421956,320.602523269884
3676.2063,1.9354385574221527,313.7220421892366
3677.0542,1.9347848428023553,300.19326841487486
3677.9,1.932441305631493,285.66121340575324
3678.748,1.9289012699623485,303.9388402501197
3679.5945,1.9248314268385536,338.52867350068146
3680.4429,1.9206884839267486,321.46205069726483
3681.2896,1.9166238918804777,324.81875632970264
3682.1365,1.9125626298503637,359.5881037898727
3682.9856,1.9085753792636817,347.0108074861091
3683.8328,1.9051029179618821,325.0908560814162
3684.6824,1.9026280137811837,312.6402906530797
3685.53,1.9011644095140576,341.92139743123255
3686.38,1.8999527529648836,336.7819703828259
3687.2278,1.8980457268670325,309.66524978632754
3688.0762,1.8952703852623742,336.6186173560098
3688.9265,1.8927012680043107,344.2092511756262
3689.7751,1.892062501270365,320.36479193915994
3690.626,1.8944471816438215,345.7121499415908
3691.475,1.8994265807264596,335.467391172605
3692.3264,1.9052206570924102,311.89377874461115
3693.1758,1.9096478505471453,302.4280282207615
3694.0254,1.9114276142148023,344.39444098787743
3694.8772,1.9107560862476265,306.700507784719
3695.7273,1.9090883148944389,308.4951578595533
3696.5793,1.9082209880467347,308.00768940961143
3697.43,1.9093621001992096,332.9229163721567
3698.2825,1.9127179053966523,334.74856383332667
3699.1333,1.9176693856548115,354.3670899931212
3699.9841,1.9231391809834237,306.43528251580483
3700.8374,1.9276221763749306,294.47908030224346
3701.6887,1.9292118648745487,293.69856916514277
3702.5425,1.9263504367587754,150.32509486296092
3703.3943,1.9188455572375296,337.38925797166854
3704.2483,1.9080470222382293,308.05037290568305
3705.1003,1.8959777746963107,361.59525219248917
3705.9526,1.8840033678657524,312.5319584864207
3706.8074,1.8727617059628348,354.69839928435573
3707.66,1.8628670491603971,343.8192375245227
3708.515,1.854920463704409,308.51456183746626
3709.3682,1.8491380529284742,309.0958463920338
3710.2234,1.8446752764195498,360.6062437987854
3711.0771,1.8401730438287598,298.73314696057383
3711.9307,1.8348024475712483,336.6214338261093
3712.7866,1.8289114999382745,377.8357667311776
3713.6409,1.8235977029365567,381.0078982273494
3714.4973,1.8195837352156248,347.0910951667174
3715.3518,1.8167820133283805,409.81159538569386
3716.2085,1.8145125653358758,394.76914451866196
3717.0635,1.812191149594149,372.95153835175586
3717.9185,1.809703500543501,385.45964618614545
3718.776,1.8074514449822416,356.7388809228098
3719.6313,1.806072563673427,415.9846549745122
3720.489,1.8059098573885959,383.7627273032993
3721.345,1.8066690094806228,321.99424454224004
3722.2031,1.8075471306939448,338.5010944506178
3723.0593,1.8078410108261918,338.53506200295084
3723.9158,1.8075041375529026,384.40456535468275
3724.7747,1.8070932036755538,357.24883158007947
3725.6316,1.8072462429700713,354.5710268007736
3726.4905,1.8082169777132802,343.42277402644663
3727.348,1.8098419741538525,390.1106863773016
3728.2073,1.811811337560594,369.81761959055524
3729.065,1.813844475076335,373.820247930082
3729.9229,1.8157119782988491,337.39553778108484
3730.783,1.8171056941565251,344.21479083706896
3731.6414,1.8175925669067763,338.28704139348764
3732.5017,1.8168018957435885,358.2741717648449
3733.3604,1.8147455318236854,349.41766807792914
3734.2214,1.8120171084578567,357.81171607769903
3735.0803,1.8096651495151608,346.77728653684517
3735.9417,1.8086371934268308,371.03202545127425
3736.8013,1.8093025322911116,344.1395718802571
3737.661,1.81124724149086,339.7392663726052
3738.5227,1.8135074500369717,372.57513290547547
3739.3828,1.8149182888513065,341.9628705429629
3740.245,1.8145044525703786,352.4324905296347
3741.1055,1.8118244709002387,336.38045453182906
3741.9683,1.8072527474696718,379.58896380402786
3742.829,1.8019352004553182,356.881244418236
3743.69,1.7970597363443057,427.8762761170159
3744.5532,1.7931251195508056,385.2702373050109
3745.4148,1.7898278850812737,341.0820555688976
3746.2786,1.7865912713426149,343.01948320095994
3747.1404,1.7832968346836648,365.10113954816444
3748.0044,1.780292599964272,390.0096431042234
3748.8667,1.7780289994069722,391.16241309012923
3749.729,1.7766942414423008,343.93211041461984
3750.5938,1.776315495401925,370.54054364686124
3751.4565,1.776931470612125,378.414534463539
3752.3215,1.7785538696162122,416.00793039261123
3753.1848,1.780977506429604,352.2447349907143
3754.0503,1.7837232108363907,362.7434660235637
3754.9138,1.7860833310007524,325.4008158798672
3755.7776,1.7873804552331178,364.8580021351505
3756.6438,1.7872565068798563,402.98756901461206
3757.508,1.7859844644121694,357.4961370113592
3758.3745,1.7844441937693574,371.69423453374964
3759.239,1.7836444593391367,350.16200290161015
3760.106,1.7840340671514763,402.64593087768156
3760.971,1.7852046542231066,376.4971090340574
3761.8362,1.7861792350503676,362.8922117509334
3762.7036,1.7859864266052605,354.66655804223876
3763.5693,1.7840743797389875,384.7475673152658
3764.437,1.7803873062770332,337.0704060772923
3765.3032,1.7753255391815976,361.62160105199945
3766.1714,1.769606254133704,342.07116345787364
3767.0378,1.7641937757180932,380.9599268569753
3767.9043,1.759966618745921,377.67511852669236
3768.7732,1.7574913649234882,407.0496040686045
3769.6401,1.7568667923804002,396.79102491931116
3770.5095,1.7576330309772916,360.3755541908617
3771.377,1.7588678731906853,376.62486310557364
3772.2466,1.759498320543577,389.90871488805107
3773.1145,1.758774494790192,316.2772986610152
3773.9824,1.7566143597900399,351.76916831227504
3774.8528,1.753496211662111,364.9218184732353
3775.721,1.7501797529372394,365.48410299767465
3776.5918,1.7474445503618137,366.23521779177383
3777.4604,1.7460335321108826,378.57577088432305
3778.3315,1.7463070408736447,384.9476491948328
3779.201,1.7479471638964976,355.53423730622353
3780.0703,1.7500751641225614,386.9802309166337
3780.942,1.7518847424696598,335.03913885740695
3781.8118,1.7531415162291728,363.0739373756655
3782.6838,1.7540812668501828,408.8853198941966
3783.554,1.7548495934155819,369.16090422722084
3784.4265,1.7552635178969573,408.4428007497974
3785.297,1.7550629893428924,421.81826237098056
3786.168,1.7543001338139002,398.03088592683554
3787.041,1.7533803580940446,328.39719504519036
3787.912,1.7527715456107669,407.31607323099115
3788.7856,1.7526038762498775,400.632915691152
3789.6572,1.7524713482425627,408.3540399551277
3790.531,1.751549397430102,366.46205891099527
3791.403,1.7490354196841833,368.15469859691
3792.2754,1.7446087408078117,389.1188399647915
3793.15,1.7386334022734116,361.46886065853187
3794.0225,1.7321021983175162,370.148464952702
3794.8972,1.7261859094204424,405.6424336329394
3795.7703,1.7218551942415388,388.35120094857774
3796.6455,1.719329745254777,406.9522499548591
3797.519,1.7180688289845734,381.7823964327949
3798.3926,1.7171849543336661,352.3191673388136
3799.2686,1.7161231872527425,429.43038917570766
3800.1426,1.7149222972352574,386.32760416412117
3801.0188,1.7138859999262057,388.44511944474095
3801.8933,1.7131708065243154,412.52751114136123
3802.77,1.7126845962472885,406.7745792470305
3803.6448,1.7123307950190227,387.1600344266331
3804.522,1.7121925213538418,350.17597405197904
3805.3972,1.7125129552457024,410.88332545440716
3806.2727,1.7135392811736443,357.8508156721322
3807.1504,1.7153740741584045,460.71124095127277
3808.0261,1.7178377479690952,430.05205175839234
3808.9043,1.7205097678450312,405.30102175948826
3809.7805,1.7229167099151321,425.628545110686
3810.659,1.724913412855156,425.1871382324139
3811.5356,1.726716433557021,393.68608168695135
3812.4126,1.7285917191261366,410.4986996056505
3813.2917,1.730388326719593,374.7762936912027
3814.169,1.7314736727251616,389.78525725307844
3815.0483,1.7312018530965694,361.7723928669152
3815.926,1.7293920757510128,394.4467822393245
3816.806,1.7264020489153828,392.0682318407974
3817.684,1.7228578398642955,367.10698972145866
3818.5623,1.719283974821699,374.40469850910483
3819.4429,1.7159238977422284,373.03975083089756
3820.3215,1.7126663787020036,387.41890835785284
3821.2024,1.7090105356168144,412.30159314172033
3822.0815,1.7043975422339812,399.74722578856944
3822.963,1.6985320934146027,371.5149917606606
3823.8423,1.6916621849878664,438.88022205275746
3824.722,1.6843096724903057,416.35726140625
3825.604,1.676955721220197,444.0642347108602
3826.4841,1.6699068611922816,420.10312818850645
3827.3665,1.6632363132483199,379.7206292644873
3828.2468,1.6570240558592486,412.48860399878004
3829.1296,1.6511250519803093,434.44270363158614
3830.0105,1.645072560769462,443.9818923961285
3830.8916,1.6380427399783843,416.7280270874808
3831.7751,1.6294490478591703,435.01664387179517
3832.6565,1.619688670515593,480.67513869992496
3833.5403,1.6101125754862677,429.8414139706462
3834.4224,1.6025924745103342,478.4610116814564
3835.3064,1.5984543835364535,441.2988149915743
3836.1887,1.5980525581011435,455.50127404435494
3837.0713,1.600750891555975,457.92986320229676
3837.956,1.605431581348796,439.60956536075787
3838.839,1.6109650802240902,431.0588265794242
3839.7244,1.6166871355094667,501.3086915101103
3840.6077,1.6224781958240726,519.3112709305377
3841.4932,1.628772912062746,429.8315848994772
3842.377,1.6361124329818042,443.2809910592123
3843.261,1.6447970193693568,465.92077043155075
3844.1472,1.6545526318946409,397.22967309178136
3845.0315,1.6645165167807838,397.07838619622396
3845.9182,1.6738230702508774,381.55973211789336
3846.803,1.6819117650466133,375.9449654492692
3847.69,1.6889382407476858,446.9693202242133
3848.5752,1.695470043561914,406.58430297465856
3849.4604,1.7021822948937508,398.7238061066362
3850.3481,1.7093626387548844,374.11124337130593
3851.234,1.7165999563249301,356.837539515729
3852.122,1.7230230749112432,364.7784219793976
3853.0083,1.7276212229314307,351.8835479627417
3853.8967,1.729911348749939,357.3748225259446
3854.7832,1.7301652448033171,408.37761617330244
3855.6702,1.7293216608376254,418.24876714397794
3856.559,1.728469432739585,405.9387128230533
3857.4463,1.728346899870735,361.61516305699337
3858.336,1.729096871261804,424.13059715929296
3859.2234,1.7303682122364659,382.30943131970486
3860.1135,1.7315860712713502,385.05904260278345
3861.0015,1.7321311034567743,342.4404781654427
3861.8896,1.7314569719846242,380.6006018015459
3862.7803,1.7291611402800275,406.774012432416
3863.6687,1.7251809709658308,390.1375768605488
3864.5598,1.7198383559690704,367.34341460842836
3865.4487,1.7137508779269368,403.70842414486265
3866.34,1.7073375796165504,381.9873450247392
3867.2297,1.700709328783351,417.316984993396
3868.1213,1.6937290899277166,390.93824151137443
3869.0112,1.6864793748724947,375.58626278235636
3869.9014,1.6792617841249085,399.1061490539742
3870.7937,1.6724118217809312,428.5128136911062
3871.684,1.6661033984763285,439.1444007108066
3872.577,1.660211726710829,397.44985434669366
3873.4678,1.6544974272178838,426.39830559688755
3874.361,1.6484662797792002,389.7810565976405
3875.2524,1.6414847999307791,415.75217675690266
3876.1438,1.6328761187761458,426.0220234264134
3877.0376,1.6222570177484754,504.2943726028094
3877.9297,1.6098191037843805,467.28523894853845
3878.8237,1.5961114025152559,455.78558456019425
3879.716,1.5820664794750383,474.3226679004227
3880.6108,1.5685169770849536,458.83559982415534
3881.5037,1.5560939839120114,478.895797439586
3882.3965,1.5446925080385072,538.0614146817519
3883.2917,1.5335911886993692,420.4438001881543
3884.185,1.521978283468315,489.89336462650823
3885.0808,1.50931764254881,465.25807468796006
3885.9746,1.4958542028669812,508.581727676595
3886.8706,1.4822967574386736,518.4813626062456
3887.765,1.4698981843848626,553.8621585727213
3888.6592,1.460104489213642,519.3686009927669
3889.556,1.4543513848570548,556.8348719865508
3890.4507,1.4535447722838146,618.0874740970178
3891.348,1.4575433905956026,543.5995579671329
3892.243,1.4652708956592444,541.2347174404783
3893.1406,1.4754201936262192,577.4019452533576
3894.0361,1.4869604228823372,519.9818539817098
3894.932,1.4995257181286628,493.7642615672936
3895.83,1.5130835887985263,492.5931849285794
3896.7263,1.5274068758475792,500.91258223199617
3897.625,1.542055656920892,500.8382474103863
3898.5215,1.5561962133332221,479.8247766118808
3899.4207,1.5693329033416474,473.46515558816367
3900.3176,1.5814815443581767,485.0341176866725
3901.2148,1.5934678271635228,419.2590919826803
3902.1145,1.606282054214807,461.59237300324287
3903.0122,1.6202850208056268,494.5837424085664
3903.912,1.6351286581821216,439.8922896545058
3904.8103,1.649795907015601,425.37194864287113
3905.7107,1.6634236581073945,429.7481902162549
3906.6094,1.6754649320873036,399.69042967903874
3907.508,1.685949959141757,362.4469639393171
3908.409,1.6952238316752937,421.540979979781
3909.308,1.7037457507470837,390.9755283805339
3910.2097,1.7121701098741497,442.333452698055
3911.1091,1.72105772428432,442.57658676352366
3912.011,1.7307947258609226,368.6753539999636
3912.9111,1.7411993668989347,366.83668122625807
3913.8113,1.7517180173235467,386.0795566445847
3914.7136,1.7616302051257344,381.68280714300056
3915.6143,1.7702419212583205,354.68913143708426
3916.517,1.777179404871181,399.9207070494908
3917.4182,1.7822936656148929,346.8601846012963
3918.3215,1.7857509794028181,381.23925335567685
3919.223,1.787830988333046,366.0619434764503
3920.1245,1.788878221524701,383.2405640188617
3921.0286,1.7892851790159905,378.01364257319847
3921.9307,1.7896081301317708,359.369932521779
3922.835,1.7905427552390294,416.1140862070692
3923.7373,1.7926184295248109,336.21180951889124
3924.642,1.795850910467503,372.961099691207
3925.5452,1.799544869337665,342.24325282517395
3926.448,1.802542019818528,348.95031470607495
3927.3535,1.8037262363115567,345.38556475832775
3928.257,1.8026419781217695,366.0014189349375
3929.1628,1.7998067437543381,345.9825411821571
3930.0667,1.796325210594745,372.4623433245821
3930.9731,1.7929545780144815,362.56027182676684
3931.8774,1.7895449578550664,403.26786194561095
3932.782,1.7852383685216004,324.4470746677344
3933.6887,1.7794216733720551,344.9267300476232
