wavl,flux,ivar
3566.9744,0.9228494201713451,226.62394628037282
3567.795,0.9289238527818633,191.20353394071407
3568.6177,0.933634737355941,189.34496784261682
3569.4385,0.936615706247323,159.256617126469
3570.2617,0.9379718241056898,194.97838759626794
3571.083,0.9379628965280251,198.7576329709749
3571.9065,0.9366547621920108,185.77539319630176
3572.7283,0.933911483672243,266.7626353070467
3573.55,0.9298117595071126,280.0774076541637
3574.374,0.9249700644838567,250.97144780436216
3575.1963,0.9203750987044428,205.73496912523188
3576.0208,0.9167122172613393,393.14066536853045
3576.8435,0.9140207525503897,238.64680494098704
3577.6682,0.9118163973931583,251.9288537180656
3578.4915,0.9098158478577462,198.36636843517852
3579.3145,0.9083842520241356,255.88429596656712
3580.14,0.9083174510910393,162.02678024479115
3580.9636,0.910104940806478,214.95187031463695
3581.7893,0.9134031240038428,340.75205046536314
3582.6133,0.9170734789856044,423.2571482750868
3583.4395,0.9196652424814866,224.56231730791652
3584.264,0.9198012784455977,243.30746894684108
3585.0884,0.9166295561152987,175.44415600640943
3585.915,0.9102020591264319,223.36347417247953
3586.74,0.9017506280429353,298.6471903696418
3587.5671,0.8931736983881036,339.95609610425913
3588.3923,0.8862992325179307,224.88919995347024
3589.22,0.8819929026263834,249.2009174300896
3590.0457,0.8801374034167833,277.1127280745953
3590.8716,0.8799270622121532,382.00276576356316
3591.6995,0.8805699371113301,247.7516484836301
3592.526,0.8818108985218599,190.86627788113822
3593.3542,0.8839664918255297,288.61154337050596
3594.181,0.88725349313318,252.70235196823836
3595.0098,0.8910268730421097,176.69228882413472
3595.8367,0.8935879642892685,194.0857491818925
3596.6638,0.8931218349256521,239.83904552254515
3597.4934,0.8890528840904839,285.44802813423115
3598.3208,0.8830708278136974,458.9017765398893
3599.1506,0.878560282641729,362.68771553319255
3599.9788,0.8786257428201079,373.17303028332356
3600.8088,0.883665310646237,254.89127479456067
3601.6372,0.8907304697225659,170.39961851857723
3602.4678,0.8954481092755797,285.5128126777651
3603.2964,0.8949059178546239,179.33712307400515
3604.1252,0.8895553089173367,321.61049200528885
3604.9565,0.8827142357784526,181.00011035928577
3605.786,0.8785848509574211,259.9064261499281
3606.6172,0.879699598460061,385.54914521023693
3607.447,0.8854926796338539,513.0669181414269
3608.2788,0.8926958402518247,228.80243637674823
3609.109,0.8974568031017033,296.77772167909313
3609.9392,0.8979176561585521,250.51226982772147
3610.7717,0.8950160505777612,290.18622340025945
3611.6023,0.8912732550389215,242.48567769353423
3612.435,0.8886236072578485,232.16628067113118
3613.266,0.8873260679908883,508.617312848241
3614.0994,0.8863964494580465,294.179362882641
3614.9307,0.8848919913721526,360.04762975466025
3615.7625,0.8826760719809208,234.00289670968257
3616.5962,0.8802629353559978,330.2863790627463
3617.4282,0.8781594285592992,301.0167281816891
3618.2625,0.8763390713282336,288.8429831809594
3619.0947,0.8743409443623418,289.73569170365937
3619.9292,0.8716809811854461,302.2306742874676
3620.762,0.8682964249726828,278.1423212882297
3621.595,0.8645311517809426,274.37980527089394
3622.4302,0.8608821780427004,396.5058762097443
3623.2634,0.8578069912864819,251.4972384861383
3624.0989,0.8556614159829945,351.6177057169176
3624.9326,0.8547754303587937,294.7878711490837
3625.7686,0.855224191898897,315.41512505968666
3626.6028,0.8565877271550703,293.92726714784084
3627.437,0.8579848597318576,270.77983306129
3628.2734,0.8584803718292602,270.337514792836
3629.1082,0.8575783553458423,287.0590646146487
3629.945,0.8554765811859433,247.24616706193154
3630.78,0.8529267615588336,291.1119322171
3631.6174,0.8506794717890886,245.75313075723156
3632.453,0.8489338350846818,196.04722500778544
3633.2883,0.8470927892169352,358.07958791964444
3634.1262,0.8442426976882128,230.6575037962018
3634.9622,0.8400144703985924,267.95851986639184
3635.8005,0.8349944561329837,287.8659909531944
3636.637,0.8304080342174545,489.8466873230365
3637.4756,0.8270617321003833,236.02015485665538
3638.3123,0.8247936043066927,239.23491486880616
3639.1492,0.8227450807478507,290.572671596249
3639.9885,0.8203317363861613,329.6010275089978
3640.826,0.817815847019029,304.3360547267728
3641.6653,0.8159151270098612,216.47204009567182
3642.5032,0.8150569911654156,249.02711954080857
3643.343,0.8149293395861174,403.6395888421914
3644.1812,0.814751356013349,387.62968962775966
3645.0195,0.8139122216648688,319.0732159563788
3645.86,0.812504999421544,285.15717279630024
3646.699,0.8114032599634246,360.54342255227425
3647.5398,0.8117596160777264,371.8873363173975
3648.379,0.8142040994970565,274.88738517815017
3649.2202,0.8181506465569128,437.7928942415133
3650.0596,0.8217222132927852,218.6668094839806
3650.8994,0.8228054189784475,278.7950879967153
3651.7412,0.820509052935108,273.7116154201853
3652.5813,0.8159493427711749,300.95887970717786
3653.4236,0.8113600061687455,377.86971415361666
3654.2642,0.8084258150265081,306.4401719866227
3655.1067,0.8071763836667233,328.9064074859143
3655.9475,0.8064797627180211,280.17526372272204
3656.7886,0.8053114995373557,389.74166531875835
3657.6318,0.803742331158984,347.353964254948
3658.4734,0.8029616387254658,314.697797681786
3659.317,0.8043653227160504,334.723304090646
3660.1587,0.8083289805568161,418.56781038164246
3661.003,0.8135393479919208,492.6335828230632
3661.845,0.8174842132611219,101.09283078616534
3662.6875,0.8181933402104238,424.2083656584897
3663.532,0.8156493833869961,363.88842627733806
3664.3748,0.8118209842018652,225.98134810402314
3665.2197,0.8090339427435709,310.86742623903723
3666.063,0.8082200335416739,447.3043814687635
3666.9084,0.8083691206430066,352.77399385338396
3667.752,0.8076347414807279,292.187077139894
3668.5977,0.8049092497609113,290.8883597344703
3669.4417,0.800585703229848,240.61584905027792
3670.286,0.7960169890710468,404.6474614907906
3671.132,0.7925351966240903,300.0933225783189
3671.9768,0.7908874020614639,506.8754932740779
3672.8235,0.7912006999650063,525.3708203535388
3673.6685,0.7932061425226834,350.7551014318615
3674.5156,0.7963100325207998,262.92408519036974
3675.3608,0.7994989323595992,338.82081326742343
3676.2063,0.8014167707897781,345.8480127976924
3677.0542,0.8007088565148679,258.62907141043894
3677.9,0.7967956626439366,348.5283080460227
3678.748,0.7904627251427563,334.46710548704647
3679.5945,0.783716040525597,362.87789324161014
3680.4429,0.7785372916032137,299.0478876990635
3681.2896,0.7757011283956919,322.08467034743177
3682.1365,0.7742716202399393,308.95932169041214
3682.9856,0.7724078617427715,393.1593057159956
3683.8328,0.7687655034268643,284.9807557949465
3684.6824,0.7635113541621722,471.9412287425873
3685.53,0.7583653442110578,563.5034911726093
3686.38,0.7554267455772726,282.5903592693758
3687.2278,0.7559268240143737,425.50255867372596
3688.0762,0.7595587095066564,580.5067751022302
3688.9265,0.7649326011025009,446.9209710632848
3689.7751,0.7704803501965046,273.65638726743487
3690.626,0.7753514616240212,324.0145350306136
3691.475,0.7795916105028624,341.71842499518095
3692.3264,0.7839092080544281,247.5380612638602
3693.1758,0.7888200982998184,414.10576922798026
3694.0254,0.7939730741791475,322.14121535300984
3694.8772,0.7980792072576451,436.0814470376314
3695.7273,0.7997756037230803,349.1129572555401
3696.5793,0.7987522834255045,313.83733848218833
3697.43,0.7959324092933168,313.48379250307534
3698.2825,0.7926527929869012,326.3453998765382
3699.1333,0.7897650318882284,258.00418869345935
3699.9841,0.7874434814833404,282.64668218211267
3700.8374,0.7857569212000164,345.4361656407881
3701.6887,0.7850501462523575,337.47668801530267
3702.5425,0.78558094355275,294.19346904401857
3703.3943,0.7869232721081568,443.6270255691479
3704.2483,0.7879000105181815,232.41040027923714
3705.1003,0.7871899506707508,275.7461171402124
3705.9526,0.7840795672460724,316.0129385338481
3706.8074,0.7787996620838431,258.0069343203608
3707.66,0.7726078352663944,356.64535811967266
3708.515,0.7674278181086622,356.28159367800663
3709.3682,0.765272931298462,377.217158771309
3710.2234,0.7671143077218192,260.9196025580737
3711.0771,0.7721623673475557,501.21466161558794
3711.9307,0.7780900330550623,419.49146497746574
3712.7866,0.7821397012172875,269.6391459181457
3713.6409,0.782263809334207,260.3285192500266
3714.4973,0.7778428631421984,264.2304651947057
3715.3518,0.7697727216766111,347.38061449806116
3716.2085,0.7600329255559465,344.7576040415748
3717.0635,0.751045532414889,500.480990549271
3717.9185,0.7445065605332704,468.2637343548355
3718.776,0.7407774441484746,424.0700754516338
3719.6313,0.7390826499059143,292.3985586454544
3720.489,0.738359787639917,399.2889530171858
3721.345,0.7381695013055726,519.5137957131346
3722.2031,0.738809825171853,392.5383755141884
3723.0593,0.7407040321787239,654.2600141053884
3723.9158,0.7436627985260558,481.25373360744976
3724.7747,0.7467310566444408,440.46943060774794
3725.6316,0.7488011355812912,322.08163192273827
3726.4905,0.7495573859374797,363.42682312639187
3727.348,0.749733269866246,500.9187558199478
3728.2073,0.7505559539411446,446.84728547359356
3729.065,0.7528450487899913,519.4214390524198
3729.9229,0.7565229182723008,443.60310894213114
3730.783,0.7606722083617304,387.61150257344457
3731.6414,0.7638789783929234,355.4828840505289
3732.5017,0.7648467629321694,331.586092750923
3733.3604,0.7629780253975057,349.23659003494953
3734.2214,0.7587600170810305,398.3264964019005
3735.0803,0.7535683366008222,384.7725384405515
3735.9417,0.7488262549397112,379.310204716486
3736.8013,0.7454047401818398,334.60114939033286
3737.661,0.7434279742289199,380.4964782602042
3738.5227,0.7427106425167573,372.7888605586817
3739.3828,0.7431396694412533,368.61654236796375
3740.245,0.7446375747987336,432.9905436461708
3741.1055,0.7467674749199267,469.0256803804732
3741.9683,0.748500210566309,261.7597540705186
3742.829,0.7484809742462812,326.1037153302796
3743.69,0.7457927315496173,330.7395537196099
3744.5532,0.7405175487296618,676.7493068378033
3745.4148,0.7338812104181679,428.5268573409884
3746.2786,0.7277111962247654,501.7466557331815
3747.1404,0.7237378014238505,424.2883301748888
3748.0044,0.7226374709482218,339.7661862033976
3748.8667,0.7236826157779015,351.65926813829066
3749.729,0.7251480237696297,493.09776989637294
3750.5938,0.7254548418195707,562.3055628612582
3751.4565,0.7241987795395413,233.1072119518249
3752.3215,0.7223033669430429,443.9656512670066
3753.1848,0.7212065714733457,376.6629998905185
3754.0503,0.721750278871288,474.4231579051693
3754.9138,0.7237139678885323,390.1674327537066
3755.7776,0.7261914228005608,346.3364727113246
3756.6438,0.7283276847158439,388.53517537990683
3757.508,0.7298008991718498,371.10563890936714
3758.3745,0.7309001690633335,385.4957830254537
3759.239,0.7321452854986428,450.4569689882659
3760.106,0.7337832222480325,316.31479859586443
3760.971,0.7354012207702799,362.25729506609633
3761.8362,0.7361124350998963,289.73390122664057
3762.7036,0.7351406020203424,456.94816080545445
3763.5693,0.7323591045153681,339.0730724883017
3764.437,0.728256946590982,350.64415931313533
3765.3032,0.7235294189869075,383.66141089872013
3766.1714,0.7186167202043845,343.0226945800266
3767.0378,0.7137966679821525,358.68269641793523
3767.9043,0.7095025675252271,373.26128177251417
3768.7732,0.706614343703007,627.8694280245969
3769.6401,0.7061132677988089,493.747777237021
3770.5095,0.7082087159973897,345.8078517435569
3771.377,0.7118416889895862,591.7945848570869
3772.2466,0.7151193268027475,260.14318610295874
3773.1145,0.7162757429360801,381.30794736869615
3773.9824,0.7145769802155669,391.6944252019573
3774.8528,0.7105426159794201,338.7724995187528
3775.721,0.7056852977392132,391.5543276408433
3776.5918,0.701636961942215,357.38471202571253
3777.4604,0.6992614497569175,479.79849164755893
3778.3315,0.6980672698551503,430.1445296337049
3779.201,0.696746659040965,328.9892239415041
3780.0703,0.6943315171607761,373.6149168492434
3780.942,0.6911297882714067,517.5907112888757
3781.8118,0.6886954371910934,493.3417099469638
3782.6838,0.6887546162273843,476.6225622717208
3783.554,0.6919554888969306,600.9213280737774
3784.4265,0.6973206887509487,357.45740531019106
3785.297,0.7028356689210723,426.90618075389335
3786.168,0.7068394045612456,444.41322761348465
3787.041,0.7088165348633753,441.07216412953403
3787.912,0.7092348570193628,438.26229788400457
3788.7856,0.7088813705569373,362.499827487521
3789.6572,0.7083712078718191,413.6181524632765
3790.531,0.7080599745975803,440.3502564287619
3791.403,0.7081115330424639,438.3277773713829
3792.2754,0.7086574729188069,484.82476481700735
3793.15,0.7103544267760653,325.2838223822837
3794.0225,0.7154354210638278,421.5824863065865
3794.8972,0.7286877847025268,439.8737113112697
3795.7703,0.756327788778157,473.18740595958565
3796.6455,0.801797610062359,328.70629551738347
3797.519,0.8587661561284039,540.5345886402172
3798.3926,0.9095075630660804,439.19066896244226
3799.2686,0.9322929094318917,6.771358607601054
3800.1426,0.9155132340803523,411.40529400831605
3801.0188,0.8664472621313278,578.9632290839371
3801.8933,0.8058124657590512,433.3524008907734
3802.77,0.7530814071815728,313.85903887256814
3803.6448,0.7177136965992384,469.3380377363161
3804.522,0.6986014787579087,375.0601842346923
3805.3972,0.6905430462666354,391.59769316616246
3806.2727,0.6885349651099328,439.8103186368547
3807.1504,0.6895283317487986,413.3802657433007
3808.0261,0.6919926832379047,393.5939551896121
3808.9043,0.6951777962081682,496.2922474364326
3809.7805,0.6984476911744286,413.36527238586814
3810.659,0.7010856901791618,489.15731625739363
3811.5356,0.7024952463723044,475.25815022730234
3812.4126,0.7027288862967651,572.0323356376166
3813.2917,0.7026082540185556,402.4316967726271
3814.169,0.7032617015001549,519.1505618475799
3815.0483,0.7053352670860493,563.4825096301935
3815.926,0.708447415117607,381.27825000960405
3816.806,0.7113496666585931,392.8663339551424
3817.684,0.7126256486531026,334.0255433783867
3818.5623,0.7116214660870558,334.682453054872
3819.4429,0.7088080699960971,434.387825161019
3820.3215,0.7054197204247654,469.79698783673393
3821.2024,0.702501351948652,525.1461020182579
3822.0815,0.7002510688452936,407.4136944101023
3822.963,0.6979556296832367,498.4413045147312
3823.8423,0.6946741088648491,376.53884259232063
3824.722,0.6900191060698528,446.57027150215526
3825.604,0.6845971328438639,413.7597032813861
3826.4841,0.6797501128698852,404.4740806191274
3827.3665,0.6765227020040353,564.5892125450725
3828.2468,0.6748557682794897,481.87669811548886
3829.1296,0.6734862019754599,411.91446678509635
3830.0105,0.6709152653774201,513.5183437750343
3830.8916,0.6664597529485035,604.2685492575409
3831.7751,0.6605406778926495,513.4488002027781
3832.6565,0.6541676620499336,298.9208757069481
3833.5403,0.6481005907119533,456.020883037613
3834.4224,0.6427316019740221,575.0634345704576
3835.3064,0.6381627836210867,418.19851486428576
3836.1887,0.634500868186807,394.75210587011514
3837.0713,0.6318360478858235,565.4594619630635
3837.956,0.6303243267139916,600.9106863934533
3838.839,0.6302967803900886,504.81963483279446
3839.7244,0.6322087959471323,440.9333687854614
3840.6077,0.636264609962462,536.5106296703532
3841.4932,0.641990984062168,504.80623738954074
3842.377,0.6481444306495118,603.0418484424897
3843.261,0.6534282530520678,626.1156340519861
3844.1472,0.6573000551083746,457.394746274452
3845.0315,0.6603109469418704,442.32818065937744
3845.9182,0.6637391682064427,544.6254775357039
3846.803,0.6686371282073407,412.4089790122206
3847.69,0.6752229067914448,424.01138225665545
3848.5752,0.6827583021352329,439.8441502285953
3849.4604,0.6902029591998704,357.8515612603366
3850.3481,0.6968129575079459,561.046161446104
3851.234,0.7023379040375869,424.6945968377904
3852.122,0.7069935953774636,407.73547836850486
3853.0083,0.7110772162588923,346.63927909399246
3853.8967,0.7148202836234777,332.96183866835634
3854.7832,0.7181314295442359,413.2923214422397
3855.6702,0.72060517913972,344.94289751869263
3856.559,0.7216336623531374,424.6546419990194
3857.4463,0.7207822024393324,437.3958796830097
3858.336,0.7182361520232352,408.3422726068105
3859.2234,0.715036550039366,434.68239842519523
3860.1135,0.7127189758731939,413.1594475838675
3861.0015,0.7125278018611506,487.9487328390463
3861.8896,0.7145069485170629,420.5962266295728
3862.7803,0.7173258758298838,410.75769153056365
3863.6687,0.7189284277491341,373.1573193645689
3864.5598,0.7177257965153621,403.594383327737
3865.4487,0.7133755116759342,404.50286640493516
3866.34,0.706686017363043,482.37869329461125
3867.2297,0.6989579133233093,405.30760734136214
3868.1213,0.6911136023915813,408.82319576215195
3869.0112,0.6835546838286387,496.2968041511544
3869.9014,0.6763147946562034,527.4466381930345
3870.7937,0.6695189504341397,422.21119529849074
3871.684,0.6635630776137454,636.679348951436
3872.577,0.6587665389419948,453.85883896337754
3873.4678,0.6551024705264652,496.55515495663036
3874.361,0.6519516458004194,549.9839528457768
3875.2524,0.6484627282782806,459.8712243476267
3876.1438,0.6440349765645361,472.5571146051513
3877.0376,0.6386775834904772,639.4608088250795
3877.9297,0.6329197051401607,684.8189434627404
3878.8237,0.627256777239482,1204.3747722882695
3879.716,0.6218704450120681,638.9899824872155
3880.6108,0.6164837252101983,566.7955207663665
3881.5037,0.6106220853045164,463.72005915789384
3882.3965,0.6037034618550224,871.5864568291429
3883.2917,0.5952164318702791,559.6551379134453
3884.185,0.5849863492486135,538.4306422852635
3885.0808,0.5732352879703451,529.5622634705619
3885.9746,0.560904133083173,640.4145730684799
3886.8706,0.549306478664428,674.9135107226513
3887.765,0.5399286449430427,751.8372652226145
3888.6592,0.5337446041409428,689.8826647836122
3889.556,0.5310547967785526,894.6902076837301
3890.4507,0.5316130218986094,764.6741649644713
3891.348,0.5349192225065216,865.5225177017545
3892.243,0.5404357701943591,563.334750316786
3893.1406,0.5476811782690025,700.7799570452594
3894.0361,0.5560620885173457,862.9505825656078
3894.932,0.5649803618851138,575.4636821406409
3895.83,0.5738152984724649,453.4587201893363
3896.7263,0.5819180666845377,621.4261632377395
3897.625,0.5888393139045137,565.1763527418675
3898.5215,0.5943270788436336,550.2129056623756
3899.4207,0.5986955746593863,560.504923075659
3900.3176,0.6027979144353088,1700.2539020035274
3901.2148,0.6077995744600796,571.404139841586
3902.1145,0.6145025760833618,659.1007146921862
3903.0122,0.6228168843987538,631.0358591939522
3903.912,0.6320294274176259,519.3797258561599
3904.8103,0.6413169252344212,410.0016940337101
3905.7107,0.6504601891124056,598.5771445672683
3906.6094,0.6596357901889802,442.32546423458285
3907.508,0.6689825504669504,449.4155125893632
3908.409,0.6780602416729712,444.03958213403695
3909.308,0.6858921675195058,512.1672363863435
3910.2097,0.6917332928235914,583.3174868783187
3911.1091,0.695514614105216,336.42727817741854
3912.011,0.6979938184466788,498.7762051124296
3912.9111,0.7002203712425188,366.59936817607405
3913.8113,0.703081519430266,463.3180395285542
3914.7136,0.7070541117506554,390.7621770848386
3915.6143,0.712191383370206,411.6447619747807
3916.517,0.7182951208729078,609.275488937577
3917.4182,0.7248964627510317,360.3483842131961
3918.3215,0.7313862988010356,354.24315528532344
3919.223,0.7370049293142448,334.5283764302793
3920.1245,0.7412046228161056,329.42487436279544
3921.0286,0.7439130662121419,385.1220570514126
3921.9307,0.7456399773598086,323.8306070589355
3922.835,0.74724811403404,304.2092347982732
3923.7373,0.749410158810506,321.2780197148094
3924.642,0.7522566906739299,442.7970957962086
3925.5452,0.7552607239463434,395.5114401340802
3926.448,0.7575069200340363,481.2161326295718
3927.3535,0.7581194951267438,284.692381460478
3928.257,0.7567869681930993,404.09725139073464
3929.1628,0.7540373044825627,345.15699638594145
3930.0667,0.7509305720712436,355.2289130242993
3930.9731,0.7482591180149634,421.60421061152834
3931.8774,0.7460515315956656,419.75151493316946
3932.782,0.7436597275690451,325.6576238910744
3933.6887,0.740435100578893,374.06557148104935
