wavl,flux,ivar
3566.9744,4.712132164789789,24.761027334212798
3567.795,4.692890379716867,27.489578675072366
3568.6177,4.674256401072529,48.194074312412994
3569.4385,4.662250409341873,33.39001505129072
3570.2617,4.658366238933602,34.127357676979614
3571.083,4.659478378219471,26.316670070539864
3571.9065,4.661643531396935,30.656726143737462
3572.7283,4.663329588274482,37.205831187011725
3573.55,4.664394320485909,30.771624438301593
3574.374,4.663072232596351,31.33670020234539
3575.1963,4.656081252088105,33.59195122954714
3576.0208,4.6424676371287115,35.381087030856854
3576.8435,4.626382106891177,51.344579015971
3577.6682,4.614024580692265,33.19876309325113
3578.4915,4.60819342516845,34.70045766839089
3579.3145,4.605916449531993,33.860580132554084
3580.14,4.601865318793961,28.227722749472548
3580.9636,4.593006712731381,33.04735310127852
3581.7893,4.580025322995571,32.90164961758714
3582.6133,4.565785498074312,40.72745557866264
3583.4395,4.55282966349422,56.15702737442227
3584.264,4.542212410855294,33.95637102407304
3585.0884,4.532883474732264,36.62072538563569
3585.915,4.522765608798699,36.370554041140025
3586.74,4.51138765506532,37.0500485664551
3587.5671,4.501983754550467,39.509709169134766
3588.3923,4.500628199850816,45.63670342028958
3589.22,4.511559439239744,55.19976243137752
3590.0457,4.533085357322964,36.68283245620582
3590.8716,4.558111932473133,63.05905802362777
3591.6995,4.578338187708903,44.62393039078732
3592.526,4.588179606455941,37.30971082980254
3593.3542,4.586225234161402,37.68689027768027
3594.181,4.5741500371607025,38.97207430885759
3595.0098,4.5555050699051645,38.308078753035815
3595.8367,4.535077884559077,32.39687115980318
3596.6638,4.517529940696021,48.02482882579845
3597.4934,4.506169553364684,40.44023515238868
3598.3208,4.501895801736904,38.7138066867833
3599.1506,4.502764293825393,54.16587261015608
3599.9788,4.5049924195842745,45.47800945996383
3600.8088,4.504968453915424,42.70434527840763
3601.6372,4.501606183713717,47.75457240572181
3602.4678,4.497177454465119,31.251451486560374
3603.2964,4.495564880456295,35.61570692656088
3604.1252,4.4989771648169095,40.87858983435893
3604.9565,4.506065135929164,41.525558152170746
3605.786,4.5126924296508,49.89003270195224
3606.6172,4.515010024679117,37.79838808456328
3607.447,4.5120654924461085,36.998585350224225
3608.2788,4.506173648615424,38.6056420869968
3609.109,4.5005907228442625,42.28262882763665
3609.9392,4.496355884322874,23.858822839838478
3610.7717,4.491245769748958,51.08589972850746
3611.6023,4.481649549334225,65.88760987855167
3612.435,4.465498837658652,31.937092725469267
3613.266,4.444173345258297,46.95745826543879
3614.0994,4.421519683251905,45.372774933312996
3614.9307,4.402124012539842,34.573843711274684
3615.7625,4.389103212785713,30.941335554773563
3616.5962,4.383591783797425,42.15343012660226
3617.4282,4.384636412285062,30.339404225554823
3618.2625,4.389316312446801,33.07409221977678
3619.0947,4.3933211800909655,41.616710526312495
3619.9292,4.392500701032971,45.45648163182406
3620.762,4.385130079333872,37.92258537531045
3621.595,4.373717854645908,37.12330912141235
3622.4302,4.364522966372058,36.51864426280307
3623.2634,4.3644360778910425,36.09237933161289
3624.0989,4.376770838975376,45.257095770160895
3624.9326,4.399255755438179,49.56681715351366
3625.7686,4.425741885790352,46.45677162696299
3626.6028,4.4493250945963165,51.44072261175826
3627.437,4.4654911212763455,27.594503816447464
3628.2734,4.472706473877646,33.26263082209158
3629.1082,4.4720580338251805,36.96573643047695
3629.945,4.466643165209524,32.080675490706646
3630.78,4.460549301650729,47.63868087924341
3631.6174,4.457583210671622,30.830717238553273
3632.453,4.460420378962151,38.11079860349765
3633.2883,4.469855039475443,45.08484398244727
3634.1262,4.484152813872129,36.28359688589707
3634.9622,4.498635569499531,33.67843987511294
3635.8005,4.507408763841872,35.07932300595804
3636.637,4.506244224106462,37.09730566281707
3637.4756,4.495499506166748,38.66396041160969
3638.3123,4.48030221627362,32.103018573823704
3639.1492,4.467418852355843,38.95906954296605
3639.9885,4.461174535159501,46.093281448284934
3640.826,4.461409322409424,33.18927498713563
3641.6653,4.465057059519706,34.22266105834964
3642.5032,4.469511805019961,37.17674959817675
3643.343,4.474121815896564,37.884181915610114
3644.1812,4.4789322803288085,42.75082567231936
3645.0195,4.483175047347553,42.62355837485024
3645.86,4.485213541335796,31.386142623617694
3646.699,4.483757984601628,27.207968119776535
3647.5398,4.478932868717362,38.333956579663116
3648.379,4.4722902452457705,33.19202078530219
3649.2202,4.465563604892388,39.815931459209615
3650.0596,4.458950121126887,34.57718190987304
3650.8994,4.449795254849305,37.45021098171494
3651.7412,4.433651859940823,35.1768785728629
3652.5813,4.407902942363271,31.056407216640547
3653.4236,4.374934338373711,35.659107870830766
3654.2642,4.342483674002618,36.27043364602553
3655.1067,4.318738251178729,40.92932143422585
3655.9475,4.307677693180735,53.94715175386532
3656.7886,4.3071518631000645,41.61502291228136
3657.6318,4.312197770869188,38.34761852072941
3658.4734,4.319335036685567,61.01421101782366
3659.317,4.3283447065563045,35.18634442209519
3660.1587,4.3400522315318915,35.22947734407303
3661.003,4.353455794666964,33.572446804216256
3661.845,4.364922066224994,41.2656899859039
3662.6875,4.370843351659315,38.10115225262177
3663.532,4.370474539658091,40.90936574187414
3664.3748,4.366861958319112,39.21006766139764
3665.2197,4.364653796469446,51.62862717398023
3666.063,4.366589270313481,51.517691886857875
3666.9084,4.371491915642308,33.89521382775726
3667.752,4.375371654236744,35.834137212267635
3668.5977,4.374483044200658,36.146143544579246
3669.4417,4.367633216242793,49.567288714488235
3670.286,4.35666685666048,45.25242030470531
3671.132,4.3455210140825065,60.55652824712307
3671.9768,4.338593091545897,45.305280954234846
3672.8235,4.338361732720903,43.87263630070464
3673.6685,4.343683598008073,34.77829670606008
3674.5156,4.349941417558976,33.532758472351404
3675.3608,4.351460775534954,36.637587668154836
3676.2063,4.3447563653213335,38.78546605581852
3677.0542,4.3299172451179135,36.290822179708655
3677.9,4.309854512146713,44.2231117665221
3678.748,4.287944056425605,33.36073226568529
3679.5945,4.267165426111206,64.45564690281692
3680.4429,4.2495366938921695,42.81165457916907
3681.2896,4.2362918224343105,46.37130527794521
3682.1365,4.227078485233476,36.36763952538007
3682.9856,4.220233924201589,39.67327210846322
3683.8328,4.21412079957385,36.973752350386114
3684.6824,4.2083446246179665,37.64297079512036
3685.53,4.203570202210401,53.717306595861686
3686.38,4.199738966953059,41.93118811693529
3687.2278,4.195381736871907,47.5596636287169
3688.0762,4.18903781606474,40.27874273917511
3688.9265,4.181471580288076,44.283412458220155
3689.7751,4.175813206597848,48.62407946955103
3690.626,4.175014308392533,51.050244970956335
3691.475,4.179540980410236,42.00983177936027
3692.3264,4.187429846735649,47.47343005835524
3693.1758,4.196249951962415,39.48695149056825
3694.0254,4.204864536240782,40.163245490835756
3694.8772,4.213138441272076,33.940629696916275
3695.7273,4.220393293627497,48.212921203868106
3696.5793,4.224722710332601,32.51861890807633
3697.43,4.223928539125436,44.18432962526441
3698.2825,4.217469709478997,39.24909375783933
3699.1333,4.207262011698482,46.7249568979089
3699.9841,4.1967131387691055,37.86117995060727
3700.8374,4.189286669874021,44.211002404699734
3701.6887,4.1874374433562025,48.5741435593272
3702.5425,4.191596940724704,44.855397603184336
3703.3943,4.199499918346749,44.751735275831045
3704.2483,4.206454717976634,46.610237336891686
3705.1003,4.207026444721155,42.48487351690076
3705.9526,4.197937619680066,34.780192627025244
3706.8074,4.180045926440435,50.01657483098199
3707.66,4.158427839358035,40.24418153941527
3708.515,4.139212515748721,40.40705933595357
3709.3682,4.126196990659392,40.98187185431333
3710.2234,4.118822613709822,42.81738633349653
3711.0771,4.11446148503672,43.07748639762232
3711.9307,4.111748793284586,43.63050394463892
3712.7866,4.11148374837604,45.0799792694413
3713.6409,4.114167754501818,49.75460813074159
3714.4973,4.117895661939137,34.2937529643054
3715.3518,4.119436398963443,58.034814926539966
3716.2085,4.117012650987759,72.22874589655143
3717.0635,4.1113475216017745,62.87461359905462
3717.9185,4.1044247017243585,50.4565970010087
3718.776,4.097976414691094,48.79878751201487
3719.6313,4.093237972222046,39.598618635804314
3720.489,4.0912290140515655,37.022147206996365
3721.345,4.092736733680586,41.87593323200084
3722.2031,4.097478788188874,45.10594468649613
3723.0593,4.103605451646069,55.56893763852512
3723.9158,4.10859802886748,40.22112709983388
3724.7747,4.110849938488797,49.52051787551774
3725.6316,4.110474173969337,59.730132673806665
3726.4905,4.108503096315421,40.610389193605165
3727.348,4.105464896465017,37.84288112234583
3728.2073,4.10103264174336,44.63813480415759
3729.065,4.095013497226174,40.988108751138576
3729.9229,4.088008668672975,39.81481011844644
3730.783,4.080810526999258,48.50911322796803
3731.6414,4.073219662240765,45.328852287875065
3732.5017,4.063742914466575,35.95397913276115
3733.3604,4.051101119923413,38.73457318318822
3734.2214,4.035561452566093,52.56524498304009
3735.0803,4.019232152570134,59.95954772609996
3735.9417,4.004391769377219,66.14383921608976
3736.8013,3.9926173397609337,55.61701173923621
3737.661,3.9846762136739353,43.50810999446493
3738.5227,3.9816326327484033,52.0683817786067
3739.3828,3.985163052570526,40.37133029190584
3740.245,3.9964925735546735,55.58466598708237
3741.1055,4.014549622116456,45.69487781195361
3741.9683,4.035069135422672,45.680085496241055
3742.829,4.0509420419314734,39.222511153528146
3743.69,4.055247493719892,37.996691569224346
3744.5532,4.044439155735254,57.977139569424466
3745.4148,4.020576181740189,52.676033918976984
3746.2786,3.9903330713054155,45.41480578303679
3747.1404,3.9622527963007057,55.01513842399767
3748.0044,3.9426227047851135,50.0402395768224
3748.8667,3.9335452169042537,63.66974731799845
3749.729,3.932519212716813,47.54857984575796
3750.5938,3.9348685790217965,54.74467781825473
3751.4565,3.93670224616752,55.60437208140772
3752.3215,3.9367695682038275,41.40511084467709
3753.1848,3.93597327289798,47.034776653537804
3754.0503,3.9354118166837018,43.75358322769928
3754.9138,3.934803381820652,50.55039816531178
3755.7776,3.932788540150481,55.592386446564646
3756.6438,3.928856987886276,43.168328740398046
3757.508,3.924883699220654,56.02532457173443
3758.3745,3.9241483727503437,56.80501372191165
3759.239,3.928416538017216,46.452432395684404
3760.106,3.9355992162296123,46.5679023906915
3760.971,3.940250739783878,46.67248583367254
3761.8362,3.936833664796082,51.696569169495156
3762.7036,3.9228815931869003,41.23148354977085
3763.5693,3.900413530329612,52.7995825106926
3764.437,3.874482544805407,45.7014968610555
3765.3032,3.850870686899401,53.265990779671675
3766.1714,3.833167017596873,58.75401162377876
3767.0378,3.8219086753821285,49.10564346383778
3767.9043,3.815140464427844,56.4652357566693
3768.7732,3.810743141555442,57.88572258775115
3769.6401,3.8081074348849135,46.359711726000654
3770.5095,3.807912465758392,43.979235219978705
3771.377,3.810817220189716,49.70430467298754
3772.2466,3.8165281385469263,41.77192114478326
3773.1145,3.8237171179918894,57.30156246999552
3773.9824,3.830313275933024,51.11651177303559
3774.8528,3.8339554712842716,41.29776987940049
3775.721,3.8333585558336614,65.77662020541139
3776.5918,3.829996248124185,30.086428975209067
3777.4604,3.8280276618135454,49.60006179950893
3778.3315,3.831841780250968,48.277362447702174
3779.201,3.843244185343346,38.060729201668366
3780.0703,3.8607260992407837,45.06432390949244
3780.942,3.881051004068813,53.83176531045554
3781.8118,3.901043155877946,52.759148549709934
3782.6838,3.9188051666897974,50.491683869906225
3783.554,3.93321218198926,40.16142842530972
3784.4265,3.9437175519027665,44.61144137702918
3785.297,3.949483952421982,55.65798593978522
3786.168,3.9491096204192306,57.68016956755053
3787.041,3.94077399303621,56.6914754467327
3787.912,3.9237603631478812,48.703585079430624
3788.7856,3.8996840836445226,53.4752665527928
3789.6572,3.872644386357023,49.773139055433916
3790.531,3.8467445130249587,54.21811168622798
3791.403,3.8241526313061884,49.84699662111067
3792.2754,3.8036949911107785,56.47613271249807
3793.15,3.7820706930985546,52.59760263601593
3794.0225,3.7564394901275238,54.11656321579471
3794.8972,3.726492267823969,57.437735044723176
3795.7703,3.69566590570622,49.87924858439844
3796.6455,3.6688780649338457,55.527546265758474
3797.519,3.6501322556942863,50.288306054567975
3798.3926,3.6406089774954706,63.79954656030054
3799.2686,3.6399147216165635,61.790884125401995
3800.1426,3.647743972426915,50.54861020235687
3801.0188,3.6640795781038453,54.50218714263529
3801.8933,3.68759727332532,57.320071004495304
3802.77,3.7148598538512343,57.152366541243794
3803.6448,3.740796799625611,52.130460796501396
3804.522,3.761432444339372,50.772867250983936
3805.3972,3.775137442616131,38.81689908969806
3806.2727,3.782966307935452,47.731361016144
3807.1504,3.7871830239853868,51.01643660377883
3808.0261,3.7902379723637747,46.726763837226166
3808.9043,3.794437890369418,45.349745533502016
3809.7805,3.8014330280938657,54.32561436581404
3810.659,3.811559790640246,54.932333819339355
3811.5356,3.823460962384651,55.9834121122195
3812.4126,3.8350846443950175,44.453851723220204
3813.2917,3.84474885538102,42.73777999902372
3814.169,3.851387303384655,81.06930748010119
3815.0483,3.854342638362548,38.1373135920653
3815.926,3.8532326997975894,48.372921355413396
3816.806,3.8485064117972803,48.388407713259234
3817.684,3.8415240292310235,57.25787129733664
3818.5623,3.8334329696270384,45.970744417901116
3819.4429,3.8238007777221834,52.14084427484854
3820.3215,3.810791954742332,51.24983230717806
3821.2024,3.7929257787011417,41.97482774761793
3822.0815,3.77113743308379,56.6508911915855
3822.963,3.7478686846894704,48.301104508167235
3823.8423,3.724887604605778,56.85735366323346
3824.722,3.701192174928873,49.66824451701027
3825.604,3.674079881754418,44.37275221310966
3826.4841,3.6419034294946546,96.81919338129653
3827.3665,3.6052510622958103,59.002375414500236
3828.2468,3.56695575512454,59.19396357549385
3829.1296,3.529447303566214,66.51132707335329
3830.0105,3.4940746319161957,58.56461696163904
3830.8916,3.460519073175018,53.50293503428671
3831.7751,3.4278064684893894,59.6926255661539
3832.6565,3.3948580227341334,56.145881848036346
3833.5403,3.3600804618156817,71.77739620111953
3834.4224,3.3230519125426516,59.87350363460523
3835.3064,3.2854620609029346,77.03925646112218
3836.1887,3.252348387475846,80.63237113834963
3837.0713,3.2300554332848894,83.39602034401204
3837.956,3.2236244261579667,95.04158752028883
3838.839,3.234364715440274,70.95687615847356
3839.7244,3.2597915159799635,67.65995190517968
3840.6077,3.2955227399945746,67.22234902011012
3841.4932,3.3378353187467775,58.95940203843431
3842.377,3.383482010983507,69.06987752279854
3843.261,3.4296578795340964,70.34430439143502
3844.1472,3.473771297769979,65.26979388546745
3845.0315,3.5142897310291743,68.41191622349089
3845.9182,3.5523833443283914,59.53875608368214
3846.803,3.590609789153301,62.451113978275345
3847.69,3.6319229082785434,57.4403090301978
3848.5752,3.6770395462635297,55.61952631145069
3849.4604,3.7241450143127506,65.25940701445708
3850.3481,3.769279334279687,51.827544145512256
3851.234,3.80782151192118,52.47583298101913
3852.122,3.8373915839283184,46.57072321689103
3853.0083,3.8581847961225844,56.0779733994202
3853.8967,3.8728273212122994,51.056588404206714
3854.7832,3.883908378505867,48.07611566729947
3855.6702,3.8923763485386744,49.318009199181596
3856.559,3.8970569754135176,47.31867035911203
3857.4463,3.8961672842876065,42.371801083644904
3858.336,3.889486670609723,38.32893683689651
3859.2234,3.879386353689418,41.94976738868028
3860.1135,3.8696921639786916,52.391611826004585
3861.0015,3.8637028188068476,59.8774642263857
3861.8896,3.8624145485043724,51.03970289618726
3862.7803,3.864534591239163,44.83558130135842
3863.6687,3.867305474687481,50.852742175139966
3864.5598,3.8674850604714544,49.76815195482084
3865.4487,3.862060533218586,47.72446841652296
3866.34,3.8491239530630663,52.6024210124
3867.2297,3.8290447081843286,45.6073793541892
3868.1213,3.8045425679487135,61.567718339559846
3869.0112,3.7796421961195503,51.128416775173925
3869.9014,3.756778601268895,53.82805700766905
3870.7937,3.735034583818949,62.79131750471684
3871.684,3.7108154955434736,43.131126416842804
3872.577,3.680383356700105,54.13495049497987
3873.4678,3.643299264325316,51.09682855257726
3874.361,3.602179488294721,59.496927753107855
3875.2524,3.5609581284494274,54.82808279662333
3876.1438,3.5213054855465145,55.895325084101
3877.0376,3.4820251033551153,55.21249570142604
3877.9297,3.44083208947485,68.19525448727832
3878.8237,3.3957796767204367,64.76600861205036
3879.716,3.3467744191972866,96.96763418495698
3880.6108,3.2940628052041583,71.12121072990806
3881.5037,3.238035583382608,65.84183284224575
3882.3965,3.178148546246575,76.44785490472411
3883.2917,3.1139850958026725,78.93843004778064
3884.185,3.0466648378913934,80.37531662198849
3885.0808,2.977796164830564,100.53301653604525
3885.9746,2.91023506374394,80.1881106749831
3886.8706,2.846464490409886,86.80481007675814
3887.765,2.790129014449803,78.22775504283725
3888.6592,2.7452431923106007,113.22979242529628
3889.556,2.715874091881568,109.78370417823533
3890.4507,2.704706025689337,132.8519891154672
3891.348,2.711581482087606,123.3048635119778
3892.243,2.734237488042475,100.30873662173423
3893.1406,2.76998712840409,99.60786007227586
3894.0361,2.816258634137401,87.76412923721114
3894.932,2.870861188752361,88.6724163957989
3895.83,2.9309780684076756,79.96804462863534
3896.7263,2.9928631062632784,63.94992718358107
3897.625,3.054359525149975,63.57697449687872
3898.5215,3.1148482632794616,77.80199918739586
3899.4207,3.175820618826487,69.40198278522242
3900.3176,3.2376811888260697,61.07852130016724
3901.2148,3.299909214698243,62.544146959012814
3902.1145,3.3612257334996074,90.42554806375612
3903.0122,3.420310544017277,56.46953902373171
3903.912,3.477169180751842,71.55178717844194
3904.8103,3.531585861081277,56.68590030708735
3905.7107,3.5835679941707097,53.94015687106332
3906.6094,3.6322770868491014,50.685622873618726
3907.508,3.6772426560718983,48.462410440571716
3908.409,3.718534987414096,57.630070659403614
3909.308,3.7564446554198563,58.84114357619125
3910.2097,3.7916083942717576,44.015246302010766
3911.1091,3.8240854247198186,44.01069352397201
3912.011,3.854322880628253,54.819426541169996
3912.9111,3.882589174682819,47.457358364518335
3913.8113,3.9091469258338782,48.737434650073986
3914.7136,3.9338613531550197,44.684788571913344
3915.6143,3.956328380562096,54.79367525076165
3916.517,3.9765756671256267,43.0466717690521
3917.4182,3.99472305676874,45.38449071136756
3918.3215,4.011445488595105,47.85795477987198
3919.223,4.027893616220924,48.99626778778484
3920.1245,4.045593282314044,46.5552619629853
3921.0286,4.065009779181816,45.5311834715214
3921.9307,4.084345600414596,38.754460708154426
3922.835,4.100606081662456,42.20118443179662
3923.7373,4.1114283436275665,37.948416376388366
3924.642,4.116894310196209,45.70697857794673
3925.5452,4.118992752014068,46.647974835270276
3926.448,4.120233919685605,43.036805606939204
3927.3535,4.122297246229971,42.47076365844065
3928.257,4.125561797996651,48.93622925264955
3929.1628,4.129371485046814,41.566258640770016
3930.0667,4.132488832485232,45.26486213368298
3930.9731,4.133572114146519,36.10380185604925
3931.8774,4.1314117066215825,49.094837638142415
3932.782,4.1254068614047945,42.62598311201171
3933.6887,4.116135027220225,42.11318004828752
3934.5938,4.1054877996818515,44.648357468267896
3935.501,4.095377792724387,45.642569183039214
3936.4062,4.086324531560365,38.459013767757874
3937.3142,4.076821999928598,43.11613423895928
3938.22,4.064687856815393,35.80576240545676
3939.128,4.048417943002449,44.63135837400155
3940.0342,4.028053527445672,46.256572144439694
