wavl,flux,ivar
3566.9744,0.8750769661846288,177.24585740392118
3567.795,0.8744363986365878,149.19377288010864
3568.6177,0.8711927998950695,153.30041817532003
3569.4385,0.8659358456725536,145.52813224689427
3570.2617,0.8590581039425884,144.17162847454043
3571.083,0.8508714494438762,172.30347664581933
3571.9065,0.8419717215138987,206.66397505972225
3572.7283,0.8336679552246661,170.06093029478842
3573.55,0.8273429549705764,149.0215856718393
3574.374,0.8236991173736241,156.6131184964455
3575.1963,0.8224493787427196,164.2277167115428
3576.0208,0.8226629087155578,163.64383515627412
3576.8435,0.8234100460550384,236.97905789379615
3577.6682,0.824089253340493,161.5261878748252
3578.4915,0.8244546702449369,119.44235779895479
3579.3145,0.8245366795214981,173.76492930083083
3580.14,0.8244799894065139,214.67583582376724
3580.9636,0.8243676795775069,130.68881500006728
3581.7893,0.8241784646838175,112.20102843144342
3582.6133,0.8239276704021663,154.41171244727528
3583.4395,0.8237549763209054,188.95589894459343
3584.264,0.8237789060720602,138.38850347013408
3585.0884,0.8238690760042993,360.99220854885476
3585.915,0.8236759397634265,175.2391325638886
3586.74,0.8229700031932907,207.44259649486318
3587.5671,0.8219549924306019,156.08656204654278
3588.3923,0.8211957211557313,246.56009803695784
3589.22,0.8211105067484754,247.27809459714774
3590.0457,0.8215312746677598,241.37268790270176
3590.8716,0.8218018996599945,135.29547024857317
3591.6995,0.8214670224696938,152.3601599946547
3592.526,0.8209610971579615,200.73114059773542
3593.3542,0.8215459069383101,180.59975962752972
3594.181,0.8243225473726534,213.20801797105594
3595.0098,0.8290727223349501,129.11553434891067
3595.8367,0.8339408131340507,148.11602882774665
3596.6638,0.8365994571437574,163.50537874685745
3597.4934,0.8358441992239591,151.68760197170786
3598.3208,0.8324675470289242,208.59072727982044
3599.1506,0.8285439396099399,229.09322460896905
3599.9788,0.8258882129658583,110.89829259197951
3600.8088,0.8249222339547256,155.25314166503216
3601.6372,0.8250098601558847,186.60561666657554
3602.4678,0.8254711861139769,210.2592524820726
3603.2964,0.8260665872609845,151.38395735578473
3604.1252,0.8265909763386101,109.35505650003384
3604.9565,0.8265213711119355,215.88843008285994
3605.786,0.8254731578531411,138.43796217449287
3606.6172,0.8238455337924893,198.76726630245605
3607.447,0.8226338939383092,161.51797512641684
3608.2788,0.8224122189758198,184.77867687859705
3609.109,0.8226538091737035,180.26017488947957
3609.9392,0.822057819998145,131.64363809180276
3610.7717,0.8195121534373409,138.67217188505123
3611.6023,0.8149291427776227,157.75688345677617
3612.435,0.8094105005077572,169.48173828545194
3613.266,0.8048927231414942,173.2218046870632
3614.0994,0.8031202129634205,153.44984533925773
3614.9307,0.804734024766134,216.04775563515406
3615.7625,0.8089088835326692,196.73616915029712
3616.5962,0.8139869496387836,196.10487467986914
3617.4282,0.8184424924498975,130.96554626312363
3618.2625,0.8215797676339728,130.81266402049047
3619.0947,0.823328332889409,153.8056191370999
3619.9292,0.8237783356475342,186.51998761961923
3620.762,0.8228219901693118,144.3955617457973
3621.595,0.8202726354378383,114.65300444889218
3622.4302,0.8161375750694523,161.2941363537986
3623.2634,0.8108367969695371,164.42591623686673
3624.0989,0.8050894089298279,456.56946158568826
3624.9326,0.7998577768295884,148.48653648949974
3625.7686,0.7960933591425957,162.03740326178365
3626.6028,0.7946955131072344,186.15093421964053
3627.437,0.7962401451286852,247.66267267774643
3628.2734,0.8006628174947222,181.93845004466613
3629.1082,0.8068304854910592,255.15874850519455
3629.945,0.8126843666174675,199.84997166597256
3630.78,0.8159256306661771,163.38461297086542
3631.6174,0.8152598904619504,110.27919778482797
3632.453,0.811066129822842,217.89681411971708
3633.2883,0.8051376975770034,228.5048642464867
3634.1262,0.7996514952819087,199.06522973964107
3634.9622,0.7962396628855263,171.92473810063228
3635.8005,0.7953963971751171,150.2035190320931
3636.637,0.7964845409031304,190.42396328399607
3637.4756,0.7979415973674387,185.32213012002808
3638.3123,0.7978882388150184,191.56924976614633
3639.1492,0.7951120881597413,155.00491365404758
3639.9885,0.7898261390127401,195.10815122220697
3640.826,0.7837288863846678,153.2020290329716
3641.6653,0.7790108355377074,211.99430846873892
3642.5032,0.7772515017583348,175.46273018676078
3643.343,0.778631605572152,274.7722177579678
3644.1812,0.7821231482756428,171.16268707074317
3645.0195,0.7863010135384972,206.11831630556685
3645.86,0.7900834243131021,202.1583848841698
3646.699,0.7929067211749269,151.294593247566
3647.5398,0.7945938505706752,144.0120370291911
3648.379,0.7950858523591355,213.64977849612336
3649.2202,0.7943481879749262,193.08503817812226
3650.0596,0.7923613891977557,164.22310067271036
3650.8994,0.7892855358170255,196.93114431062068
3651.7412,0.7856292071645617,171.17367678903076
3652.5813,0.7820856054010636,205.56420193198917
3653.4236,0.7789820987665721,146.1326066082382
3654.2642,0.7761544066767035,303.2847929374467
3655.1067,0.7733433621738794,173.17785326616104
3655.9475,0.7708399417311225,108.27250033602176
3656.7886,0.7694170640640215,187.37615988789727
3657.6318,0.7696606226717668,147.7138911937896
3658.4734,0.7712898651702121,220.96592841435856
3659.317,0.7732057603603606,277.95267110098143
3660.1587,0.7741736325251783,213.22348132374574
3661.003,0.773581191003981,167.7321357883909
3661.845,0.7716794181871988,161.90670735900943
3662.6875,0.7693316228553518,239.29007661169112
3663.532,0.7676185194450592,205.9235725572878
3664.3748,0.7675484622047266,313.1605905167715
3665.2197,0.7698140125423844,242.69743388550913
3666.063,0.7745136914102665,271.69707912264687
3666.9084,0.7809689286016704,189.76853853520728
3667.752,0.7877240415633453,209.92181579580878
3668.5977,0.7931595127550504,131.32267420853947
3669.4417,0.7960568500627934,207.4611184831137
3670.286,0.7961447755147099,158.13341196100023
3671.132,0.7940186191426153,175.3163884657738
3671.9768,0.7907327661576624,239.30779113043604
3672.8235,0.7872110804570492,214.08731538448998
3673.6685,0.7840413209199604,162.33389040168936
3674.5156,0.7816092512025442,137.46557225756214
3675.3608,0.7804057329998753,150.13721486625647
3676.2063,0.7808282354092361,262.037209226284
3677.0542,0.782759518563327,197.9206152962689
3677.9,0.7853910477489241,164.221606117389
3678.748,0.7877478034176766,236.0001546585682
3679.5945,0.7893218372606112,233.71671043639398
3680.4429,0.7903065607402407,249.95521496717544
3681.2896,0.7910900565394674,146.99821530966264
3682.1365,0.7915865892984989,178.31049538212247
3682.9856,0.7909945126300024,147.09862979066992
3683.8328,0.7883503258917959,280.9869132952014
3684.6824,0.7834633557741592,141.53590509180356
3685.53,0.7775155561308972,284.69250658889257
3686.38,0.7725260255029274,195.72414993461052
3687.2278,0.7702834123944569,161.56111551252457
3688.0762,0.7712951104234934,269.8020258271199
3688.9265,0.7747263291447191,160.68625049884926
3689.7751,0.7789206888920699,198.84364562359028
3690.626,0.7821917651465891,296.01687524316674
3691.475,0.7833756946316455,214.79294147975168
3692.3264,0.7823035203552168,217.43732922128936
3693.1758,0.7797914671733553,227.37144869794767
3694.0254,0.777016445509091,167.71115791408187
3694.8772,0.7746347274442745,180.15296947792507
3695.7273,0.7724257146507084,164.7175343711671
3696.5793,0.769731438702547,282.8899194869444
3697.43,0.7663344933701117,216.01454652336287
3698.2825,0.762825982513107,217.0675284433737
3699.1333,0.7603547444358225,155.89212799611641
3699.9841,0.7598657048204832,178.16634632521635
3700.8374,0.761547085078519,183.5781876695253
3701.6887,0.7646901421463962,384.036874341833
3702.5425,0.7681368364432378,188.86045564976138
3703.3943,0.7708507454865787,196.79604498203327
3704.2483,0.7723838977229849,208.05877376310275
3705.1003,0.7728180750200733,184.12031043146075
3705.9526,0.7725140856071178,160.24342301614135
3706.8074,0.7718177864067526,153.1632307471378
3707.66,0.7709544109108133,269.62285688780065
3708.515,0.770017488598613,185.96199955572519
3709.3682,0.769008008365675,259.03317683945545
3710.2234,0.7678102818267459,178.31384388159202
3711.0771,0.7662524483756208,167.72850541379347
3711.9307,0.7642748323090515,313.9292594292071
3712.7866,0.7621615400564343,174.3029655415228
3713.6409,0.760590717866872,248.10830948962808
3714.4973,0.7603037792228718,163.56412150159608
3715.3518,0.7616875988868893,153.78732966187889
3716.2085,0.7645147217782917,253.3070668776955
3717.0635,0.76801054396387,304.08420242904424
3717.9185,0.7712544716959573,179.8329041738906
3718.776,0.7735631032108453,194.49769065941632
3719.6313,0.7746696916509963,119.94757424565333
3720.489,0.774677858750818,154.9976254500787
3721.345,0.7738248576366907,230.01362540133513
3722.2031,0.772363364699876,172.5722518001865
3723.0593,0.7705657120834851,244.10751025613203
3723.9158,0.7686381451805102,190.6586245659425
3724.7747,0.7665654118248676,147.52355076134342
3725.6316,0.7640641861119173,195.53466006369118
3726.4905,0.7607292598300405,136.42907778568912
3727.348,0.7563880010912009,158.1314167133237
3728.2073,0.7512360916418509,187.74651084833073
3729.065,0.7458727060823749,183.41622279200328
3729.9229,0.7409910423930685,235.80640570351989
3730.783,0.7370916300716619,241.52935408414973
3731.6414,0.7342907316301419,213.55181179812843
3732.5017,0.7323081120293132,260.33627483967524
3733.3604,0.7307609907020528,372.31043488093036
3734.2214,0.729376317862966,170.28057448809514
3735.0803,0.7281517638094677,225.08016054027908
3735.9417,0.727279625866973,182.65039747098612
3736.8013,0.7269493066591749,167.7316399525041
3737.661,0.727073354318323,237.30009256070468
3738.5227,0.7272409949857319,204.76970560848687
3739.3828,0.7269577591333586,170.11550877802904
3740.245,0.7260325337486478,166.7840339082109
3741.1055,0.7248016477232325,174.0228243517202
3741.9683,0.7239171655773762,172.55684766687926
3742.829,0.7238152947744328,275.27093889919917
3743.69,0.724239138171958,231.5962129604481
3744.5532,0.7243812653706294,149.34650352567164
3745.4148,0.7235976046773847,182.72430689386152
3746.2786,0.7220668403018747,227.92026983569403
3747.1404,0.7207535966916709,240.26039312613688
3748.0044,0.7207158910981034,379.87128245489396
3748.8667,0.7224847739276902,220.0695720883163
3749.729,0.725895553297647,178.11421580604957
3750.5938,0.7303132063056005,198.3470557167148
3751.4565,0.7349101168198078,226.6104891756052
3752.3215,0.7391012318256094,194.4240804193121
3753.1848,0.7427052436272247,143.5118651091537
3754.0503,0.7458965062136103,143.3465826759321
3754.9138,0.748676563967075,241.6770735217393
3755.7776,0.7506193650993321,246.61888627985914
3756.6438,0.7510682866869801,177.97109646582146
3757.508,0.7496559686429839,155.46826099250268
3758.3745,0.7465216600236234,170.8265767851364
3759.239,0.7421212362199467,222.48646060650623
3760.106,0.7369278878441162,249.83625724183565
3760.971,0.7315823927808048,249.46582988864728
3761.8362,0.7270179750652149,266.07076100461757
3762.7036,0.7244261339310638,173.01369322790055
3763.5693,0.7246770690221216,201.44239828706864
3764.437,0.7275375756879692,164.68984841885853
3765.3032,0.7314391274664656,298.3341733540951
3766.1714,0.7342038491900252,257.7544578003126
3767.0378,0.7342632023199619,311.5661666985244
3767.9043,0.7315838634788088,188.4565666295052
3768.7732,0.7274562962469681,257.0250284143655
3769.6401,0.7235467476724808,240.14049556959068
3770.5095,0.7208590480653763,182.85796466867907
3771.377,0.7195469562082161,252.61327182799184
3772.2466,0.7192315351816073,163.62326638035097
3773.1145,0.7194885204095411,174.88754401083773
3773.9824,0.7200585457161259,165.11554963369213
3774.8528,0.72088409833092,142.98404737378004
3775.721,0.7220304950224111,272.84287345659357
3776.5918,0.7235706281712968,370.26522544352633
3777.4604,0.7254679203821472,192.9219142315137
3778.3315,0.7276726454685627,221.02772549336234
3779.201,0.7301753118578369,326.62091545614146
3780.0703,0.7329194309911512,186.00908213095667
3780.942,0.7355120716730771,265.1254722790466
3781.8118,0.7371733099367591,225.48317116283062
3782.6838,0.7372236134178272,308.65393778056585
3783.554,0.7356688217546821,180.8069786996818
3784.4265,0.7333820634414672,497.2599188196484
3785.297,0.7316518609428467,155.81707157189092
3786.168,0.7313478409694859,166.27076873181278
3787.041,0.7324018678002883,173.19747174501362
3787.912,0.7338515807698086,231.89810529025186
3788.7856,0.7344540818028783,230.6008923872712
3789.6572,0.7333855294924677,216.58134033553182
3790.531,0.7306457361018084,183.17995305288528
3791.403,0.7269815729694031,181.07188637396644
3792.2754,0.7234009778052832,210.66259682677193
3793.15,0.7206863942213967,242.14247247017366
3794.0225,0.7191087314071295,172.48827088280683
3794.8972,0.7183302811047961,244.2960173729127
3795.7703,0.7175235638291372,299.31503189485716
3796.6455,0.7155725308083245,177.53844304649255
3797.519,0.7116118034842669,217.74286019958228
3798.3926,0.7057228441368377,191.5602567161399
3799.2686,0.6992803660467914,273.22745972590155
3800.1426,0.6944409064815017,289.68186088680477
3801.0188,0.6927034181953426,292.4209216293442
3801.8933,0.6938801017257178,292.9472443052188
3802.77,0.6960930808750603,309.23143866126264
3803.6448,0.6969587530068583,205.26795495988662
3804.522,0.6950760070876022,238.58186621189097
3805.3972,0.6907920936841573,436.5242094946108
3806.2727,0.6858997094104967,264.0921881031302
3807.1504,0.6827010979363941,289.4663903415392
3808.0261,0.6830271130836424,287.17924346742245
3808.9043,0.6875076257888686,214.49524491906962
3809.7805,0.6953186862163643,207.60371290980225
3810.659,0.7045611052082802,262.5727634156068
3811.5356,0.7129124465264818,320.729768262353
3812.4126,0.7186621881056657,185.06759911612875
3813.2917,0.7211918965011785,169.32450406073323
3814.169,0.7209879373835946,199.83607484980755
3815.0483,0.7192314476248461,144.94360241975372
3815.926,0.7171946773970681,275.4963527079265
3816.806,0.7157395044175735,258.71227388639966
3817.684,0.7151341168596128,238.3233909811536
3818.5623,0.7151075839217135,206.40396278315922
3819.4429,0.71514461461447,198.50318786711247
3820.3215,0.7148422943892936,340.1985309295975
3821.2024,0.7141846089455196,290.72415465160964
3822.0815,0.7135294563748377,217.22350346569763
3822.963,0.7132315632677816,222.09097930435593
3823.8423,0.7131926289934086,163.45870070651765
3824.722,0.7127197378058276,245.1208080705367
3825.604,0.7108820386439066,216.75089809932766
3826.4841,0.707149822183517,268.36964273208537
3827.3665,0.7017732929579296,269.99949009349706
3828.2468,0.6957487622442151,295.8320159328217
3829.1296,0.6902006448555941,292.2795431064086
3830.0105,0.6859603460372882,203.65846055697358
3830.8916,0.683277406373029,198.86838559671938
3831.7751,0.681964763837259,248.6642670934404
3832.6565,0.6815290220366962,305.3021014334065
3833.5403,0.6813238096071137,197.78268436325308
3834.4224,0.6808872904775014,198.9271709607055
3835.3064,0.6802256238418102,239.56585329655718
3836.1887,0.6796300720376103,231.03800250919275
3837.0713,0.6788923416372313,230.60700200555044
3837.956,0.676658896477719,225.8641276530624
3838.839,0.671008632597976,216.47834930463188
3839.7244,0.6612973307533931,222.21787411832534
3840.6077,0.6499344083008548,210.11055831681625
3841.4932,0.6416171507115792,2361.566872518773
3842.377,0.6405314738296833,562.9496301589388
3843.261,0.6473514660411441,262.85253311631453
3844.1472,0.6591391578901484,320.00166489737234
3845.0315,0.6715117037575663,275.7510461774019
3845.9182,0.6814119899872907,220.86658408211113
3846.803,0.6878383090948815,326.32718464420606
3847.69,0.6913777988565244,208.66160327843224
3848.5752,0.6930388141627816,279.5554765724021
3849.4604,0.6937600199226822,287.6854379267479
3850.3481,0.6942792303576616,226.8944692623991
3851.234,0.695149771023428,279.06104349699547
3852.122,0.6967599568152749,245.70235960951143
3853.0083,0.6993666122808009,250.42696280110403
3853.8967,0.7031108410124817,344.54262018059467
3854.7832,0.7077322954851034,203.97339323965127
3855.6702,0.7124000497094803,240.05273494340594
3856.559,0.7158953813874033,232.54991934928455
3857.4463,0.7172676654061934,200.68041277700303
3858.336,0.7164330473302288,159.88406207248084
3859.2234,0.7141055646877176,190.74576616626507
3860.1135,0.7112425038744619,248.44544238858424
3861.0015,0.7085992136955425,275.16806297056365
3861.8896,0.7065826207676017,240.2284194211378
3862.7803,0.7054023538561406,249.2594354838239
3863.6687,0.7050592247154157,213.51376518405948
3864.5598,0.705163457868362,162.32324647736513
3865.4487,0.7049742652965071,181.66172761812692
3866.34,0.7037952735912776,224.32213410376448
3867.2297,0.7014406820935483,286.91058182386837
3868.1213,0.6982769595954628,203.84557251696705
3869.0112,0.69491388403743,278.8890374526929
3869.9014,0.6917969716604373,240.46069752428397
3870.7937,0.6891416059076056,284.24563957334607
3871.684,0.6870860267739148,229.08825558840834
3872.577,0.6857544109535856,210.8847668904102
3873.4678,0.6851839765638524,197.9622521045511
3874.361,0.6850589230262978,267.5151290038477
3875.2524,0.6846673276806964,287.9185809438751
3876.1438,0.6832274806432422,204.62530776574044
3877.0376,0.6803853406049427,187.15623211040992
3877.9297,0.6764579288367418,240.7776241121706
3878.8237,0.6720748603835841,287.5293280254369
3879.716,0.6676782463900569,224.6054777228422
3880.6108,0.6631492526230548,329.4406219989476
3881.5037,0.6580978027800177,292.2432417310398
3882.3965,0.6522966217995974,290.41633266252245
3883.2917,0.6460517138229782,280.9302481589112
3884.185,0.6401501705754766,514.5522061369091
3885.0808,0.6352863838506245,184.22484391181055
3885.9746,0.6317266647182951,416.66235848097676
3886.8706,0.6291567573323793,222.31266004775054
3887.765,0.6270856682881552,255.5052786752003
3888.6592,0.6251767777208459,274.33034538398937
3889.556,0.6233626088733408,265.77866389042083
3890.4507,0.62173922579539,266.85186092237876
3891.348,0.6204860820081728,219.98101950977247
3892.243,0.6199736134343575,297.9749923577636
3893.1406,0.6207173781354797,297.8293163934165
3894.0361,0.6231064386859021,287.8635379582956
3894.932,0.6270746595513982,251.95006591129913
3895.83,0.6320521277940451,286.7271609762427
3896.7263,0.6372564084212139,323.37022750635606
3897.625,0.6422966032019196,327.199131783303
3898.5215,0.6473679676124428,255.27585356564293
3899.4207,0.6531758593378965,302.94384029567465
3900.3176,0.660232564029714,427.299711936857
3901.2148,0.668362511541296,422.70004978517727
3902.1145,0.676545782848303,227.44265596481796
3903.0122,0.6834197303760582,163.4398924672811
3903.912,0.6882290307381131,246.87470127829275
3904.8103,0.6910346783246847,420.5092768232576
3905.7107,0.6924118722150567,203.09509862903587
3906.6094,0.692849398351268,242.39909686509657
3907.508,0.6927013650984286,214.4708023419383
3908.409,0.6925051810905383,174.79291477339717
3909.308,0.6931428157788969,259.86987383806536
3910.2097,0.6954872796329464,267.7542014153654
3911.1091,0.6998387658981905,203.84400702853435
3912.011,0.7058013192611557,241.91119921042804
3912.9111,0.7124842694345576,304.87021222010543
3913.8113,0.7189591874892414,280.86629245995255
3914.7136,0.7244183608113401,224.4060856779894
3915.6143,0.728258048516417,167.96811545085876
3916.517,0.7303299788013606,213.27144780010684
3917.4182,0.7309588003952406,250.99375756228824
3918.3215,0.7307810947729118,181.52608604237065
3919.223,0.7303464424137561,153.16320641362057
3920.1245,0.7298904958985317,235.79349209947858
3921.0286,0.7294525585202438,206.24109756222487
3921.9307,0.7291723171309515,226.54356998759795
3922.835,0.7293818742244796,249.83116240193743
3923.7373,0.7303435996793795,254.80176242742706
3924.642,0.7318937954802622,192.07006209975847
3925.5452,0.7333967222397241,196.13746724055463
3926.448,0.7341741590215668,181.4477130333292
3927.3535,0.7339663979579273,260.1230133467942
3928.257,0.7330599696371539,243.43897344123823
3929.1628,0.7320212971933282,191.6351563120855
3930.0667,0.7313348890452156,183.7600420978516
