wavl,flux,ivar
3566.9744,4.786664793680486,25.226414644422444
3567.795,4.798204948754951,20.595801605220345
3568.6177,4.82306719203863,24.9274998778667
3569.4385,4.850278561393282,19.28743229565807
3570.2617,4.8710515775738354,30.62917864935981
3571.083,4.879381627465173,27.347192321916197
3571.9065,4.8718641174841135,31.133494853099908
3572.7283,4.848187248539357,19.019475352164978
3573.55,4.812956663729241,20.28709369828481
3574.374,4.775684237751792,18.018762750135856
3575.1963,4.747531463728142,18.5482039333719
3576.0208,4.735185102972751,21.69763174496352
3576.8435,4.737980340343074,20.356326232340706
3577.6682,4.749042960935034,15.994462655879625
3578.4915,4.760108632845214,17.862910899502726
3579.3145,4.7658941322477,22.286284229312724
3580.14,4.764769831061741,25.230025793407023
3580.9636,4.756773159302115,16.595361046951503
3581.7893,4.7419785251598885,21.68691880894363
3582.6133,4.7212007897528085,24.4966043978065
3583.4395,4.696907501987269,36.28317481296156
3584.264,4.673328689430881,25.48235832221756
3585.0884,4.6547740654240854,20.2052445819484
3585.915,4.644812834655615,37.524515590270106
3586.74,4.645423095121693,22.91111395165128
3587.5671,4.655653660922955,34.80367163509137
3588.3923,4.671392274886691,28.417548848421973
3589.22,4.687666888723088,23.524596814620246
3590.0457,4.701168895556187,25.833709152551297
3590.8716,4.710818997692443,25.092734321596307
3591.6995,4.715248281000471,27.075650946663345
3592.526,4.711578948735355,22.868481026871684
3593.3542,4.697935454066507,17.420341676955363
3594.181,4.6772505075266935,22.728943730826327
3595.0098,4.657067631245851,30.20750103074812
3595.8367,4.645086853547686,18.814697499053455
3596.6638,4.6437325903194555,22.583526938289218
3597.4934,4.649822533023631,21.49376503344699
3598.3208,4.658081994416166,18.646908855280387
3599.1506,4.665004067230384,22.7832987055946
3599.9788,4.669392315558024,16.700338785222517
3600.8088,4.6707192434133376,25.685901379808154
3601.6372,4.667316659321412,17.465596964799595
3602.4678,4.656454983004171,18.70621568969886
3603.2964,4.636337048017683,25.39373473168664
3604.1252,4.608117965247787,28.84573015192429
3604.9565,4.57650707933894,24.195398401139954
3605.786,4.5484460731446195,22.46157393464877
3606.6172,4.529669237476938,27.561234294328823
3607.447,4.522804879783958,19.503435599485574
3608.2788,4.526177206335902,18.773358348574966
3609.109,4.53453737620757,25.06131379845316
3609.9392,4.54103523074365,23.59144278207131
3610.7717,4.540287172369009,21.501865044284077
3611.6023,4.531255972618855,24.60936446712914
3612.435,4.517433554789948,35.31700580830498
3613.266,4.504168339176312,27.971737143492263
3614.0994,4.495413029140653,27.27033117835863
3614.9307,4.493288392957761,18.586814628879793
3615.7625,4.498633773680813,29.843847814534822
3616.5962,4.510538245269891,22.521501049177044
3617.4282,4.52454118355203,26.11205358296085
3618.2625,4.533237096520881,20.31225313635342
3619.0947,4.529901697016786,23.445252964382075
3619.9292,4.5130008055312505,24.437197268559792
3620.762,4.4875312572787465,30.40422483491314
3621.595,4.462092783567572,22.87165143923148
3622.4302,4.444487465284996,39.092557791914984
3623.2634,4.438235920499007,28.06802268201228
3624.0989,4.441170661338472,34.43715240011767
3624.9326,4.447093871558976,21.84487505423542
3625.7686,4.448992275371192,20.49389803998352
3626.6028,4.442177030139798,21.231008675190896
3627.437,4.425879539956487,22.142448025010403
3628.2734,4.402935303070972,21.36367676265917
3629.1082,4.3789411777643785,31.648487736267672
3629.945,4.360219288107037,27.729015572795042
3630.78,4.351791600738004,23.09826529942511
3631.6174,4.354774619623814,24.52167466812912
3632.453,4.3661965035878785,25.138376117048207
3633.2883,4.381220311739751,26.07301652571364
3634.1262,4.396159450618729,26.954642375815432
3634.9622,4.409403872691126,27.36267281754018
3635.8005,4.420394030496469,32.6810985526335
3636.637,4.427979479831305,78.22080905929782
3637.4756,4.431560412401457,19.27822536810599
3638.3123,4.433058834341866,36.29252908847751
3639.1492,4.436702339416275,30.54486372086683
3639.9885,4.445336927571294,30.611588718925088
3640.826,4.457068404721435,21.714039012439837
3641.6653,4.4665823181759325,20.443180132435693
3642.5032,4.469534904021006,40.95305049780648
3643.343,4.465801907175328,28.960998344278796
3644.1812,4.4583698517175385,27.59235901560637
3645.0195,4.449893817458581,25.48717813234406
3645.86,4.440520570877226,30.189721739514166
3646.699,4.428756770079993,25.843045294115626
3647.5398,4.41428216152915,23.939093893239267
3648.379,4.400848744171802,29.227008271621266
3649.2202,4.395628498423546,32.52866821690655
3650.0596,4.4050113319073745,37.78771046345804
3650.8994,4.429212666913609,30.234775973047455
3651.7412,4.460939312337489,24.285186805830932
3652.5813,4.488996056592014,24.869449537052475
3653.4236,4.504724799127103,26.386722704457462
3654.2642,4.505148935386941,24.786082842163264
3655.1067,4.492997497897593,23.667209803324692
3655.9475,4.474216571393673,23.696019945833818
3656.7886,4.45504621848702,25.752442724461787
3657.6318,4.439851977647418,38.62600105056333
3658.4734,4.430243571145795,29.948217519269985
3659.317,4.425944791909402,16.83223100154648
3660.1587,4.427884903944744,22.250773551962393
3661.003,4.440222316913108,16.18485779029389
3661.845,4.467887292294294,26.082795913311095
3662.6875,4.509918942399059,30.827485277871368
3663.532,4.553952493014351,23.406746471076147
3664.3748,4.579313479783465,22.424561337910372
3665.2197,4.570076085088406,20.676882066995116
3666.063,4.526519597371695,24.45007157521298
3666.9084,4.465084444988322,26.235405977995335
3667.752,4.407163249832037,25.681380955279927
3668.5977,4.364742526513419,29.89775853576551
3669.4417,4.3371420533949046,29.096111755727016
3670.286,4.316633558915011,28.757971200069367
3671.132,4.2984930177034135,29.381005519882095
3671.9768,4.285275102596849,34.34857664554867
3672.8235,4.282910726440478,27.301100283564665
3673.6685,4.294369869727736,25.232801485237484
3674.5156,4.316870458986352,26.245303423990215
3675.3608,4.343566599150234,31.342598891049875
3676.2063,4.366780893574109,31.723209350645
3677.0542,4.379686407210599,19.53655800537212
3677.9,4.378344555605863,27.830544093848037
3678.748,4.364261476829697,28.547069366089044
3679.5945,4.344213123704739,30.280913081820486
3680.4429,4.32581660126402,36.250744988243
3681.2896,4.312593690604649,26.49289069922553
3682.1365,4.30210860865669,27.2408346864704
3682.9856,4.289170740347725,17.37735374522939
3683.8328,4.270584051812924,14.535832104173126
3684.6824,4.247421961594886,21.11034024522886
3685.53,4.224361923450514,25.723551465339554
3686.38,4.206165581420685,32.4879527985
3687.2278,4.1956113197491405,33.24650543352889
3688.0762,4.192861374684432,26.728537573200107
3688.9265,4.19682787181032,26.27808524472209
3689.7751,4.205815986103781,42.30997445756925
3690.626,4.217299611936272,35.09146521184671
3691.475,4.227767714380696,24.148618180932722
3692.3264,4.234516566144512,20.2688814646519
3693.1758,4.237444664695357,29.883952402396456
3694.0254,4.238869618699451,39.519037856599525
3694.8772,4.2406768672518345,31.701638794996803
3695.7273,4.241914033528798,29.885350120347223
3696.5793,4.239289830917127,23.54827644688181
3697.43,4.229966761114092,31.186435101746522
3698.2825,4.213908211959543,29.24974096007591
3699.1333,4.1942363439885595,27.9666170807408
3699.9841,4.1752153225702395,30.258228996505323
3700.8374,4.159889102491,27.40420597399086
3701.6887,4.148650887302709,33.61756697413482
3702.5425,4.139382634343808,25.63729777221391
3703.3943,4.129847293746345,28.494320527762564
3704.2483,4.119547377350822,27.20224208843226
3705.1003,4.110181889260456,26.948024153821045
3705.9526,4.103955189276656,24.939169141420034
3706.8074,4.1019006983683886,29.68797068165943
3707.66,4.103099787282755,21.119177663432946
3708.515,4.105017017042328,27.58659428219323
3709.3682,4.1042999170911,39.701019821895855
3710.2234,4.097569749831874,30.243163123097332
3711.0771,4.082442079760564,31.65066781174089
3711.9307,4.058877738471531,29.023314462352648
3712.7866,4.0302511595381025,37.858801887459855
3713.6409,4.0032412704840405,29.7853522609505
3714.4973,3.984855465769894,33.199535016320844
3715.3518,3.979472386934845,38.67906310970279
3716.2085,3.986331303914875,27.72429539586396
3717.0635,3.999995122904105,34.7905135182685
3717.9185,4.0133468277675854,30.502533244399128
3718.776,4.021720728948132,24.531961605201698
3719.6313,4.02549342735088,30.10640038066832
3720.489,4.0290881739581685,28.326150446792543
3721.345,4.03643155439381,26.448256810724082
3722.2031,4.047136711187532,27.22922559063617
3723.0593,4.056452782870573,31.019782300309583
3723.9158,4.059094869794746,30.548255679065797
3724.7747,4.052691636746261,32.05996501455002
3725.6316,4.038699552464656,28.423620622989464
3726.4905,4.020757740206444,21.68981004197145
3727.348,4.0031805948345305,27.171092244231055
3728.2073,3.9896213123648714,35.42454614429929
3729.065,3.982186404914565,30.984619060502588
3729.9229,3.9800559546807186,29.304672358589897
3730.783,3.9798701319476195,30.71816407992604
3731.6414,3.9781402681608826,27.984547330303897
3732.5017,3.974081130284536,24.47605534154859
3733.3604,3.970049304062369,35.34175438014308
3734.2214,3.9689178810949937,30.301797450531815
3735.0803,3.9710929181844095,34.0532846610459
3735.9417,3.9739562210383386,38.09858681709203
3736.8013,3.9742617359274224,30.33332165123447
3737.661,3.971237614577235,23.83755481927944
3738.5227,3.967487695871444,31.375786662995484
3739.3828,3.96700776286079,23.62053926607242
3740.245,3.9717295487969757,30.36410490044685
3741.1055,3.9794693529697085,39.40999518533379
3741.9683,3.985159043317315,31.172293599948482
3742.829,3.9843196605475044,39.73082687426637
3743.69,3.9762538666378364,32.43514950658652
3744.5532,3.963928330244716,29.167519450575334
3745.4148,3.9511802506798457,28.22181159808791
3746.2786,3.9393226624764814,34.70070900422462
3747.1404,3.9267969226697557,33.078013633936514
3748.0044,3.9112116163622095,31.3687972471883
3748.8667,3.89231047603901,30.32443833427607
3749.729,3.872514178699767,28.109353107806474
3750.5938,3.8556277246853226,34.3504828343152
3751.4565,3.8448665813832976,28.51846748527523
3752.3215,3.8411956721374927,31.370159957353234
3753.1848,3.843595347562032,29.286581107427285
3754.0503,3.85002960464775,33.736397678167904
3754.9138,3.858204297933635,39.81263019654752
3755.7776,3.865576495970768,39.19855534065683
3756.6438,3.869315223179693,31.062007598256294
3757.508,3.867409172412133,32.20379004733018
3758.3745,3.86016957656571,38.839702751771014
3759.239,3.8503451910233344,38.07382344358137
3760.106,3.84139649524099,27.479619688908187
3760.971,3.83570939459166,33.63321439358471
3761.8362,3.833399772093928,34.20351810340102
3762.7036,3.8325489649346625,30.032491052769736
3763.5693,3.8302661971221,37.81493912089197
3764.437,3.824283702582111,35.19464821857048
3765.3032,3.814360006288741,33.364874484029315
3766.1714,3.80243507766506,32.32221552239975
3767.0378,3.7917138879416763,38.56142809869464
3767.9043,3.7847776960703436,32.63917270915115
3768.7732,3.782433976890295,33.9742229198848
3769.6401,3.7836876524333736,28.57297778801869
3770.5095,3.78667987124765,33.7669314697712
3771.377,3.7897026916328747,36.87355256224834
3772.2466,3.791741901729349,54.530256602022604
3773.1145,3.7926252091171513,35.686379555574156
3773.9824,3.7932271535253803,39.84624823382439
3774.8528,3.7952691361052864,41.403003578576104
3775.721,3.800385028125355,40.46633233342417
3776.5918,3.809111368719622,30.450843315997368
3777.4604,3.8205771725357565,36.05752108417811
3778.3315,3.8333998807321876,36.06606253643638
3779.201,3.846021540053872,26.284523261867765
3780.0703,3.8567530570645325,33.63528897617227
3780.942,3.863398008898757,44.42548867062687
3781.8118,3.8636282949984553,30.06812403618111
3782.6838,3.856177512270005,26.975840625704286
3783.554,3.8418641073793975,27.818081169578846
3784.4265,3.8233864733672394,31.416159065029678
3785.297,3.804259934346051,26.96369374749555
3786.168,3.7868289304071054,32.63146185272345
3787.041,3.771474572630685,32.466589604378576
3787.912,3.7569136210144727,31.520164182816078
3788.7856,3.741205947831391,33.682977890121414
3789.6572,3.723855742786866,25.193550941550594
3790.531,3.706452881963722,37.92506391643536
3791.403,3.6917692660481674,39.89778218598016
3792.2754,3.6808657815749615,37.47179996001344
3793.15,3.671785481608216,31.597742467526494
3794.0225,3.6605976303831076,43.09889501525429
3794.8972,3.6434195356738357,37.297062610901534
3795.7703,3.6184415183930607,31.78069184789003
3796.6455,3.5867088424062965,36.09112849157763
3797.519,3.55300081268396,45.72580681654572
3798.3926,3.5244528473879835,36.282127661333206
3799.2686,3.508141602444219,34.47414731669978
3800.1426,3.507873305432051,34.26168901840262
3801.0188,3.5219929217629167,37.22014853651096
3801.8933,3.5442973121290864,34.80545292790176
3802.77,3.5674991910039626,36.86951349616805
3803.6448,3.5864359084966155,37.47261640148957
3804.522,3.600066523281337,28.510561064802012
3805.3972,3.6102529445966436,37.66239505364963
3806.2727,3.6198665758345765,43.98240539361682
3807.1504,3.630799621922573,30.262539985701757
3808.0261,3.643111696670922,38.52998186370076
3808.9043,3.655398896559326,34.48334081005198
3809.7805,3.6654103842424113,31.66925244230258
3810.659,3.6715035192922416,28.482934713622274
3811.5356,3.673415358631755,34.99027973163546
3812.4126,3.672208736815871,41.136919398085396
3813.2917,3.6691326536028455,30.216345671821745
3814.169,3.664994226932184,37.869150618091204
3815.0483,3.660535281424611,41.86798262747613
3815.926,3.6573300752725832,32.09013768194577
3816.806,3.6577766135924734,43.62849423247163
3817.684,3.6639693600962535,37.70538372798568
3818.5623,3.67582881686418,39.451165969970575
3819.4429,3.6899308606145964,33.646450022689315
3820.3215,3.700244785740833,31.28323303637762
3821.2024,3.7014220340906507,36.40191142878256
3822.0815,3.6916121905985464,37.92873997335602
3822.963,3.672588971476175,38.1302765542589
3823.8423,3.647207322803022,50.867697381374754
3824.722,3.6166115433881254,34.13896033287581
3825.604,3.5805326625256697,37.10516803128676
3826.4841,3.5398182649771055,42.84327247211664
3827.3665,3.4970406420056652,35.502190251198016
3828.2468,3.4560112699346517,40.206713774894766
3829.1296,3.418719688268862,45.557003750850825
3830.0105,3.38506799668617,38.02371709685053
3830.8916,3.3528796710707423,41.2483213362378
3831.7751,3.3193863123784135,46.126066644675355
3832.6565,3.282462824603128,39.87636691702199
3833.5403,3.241187908558952,53.1388544285163
3834.4224,3.1980172187757714,37.05161956246581
3835.3064,3.158467935158519,42.020603116487614
3836.1887,3.130132426042783,56.4181107161354
3837.0713,3.118883727818507,52.37005457309351
3837.956,3.1264640175319935,78.51362046031895
3838.839,3.149721630182944,48.2015730659723
3839.7244,3.1829313928553784,46.29442982429443
3840.6077,3.2207390224261547,32.4185282783829
3841.4932,3.260743123992079,36.48615533636965
3842.377,3.3023969103407302,41.215394902274184
3843.261,3.346170561254202,41.87725692132462
3844.1472,3.392781369910788,44.75967540203327
3845.0315,3.4428586738278657,35.0418677182066
3845.9182,3.496337132193734,42.54584938671898
3846.803,3.54894231355069,32.205178724176086
3847.69,3.5929261511289194,33.08641820721829
3848.5752,3.6203697811336815,38.258736256269856
3849.4604,3.629679677465988,29.863226227186644
3850.3481,3.6270486285790766,44.11091741316534
3851.234,3.622875597875208,34.20929443203454
3852.122,3.625752565848577,38.23509721450598
3853.0083,3.638655763079214,44.50455771429808
3853.8967,3.65887783973265,33.59661670959842
3854.7832,3.6802716296252824,32.686692878873195
3855.6702,3.697046404385476,34.681610544652315
3856.559,3.706617805061259,30.499356043089545
3857.4463,3.7107389965570454,31.968744577888632
3858.336,3.714232312921116,36.1864033152027
3859.2234,3.7222256636290814,31.668253521445422
3860.1135,3.738561198385132,39.03223043685262
3861.0015,3.7657522329741098,32.090884563917335
3861.8896,3.805870636201575,33.54565763864724
3862.7803,3.858939062701561,37.55610576669617
3863.6687,3.9180341818408513,35.92065972344229
3864.5598,3.967602761376473,37.7363862480844
3865.4487,3.987688156034508,31.08172826474059
3866.34,3.9672656959163173,52.18836351059491
3867.2297,3.9126470963642586,34.6660788360532
3868.1213,3.8427268261000256,30.821846766515645
3869.0112,3.77599546106859,29.916702265647896
3869.9014,3.7199743477590315,37.097584472867624
3870.7937,3.6728807852624707,31.04173293509353
3871.684,3.6307792322996106,42.06798262507214
3872.577,3.5912313859725935,39.379709382353866
3873.4678,3.553489452232991,41.79082820390783
3874.361,3.5153841602002425,29.961045621417416
3875.2524,3.4739035327379755,37.36230719485566
3876.1438,3.426705957399619,34.089967788466325
3877.0376,3.374094515108752,43.10383888028504
3877.9297,3.318842830572597,43.39341984163909
3878.8237,3.2631248964127386,45.03909128640062
3879.716,3.2080143653672275,45.113947605219
3880.6108,3.152958776428502,55.719311337905054
3881.5037,3.097892544793262,48.764054261864544
3882.3965,3.0427108665562135,44.003780375308565
3883.2917,2.987240591128176,60.86825356903384
3884.185,2.9313863626084666,58.350373193427124
3885.0808,2.874452320072302,52.3205159568981
3885.9746,2.8169050002089766,59.245992611357934
3886.8706,2.7598077784721875,60.42947530111584
3887.765,2.706001158209684,68.29227635488328
3888.6592,2.6588561310534145,80.08433616991131
3889.556,2.621923966508403,85.54935076412555
3890.4507,2.598585877942001,68.54782262691685
3891.348,2.5914538690865654,76.11427943829202
3892.243,2.6028752532273907,91.89047737716893
3893.1406,2.634048955387064,59.097412697718475
3894.0361,2.683263843293096,82.49974567224142
3894.932,2.745768959644101,63.37108447752571
3895.83,2.8148785684250828,64.61185358162078
3896.7263,2.8834173379974413,63.75477335723987
3897.625,2.946493805449647,53.94497576621299
3898.5215,3.0011359707163265,52.712011107693115
3899.4207,3.0482296787390855,53.090922367612976
3900.3176,3.0912316946965213,60.78559736560642
3901.2148,3.135325349241609,48.38720509731058
3902.1145,3.18418009264895,52.77814142614221
3903.0122,3.23781336358915,37.971497488739466
3903.912,3.294060400850942,37.392144437396674
3904.8103,3.3496653102357556,46.17460290409097
3905.7107,3.4026917732569606,31.552542259163783
3906.6094,3.451627511748742,35.690040165864
3907.508,3.4956414180262527,37.03147576148525
3908.409,3.534120312908193,40.549599403012955
3909.308,3.566994274551019,43.59093559546206
3910.2097,3.5959713727172526,41.647487503802466
3911.1091,3.623736867727225,40.14561475469152
3912.011,3.6531803500281153,30.645925564883928
3912.9111,3.6850572243912434,31.090267974779476
3913.8113,3.7178042247119465,39.39655712253449
3914.7136,3.74849317276545,34.003185309449826
3915.6143,3.7747015251123734,28.737823779969442
3916.517,3.796494281035416,36.43104964297934
3917.4182,3.815824813455155,28.106536629998295
3918.3215,3.83527261647845,32.203589820895225
3919.223,3.8558125686373197,33.004018041865315
3920.1245,3.876505604106825,31.33933068682741
3921.0286,3.8953567484032763,30.187140975005896
3921.9307,3.910859631360637,30.807187733980196
3922.835,3.923262416917743,30.03007248228971
3923.7373,3.9338065553281303,30.398013258713
3924.642,3.943504496430471,34.90249190790828
3925.5452,3.951696484760798,29.17370066995782
3926.448,3.956363744911006,30.06270205808962
3927.3535,3.955716488990702,27.026106996165527
3928.257,3.9501706283204028,31.054787523046254
3929.1628,3.9427167668485734,26.87389610021003
3930.0667,3.9371195468827644,34.53808011743149
3930.9731,3.9351103879603246,36.33171279300362
3931.8774,3.9352110380083993,28.46899056715482
3932.782,3.9338233342332294,27.31887373969142
3933.6887,3.92763588385151,30.843827550820144
3934.5938,3.9154023415811285,28.573599225327577
3935.501,3.8979321255524515,29.398603362675615
3936.4062,3.87732130316502,34.635924133383256
3937.3142,3.8555956824431608,40.844270894357436
3938.22,3.834442142154212,32.870882550200996
