wavl,flux,ivar
3566.9744,1.2992076050931256,74.87422568941638
3567.795,1.289564134877736,80.93914398224491
3568.6177,1.2799632581819496,214.78622182042167
3569.4385,1.2732118056554798,118.10207350243053
3570.2617,1.2701597605319443,93.69410374963373
3571.083,1.270029669507352,191.5358896617107
3571.9065,1.2713446322990574,71.58906923721679
3572.7283,1.272807403223513,157.5221370100079
3573.55,1.2735611510194684,77.9187093026779
3574.374,1.2730696256678096,141.58705436055243
3575.1963,1.2711272972203176,91.9096742482831
3576.0208,1.2681056680458378,69.28634468199857
3576.8435,1.2652005677673142,153.49158668055875
3577.6682,1.2640330413208143,87.15517785166597
3578.4915,1.2656337550724908,114.90410916490806
3579.3145,1.2694123730925757,179.764470716779
3580.14,1.2733368256139124,103.52992019358301
3580.9636,1.2753340515285874,119.02951900646892
3581.7893,1.2749192666320037,99.02837552991242
3582.6133,1.2734614089756298,82.84503619288544
3583.4395,1.2730414026955035,82.97008838291731
3584.264,1.274931526953491,83.11353569460977
3585.0884,1.2788951006641824,123.98369902844613
3585.915,1.2837334088441608,79.51144922815672
3586.74,1.288300290824183,101.8936269111428
3587.5671,1.2921956461298927,101.22792162005801
3588.3923,1.2954186009205915,129.37664905436156
3589.22,1.2977474798681299,75.24619935014316
3590.0457,1.2982779421326076,114.34365965985938
3590.8716,1.2957201123046902,74.93505041642521
3591.6995,1.289066911053205,89.72399901083453
3592.526,1.278398845537419,113.45173577939002
3593.3542,1.2650735023650934,100.31394385907218
3594.181,1.2515459900632142,147.65652865624128
3595.0098,1.2402795567435683,109.4480060955997
3595.8367,1.232992455374816,140.8910277354757
3596.6638,1.229899268929992,168.74962133218605
3597.4934,1.2300351450204285,65.58205493211541
3598.3208,1.2319737555021377,85.22482449414483
3599.1506,1.234571619930739,69.18403162780227
3599.9788,1.2371268658827224,119.53944758482204
3600.8088,1.239054128065939,116.41798607938415
3601.6372,1.2393363029718865,89.63279319097576
3602.4678,1.2364764376989483,112.43749917180907
3603.2964,1.2292736678142813,81.26351728159852
3604.1252,1.217992616121173,56.10764946294903
3604.9565,1.2047717157449789,84.40686205064769
3605.786,1.1926220478478342,133.51542161082838
3606.6172,1.183365247574188,102.52033212106126
3607.447,1.1771331904857747,151.30069790697
3608.2788,1.1732184117197038,112.37761265961873
3609.109,1.1716394926980813,103.21976504877017
3609.9392,1.1733528016483636,170.78506783992765
3610.7717,1.1792291979662313,122.6550624277472
3611.6023,1.1887821646900272,142.389610441337
3612.435,1.200164367427669,155.58359178336133
3613.266,1.210814040513341,121.95105419884364
3614.0994,1.2184480652229168,103.12852239461256
3614.9307,1.2212797427524973,127.18339887480882
3615.7625,1.2185515645818694,126.07304006421246
3616.5962,1.2110458592734878,104.44127135265619
3617.4282,1.2014075350894913,133.54232550160947
3618.2625,1.193125099310006,99.99970415359219
3619.0947,1.1890134897881466,104.33620681534649
3619.9292,1.18988316990531,101.28908054608137
3620.762,1.19471908240543,83.52199718972294
3621.595,1.2017035490054286,147.38276975808475
3622.4302,1.2092087661885293,95.17929143660525
3623.2634,1.2160691776437405,129.80588419452621
3624.0989,1.2216210270461665,88.34846404303164
3624.9326,1.2254442890252026,101.27974449216971
3625.7686,1.2273555486890706,203.57307937188654
3626.6028,1.2271586037324231,121.75653905392014
3627.437,1.2246399579568452,83.07784535331564
3628.2734,1.219941868168651,112.31953198485874
3629.1082,1.2142344041633957,106.89310093570143
3629.945,1.209614989939746,112.56649137057742
3630.78,1.20819746944031,167.30205249002898
3631.6174,1.2108465890956277,89.68211052036955
3632.453,1.2167119483670985,138.8342783498682
3633.2883,1.2235393941619515,76.08985102799754
3634.1262,1.2283322515909083,96.28835368069267
3634.9622,1.2283273583724943,64.89542849005755
3635.8005,1.2224142128974613,122.15190221531678
3636.637,1.2120909059649965,133.33711740365428
3637.4756,1.2008948942084525,78.84245856512156
3638.3123,1.1926583251812348,147.77836875239592
3639.1492,1.1892696174671127,147.23140769353648
3639.9885,1.1901682960646087,81.48920381126499
3640.826,1.1934272858436903,131.95958536012768
3641.6653,1.1974303650649267,111.84129714555132
3642.5032,1.2014478624485276,97.10177532518765
3643.343,1.2050771320770637,144.56045314512716
3644.1812,1.2075011445482358,87.660559863414
3645.0195,1.2077784466902775,99.67969436340297
3645.86,1.2056139710780747,103.75260422861147
3646.699,1.2017093836474142,95.9222522069236
3647.5398,1.1970637819644692,101.05585724392601
3648.379,1.1921483069498517,135.9667859088728
3649.2202,1.186825985186845,122.02562198483972
3650.0596,1.1813714214246323,103.65728054691004
3650.8994,1.1770210494626825,118.72824876095093
3651.7412,1.1753798750639592,172.2705429217425
3652.5813,1.176971437356641,129.81201130809788
3653.4236,1.180447990435458,103.61720201869801
3654.2642,1.1831800903370224,86.06038827506018
3655.1067,1.18273110457475,140.07017912714588
3655.9475,1.1780431970984044,96.0268283243189
3656.7886,1.1698071360585678,174.82015157948476
3657.6318,1.160007484875321,111.02820934138626
3658.4734,1.1512295221449709,113.26528732915156
3659.317,1.1457243720674135,116.26303295048903
3660.1587,1.144869638916269,109.07209681329958
3661.003,1.1486049765556556,112.14733403722973
3661.845,1.1554063638219818,224.30757313860644
3662.6875,1.16301244943227,82.18033730625993
3663.532,1.1695195839561807,141.1424672354189
3664.3748,1.1741473772327182,85.532468765667
3665.2197,1.1771892529607362,104.42540714813828
3666.063,1.179124132414466,125.18509799765631
3666.9084,1.1801251115630371,90.54175262600205
3667.752,1.1801240349176905,170.7840843118733
3668.5977,1.179124285444664,174.50148763048492
3669.4417,1.1772520070955612,141.38831506846466
3670.286,1.1747162910471494,122.71395394972365
3671.132,1.1718967119574752,103.48874833233606
3671.9768,1.1693648617155896,122.63172032883013
3672.8235,1.1675848097443198,123.29016500291625
3673.6685,1.166645529773106,102.47677954332954
3674.5156,1.1661531497216435,139.93434725546442
3675.3608,1.1654030809013591,136.68546328441371
3676.2063,1.1636732462926513,146.5494107474844
3677.0542,1.1606736388606316,111.502558922564
3677.9,1.1570420626884665,75.834491868172
3678.748,1.154286571538851,103.05730351120755
3679.5945,1.1539908109971353,127.88506186582731
3680.4429,1.1564085184203863,110.26813331928338
3681.2896,1.1597767052835608,173.4903878573502
3682.1365,1.1612274536014195,119.53156408401443
3682.9856,1.1586373405490122,152.29547291991534
3683.8328,1.1518487571918514,129.1194728476055
3684.6824,1.1421592378775172,91.6206670954231
3685.53,1.131243883983992,109.34427473354745
3686.38,1.120408425720095,88.76352322095839
3687.2278,1.1110753963313298,137.37095132330404
3688.0762,1.1048496402694528,163.62344402719
3688.9265,1.1032231020372831,138.35807272891387
3689.7751,1.1066883450079894,118.60128305973626
3690.626,1.1141458005821832,127.12992859588344
3691.475,1.123073429270302,92.53993036858785
3692.3264,1.1307332146844162,148.10163113780683
3693.1758,1.135324188728818,202.5518104931378
3694.0254,1.1366179689328118,123.08161039347631
3694.8772,1.1353240099896376,123.49492640937167
3695.7273,1.1322534410251819,124.46463093385468
3696.5793,1.127878758997842,86.47821642623852
3697.43,1.1224895522451668,139.06044194807288
3698.2825,1.1162859025105827,192.78682884331138
3699.1333,1.109456654904027,172.56083337669122
3699.9841,1.1021485122282781,145.089453514296
3700.8374,1.0948039074662475,90.93864355905224
3701.6887,1.088525596985505,164.34412951121658
3702.5425,1.0847297889972816,124.62152240909306
3703.3943,1.0844038397180211,155.20866127841828
3704.2483,1.087179616423017,171.9101652099877
3705.1003,1.0913786057804504,110.6176580140734
3705.9526,1.0951336227878175,113.85697888271766
3706.8074,1.0975942755311403,114.903230197387
3707.66,1.0991359939848313,185.0502397575715
3708.515,1.1004669871968358,102.81835487686746
3709.3682,1.1014707746856813,108.9279642566275
3710.2234,1.101049513602831,115.73046208907301
3711.0771,1.0980877518393022,154.43375836754254
3711.9307,1.092788631369206,99.25304119430876
3712.7866,1.087187351088706,127.22185605452468
3713.6409,1.084255452903924,359.0247820235037
3714.4973,1.0857107934580046,205.0486397624414
3715.3518,1.090365277173781,141.03500812834326
3716.2085,1.094619435694125,105.26871910714608
3717.0635,1.0950887915031204,99.23669397921138
3717.9185,1.0912609966763502,121.06577363687113
3718.776,1.0854765173769214,160.17532511802779
3719.6313,1.0806291996842967,147.4834437476304
3720.489,1.0778127092796137,87.88263919563566
3721.345,1.0762947489247203,136.68895328187185
3722.2031,1.0749621165989414,148.3577294578406
3723.0593,1.0735192484966871,173.95415559161373
3723.9158,1.0722782453418345,111.42552170380736
3724.7747,1.0713101181533538,203.80574043985405
3725.6316,1.070083839640362,296.068614019606
3726.4905,1.0679421622079293,102.78147477673265
3727.348,1.0648542877241824,185.51006970643985
3728.2073,1.061539515410163,182.22893001122378
3729.065,1.0590050235237238,171.63026767141088
3729.9229,1.057898120956287,144.02954001348735
3730.783,1.0583029484052722,182.21243809681604
3731.6414,1.0597665236336042,229.91833296187963
3732.5017,1.061414737586037,115.4465209785243
3733.3604,1.0621909066141975,129.13665642169408
3734.2214,1.0613980958783973,147.68095770796137
3735.0803,1.059168845143925,220.79673404724636
3735.9417,1.056347896894878,144.74002853228856
3736.8013,1.0538513999939167,113.8221183286919
3737.661,1.052011771957098,145.09032013663284
3738.5227,1.050620834969987,168.62062635056512
3739.3828,1.0494831847334574,165.15676793632375
3740.245,1.0488713556161353,150.31684773222716
3741.1055,1.0494340918879022,174.0022107371329
3741.9683,1.0515151840138748,224.95491574957765
3742.829,1.0545075426182955,168.7987308810732
3743.69,1.056999967141789,156.30807235605403
3744.5532,1.0576201107319076,150.9432689968699
3745.4148,1.0558083012529982,126.14686261595955
3746.2786,1.0518275024719652,132.63537296510827
3747.1404,1.0463377464628016,155.46828518021297
3748.0044,1.0401527983769148,190.39863713300207
3748.8667,1.0344684017500814,194.8026325056973
3749.729,1.030512166578146,112.03288007772656
3750.5938,1.028747191612872,172.66273017864168
3751.4565,1.0282290911648715,297.6244209463331
3752.3215,1.026960156750588,97.66548701783057
3753.1848,1.0231752516465091,110.84637121459863
3754.0503,1.0165199554079332,163.48922398347688
3754.9138,1.0085584860909422,132.66924565720214
3755.7776,1.0020549051600045,179.8509482317053
3756.6438,0.999583887984161,152.18726364860237
3757.508,1.00200347619148,164.58777481371254
3758.3745,1.0079105889357476,152.02817100279424
3759.239,1.0145448335577403,123.83465088534936
3760.106,1.019530618564613,162.9785131299225
3760.971,1.0219372306831194,120.08775851660448
3761.8362,1.0224356788197095,177.15757427804206
3762.7036,1.0224576906891434,190.06607005366683
3763.5693,1.0232200373285012,170.7325473876857
3764.437,1.0250769649634321,173.79641951093578
3765.3032,1.027427270871792,141.0602106058619
3766.1714,1.0291077784806153,127.44268908489349
3767.0378,1.0288628926366967,112.68503225018003
3767.9043,1.025780962187395,163.80857752464888
3768.7732,1.0196035209535537,94.67716955914702
3769.6401,1.0111462986232798,160.89008992733494
3770.5095,1.0022582834041824,114.98058356991304
3771.377,0.9954005094584222,168.13814559329327
3772.2466,0.9924269665635486,214.99142428776128
3773.1145,0.9938686587946336,295.13685335055095
3773.9824,0.9987929319882701,112.96455031824786
3774.8528,1.0053436314126258,181.04162795674702
3775.721,1.0113007388156934,113.96127994688422
3776.5918,1.0149348886255471,203.93270740736233
3777.4604,1.0155897899561117,228.34687827371857
3778.3315,1.0139195731105781,102.24748421461231
3779.201,1.011237493531668,189.0219422338476
3780.0703,1.008630837824805,110.60560121116121
3780.942,1.0066012778914695,135.05658196881387
3781.8118,1.0053168283491802,163.78789934681947
3782.6838,1.0048927243000059,176.7899464125761
3783.554,1.0053796189802169,130.9738749342893
3784.4265,1.006449129317097,152.95765313522685
3785.297,1.007181239138566,179.95984706513192
3786.168,1.0063220603950669,161.33445964837838
3787.041,1.002936108769087,129.73698721712128
3787.912,0.9970764333042388,177.192102046037
3788.7856,0.9897508810908675,194.006788668493
3789.6572,0.9824287540467126,202.0464292553079
3790.531,0.9761641161407693,179.60779930334343
3791.403,0.9713185980375302,191.91213392245876
3792.2754,0.9675465621339943,176.849019318675
3793.15,0.9642855975688776,196.97591726858784
3794.0225,0.9612289139668958,163.86002673478265
3794.8972,0.9584114812582019,267.7267709572212
3795.7703,0.9560481552816925,203.88265121276407
3796.6455,0.9542581826390089,202.2545754146991
3797.519,0.9531572729708492,299.6455464928148
3798.3926,0.9529769630812632,148.21825828657336
3799.2686,0.9539616037033463,193.8326230814148
3800.1426,0.9559495365692738,172.47887631639506
3801.0188,0.958159602970411,166.88586943749516
3801.8933,0.9595035694720552,160.01483086683936
3802.77,0.9593919320435437,168.28278447265808
3803.6448,0.9582848107437794,188.09434578103125
3804.522,0.9575160889470777,148.05210666805817
3805.3972,0.9584984894686238,121.81212690760294
3806.2727,0.9619193016927696,135.66410634547736
3807.1504,0.9674789425658232,143.74766501356723
3808.0261,0.9740568664545328,131.93584697474768
3808.9043,0.980334520550331,188.8102947864214
3809.7805,0.9853953734800966,188.00177805734705
3810.659,0.9896971901664636,135.77258433720516
3811.5356,0.9955556924023733,142.35995853682437
3812.4126,1.0065251304209697,132.9792042047066
3813.2917,1.0247267437101293,100.11237198685244
3814.169,1.0472818298116795,171.11154565891667
3815.0483,1.0659820262884168,234.58302891049473
3815.926,1.071297903582444,109.93437349013959
3816.806,1.0591928836605442,153.49297603922352
3817.684,1.0339672218290128,133.99409493795451
3818.5623,1.0048126237522088,212.7514854845027
3819.4429,0.9798510550036239,168.29981332245112
3820.3215,0.9628692981438276,116.13407394305844
3821.2024,0.9531830557599833,165.98212911046517
3822.0815,0.9480671150105012,174.16012135899976
3822.963,0.9445269941533082,205.66159297343228
3823.8423,0.9406905105454713,171.74051731879638
3824.722,0.9361951739605104,207.8999300619148
3825.604,0.9317993469816321,210.22939103401458
3826.4841,0.9284473837180793,182.8373701136091
3827.3665,0.9263748863683757,217.59482677948162
3828.2468,0.9250247580665419,169.95614276540869
3829.1296,0.9234423114750602,203.56709721171302
3830.0105,0.9207973208762028,139.29902353618817
3830.8916,0.916502480822372,166.05699202676533
3831.7751,0.9101484719439602,166.6434609718943
3832.6565,0.9016717047456932,168.41462034346597
3833.5403,0.8914735328967972,197.79840980727332
3834.4224,0.8805931137597407,257.60076835785407
3835.3064,0.8701985566509227,246.64099852516802
3836.1887,0.8614905850229744,203.3217578157164
3837.0713,0.8555480841969559,231.6980243048087
3837.956,0.8533199794508514,241.6628791276192
3838.839,0.8551540135151301,184.59002141630796
3839.7244,0.860429257713807,210.1746008981577
3840.6077,0.8678392131121733,225.34069358479178
3841.4932,0.8762182075424688,192.28278656307148
3842.377,0.8848221723574983,278.21932167187265
3843.261,0.8932667987395817,255.26532929688517
3844.1472,0.9011692057920586,169.01469106978882
3845.0315,0.9080909546000066,150.96280957223382
3845.9182,0.9138204744328751,183.49439338434422
3846.803,0.9182958043058705,255.45642947431455
3847.69,0.9217054163203311,198.9035059249496
3848.5752,0.9244399801035454,262.4202136950437
3849.4604,0.9271198895537471,187.1570049930146
3850.3481,0.930334500106914,208.23437747380277
3851.234,0.9343355100770462,219.00146140364149
3852.122,0.9390470594590143,178.00608392577078
3853.0083,0.944136616614244,137.141677364577
3853.8967,0.9492106585142409,233.9188205871651
3854.7832,0.95377850269811,169.79194469169593
3855.6702,0.9575540682218374,220.89543882470187
3856.559,0.9607403785421395,212.08183503984338
3857.4463,0.9640546957869734,176.69253285614835
3858.336,0.9682670028309553,150.15540649880705
3859.2234,0.9734360516517883,146.81484213027403
3860.1135,0.9787579021243917,148.1003709097867
3861.0015,0.9829411119610079,149.76518942458492
3861.8896,0.9851274898279919,183.21658878627744
3862.7803,0.9853218962446356,144.65672071180632
3863.6687,0.9842085356490717,130.7676500464544
3864.5598,0.9824536007815177,200.03082326571817
3865.4487,0.9800903247734712,119.66358994416416
3866.34,0.9763795939705766,148.78439773212054
3867.2297,0.970425980232048,142.37879777836582
3868.1213,0.961992801464348,133.6704716337016
3869.0112,0.9520611502573524,270.9179285038009
3869.9014,0.942162014778125,148.05393174425927
3870.7937,0.9331858074770364,131.07563320979705
3871.684,0.9246367707726003,189.80060424234102
3872.577,0.9149407936752083,150.55469996852244
3873.4678,0.9030054801658102,184.40483768383461
3874.361,0.8891468325158395,195.36443286719904
3875.2524,0.8753229724611252,193.31179278184334
3876.1438,0.863866291360682,318.8976271381294
3877.0376,0.8562710374747272,273.0158823653829
3877.9297,0.8523973105275956,248.29840380847995
3878.8237,0.850407947927192,198.99682120506003
3879.716,0.8477730858397211,198.43930624572113
3880.6108,0.8424989764876638,152.4782239094731
3881.5037,0.8340903826086877,277.97751991428754
3882.3965,0.8233967546914709,316.53735900090703
3883.2917,0.81171455804471,386.1320969210951
3884.185,0.7999852183930669,236.65488804705393
3885.0808,0.7883887701362571,179.44607452986259
3885.9746,0.777035430272935,262.92459816859076
3886.8706,0.766184259750406,227.50533007443772
3887.765,0.7564230160177534,326.26566470887093
3888.6592,0.7482577220644391,228.82883115116869
3889.556,0.7422036057364074,297.9142450687215
3890.4507,0.7390648062546945,418.4569889455
3891.348,0.7398372159420887,277.5095281420337
3892.243,0.7452158251460561,243.09390483808025
3893.1406,0.7548969453640045,578.9643007767504
3894.0361,0.7672191534699171,356.9023369901121
3894.932,0.7798964912281525,305.3756030141627
3895.83,0.7910073451745373,258.45722348180203
3896.7263,0.7997323352175058,273.6751940170069
3897.625,0.8066125103915824,205.00993289209387
3898.5215,0.8128090202269942,214.5340442025999
3899.4207,0.8195624499878842,255.42399409943772
3900.3176,0.8276052749524433,303.884639506046
3901.2148,0.837138851591396,198.86603881859608
3902.1145,0.8478067768781056,155.34994257295946
3903.0122,0.8587253187393465,216.01413306130866
3903.912,0.8689307079582421,186.12665783661322
3904.8103,0.8776187783283387,203.4666678789016
3905.7107,0.8847577140094637,148.45110962683958
3906.6094,0.8910365164061878,179.5869352999011
3907.508,0.8975180582470018,192.9968165772532
3908.409,0.9048747212923272,236.89965181283847
3909.308,0.9129854386877141,269.78266557776294
3910.2097,0.9213749210456833,226.18899676684163
3911.1091,0.9296651128439718,274.100148912601
3912.011,0.937997609056275,198.9885422953428
3912.9111,0.946618196997209,196.00199332296535
3913.8113,0.9556213910899759,261.72070907412234
3914.7136,0.9647513758569767,133.14828206747606
3915.6143,0.9734556140094962,219.53952123161804
3916.517,0.9812504334995767,152.40870905948145
3917.4182,0.9877764525491108,130.49459003925867
3918.3215,0.9930108969136003,164.16877288470124
3919.223,0.9970286187693054,161.71388446625443
3920.1245,0.9998422417498624,166.40028718295832
3921.0286,1.001279331435084,143.57424426568792
3921.9307,1.0012679136530047,97.17587198507204
3922.835,1.0002144017187726,151.34497343122567
3923.7373,0.998958344839406,141.1775725788367
3924.642,0.9982569169458954,140.04791393412762
3925.5452,0.9983166755695648,149.2463818347532
3926.448,0.998784446613113,135.093569640839
3927.3535,0.9992134329364954,167.28769487433527
3928.257,0.9995375973319166,167.06815351035718
3929.1628,1.0001676078420993,133.81591386136617
3930.0667,1.001563289339784,151.74957832117073
3930.9731,1.0036713008047244,137.50363036602164
3931.8774,1.0057139811383768,138.9980077733995
3932.782,1.006648626747325,132.67824175600325
