wavl,flux,ivar
3566.9744,0.38991397276125134,730.5081139918898
3567.795,0.3887084754469587,417.4710188433363
3568.6177,0.3869392255391931,811.1678477652135
3569.4385,0.3849174311568239,1487.64294094774
3570.2617,0.3827133633366648,583.8286459357773
3571.083,0.3803450480112984,816.6333765053257
3571.9065,0.37784948332950874,667.9764454560774
3572.7283,0.3753165046647842,1480.1458369388822
3573.55,0.37281653037746293,690.0510466827977
3574.374,0.3704956741032734,705.1012861465782
3575.1963,0.3687055808759591,1639.2847214119543
3576.0208,0.36789202983460956,750.879754657056
3576.8435,0.36832388235529734,921.8313062483898
3577.6682,0.3698384215192621,772.80786620183
3578.4915,0.37191945726766146,780.2068294949122
3579.3145,0.37398803020069377,650.1929724215564
3580.14,0.37554642739680977,971.6991906770137
3580.9636,0.37617099677506965,743.963553639417
3581.7893,0.3756597452502092,2093.8893314990023
3582.6133,0.3742683751488843,1028.8051147999302
3583.4395,0.3727535398613154,649.569193859601
3584.264,0.37208045393490496,469.4004933588903
3585.0884,0.37296310449679165,769.424530162493
3585.915,0.3756131987166882,993.5378649463964
3586.74,0.3796154456727648,783.3993719859418
3587.5671,0.3840233844431961,1081.1340013675622
3588.3923,0.38758606932118767,904.053463574163
3589.22,0.389370876968275,681.5094211376885
3590.0457,0.3891543954864398,1285.1747165869979
3590.8716,0.3874537139257598,559.266857870726
3591.6995,0.3851139059828924,742.8249581185557
3592.526,0.3829748925666299,1243.0766878779964
3593.3542,0.3816511728432928,1688.4852209039423
3594.181,0.38144538614819357,785.9348411550245
3595.0098,0.38226249188150774,860.401175114742
3595.8367,0.3836667883204505,1071.7851378252471
3596.6638,0.38501487740173224,2069.4198567309663
3597.4934,0.38553590894988166,1859.5191315535392
3598.3208,0.38443920830507267,1275.2628724656684
3599.1506,0.3811783961860665,1328.311763053193
3599.9788,0.37585535098500583,528.6445249573925
3600.8088,0.3693763140306458,798.9462087947985
3601.6372,0.3633095580693888,1348.5129853784972
3602.4678,0.35912988334641915,2409.3975235287
3603.2964,0.3576001880836945,1531.9983775814471
3604.1252,0.35840890891229565,892.8827347333034
3604.9565,0.36056880510844763,591.4117917417791
3605.786,0.363052797796313,835.1712862654994
3606.6172,0.36530106124475453,2806.412890250541
3607.447,0.36712978075948327,1293.1362828903816
3608.2788,0.36841479016259393,645.9306801080356
3609.109,0.36885878513087217,1165.1582434441214
3609.9392,0.3681533554618759,858.9248110485364
3610.7717,0.3662400707298366,953.3551019884928
3611.6023,0.3634450592515678,3765.549028660551
3612.435,0.36030495166787857,1515.4904611369357
3613.266,0.35741935112696543,703.6469574224424
3614.0994,0.35529739259331633,999.6947510536477
3614.9307,0.3543419623745094,1218.276296720433
3615.7625,0.35468861797406726,1136.5986367573296
3616.5962,0.35614211733207485,752.3412230544137
3617.4282,0.35822224411328146,862.0493285460815
3618.2625,0.36039507180892516,1012.2460746030581
3619.0947,0.36224773086737294,915.0989249898103
3619.9292,0.3636304781332267,1106.1161379053683
3620.762,0.36454924985428594,649.5030139085309
3621.595,0.36495990317425,728.6376400861486
3622.4302,0.36457956646211054,1154.1082138201114
3623.2634,0.3630382692509038,611.4524385089182
3624.0989,0.3602340012854452,551.0553358501807
3624.9326,0.356528176040529,979.6666447901994
3625.7686,0.3524623016648232,1555.5129025188749
3626.6028,0.3485547891285185,1122.5481972925418
3627.437,0.34530658096255623,1863.737478795494
3628.2734,0.34334977452402193,859.4719912901642
3629.1082,0.3431072048995649,1050.3913357494798
3629.945,0.34415574387438774,1077.816000588859
3630.78,0.34519923615169373,799.7822267611045
3631.6174,0.34492226573383833,1507.719899086798
3632.453,0.34293674357066456,1022.8747894199169
3633.2883,0.3398952715793893,2692.1254832649374
3634.1262,0.336737230827598,552.0080372877824
3634.9622,0.33398886682618917,1087.6217412636972
3635.8005,0.3316484833678,845.3448225937411
3636.637,0.32969865958316524,1313.1733871538097
3637.4756,0.32838216211224647,1278.8794177115078
3638.3123,0.32809905812189255,937.4133947393427
3639.1492,0.32899183784459335,850.2128819726076
3639.9885,0.3307284837692743,1792.9232290908187
3640.826,0.3325931519602019,1270.4353134605176
3641.6653,0.3338948662654387,928.7659669306435
3642.5032,0.3342788635278659,1353.347159147196
3643.343,0.33379625680453145,1322.5122818754573
3644.1812,0.33269429899805714,1596.486933803166
3645.0195,0.3312215264895988,610.3731588659514
3645.86,0.32961494791928386,815.2693102192677
3646.699,0.32817740580557614,939.4792688817648
3647.5398,0.32720771333617304,1630.3401622355516
3648.379,0.326854396914312,1108.9928717145551
3649.2202,0.32696260231411356,1434.9175465890532
3650.0596,0.3271223498429147,1042.886875490229
3650.8994,0.32689420293792726,1583.3977908344248
3651.7412,0.3260771412724326,866.1449182527701
3652.5813,0.32485362162667186,889.377608001188
3653.4236,0.3236833202687011,1182.8726804858766
3654.2642,0.3230544735565627,908.0647990112075
3655.1067,0.3231945817953555,697.8726533162201
3655.9475,0.32398423745346966,1363.671446779836
3656.7886,0.32509318483826105,895.8878923077131
3657.6318,0.32619037153487507,1523.4489728027902
3658.4734,0.32699822675852575,1213.0899289727572
3659.317,0.3272409528272669,1015.0816047038804
3660.1587,0.32666056542242045,1214.3985762762472
3661.003,0.325241619040212,972.0465620703382
3661.845,0.3234127604452375,1165.4305921106854
3662.6875,0.3218585641484928,1217.7347107237638
3663.532,0.3210294871342454,1991.344528056126
3664.3748,0.3207210086274368,984.5319058218806
3665.2197,0.32017470129355224,1595.0577344339604
3666.063,0.3187051524364602,1027.7161185481443
3666.9084,0.3162883781667262,1351.3754471208586
3667.752,0.3137058613226929,2669.771802872849
3668.5977,0.31208924822645073,1361.2120259598096
3669.4417,0.31232860192201933,8462.298000294106
3670.286,0.3145597243351117,1852.4183306225732
3671.132,0.3180720404474724,838.607053187346
3671.9768,0.3215642276897906,1989.3853237155738
3672.8235,0.3237789505005786,858.4086796300157
3673.6685,0.32406742535238026,1069.4688269155815
3674.5156,0.32271480790927193,1166.9837404138195
3675.3608,0.3207210653632893,1119.5137957649483
3676.2063,0.31918592061807943,1321.0995875354997
3677.0542,0.31875070031928043,1496.983124036297
3677.9,0.31944787218763243,1067.5910043333686
3678.748,0.3209888433708673,1538.8515914365569
3679.5945,0.3231138310925221,1385.2188021366853
3680.4429,0.3257064746083301,2053.852484062242
3681.2896,0.32861077469104505,889.1683293311678
3682.1365,0.3315422090760282,2640.8128763540963
3682.9856,0.3340800465200142,1454.2770061762221
3683.8328,0.33571041377137767,978.9552455294506
3684.6824,0.33591639151142366,1277.8550517594397
3685.53,0.33427188191989726,1315.6253129107959
3686.38,0.3306792318783241,923.7118164951892
3687.2278,0.325613959513305,1463.1173276325858
3688.0762,0.320024854013924,1496.9366507037655
3688.9265,0.3149827425125276,1685.0335365065732
3689.7751,0.3112171336931014,1541.8614686804551
3690.626,0.3088294735058364,2335.48702693066
3691.475,0.3076033881323506,1270.291453805156
3692.3264,0.30742314403790966,1241.198530916726
3693.1758,0.30849519414825227,1710.2173274394004
3694.0254,0.31107350782527626,1137.7110582045384
3694.8772,0.3150746628032835,2545.2995896176453
3695.7273,0.3199445559695898,818.6297342166436
3696.5793,0.3249699085335659,933.2327752953662
3697.43,0.32945852074546433,1671.4080321541912
3698.2825,0.3328967287562984,1664.0496702254834
3699.1333,0.33490301923697274,1036.6496615030162
3699.9841,0.33534270055955206,867.7906899672192
3700.8374,0.33431006616208403,948.4053839032147
3701.6887,0.33206093492538236,1671.3174904272605
3702.5425,0.3288686881959597,1148.490079841608
3703.3943,0.3250427493008439,1166.597666195005
3704.2483,0.3209451937993498,990.2401780315258
3705.1003,0.3171370572393989,925.0634581475233
3705.9526,0.3142555958342755,1263.496629161466
3706.8074,0.3128140786475078,2107.0849421918583
3707.66,0.3128771378526453,693.3790785129548
3708.515,0.3138726828769011,2866.7033796256164
3709.3682,0.31478701895280237,981.1284268285239
3710.2234,0.3146849420581856,1396.451617084893
3711.0771,0.3132348040744684,1378.8291610517317
3711.9307,0.3109011486338261,1504.5458086223068
3712.7866,0.30863741626568086,1370.919517024817
3713.6409,0.3073401312422597,1072.482388332676
3714.4973,0.3073595205645677,1471.8704161923033
3715.3518,0.3084726528550096,892.8584105808573
3716.2085,0.31017883431871135,1216.6871654358029
3717.0635,0.311976408528126,2138.807841346936
3717.9185,0.3134240282984987,1159.8795459626256
3718.776,0.3140426927513695,1735.6172741283167
3719.6313,0.31345249732398867,1582.2670290488195
3720.489,0.3118279812299325,1155.1281141301251
3721.345,0.3102990616233528,1432.9820766955308
3722.2031,0.31083474755999296,1101.9670576062872
3723.0593,0.31564850268229305,1681.9210988865432
3723.9158,0.32639856144092994,993.9300578660543
3724.7747,0.3432889444206422,916.13616529692
3725.6316,0.36374884972811533,993.4088739659018
3726.4905,0.3823109212437539,1547.389143969562
3727.348,0.39211279161318385,1516.5732748804521
3728.2073,0.389052830491563,1543.2472567125578
3729.065,0.3746677674266139,1412.8005402346091
3729.9229,0.3551875721104761,1283.7318087407884
3730.783,0.33735282025850205,1068.9013164805494
3731.6414,0.32493957112212224,1352.5255929649638
3732.5017,0.31790006723038605,1338.2784087073092
3733.3604,0.3143400597186312,1556.3092527889507
3734.2214,0.3123315520305307,1459.1230209441405
3735.0803,0.31087778763792073,1382.672542873628
3735.9417,0.3097417243620657,2424.602042897503
3736.8013,0.30895024775594404,1810.3138607690205
3737.661,0.308366745047691,1036.8674736464086
3738.5227,0.3076772135371794,1020.9064713903717
3739.3828,0.30665046445907496,2644.767533512988
3740.245,0.30532512409508733,1573.7200810465465
3741.1055,0.3039572335220604,1221.9227674789859
3741.9683,0.3028004136329369,1112.6203689865301
3742.829,0.3020726464998637,1061.112940927162
3743.69,0.30200318331669623,1271.3627987922268
3744.5532,0.3028091766196926,824.6560850021945
3745.4148,0.30448131667330913,1815.4756712089475
3746.2786,0.3066629065795238,2073.9039902233544
3747.1404,0.30873280522965146,1782.4836157605
3748.0044,0.3101181897452182,1225.1122925480838
3748.8667,0.31049890043446,1849.2472781940585
3749.729,0.3099071231684436,970.3264702675594
3750.5938,0.30864624150001096,1604.8968375145314
3751.4565,0.3072182036831111,1088.9946280756851
3752.3215,0.3062132628310069,1068.8024573186508
3753.1848,0.3061536975804372,1095.6435163520837
3754.0503,0.3071931211176768,1532.7743698947809
3754.9138,0.30893435068882713,2056.563318379113
3755.7776,0.31060566305956666,1006.9735136267216
3756.6438,0.31148365477968853,1995.1645388710174
3757.508,0.3112477322305076,1540.7144163733485
3758.3745,0.31005393161129563,1219.875576502393
3759.239,0.3083730512703368,1087.9353676768271
3760.106,0.3067579796104671,1403.862978117385
3760.971,0.3056693419257933,2480.4748193303403
3761.8362,0.30527177120920956,1881.1959747850103
3762.7036,0.3054082766758441,1239.4437083174503
3763.5693,0.305748996586375,1368.5442222141094
3764.437,0.30600364708121874,1268.9492774333846
3765.3032,0.3059585922387987,1104.3428762616882
3766.1714,0.3053689882514299,1329.9215131583078
3767.0378,0.30395620563809334,799.3188548503065
3767.9043,0.3016342877116738,1114.1882287542473
3768.7732,0.2987668910915806,1630.4467802809372
3769.6401,0.29613858600599013,1661.9206724779817
3770.5095,0.2944424514520573,1214.1110870764396
3771.377,0.2938214404379821,1197.3373510612664
3772.2466,0.2937624195733694,908.1041356147864
3773.1145,0.2935578542056894,1111.8594872614099
3773.9824,0.292883746047386,2535.2002250258934
3774.8528,0.2920621133405637,1490.303349387793
3775.721,0.2918576187058149,1307.8372408059595
3776.5918,0.29297572757816087,1985.3991869756796
3777.4604,0.29565688212820035,2109.498279716672
3778.3315,0.2996864215540739,2655.748877260725
3779.201,0.3047479960686687,1077.6907362014613
3780.0703,0.3110245675818304,1236.83085081902
3780.942,0.31933699732331483,1215.9133017562137
3781.8118,0.330339854943678,3634.697596208912
3782.6838,0.34324625418878807,2167.555882316854
3783.554,0.3547603896459137,1409.3122754746264
3784.4265,0.3603978341092976,3677.3309102948733
3785.297,0.357229549984159,2212.6916371087596
3786.168,0.34637748009391456,946.5998664678119
3787.041,0.3324012792056785,1573.0920166898434
3787.912,0.32044837229807277,1777.9237708749295
3788.7856,0.31315607822199804,836.8987786051867
3789.6572,0.31019260985723585,1869.0456460646403
3790.531,0.30944892708775107,1258.7763993679948
3791.403,0.3089058955329281,1063.2279512636164
3792.2754,0.30756880629076955,1418.7253419370263
3793.15,0.3053640764446016,1156.5997640818773
3794.0225,0.30253304929912983,1150.1114304664688
3794.8972,0.2991717294006356,1507.8380864733906
3795.7703,0.29537813010472164,1303.689900109838
3796.6455,0.2915248883514828,1210.1529637918497
3797.519,0.28840420032842096,2074.2649954544327
3798.3926,0.2868123078286498,2145.977202245572
3799.2686,0.28706944919953387,2259.7920237780013
3800.1426,0.2887748975199726,2084.3530561925127
3801.0188,0.29106883997439653,1539.6547663634265
3801.8933,0.29310530782422545,1213.7336191578815
3802.77,0.29441870974521056,1292.9897425135046
3803.6448,0.29491842964548104,1423.7559758269088
3804.522,0.294789232964068,1081.2295512361766
3805.3972,0.29438408930893556,1468.6024640302205
3806.2727,0.29415011557354637,1222.399404171315
3807.1504,0.29450136499600404,3652.364380894738
3808.0261,0.29564977295991907,1211.7726973101448
3808.9043,0.29751388811457596,789.4643925250228
3809.7805,0.29971838583719124,956.3304684056535
3810.659,0.30176135789011127,1498.4822248360306
3811.5356,0.3031905984239351,1434.4732994957483
3812.4126,0.30384711632848527,922.2698130779837
3813.2917,0.30390424035614827,1367.1917563700404
3814.169,0.30369212300064086,1990.9944296904505
3815.0483,0.3034258844750876,1945.5200014111988
3815.926,0.30311683715100907,1155.0549432548883
3816.806,0.3026965634032829,1285.9355280806485
3817.684,0.3021453773703678,886.363320709462
3818.5623,0.30147132392745646,1513.4755474118513
3819.4429,0.3006825985308113,2117.5971713875792
3820.3215,0.2998641034742942,995.5142985832813
3821.2024,0.29920749893879156,1323.2614394269192
3822.0815,0.29887509718276895,1175.0811358608817
3822.963,0.2987413613915524,1063.582575222411
3823.8423,0.2983655469381779,570.750932188705
3824.722,0.29729321899020195,1050.0324613526325
3825.604,0.2954104993532115,2194.961120251526
3826.4841,0.2930138951545795,1862.682112544411
3827.3665,0.2905007945576702,2027.125955027923
3828.2468,0.2881045474969078,1393.3718675355897
3829.1296,0.28572571059369806,1625.932002220352
3830.0105,0.28304422683813485,2527.317575502832
3830.8916,0.2796904808895921,1283.391554250556
3831.7751,0.2755576350318714,2495.632023061341
3832.6565,0.2710347671197934,1990.9093074124553
3833.5403,0.2668120077643277,1817.461959850991
3834.4224,0.2636171445119048,1067.8087495152745
3835.3064,0.26188386396389784,1265.8758957024165
3836.1887,0.2617960971566961,2145.3607069594073
3837.0713,0.26333315732520596,1740.112131890619
3837.956,0.2662745699792421,2167.9493550461734
3838.839,0.27013259381258087,1239.7009921367812
3839.7244,0.2743528247112481,932.0570861628755
3840.6077,0.27856548529559205,1339.5256518557603
3841.4932,0.28286409025526993,2253.1588402675484
3842.377,0.28758758239515625,2538.580922480496
3843.261,0.2929761259030242,1840.467499198651
3844.1472,0.2987877295554439,1516.235551984093
3845.0315,0.3042442388670167,1221.7090708587716
3845.9182,0.3085011966132093,1229.7566661921062
3846.803,0.31103542668310713,1062.1583266971504
3847.69,0.3119489082438113,1291.0732066707878
3848.5752,0.3117611787944551,2302.3795280510467
3849.4604,0.3111056774189001,1463.4305127979624
3850.3481,0.3104921123478681,1261.144944204771
3851.234,0.31025482928694537,1526.635561982407
3852.122,0.31056198352314407,1061.2340430371223
3853.0083,0.3114559744461631,1316.8492275266842
3853.8967,0.31288240332073736,1232.445110692003
3854.7832,0.31463561917337207,1013.0463645695197
3855.6702,0.31631974932696055,932.2199535951712
3856.559,0.3174102251618441,1492.2918734762
3857.4463,0.3175230283623025,1938.6818454139882
3858.336,0.31669544100600405,1131.5035998996732
3859.2234,0.3153809952103526,1693.871849457831
3860.1135,0.31413451656561525,1239.8298814490458
3861.0015,0.3133188739163844,1522.1597020088986
3861.8896,0.3130235257799371,1804.5804963092837
3862.7803,0.3132500433980305,1689.4573397824913
3863.6687,0.31404024351927123,1431.7217507088874
3864.5598,0.3154284128788099,1855.9523257662022
3865.4487,0.31727433261525156,905.9044347175292
3866.34,0.3192170180029937,1340.8767181427745
3867.2297,0.32066935102588534,1474.3743162690507
3868.1213,0.32093253012593653,1108.3839671895157
3869.0112,0.3193559059912369,1296.9931708788304
3869.9014,0.3156566388260995,908.2518562203531
3870.7937,0.31017680109243473,1218.7893985553897
3871.684,0.3039035288065734,1467.7973720105686
3872.577,0.29795350660961706,1594.1813395781821
3873.4678,0.29314849470749926,1980.9783183677023
3874.361,0.28962210527313853,1404.199409059252
3875.2524,0.28701392327264713,1315.71004591049
3876.1438,0.28473869544438124,1032.7136847021482
3877.0376,0.282319553966239,1501.87821698084
3877.9297,0.27952477250554625,1527.9096115401735
3878.8237,0.27629864353353006,1379.8829924163422
3879.716,0.27274346949444533,1272.882604848843
3880.6108,0.2690178627797641,1764.8158953936504
3881.5037,0.2653380518215806,2045.4184719463299
3882.3965,0.2618168520715231,1367.6064801111331
3883.2917,0.25841101799307276,2575.3045935067717
3884.185,0.25497506330859765,1606.5160718605998
3885.0808,0.2513302572162151,2823.3003563032644
3885.9746,0.24746896246074468,2098.8624847145434
3886.8706,0.2435405475056544,1707.1239000437374
3887.765,0.23989199666768082,1874.775356796587
3888.6592,0.23691799610917333,3946.926900064234
3889.556,0.23497046896918694,3024.746686242708
3890.4507,0.2342853727741285,1870.962694593591
3891.348,0.23497224792183696,2340.253357694249
3892.243,0.2371101734273634,2138.8948100390853
3893.1406,0.24078189213554008,4348.392700821569
3894.0361,0.2458972806327574,1634.5957913001607
3894.932,0.2520783984087825,1687.7397628165836
3895.83,0.2586130816032058,1758.8428757728784
3896.7263,0.26462073648272844,1556.4496676704928
3897.625,0.2695258779745627,1818.2426325017707
3898.5215,0.2732159693922069,1806.0433495017528
3899.4207,0.27613732621546505,1407.7273163624918
3900.3176,0.27893578238096944,1458.3483858735383
3901.2148,0.28215337057769746,1791.4676520176415
3902.1145,0.2860010949349999,1301.638063238901
3903.0122,0.29040018544325086,1452.228773404053
3903.912,0.2952662480978459,1436.2254379385204
3904.8103,0.30052847066400423,1009.894148533467
3905.7107,0.30609224605404695,1754.4055412017565
3906.6094,0.31159408351590456,1215.273719994801
3907.508,0.3165571897463249,1176.5529636307535
3908.409,0.32064770011955246,1249.247976691852
3909.308,0.32386352330964263,919.7233649444848
3910.2097,0.3265180744381274,1334.3761159436497
3911.1091,0.32894326470791785,893.0287356303241
3912.011,0.3314258975412914,1053.771046871512
3912.9111,0.3341803705749454,1876.157570423815
3913.8113,0.33736105495391366,1042.8379557897454
3914.7136,0.34089453339257575,1111.4634257721825
3915.6143,0.34435057378927625,865.7359831445305
3916.517,0.3471477003620037,1129.6950032805362
3917.4182,0.3488281773375195,752.1939360253924
3918.3215,0.3493329581289882,1149.82920209934
3919.223,0.3489482306979052,1224.4152347755046
3920.1245,0.34813980670404027,1136.799750069531
3921.0286,0.34738412324230605,1103.567554167449
3921.9307,0.3470725983786765,1162.0265512528688
3922.835,0.34740500719276685,772.8355132802922
3923.7373,0.3483224280855023,1038.6062368583723
3924.642,0.3495502590251682,830.6782438199368
3925.5452,0.35075261439273286,801.4258105168178
3926.448,0.351759041657873,1186.5985640407148
3927.3535,0.35265425943538686,907.8176697664767
3928.257,0.3536486810306292,1403.793310844676
