wavl,flux,ivar
3566.9744,0.07766980400198024,3649.6206365398757
3567.795,0.07654413229981132,2639.6389579323413
3568.6177,0.07601978750180927,1877.3628542750469
3569.4385,0.07588943240820066,9817.121595616958
3570.2617,0.07606448928960732,1737.757039714944
3571.083,0.07648103565442879,2616.1760271253934
3571.9065,0.07704403248675272,1930.618929885325
3572.7283,0.07764761825478435,7202.7722398023525
3573.55,0.07827940839555238,51090.905762908515
3574.374,0.07915145785677664,2931.52584082501
3575.1963,0.08076057764436238,6078.884606565655
3576.0208,0.08376625335654461,11752.971183096415
3576.8435,0.08859308748522832,70450.79511028505
3577.6682,0.0951084882354215,2121.6499293305515
3578.4915,0.10237158895546761,7213.7655852341795
3579.3145,0.1088538887171617,20761.098650247568
3580.14,0.11284088653212838,4504.310633860087
3580.9636,0.11305230075901508,295.6800009899508
3581.7893,0.10932947552472634,8675.093719074508
3582.6133,0.10278701534539224,30751.75954741342
3583.4395,0.09523711984164321,1862.2409758760414
3584.264,0.08848162505345764,1310.1421125285046
3585.0884,0.08364748284647042,960.1811384734049
3585.915,0.08110482530970647,26115.717248534565
3586.74,0.08051353964108905,9761.159700568825
3587.5671,0.08098509568908623,1927.3348574457
3588.3923,0.08157244513877564,5570.599965218875
3589.22,0.08179993018897262,35699.70675962904
3590.0457,0.08180545698628126,259849.37317389977
3590.8716,0.08201762374138055,1290.131678577927
3591.6995,0.08271451694955076,365424.63037817593
3592.526,0.08379819969057017,3757.5111572419564
3593.3542,0.08484717227170047,1546.1700586734141
3594.181,0.08533584517724514,2156.7759698822674
3595.0098,0.08498902324094722,37985.30649451254
3595.8367,0.08399527820215102,15562.47986873838
3596.6638,0.08284908658446959,4612.539242008177
3597.4934,0.08191647983511935,2784.803759261613
3598.3208,0.08116667961370072,334470.1345683503
3599.1506,0.08031269845856694,1552.0854358935621
3599.9788,0.0791974080600985,8375.109337765818
3600.8088,0.07791320491544389,7584.958598570283
3601.6372,0.07664686194700074,40089.235315876365
3602.4678,0.0755014125726002,10535.108538997742
3603.2964,0.07460639302822572,3005.7570899050315
3604.1252,0.074214075482429,3256.6163725799834
3604.9565,0.07455270260008716,57422.34402979876
3605.786,0.0754899644719548,190857.42326284427
3606.6172,0.07647434594404287,969.901573158328
3607.447,0.07690038572371849,6031.325111294556
3608.2788,0.07661377498112924,1827900.3172998792
3609.109,0.07603737813063917,11151.989475992925
3609.9392,0.07581694493077368,6637.059103372419
3610.7717,0.07634876795536036,5591.442309353584
3611.6023,0.07760500198888763,939.0266189107319
3612.435,0.0793216427187495,1981.6666120683278
3613.266,0.0811636940945426,2564.3950970441415
3614.0994,0.08277041597925469,7220.486970935079
3614.9307,0.08375850037014912,1243.0702081144914
3615.7625,0.08394432227825467,135396.63063758585
3616.5962,0.08346831670534756,8601.16250937158
3617.4282,0.08266961499173417,2585.581425905892
3618.2625,0.0817923736958994,6712.383200512741
3619.0947,0.08090222535116624,13960.031419944004
3619.9292,0.08004964618997748,5677.958491815758
3620.762,0.07948439844583997,5727.9504955792445
3621.595,0.07957140481169624,108514.97881713249
3622.4302,0.08050437874835256,6181.618044036684
3623.2634,0.08209916900774805,2136.568795268708
3624.0989,0.08394212418537719,20432.503150136094
3624.9326,0.08562822817930932,11526.222764850072
3625.7686,0.08686504965459536,7189.861382024565
3626.6028,0.0873232257585609,116202.09010884653
3627.437,0.08665421542926594,4670.180109985814
3628.2734,0.08472494043336,2095.5343095274525
3629.1082,0.0818814882933455,19120.927585870035
3629.945,0.07878778993873087,22228.065713892043
3630.78,0.07603763622203757,10931.663345402918
3631.6174,0.07378878714535535,9864.27363534711
3632.453,0.07190879411156242,5948.851849000144
3633.2883,0.07024136984058785,638.0625088669173
3634.1262,0.06878228524432478,15190.201978371893
3634.9622,0.06757058652785397,10448.105670516996
3635.8005,0.06647486156540107,103045.29398057485
3636.637,0.06522285493522248,2556.325665847747
3637.4756,0.06359116561570041,6709.075467718229
3638.3123,0.0616342582334091,7379.634727764055
3639.1492,0.059644888162673056,10907.009735662765
3639.9885,0.0579939320117,4080.6577810230465
3640.826,0.05700358995066714,34731.73788778846
3641.6653,0.056881020760978375,9858.848492949688
3642.5032,0.057702822470955685,34942.507469501164
3643.343,0.05932909310960549,11263.818618612398
3644.1812,0.06132955935464702,303155.47869316075
3645.0195,0.06306261529557645,7176.966263044859
3645.86,0.06386057485571967,260071.76775373268
3646.699,0.06331344186594048,6577.297415177474
3647.5398,0.06152458975321683,532581.4999181577
3648.379,0.05915669560295759,12731.351370458236
3649.2202,0.057138926292521736,2097603.0627180147
3650.0596,0.05621951868301151,14815.946039121092
3650.8994,0.05649519381993369,814269.9118598656
3651.7412,0.05733605938121138,3808.693120619252
3652.5813,0.05774464628993676,8827.14729758168
3653.4236,0.05704386744008845,4658.4443918912975
3654.2642,0.05537188262091149,8898.563546116851
3655.1067,0.053545498515282855,43317.042948960356
3655.9475,0.05240222785243525,93785.03963013917
3656.7886,0.05215321764036909,3533.9683605311175
3657.6318,0.05239984427158419,4332.867383655335
3658.4734,0.05266729885044476,12610.573357602214
3659.317,0.05288955654345442,6712135.368963657
3660.1587,0.053355918475195635,50385.71926930008
3661.003,0.054264669091508025,376611.9304148824
3661.845,0.055362849625556314,3681.889490712879
3662.6875,0.05607190653006714,1560.7251488313455
3663.532,0.05593486807521812,113625.46453422973
3664.3748,0.05500324702032402,14656.246540257527
3665.2197,0.05379566547334832,13534.369536139779
3666.063,0.05292421630944155,4856424.942010549
3666.9084,0.052703036602732956,14372.096234269095
3667.752,0.05305956892893135,21409.14870148967
3668.5977,0.05367212194966958,311667.91346332745
3669.4417,0.054181473301103074,11314.765520135024
3670.286,0.05437089810011392,10821.735070069928
3671.132,0.054232457809660885,4062.6296316659063
3671.9768,0.05391744719561301,7237.210332464641
3672.8235,0.05361096724828675,85586.4281707578
3673.6685,0.05345820226512132,3866.619026259236
3674.5156,0.0535618926393665,348684.5762189461
3675.3608,0.053977009595167914,52888.17586924617
3676.2063,0.05464898837830806,5275.449119397019
3677.0542,0.055379420931869226,10454.605249589535
3677.9,0.05589535684025341,1680791.262478698
3678.748,0.056001931950211935,334405.9828059312
3679.5945,0.05564923139027849,954257.3071888164
3680.4429,0.054911632356707506,4216.775343424702
3681.2896,0.053939521188575076,14058.787746240003
3682.1365,0.052916816817276384,38272.99030506781
3682.9856,0.05204004557174945,6032.7771523352
3683.8328,0.051500805975142165,6687.14717614218
3684.6824,0.051456365827904804,15630.05531865417
3685.53,0.05198728229925333,4389.575319405468
3686.38,0.052972783268800686,165284.72694272856
3687.2278,0.05397926009463185,14710.582306785273
3688.0762,0.054375742770174186,42784.98671992768
3688.9265,0.053664085575537625,284029.82915382006
3689.7751,0.05186152303574063,1319.3455214063324
3690.626,0.04958882928042191,14745.03575759089
3691.475,0.047826836467482536,4270.748703918264
3692.3264,0.047391183166203166,187794.19697690292
3693.1758,0.04852605284855265,488434.02777609107
3694.0254,0.05077890247020358,1219.8827503291106
3694.8772,0.053288606997993225,2738.9400473445708
3695.7273,0.055247506354132364,5842.903278341556
3696.5793,0.05632328553628889,4438.0189850775905
3697.43,0.056670465885347555,13715.349284315902
3698.2825,0.05669232666553392,1771.0500992954542
3699.1333,0.05672655356587814,24087.88877723667
3699.9841,0.056912126176984074,10559.827224370345
3700.8374,0.05723126132750813,10404.237563456296
3701.6887,0.057587977397115395,22297.653663523743
3702.5425,0.057855183437231096,163161.78047855216
3703.3943,0.057901596188773816,10448.921409068082
3704.2483,0.05765990730311393,30586.62478094021
3705.1003,0.057189269496856744,398791.7709059854
3705.9526,0.056679728607169806,8838.536897742233
3706.8074,0.056385204661791824,21748.539365577322
3707.66,0.05648459063999658,4011.717820530625
3708.515,0.05690900274079967,421798.2057578729
3709.3682,0.05727629433417628,5504.929266582483
3710.2234,0.05707222105684648,4400.007905656552
3711.0771,0.05601030439007405,6570.89787488985
3711.9307,0.054295508813605856,7086.517860374697
3712.7866,0.05253671646991572,7031.551263501487
3713.6409,0.051403740406564154,4011.139272944515
3714.4973,0.051249467441581084,20780.113586505955
3715.3518,0.05202842045218028,90616.17240680224
3716.2085,0.05342100386301776,350392.599441822
3717.0635,0.054993360106870795,13373.277054694567
3717.9185,0.05633703891744481,4050.9616483664104
3718.776,0.05717330572576724,11452.182342569502
3719.6313,0.057463689836874776,23041.464565846873
3720.489,0.05743669080176426,7040.438266063109
3721.345,0.057421435483834965,17846.035103493217
3722.2031,0.05762799056622648,4131.171417128322
3723.0593,0.05803712001531199,22196.605741517502
3723.9158,0.05846286764685804,9606.677131482493
3724.7747,0.058683494649861334,330711.28178758855
3725.6316,0.05855332176300379,5921.6868829996165
3726.4905,0.058093341115048935,1974.7472002089053
3727.348,0.0575408638585111,13000.957573597723
3728.2073,0.057261089368237435,2381098.6658682013
3729.065,0.057505007646734496,3949.7716916635277
3729.9229,0.058176050742292165,10598.316863679402
3730.783,0.05887359833123216,98851.4157683134
3731.6414,0.05918484633459521,12281.561150737376
3732.5017,0.0589703399729297,9236.96152717527
3733.3604,0.05837589617835115,12139.3565072038
3734.2214,0.057648467221004904,4995.237949300568
3735.0803,0.056986896717749196,241090.5059900476
3735.9417,0.05649859639995521,5195.501851996134
3736.8013,0.05624394697577514,12273.878580367702
3737.661,0.05621682069462772,12099.383343671638
3738.5227,0.05629267115810788,332498.4472520784
3739.3828,0.05622325492779199,23639.719485641814
3740.245,0.05577984795763569,24939.15500324141
3741.1055,0.054972212415961674,9600.30942855369
3741.9683,0.054099294787831445,183109.15979123025
3742.829,0.0535344108452596,5796.999803569496
3743.69,0.053372448592055914,5891.760431880003
3744.5532,0.053326400660606434,24804.477296530513
3745.4148,0.05295718571657447,15420.675700495369
3746.2786,0.05203570792306349,372742.7861472177
3747.1404,0.050743830066133984,3517.754352675235
3748.0044,0.04954561157875478,2392.331978124238
3748.8667,0.04888819208904152,7815433.39352434
3749.729,0.048899113297992444,493047.0246445074
3750.5938,0.04937584154702582,14825.001872355797
3751.4565,0.05001401003464189,10236.391927020266
3752.3215,0.05066152632645666,525436.0953324259
3753.1848,0.051333623267412726,67761.70069059133
3754.0503,0.05209431578811878,3714.2683457501644
3754.9138,0.052966353200919594,3614.5298013965253
3755.7776,0.05395254673516134,31478.299762093382
3756.6438,0.05500493296913178,8851.867602464341
3757.508,0.05595019517534429,6307.987383721049
3758.3745,0.056541488890145465,12585.064628604392
3759.239,0.056619450890905046,153946.6312730673
3760.106,0.05629425710390933,3153.3451555408765
3760.971,0.055933335782300975,71874.41758054732
3761.8362,0.05592961155104544,5840.262217869802
3762.7036,0.05641541471166769,19219.879948468122
3763.5693,0.057148754685748045,14335.215956317388
3764.437,0.057715203934006115,42565.80913686662
3765.3032,0.05784716797708658,87727.22331100934
3766.1714,0.05759298512297515,3125.158887379255
3767.0378,0.05719549283598258,9290.882344242691
3767.9043,0.056848751363738514,8619.5916446539
3768.7732,0.05655620215955543,6291.529675787803
3769.6401,0.05615956519135083,5599.249297003207
3770.5095,0.055456788013964246,20233.825146466606
3771.377,0.054347350740846054,5403.827810468417
3772.2466,0.05291629637867234,4016.0081050359872
3773.1145,0.051479017359658444,15379.59365142779
3773.9824,0.05047415609273743,13925.888088239479
3774.8528,0.050296458400154384,7494.641932236772
3775.721,0.05110246398541289,43073.871573353565
3776.5918,0.05269780716302797,9136.00682029914
3777.4604,0.0545503145960703,11768.669325615265
3778.3315,0.05602362225925739,5920.284736267672
3779.201,0.056662576786863844,3606.4452442728925
3780.0703,0.05645421358198511,6141.384666093094
3780.942,0.05577413022394141,12624052.75646196
3781.8118,0.0551151625558779,6390.531686921851
3782.6838,0.05478445754505574,219013.0930494775
3783.554,0.054838222382934745,6994.783757713815
3784.4265,0.05522522584139907,8726.782792065676
3785.297,0.05595199342294971,82818.91427738991
3786.168,0.05708212838317675,8717.99801293015
3787.041,0.058584459784711176,6292.117650421499
3787.912,0.060207405369818424,10434.4849997866
3788.7856,0.061563881824079535,3024.602382610787
3789.6572,0.062281767761080783,19074.704691402578
3790.531,0.062186147852539155,7644.339569525257
3791.403,0.061355029912416245,31482.34661687472
3792.2754,0.06010398676636631,9616.443228648484
3793.15,0.05887113399340391,4095.0781245849844
3794.0225,0.05802723554095304,21645.770174365327
3794.8972,0.0576758082411065,8177.963862180515
3795.7703,0.057680183642764435,9016.40097525292
3796.6455,0.05786480845355247,8561.643664470173
3797.519,0.058196001583751725,4978.157027569479
3798.3926,0.05874449816118772,7085.88533975087
3799.2686,0.05952312689669118,7201.268750869118
3800.1426,0.060407224159767646,8140.388230277035
3801.0188,0.06121447325803995,9373.12138678105
3801.8933,0.061774084210307126,19978.305897106973
3802.77,0.061981289261767575,6329.856442363905
3803.6448,0.06181888907440336,29806.276586687523
3804.522,0.06136723634230437,8082.553376422615
3805.3972,0.06075132953661604,21648.014257254552
3806.2727,0.06008963952661534,123822.57113825157
3807.1504,0.05957156343981265,49571.48694905121
3808.0261,0.0595611262092706,5250.716824895699
3808.9043,0.0604663131806446,8130.516177797622
3809.7805,0.06234733615582479,11900.359766133035
3810.659,0.06464271274634287,3174.987950006996
3811.5356,0.06633573318427838,4547.805489786902
3812.4126,0.06660679155070248,5339.962716760325
3813.2917,0.06535298704210837,7103.365697476245
3814.169,0.0632373121458533,11559.406855602512
3815.0483,0.06119124056697451,4413.812746338268
3815.926,0.05987332348160847,22113.58819872341
3816.806,0.059371716678152664,6131.261861956093
3817.684,0.05936316631786181,18078.46406936901
3818.5623,0.059446264168255165,4508.89533819135
3819.4429,0.0594232566035164,64986.615221627115
3820.3215,0.05935457614706417,5076.803014992935
3821.2024,0.05942023526402743,10946.865706405228
3822.0815,0.05971658084254766,10269.90274920602
3822.963,0.06013735267798195,5692.193823474175
3823.8423,0.060421031355164696,8981.732797872932
3824.722,0.060347692016734594,11647.350750510584
3825.604,0.059903770918801634,4300.1127061792895
3826.4841,0.05930048735946321,18113.641841109955
3827.3665,0.058833972758648365,27468.631415704553
3828.2468,0.05874271069590561,5786.6241726949
3829.1296,0.05911054325145268,7424.019213131648
3830.0105,0.05983503563108264,6708.926616051409
3830.8916,0.0606530109632072,4910.700032067756
3831.7751,0.06122874573699078,5498.251234948054
3832.6565,0.061286916308233075,8835.659286663373
3833.5403,0.060734284646865394,7488.819084457066
3834.4224,0.05969270412057246,10907.067400082911
3835.3064,0.0584447658391684,9851.902044716207
3836.1887,0.057343699072260466,32214.135933204932
3837.0713,0.0566452838349757,20143.843037876108
3837.956,0.056375433369509904,114274.58363936533
3838.839,0.05631588184608012,47672.315242156896
3839.7244,0.05618356141526265,7581.674201175144
3840.6077,0.05587947458498538,4215.35222859431
3841.4932,0.05556468873719253,8119576.821605952
3842.377,0.05551872585510138,9102.908958074222
3843.261,0.05592525366332923,31079.73073848534
3844.1472,0.056777849472689004,6993.50670844663
3845.0315,0.05790488186166514,6118.977069973945
3845.9182,0.05908561087535689,1392.360050482226
3846.803,0.06012725234902374,30931.339316725607
3847.69,0.06093897441632687,5111.737350178216
3848.5752,0.06151312511478764,15572.280265997428
3849.4604,0.061904837398653954,11886.208757753642
3850.3481,0.062170784579803955,28232.506130541948
3851.234,0.06230686415321766,7678.830843496358
3852.122,0.062237688046855665,10017.748573565665
3853.0083,0.06190031995758398,9128.298421307865
3853.8967,0.06136223257652193,16049.813834244036
3854.7832,0.06082083524198495,23783.294644840407
3855.6702,0.060423172723470746,11144.24815293898
3856.559,0.06011983346703006,9817.599515738546
3857.4463,0.059739396316909096,330024.16941613395
3858.336,0.05922448399515027,8300.558605647519
3859.2234,0.05877509881043897,9643.108589888763
3860.1135,0.05871724636334964,30045.60001207448
3861.0015,0.05925737557728884,9408.912508517524
3861.8896,0.06032541094369922,5835.0855047149025
3862.7803,0.06160835195744539,12668.2838184825
3863.6687,0.06268944594232426,9985.75100455652
3864.5598,0.06326968732882711,4700.423919502124
3865.4487,0.06330695417137612,3421.0703894369412
3866.34,0.06303933691151499,7495.4210983180865
3867.2297,0.06279933330247137,41977.57179308486
3868.1213,0.06276274813143655,14067.46484396234
3869.0112,0.06284633469360919,8628.09171185939
3869.9014,0.06282936237941383,17284.146434463124
3870.7937,0.06256756507769652,7339.10033811707
3871.684,0.06210877241283908,56387560.49068226
3872.577,0.061623336388590834,6961.08166717932
3873.4678,0.06123854381603385,169026.96739210992
3874.361,0.06089571297702311,10614.158532048226
3875.2524,0.060402429384111146,9122.259674698873
3876.1438,0.059653137137241595,8221.502674934323
3877.0376,0.058834245967752455,130549.60979625488
3877.9297,0.05836927724485156,17659.112881850193
3878.8237,0.0585761400556658,3831.0790481615118
3879.716,0.059363778636146856,46718.24226047349
3880.6108,0.060241070387111975,6309.989140306507
3881.5037,0.06061933849224776,5284.004027235543
3882.3965,0.06016917899864299,6526.949014112576
3883.2917,0.05891334227959699,20435.398308048374
3884.185,0.057109655348231834,17093.817028812085
3885.0808,0.05506040574352779,21883.02215554598
3885.9746,0.05309465509608623,23269.040165978742
3886.8706,0.051525338748497546,9126.137733192829
3887.765,0.05058643952709214,9684.537276014207
3888.6592,0.05028263200547884,35664.42629881458
3889.556,0.050433307107523924,8509.980917975288
3890.4507,0.050849616442441604,28821.841201036907
3891.348,0.05146233337839644,9969.294027044973
3892.243,0.05224550958746031,8444.556734021564
3893.1406,0.05310666580630245,11574.779597241217
3894.0361,0.05389966597050812,8920.156510694858
3894.932,0.054595318703074616,11848.126208493622
3895.83,0.05533372299477111,5205.162491055448
3896.7263,0.056267155721610715,14747.736345996635
3897.625,0.05735813830701946,12595.159091645339
3898.5215,0.05832474621931512,4397.810996729072
3899.4207,0.05885809985403481,19066.311982851083
3900.3176,0.058860936282208426,139022.3562896667
3901.2148,0.05855973782456012,14358.140624912285
3902.1145,0.05837118661160336,135601.9334835686
3903.0122,0.058650485345138226,1326740.819968803
3903.912,0.05947941477191585,151818.78189900375
3904.8103,0.06063003787377247,16015.018759480452
3905.7107,0.061731554636319894,5076.9948956394255
3906.6094,0.06248586777474635,5750.614321183019
3907.508,0.06285455547461913,137537.10068662165
3908.409,0.06306303508747321,14820.32509227735
3909.308,0.0634506688943983,8469.806023991707
3910.2097,0.06425143578364705,3862.197153773566
3911.1091,0.06543041417695507,36077.69456706449
3912.011,0.06670791625413768,8308.822658786736
3912.9111,0.06768873004126279,5816.586030657768
3913.8113,0.06808185163095291,6288.191080037857
3914.7136,0.06783863595737635,4169.737845631674
3915.6143,0.06719146587844746,3964.0677418433625
3916.517,0.06654316134957297,17777.74627655222
3917.4182,0.06627040150064487,3299.9274859113466
3918.3215,0.06651677905527807,10345.868482428828
3919.223,0.0671291630038804,4389.589183452895
3920.1245,0.0677879814626582,8720.776926332981
3921.0286,0.06823958332807875,14806.88299669839
3921.9307,0.06843173769708157,3806.68047923328
3922.835,0.06844459666788526,5265.602281151023
