wavl,flux,ivar
3566.9744,1.0705767796665318,528.9784486385744
3567.795,1.0806514745114755,331.1971993292401
3568.6177,1.0870530173226336,538.9929480645652
3569.4385,1.0885418396309,463.7284674588373
3570.2617,1.0858707117246853,349.5438221751925
3571.083,1.0806327786925294,385.4937973661046
3571.9065,1.0744347771840657,314.1510419390245
3572.7283,1.068659601740036,496.39310118579135
3573.55,1.064260141690212,371.5361005255946
3574.374,1.0617301121119864,456.47405406181696
3575.1963,1.0610372149738658,366.8802797571388
3576.0208,1.061588786251884,624.7572630588918
3576.8435,1.0624545782023584,653.8776790961581
3577.6682,1.0628056778242012,363.1717784791295
3578.4915,1.0623377019170617,416.0825507424157
3579.3145,1.061279869997735,466.1099364277351
3580.14,1.0599008570642683,419.5124337511372
3580.9636,1.0581350214495435,323.9749291973435
3581.7893,1.0558025594832825,291.05868857339897
3582.6133,1.0532178679126665,546.4681222319441
3583.4395,1.0512523962168943,405.36845059936707
3584.264,1.0508205316881616,449.3991246144506
3585.0884,1.0522461079607255,301.86344291902503
3585.915,1.055147995532149,449.3338403844307
3586.74,1.0586097580468325,412.28614401131205
3587.5671,1.0615753001137582,328.26085703815556
3588.3923,1.0633043130318618,408.504254222408
3589.22,1.0639438246416855,347.6069383448795
3590.0457,1.0644760053747633,447.46096254830155
3590.8716,1.0659117731793137,440.75549912371844
3591.6995,1.0682842489176854,405.6082925090909
3592.526,1.0704145098143554,452.1852029013248
3593.3542,1.0707246484086803,310.69748736506466
3594.181,1.0682360658458772,339.2149555593961
3595.0098,1.0630302692015434,401.3930182510924
3595.8367,1.0561629701194593,441.3195124667556
3596.6638,1.0492005177274333,410.83433382650145
3597.4934,1.043768392843807,379.0044701237067
3598.3208,1.0409554443461182,461.4943072297465
3599.1506,1.0406869985205596,396.5513858808868
3599.9788,1.0418476554879545,404.2265658875573
3600.8088,1.043011174337472,375.31440339543644
3601.6372,1.0432882695138783,472.07539521467646
3602.4678,1.0425829946984695,454.8941721022691
3603.2964,1.0411990807277853,546.9886307187205
3604.1252,1.0393886527921863,434.4202402173028
3604.9565,1.0373019253381845,317.7295344542171
3605.786,1.0352258931645073,408.2593940409108
3606.6172,1.0336560880046264,586.2165740959664
3607.447,1.0331576457108789,485.0532364206208
3608.2788,1.0339824360473246,582.5329244306346
3609.109,1.035761023927299,429.53747281062806
3609.9392,1.0375224213762078,520.6352826242193
3610.7717,1.0381521439381243,392.503831923857
3611.6023,1.0370407825444021,430.8810499917134
3612.435,1.034406103458855,547.0676739525861
3613.266,1.0310746170137148,450.82250012432087
3614.0994,1.0279436557367618,466.4299056603546
3614.9307,1.02569992007505,521.1364882232841
3615.7625,1.02470528839024,457.2381224681813
3616.5962,1.0250994229395558,486.70681576063345
3617.4282,1.0267965701097292,398.50180432298623
3618.2625,1.0294154939518827,485.0781552159473
3619.0947,1.0322008350209793,204.523007274468
3619.9292,1.0342343677246622,416.3054942716905
3620.762,1.0347517871005671,401.68271362508096
3621.595,1.0335040255399297,328.8279568678416
3622.4302,1.0308412232848487,437.579021335629
3623.2634,1.0276403090506292,512.078567916678
3624.0989,1.024980163453021,561.22591396729
3624.9326,1.0238725073568475,443.83816123450725
3625.7686,1.025002180626861,385.24981500733986
3626.6028,1.0286006335262208,453.1190495529929
3627.437,1.0342179721836422,431.36714624497296
3628.2734,1.040495789718995,372.50706072617004
3629.1082,1.0453346321938817,399.56713273203854
3629.945,1.0469408461108698,315.2773638228164
3630.78,1.044839495460818,434.34140774283685
3631.6174,1.0401582883140787,512.4466720988212
3632.453,1.0349366747893165,494.94464019373584
3633.2883,1.0311308986274783,480.6119968700444
3634.1262,1.0302175295098697,436.41520585487376
3634.9622,1.033023188623205,494.5691910557931
3635.8005,1.039330549437658,446.67905836621054
3636.637,1.0474596703927717,539.0571673644165
3637.4756,1.05487744279339,399.53704334582454
3638.3123,1.059505129094548,403.9674040967492
3639.1492,1.061034101267081,381.7161265724519
3639.9885,1.0606239946892475,514.7884313352039
3640.826,1.0596360382458856,467.9976511691631
3641.6653,1.058617590681901,400.45180164249837
3642.5032,1.057431331988817,437.83285088293815
3643.343,1.0559652568110607,692.5938644670211
3644.1812,1.0544984370817718,395.4942954132554
3645.0195,1.0533559044571454,486.34917035693394
3645.86,1.0524977552137398,395.3949654451007
3646.699,1.051584075893733,313.7209410633679
3647.5398,1.0503841812924672,477.18388302656024
3648.379,1.0490189666968561,438.330912430332
3649.2202,1.047768463433793,409.22487114704256
3650.0596,1.046868154722593,467.7076769836207
3650.8994,1.0464733141451106,389.44201623415
3651.7412,1.046722489836029,371.0685595586924
3652.5813,1.0476332496588863,421.72526652412853
3653.4236,1.0489667026007623,363.30751633623504
3654.2642,1.0502730109457292,480.9513887704611
3655.1067,1.0512084889921662,276.15849910963504
3655.9475,1.0517753398869125,411.7187297839146
3656.7886,1.0522802781061333,441.9318619888867
3657.6318,1.053021438321418,399.58584898457246
3658.4734,1.0540407005541965,400.8378344232764
3659.317,1.05510936006348,459.6920807667238
3660.1587,1.0557803060031146,375.40244423707736
3661.003,1.0554741927235902,472.5345488960114
3661.845,1.053666084099591,428.65935478195513
3662.6875,1.0502469647707706,386.0352740011325
3663.532,1.0457734501926392,320.9607069510179
3664.3748,1.0412414822678908,533.288461744557
3665.2197,1.037252639986796,468.9171143528145
3666.063,1.0335149054915167,423.41354715553274
3666.9084,1.0290945767374917,464.5612451988622
3667.752,1.0235340539916575,414.7703453217718
3668.5977,1.0174553432727014,583.6915052143793
3669.4417,1.0122885769126204,436.6964469402878
3670.286,1.0092047051180204,490.5551299030329
3671.132,1.008611009146567,490.3395132857876
3671.9768,1.0103249788136313,1121.4675723305943
3672.8235,1.0140223815462865,307.1969824489811
3673.6685,1.0193469393844816,373.5114219101764
3674.5156,1.0257448111723944,504.30205817397837
3675.3608,1.0321564366577514,516.5626014293899
3676.2063,1.0373179018443048,415.8590782186792
3677.0542,1.0402853861315309,392.3550396202776
3677.9,1.0408956853485396,479.16855401004625
3678.748,1.039724781532236,735.163602535726
3679.5945,1.037610233823466,355.7993098524916
3680.4429,1.035363023886419,424.21238129455475
3681.2896,1.0338452266919151,367.4189672571372
3682.1365,1.033927201601615,380.2404954651484
3682.9856,1.036147970726885,518.5087449475935
3683.8328,1.040180040690324,426.7984368940555
3684.6824,1.0447316744538953,512.631210773076
3685.53,1.0479354546832986,384.55036461906593
3686.38,1.048311969673134,431.3718861454787
3687.2278,1.0455716051490735,394.5996293203268
3688.0762,1.0408933381057526,494.37236412233585
3688.9265,1.0363037341083372,479.6527485941968
3689.7751,1.0335237962682635,456.16664887939726
3690.626,1.0329344226849237,405.6037563550846
3691.475,1.0335788266436634,361.99136526122726
3692.3264,1.0340011297778278,406.3871502607676
3693.1758,1.0332385313627255,390.2854890450062
3694.0254,1.0311830300002522,519.9104531787791
3694.8772,1.0282396044424322,359.7378056996646
3695.7273,1.0249086636059348,396.76777927979515
3696.5793,1.0216013624078162,518.3726704237412
3697.43,1.0187402743712157,486.90235905008086
3698.2825,1.016585487358411,558.6462401025451
3699.1333,1.0149852784363809,421.0516604766478
3699.9841,1.0133018468246378,594.6920941369592
3700.8374,1.010914500191639,461.8253948271415
3701.6887,1.007904721270859,641.2538923484935
3702.5425,1.0051020799080075,629.5399647811375
3703.3943,1.0034191867564641,546.7038535762968
3704.2483,1.0029904240934266,500.9395437116846
3705.1003,1.0031934112941052,407.97812730551476
3705.9526,1.0033973773759386,450.9488153608927
3706.8074,1.0035834609733234,571.4186167637314
3707.66,1.0041516948665883,458.69228037514574
3708.515,1.0052706607734638,438.83201620853157
3709.3682,1.0065274226524261,549.6191124648367
3710.2234,1.00719223064375,416.804594612437
3711.0771,1.0066361270223827,425.0859000298938
3711.9307,1.0045556128063238,483.5923468400418
3712.7866,1.0009642902910392,587.6754316512397
3713.6409,0.9962495413085675,544.8363014556097
3714.4973,0.9910947852915929,467.19444000342486
3715.3518,0.9863484779402171,420.5604482067415
3716.2085,0.982578292187049,574.3787458495932
3717.0635,0.9799378974780174,501.331162641482
3717.9185,0.9781617218797174,453.8378842997594
3718.776,0.9767930975899413,518.2770992984699
3719.6313,0.9753713581545855,406.6229096268933
3720.489,0.9736197742838923,414.51200244024756
3721.345,0.971749617740946,483.0284867968405
3722.2031,0.9705656104355781,627.5042396529782
3723.0593,0.9712118525269476,448.378063921042
3723.9158,0.9744534076440284,648.1818970495132
3724.7747,0.9800041541886269,464.24949864445125
3725.6316,0.9863331171635142,376.6325134596673
3726.4905,0.991478392446797,393.1668260273126
3727.348,0.9940444082022892,448.8575297222976
3728.2073,0.9938858462280448,447.71349492844024
3729.065,0.9918244595176312,446.86308600913503
3729.9229,0.989006378396164,446.2435324817419
3730.783,0.9864445997010961,742.7853998692992
3731.6414,0.9848576588870133,544.247579994615
3732.5017,0.9844391149322543,411.99112155148254
3733.3604,0.9846981152033963,543.5087237087071
3734.2214,0.9845985742189453,416.2183250246018
3735.0803,0.9831417006118347,552.764689662183
3735.9417,0.9799683907104993,501.54116979060257
3736.8013,0.9755874903780809,547.6945754624213
3737.661,0.9710352098773193,498.8791297814279
3738.5227,0.9673708944167181,427.244546642397
3739.3828,0.9652861884829063,541.384837259043
3740.245,0.964896911814639,420.45742157588063
3741.1055,0.9658819521262758,497.57751498235615
3741.9683,0.9677067567603411,591.8050001302047
3742.829,0.9697966434938072,457.67622226527027
3743.69,0.9716157232507844,403.40634706913386
3744.5532,0.9726550597517634,497.36459366329325
3745.4148,0.9725496251611679,539.9916561121686
3746.2786,0.9713201869914373,431.81644941220617
3747.1404,0.9694658338322981,603.0123992933528
3748.0044,0.9677680818611856,428.7812206474333
3748.8667,0.9670171033436532,410.07877898141817
3749.729,0.9676891704627579,642.9492880675027
3750.5938,0.969651694604207,635.568746465819
3751.4565,0.9719313737750522,431.87513836218295
3752.3215,0.9730625918078137,418.5085206328053
3753.1848,0.9719773166845629,453.25084984952673
3754.0503,0.9688760164296845,535.951701417208
3754.9138,0.965189617245214,556.9056470173047
3755.7776,0.9624789349349693,671.5832101956499
3756.6438,0.9612696328476212,491.02267747368415
3757.508,0.9607416479621304,583.7158727622615
3758.3745,0.9595491777695059,414.1114030165961
3759.239,0.9571037808252638,497.43884591445567
3760.106,0.9540933103856457,667.9679118819716
3760.971,0.9518938856521371,597.214842750304
3761.8362,0.9513549642101901,592.6037478194728
3762.7036,0.9522336846182157,506.23616725725583
3763.5693,0.9535719708297621,394.8654766408984
3764.437,0.9545841455461721,503.9006684149562
3765.3032,0.9551878613891666,627.9198143980476
3766.1714,0.9559426166851346,433.0573661943792
3767.0378,0.9575661574874483,501.1562329270504
3767.9043,0.960386853411383,529.3067643414555
3768.7732,0.9639175293828327,503.9263272180241
3769.6401,0.9667925003683978,477.6854066761454
3770.5095,0.9674483659551781,474.6357402721568
3771.377,0.9651136989361229,427.3422056497954
3772.2466,0.9604912982689429,605.502641402936
3773.1145,0.9554796007419547,556.2039542104382
3773.9824,0.951996509010672,549.261235848584
3774.8528,0.9509944015877013,475.4305954595163
3775.721,0.9522966317476722,475.57842052373366
3776.5918,0.9551827209540031,455.2762940962141
3777.4604,0.9589445715026504,467.1815597392658
3778.3315,0.9630004390428938,403.42568299842725
3779.201,0.9665997993583337,463.9543926590877
3780.0703,0.9688880522091997,474.98891124677823
3780.942,0.9691972131885083,366.09780812779377
3781.8118,0.9673794677882505,674.1969325595842
3782.6838,0.963814777269237,473.59081542767456
3783.554,0.9592020622434534,565.6891928881777
3784.4265,0.9543061081735956,548.9551216962235
3785.297,0.9500125601914741,635.3824252625229
3786.168,0.9471992081771724,596.5532914043692
3787.041,0.9465432162438845,524.3160122956751
3787.912,0.9481217504204524,603.9230673358484
3788.7856,0.951168904264949,546.731448341463
3789.6572,0.9542444640196173,499.21173644606364
3790.531,0.9559346106459019,439.7897398113913
3791.403,0.9555175295098777,434.84555029147094
3792.2754,0.9532080642761563,425.2956694364547
3793.15,0.9497027339281353,502.550999619092
3794.0225,0.9456041849335359,538.6177101999968
3794.8972,0.941127348769994,527.3695496059954
3795.7703,0.9364218301457288,511.89029801683165
3796.6455,0.9317997229256388,627.2996046799481
3797.519,0.927802747689306,593.0359555041871
3798.3926,0.9248853988058595,557.5323104103875
3799.2686,0.9233039599926752,695.9787498468953
3800.1426,0.9231472922194177,424.0972640938354
3801.0188,0.924338239236777,510.0073727517708
3801.8933,0.9266019550545191,477.6046961480772
3802.77,0.9295456145782225,497.2101855111771
3803.6448,0.9328389397365693,600.0386572986647
3804.522,0.9364195500197715,457.66535943393126
3805.3972,0.9403119006188139,606.8962734405633
3806.2727,0.9444323450495279,524.8090844131863
3807.1504,0.9484598400912081,487.4676189894557
3808.0261,0.9519142030961598,523.6063587574256
3808.9043,0.9543296162735143,504.61565141374433
3809.7805,0.9551976131818134,425.8343894493189
3810.659,0.954079099270464,547.5059084441024
3811.5356,0.9508719280752022,557.1746867690049
3812.4126,0.9461067595803074,466.3952608371255
3813.2917,0.9408986342960234,474.96577068421163
3814.169,0.9365172692186362,569.0451458518575
3815.0483,0.9337486541907916,619.0017035001802
3815.926,0.9327862088909862,816.074852701341
3816.806,0.9334157595069795,557.1333199072277
3817.684,0.9352774153589092,537.4928281548111
3818.5623,0.9377851217354202,540.8006222051044
3819.4429,0.9399771701753966,535.6679716694538
3820.3215,0.9408028052875396,552.1614004700397
3821.2024,0.9398895892031369,552.6350549137362
3822.0815,0.9378818364903688,548.2493450891656
3822.963,0.9358046069838843,556.9931490405785
3823.8423,0.9340057091345788,500.9225599797025
3824.722,0.9316811371958366,567.0814152821164
3825.604,0.9274866279007974,546.6731366734206
3826.4841,0.9206016297256929,465.6976963559775
3827.3665,0.911244254334807,587.4431556011904
3828.2468,0.900678241511742,590.4261356970175
3829.1296,0.8904693335798881,651.041647900928
3830.0105,0.8820034923774712,768.6142921582177
3830.8916,0.8757962839761755,546.1407562682571
3831.7751,0.8714293539775477,562.2681065295058
3832.6565,0.8678641112796095,582.8260424977101
3833.5403,0.8640102220122099,631.2054638230578
3834.4224,0.859408796297705,903.6894699230205
3835.3064,0.8543709927146231,973.8851360687545
3836.1887,0.8498787221097365,812.1963252122218
3837.0713,0.8471682907474867,725.1003940740112
3837.956,0.8473867364764431,591.980781416421
3838.839,0.8511427349177618,694.7972846994456
3839.7244,0.8581793050957311,561.0612064330224
3840.6077,0.8672920056416056,543.2851566784899
3841.4932,0.8768853509189892,509.8791820584663
3842.377,0.8855077382961439,625.8164509196621
3843.261,0.8925670797769715,567.9317231903667
3844.1472,0.898410891563054,639.0902854497547
3845.0315,0.9039540870161953,615.6956283145702
3845.9182,0.9101124407004731,635.2938671854362
3846.803,0.917149209748049,636.8567149464133
3847.69,0.9247948843596392,443.03980735461045
3848.5752,0.932579483630139,638.1711588670172
3849.4604,0.9403682922881711,641.5515304397749
3850.3481,0.9483253946386914,452.98395450073014
3851.234,0.9565361709971193,448.33502736952875
3852.122,0.9648754307226134,579.0666701247807
3853.0083,0.9728142839165376,555.5337961901232
3853.8967,0.9797481122757624,463.17681612806166
3854.7832,0.9850778125119591,416.42563657191795
3855.6702,0.9885095005896516,431.80276841103307
3856.559,0.9901154223629304,553.9941336336972
3857.4463,0.9904184112709785,467.38507018580657
3858.336,0.9902828236483009,562.8191321795157
3859.2234,0.9904866832675224,490.6797236513814
3860.1135,0.9912530495511944,525.2996287139745
3861.0015,0.9921598010500281,522.3444607797463
3861.8896,0.9925842274526862,521.4778822894974
3862.7803,0.9922261737065184,401.5539638059128
3863.6687,0.9912641270941165,559.0839074007965
3864.5598,0.9900650676968772,478.0628794241112
3865.4487,0.9888283734800021,447.22546707660763
3866.34,0.9873908029933604,418.55951075446217
3867.2297,0.985324105459392,485.4988971976205
3868.1213,0.9821101581868642,434.7853538650065
3869.0112,0.9773885877122762,392.3384576647537
3869.9014,0.9710266220070982,498.9559658096218
3870.7937,0.9631333914267617,471.27023818434486
3871.684,0.9541122046449905,577.2149627836869
3872.577,0.9444892538010874,534.8041750975754
3873.4678,0.9349268860928909,607.1977544372154
3874.361,0.9257437500420578,757.8474961201056
3875.2524,0.9168858815038597,431.02603558078704
3876.1438,0.9079269083927204,582.847745810033
3877.0376,0.8986149226521276,540.8478243570793
3877.9297,0.8892932452662499,589.577928048438
3878.8237,0.8805042701367861,665.9899824725709
3879.716,0.8724492347192032,564.9311601873683
3880.6108,0.8643897274053188,670.2041247552196
3881.5037,0.8550654132838367,603.1588891328145
3882.3965,0.8433239451841721,624.9730271783496
3883.2917,0.8288609302477173,700.0177343466772
3884.185,0.8126493389878987,667.026467042722
3885.0808,0.7964143333591854,736.9125417988224
3885.9746,0.782144594421424,962.3404449922131
3886.8706,0.770907948041575,781.053835814385
3887.765,0.7628183125974238,831.7979138243983
3888.6592,0.7574364663096279,776.1550525411548
3889.556,0.7547335704611242,1121.42320199404
3890.4507,0.7553213560571264,945.8886026084185
3891.348,0.7598283305621908,1163.9229463353327
3892.243,0.7681623048976068,860.4955262274364
3893.1406,0.7794962772490912,540.4853549112719
3894.0361,0.7925538127367646,747.9457900211593
3894.932,0.8062606580174084,899.9522606842277
3895.83,0.8197713130750784,692.7605243337119
3896.7263,0.8323182630505241,694.6103528967296
3897.625,0.8435214745240165,653.5682186840874
3898.5215,0.8533506900514175,468.8603083144751
3899.4207,0.8624412519011448,583.225280119805
3900.3176,0.8716644700542313,691.2892023943037
3901.2148,0.8818711405653362,588.1908175362908
3902.1145,0.8934458090846268,583.4538657841193
3903.0122,0.9061558899705023,621.8743171820864
3903.912,0.9196142829738531,644.1202025121079
3904.8103,0.9333673306199795,611.2577884650144
3905.7107,0.9472259407078686,621.2922490871119
3906.6094,0.9608878796673065,498.0420063039766
3907.508,0.9739815238914842,537.5697710348562
3908.409,0.9860243560201268,577.8221884526248
3909.308,0.9966140483390422,359.21658835301196
3910.2097,1.0058802307915362,589.8488014766908
3911.1091,1.0142474813355162,507.56778688376284
3912.011,1.0222715059172596,472.40600109016884
3912.9111,1.0301662101845155,497.3009436123997
3913.8113,1.0379729375518694,434.0271231947834
3914.7136,1.0457086632384605,467.89065661682275
3915.6143,1.0533403026243844,382.1726585669796
3916.517,1.060764900673038,360.73374432616095
3917.4182,1.06763166402018,496.55449687427136
3918.3215,1.073627518655786,467.1782361661803
3919.223,1.0786129410963452,389.9722924029479
3920.1245,1.082904567936534,434.48115677537885
3921.0286,1.0871861360660957,389.8543969770777
3921.9307,1.0921001407108943,418.5405950057112
3922.835,1.0977457049809276,403.74873386646306
3923.7373,1.1032994264403595,352.68569580190956
3924.642,1.1075051816386072,330.7274778586953
3925.5452,1.1094456811712687,409.61711187753826
3926.448,1.1092478526539216,365.9723564170282
3927.3535,1.107897005713032,370.9053155974378
3928.257,1.1065208712987569,429.9548336062968
3929.1628,1.1056465619517377,406.5769609598821
3930.0667,1.1049956078872112,355.46136899380133
3930.9731,1.1037194186710735,374.0491281434076
3931.8774,1.100872048051248,388.40429438435257
3932.782,1.0958382849655166,409.2369380257444
3933.6887,1.0887080009704988,385.86323396238225
3934.5938,1.0805179293861553,351.22502289968793
3935.501,1.072825750452634,415.490466923054
