wavl,flux,ivar
3566.9744,0.820774661406123,876.730383744355
3567.795,0.8227611200187462,1012.3697219885461
3568.6177,0.8223714793169253,660.242696418712
3569.4385,0.8195062505232645,561.2784708392368
3570.2617,0.8147884893978365,678.5849273767122
3571.083,0.8091427048367064,598.3205993550677
3571.9065,0.8031907482991877,695.9683229703145
3572.7283,0.7972616796474311,1134.0183795086184
3573.55,0.7915754664352853,897.40910258079
3574.374,0.7865898121469848,687.3846236870919
3575.1963,0.7831463174614562,641.3894535787712
3576.0208,0.7822260455481937,670.5165874937244
3576.8435,0.7845367639779163,739.7109360505575
3577.6682,0.7899328192106233,686.3263218688523
3578.4915,0.7971233187511013,995.4683010276198
3579.3145,0.8040594958225995,1640.6143797600078
3580.14,0.8087183757086374,502.62954516918427
3580.9636,0.8099540421046877,772.1416285160695
3581.7893,0.8080800818690409,876.4144579004175
3582.6133,0.8045790086515002,810.7585491651652
3583.4395,0.8011617169943537,1134.465717448869
3584.264,0.7988603728381499,818.8290093220969
3585.0884,0.7976231102754977,819.1340403421648
3585.915,0.7967490015616316,786.4203347875497
3586.74,0.7956752961802136,989.8272096664451
3587.5671,0.7945343599612328,897.4425084681288
3588.3923,0.794101355834956,1154.7129123630853
3589.22,0.7951676179378161,662.1720591859439
3590.0457,0.7979498889064528,778.651195164495
3590.8716,0.801980602035374,969.0897273398466
3591.6995,0.8063783919661812,700.9332233958365
3592.526,0.8101263001767477,1044.182839226292
3593.3542,0.8123648858324289,755.2957668608767
3594.181,0.8125932454185267,567.5531429123197
3595.0098,0.8110116460399504,802.9995362165291
3595.8367,0.8086975564751768,558.8201507201265
3596.6638,0.8073308873053451,836.454838979693
3597.4934,0.8084063970604324,984.24059335298
3598.3208,0.8122133445513603,713.031140893004
3599.1506,0.8174483021946567,737.4122073287108
3599.9788,0.8217621781406539,873.0651038861728
3600.8088,0.8231024265242134,719.1214511367057
3601.6372,0.820688142324032,809.3191410688751
3602.4678,0.8152336243290478,853.1754033857667
3603.2964,0.8084211385819874,858.1564038652838
3604.1252,0.8019555540085401,819.6926708175611
3604.9565,0.7970226392539579,857.1503071319861
3605.786,0.7942664525958096,943.0452459061892
3606.6172,0.7939187727574228,836.2290636305671
3607.447,0.7958794194473141,903.8406051203572
3608.2788,0.7994664788266592,1010.8610716239284
3609.109,0.8033187271902454,583.7697672803499
3609.9392,0.8059569877130387,536.9630620409034
3610.7717,0.8066431875271808,763.7699037928156
3611.6023,0.8059166437560971,789.8381425954324
3612.435,0.8052339989734625,879.3560406293117
3613.266,0.8059281488600437,845.5865159094752
3614.0994,0.8082169481599276,900.1733384402908
3614.9307,0.8109038328544046,672.5090105209929
3615.7625,0.8120713197227235,684.8008761705355
3616.5962,0.8102564969414106,561.0559550804021
3617.4282,0.8053680570422587,955.6321383468039
3618.2625,0.7985762156965617,729.5477307877087
3619.0947,0.7916116299414224,762.7316354227139
3619.9292,0.7858968587965036,585.97934109203
3620.762,0.7823418628597187,723.7790626857794
3621.595,0.7811839194640661,1360.740089687884
3622.4302,0.7820568050569872,756.8710204890117
3623.2634,0.7840798312998573,901.6402378171457
3624.0989,0.7861948595003454,698.2807866381669
3624.9326,0.7875260568167354,857.270048175961
3625.7686,0.7876409690009593,890.9937258737428
3626.6028,0.7865026673757918,793.0638763043539
3627.437,0.7843127103126747,786.513822067674
3628.2734,0.7813911623111985,731.9829381127573
3629.1082,0.778171922321783,960.2064036536261
3629.945,0.7750047624860906,1242.2907960801947
3630.78,0.7719449878284012,810.8045697627658
3631.6174,0.7686664022231751,813.6827947318768
3632.453,0.7649879160968671,523.0695538752366
3633.2883,0.7613391051688888,857.9370602114395
3634.1262,0.7587212257329082,828.7666530251967
3634.9622,0.7581005225408353,759.8677567347164
3635.8005,0.7598231225621809,846.5195485432414
3636.637,0.7634916381173237,790.2973883635449
3637.4756,0.7680406209884578,1158.2329408361668
3638.3123,0.7718245391992257,1039.322146443746
3639.1492,0.7732952579364396,610.8598339853612
3639.9885,0.771983395623468,850.6087620893389
3640.826,0.7691592620210388,733.4918126290429
3641.6653,0.76718404029257,678.1625420356013
3642.5032,0.7679549460525531,883.9107496432298
3643.343,0.7716229122036938,783.3502819903957
3644.1812,0.7766486744377216,671.3006839198266
3645.0195,0.781070712958726,637.6152084955434
3645.86,0.7837147037980824,787.7626957244971
3646.699,0.7845357927188028,1257.3155579242416
3647.5398,0.7842374990977367,849.9811779341549
3648.379,0.7837435590345514,933.9267150282052
3649.2202,0.7839005025646945,720.0777245738699
3650.0596,0.7851356585993908,826.3114911566107
3650.8994,0.7870221909789519,1183.4251720146913
3651.7412,0.7882333874167775,968.8409880309434
3652.5813,0.7872660789637431,757.951439216825
3653.4236,0.7835196212823434,739.4848292140576
3654.2642,0.7778026296806467,711.8518447773113
3655.1067,0.7717855613902861,597.3185193380775
3655.9475,0.767172858074296,742.717651458999
3656.7886,0.7650004177510777,680.3422476435144
3657.6318,0.7655406803325782,796.7619161673238
3658.4734,0.7683143932480208,1034.8205418361151
3659.317,0.7722483080287301,847.4730738691853
3660.1587,0.7760473930712279,662.0894254812686
3661.003,0.778894082373041,967.5496573697885
3661.845,0.7807942445466405,929.9429788655539
3662.6875,0.7824340337028081,1082.3274392368362
3663.532,0.7845933557907837,533.8448380193419
3664.3748,0.787728344390296,735.5047341323454
3665.2197,0.7918353508009781,950.0198963293977
3666.063,0.7962700936624693,947.9475659952478
3666.9084,0.7998568648479899,762.6787074674754
3667.752,0.8012813386793458,654.8021952561917
3668.5977,0.7998605919941483,770.5554077602524
3669.4417,0.7959794108433549,631.8890678308275
3670.286,0.7909979330637791,605.1167701009015
3671.132,0.7866876815227859,989.6366785006727
3671.9768,0.7844370490925416,743.9475271401532
3672.8235,0.7845205433487874,667.872133588476
3673.6685,0.7861230114234394,857.7444298414658
3674.5156,0.7881050505003946,773.5170822915505
3675.3608,0.7899155446037842,1128.244697833728
3676.2063,0.79186766096789,869.7239333806754
3677.0542,0.7944809108758,776.0053016630668
3677.9,0.797622082876852,932.7577190323038
3678.748,0.800414481223066,953.1263245259134
3679.5945,0.8018223475746393,654.744036518214
3680.4429,0.8013837870536822,948.2009575465522
3681.2896,0.7992998450545781,747.6955907874793
3682.1365,0.7961165353477857,806.4491192954108
3682.9856,0.7924584129771377,710.7181899322699
3683.8328,0.7889938965680113,944.2920358729073
3684.6824,0.7862556242108176,663.7173884108528
3685.53,0.7844685941085351,1031.2110545612816
3686.38,0.7833784077769599,497.71486966248864
3687.2278,0.7824836980616527,1100.0338137144486
3688.0762,0.7813795604899165,772.778074686152
3688.9265,0.7799682472750152,881.0162322440058
3689.7751,0.7783307046172477,675.1185057733061
3690.626,0.7764497367970237,714.6902671020565
3691.475,0.7742960808063649,793.4327187505543
3692.3264,0.7722194542928973,750.7455909963309
3693.1758,0.7712349314027308,1141.8663320389182
3694.0254,0.7725254477154344,951.2265413384371
3694.8772,0.7765168090175141,799.3267257126043
3695.7273,0.7821993114463625,1083.2547144106516
3696.5793,0.7875247412818843,782.7190318945954
3697.43,0.7904751103643071,750.5926096416719
3698.2825,0.7902958673352982,921.9140365027342
3699.1333,0.7878099560216408,918.9852084601441
3699.9841,0.7847571204095543,817.770552700005
3700.8374,0.7826583923637699,700.5885887668375
3701.6887,0.7820773465917775,737.8048088401815
3702.5425,0.7825893741012546,851.1784442753312
3703.3943,0.783368621330644,702.7093370577459
3704.2483,0.78382927835695,826.6134557535411
3705.1003,0.783956147935131,941.0166923833808
3705.9526,0.7842532722430696,795.7473231523339
3706.8074,0.7853519806740826,1012.690878781763
3707.66,0.78747399296931,871.7648553510477
3708.515,0.7902077720373887,970.2199504747264
3709.3682,0.7928224949351045,802.5238081211448
3710.2234,0.7949950187839361,678.843978672447
3711.0771,0.7970495225328625,672.1989762481253
3711.9307,0.7995695209540451,546.4601386275657
3712.7866,0.8027391490815916,663.1414249927077
3713.6409,0.8059905917942334,738.1984180881858
3714.4973,0.8082081086397366,701.576713138044
3715.3518,0.8082232655727448,582.979633320933
3716.2085,0.8056075855829169,620.1702992776309
3717.0635,0.8011891684409195,877.2147619840964
3717.9185,0.7967608553557084,762.8552977051329
3718.776,0.7941112434299902,744.7464773478933
3719.6313,0.7940476555416798,1087.9319581712598
3720.489,0.795983072176151,933.1530575069025
3721.345,0.79837567374076,692.7793740045661
3722.2031,0.7997163240113103,601.5495731063236
3723.0593,0.7994238538919088,742.9732110665165
3723.9158,0.7980748781461667,1796.3229008495855
3724.7747,0.796743428267443,909.6735190727755
3725.6316,0.796186523857778,784.5031568069707
3726.4905,0.7965076125032488,801.9251460256461
3727.348,0.7973521405472298,743.7295380569108
3728.2073,0.7981271837965197,629.6216738214149
3729.065,0.7981180797516884,694.9796089595309
3729.9229,0.7967411784582289,663.3866650311087
3730.783,0.7938891074675277,608.2004836397858
3731.6414,0.7901480646850884,758.3932807990961
3732.5017,0.7865460499461271,703.2248193331128
3733.3604,0.7840881599823359,756.0879459059579
3734.2214,0.7831681137417862,697.9110921687522
3735.0803,0.7834041407674128,905.6763294284362
3735.9417,0.7839274944863583,735.0393125797269
3736.8013,0.784028652843977,830.334220787785
3737.661,0.7836688289391618,783.1025932051787
3738.5227,0.7834642783765052,688.0249781837031
3739.3828,0.7841672860876702,921.1313822141233
3740.245,0.7860053863314514,993.893099878395
3741.1055,0.7883271718686787,703.3547507943554
3741.9683,0.7898683017510274,550.8905197270535
3742.829,0.78943540237622,665.4269521401764
3743.69,0.786753910473078,973.4200939519556
3744.5532,0.782817707747601,909.413965463674
3745.4148,0.779515473070103,828.2771737240348
3746.2786,0.7784849572586403,1011.3785743767972
3747.1404,0.7801467297648684,804.2545529800133
3748.0044,0.7834933487171978,771.0429505847977
3748.8667,0.7867469274315859,909.4542494386778
3749.729,0.7883984616365186,767.3100641613852
3750.5938,0.787889229600628,750.2043133832663
3751.4565,0.7857938939763022,1155.3681048810806
3752.3215,0.783437915748426,1026.5885721990683
3753.1848,0.7822295048558953,1136.6236539389336
3754.0503,0.782982868963271,810.4711559990658
3754.9138,0.7856799937315527,897.8329005106061
3755.7776,0.7896804562971727,850.6287813996277
3756.6438,0.794112599682106,879.5494643344459
3757.508,0.798096575736715,821.2682732094163
3758.3745,0.8009353406240306,870.2036902265122
3759.239,0.8021358823185797,872.0239793392166
3760.106,0.8015774157389781,716.8415811920652
3760.971,0.7995741792542823,719.4469855526208
3761.8362,0.7968252922396423,841.6986379903387
3762.7036,0.7941643971140834,971.0469461353297
3763.5693,0.7922162353643326,850.8472809808543
3764.437,0.7911186826117205,694.1191007184326
3765.3032,0.7906644150065485,843.1167308073642
3766.1714,0.7906254783464782,940.4331653900664
3767.0378,0.7909618568380727,884.4935665687179
3767.9043,0.7916605922014414,935.8989391456239
3768.7732,0.7924698619092262,753.3322169856683
3769.6401,0.7929434009932333,659.8144362060397
3770.5095,0.7928854617371581,616.0998547298574
3771.377,0.792687046839082,796.7572801469444
3772.2466,0.793142616384716,756.9210503693262
3773.1145,0.7948503093544925,1148.2278442813101
3773.9824,0.7977351909127273,962.5405909537847
3774.8528,0.8010567369258724,884.7610947248597
3775.721,0.8037924960815339,1071.3300725958734
3776.5918,0.8052198244024871,680.8604859306811
3777.4604,0.8051668596466365,1270.9003705468908
3778.3315,0.8039822301781614,799.4098701418354
3779.201,0.8022281378777754,689.69272054111
3780.0703,0.800413294391961,818.2217197913149
3780.942,0.7989967356222384,740.7117709107124
3781.8118,0.798539931476056,945.8099847013259
3782.6838,0.7995996560685277,950.6316780856447
3783.554,0.8022674952066434,696.3538147437096
3784.4265,0.8057789379782285,923.2287257965523
3785.297,0.8086593928986487,646.99755493185
3786.168,0.8095599308820413,670.0260980124126
3787.041,0.8079749663878788,634.5846858256484
3787.912,0.804493638392665,661.8283799405867
3788.7856,0.8003989154218043,718.8323340563084
3789.6572,0.7970833960799479,698.4962394704696
3790.531,0.7954019446806264,942.6138925734762
3791.403,0.7954325125006205,642.1829463858396
3792.2754,0.7965211874617321,926.4468027606941
3793.15,0.7976881539973153,644.4625931155301
3794.0225,0.798095864841574,795.0311812864784
3794.8972,0.7974031008643145,728.8675158061706
3795.7703,0.7958076699060982,1077.4673686376498
3796.6455,0.793810838955618,691.5561933034207
3797.519,0.7919008121042228,666.7520819020896
3798.3926,0.7902808562961264,924.7465308607827
3799.2686,0.7888893194317729,767.4732058813294
3800.1426,0.7876594370587378,826.431697200499
3801.0188,0.78678856152968,790.1307982768998
3801.8933,0.7868140931688908,955.0564927091173
3802.77,0.7883103903248916,890.9420676223881
3803.6448,0.791461864921329,752.4645963995564
3804.522,0.7959074778083524,559.3599448504157
3805.3972,0.8008484378447629,1117.8565331681204
3806.2727,0.8054545839427263,647.2058667210464
3807.1504,0.8091541847147544,736.7137144796956
3808.0261,0.8119963733238372,650.5841851028982
3808.9043,0.8152464777704042,870.9666914946968
3809.7805,0.8216310335615449,800.2403346029406
3810.659,0.8345894183493835,704.7111046136347
3811.5356,0.8555665458461568,1184.7832337681566
3812.4126,0.8812877114886813,785.5613761627966
3813.2917,0.9036122937341262,603.7774842162719
3814.169,0.9137620418527393,627.5324610593507
3815.0483,0.9085903907380748,742.750508672028
3815.926,0.8924645744937859,751.544966320411
3816.806,0.8734919213630455,756.5770602323744
3817.684,0.8580802816431933,863.3395627954508
3818.5623,0.8480169577880041,708.5723918341647
3819.4429,0.8418470457510836,843.0334743824699
3820.3215,0.8374560078754677,741.4801909316509
3821.2024,0.833532699620244,709.1667383504213
3822.0815,0.8297864688040911,851.128497911738
3822.963,0.8262681920216999,744.0527863778136
3823.8423,0.822917520349887,622.8135682054832
3824.722,0.8194466865565813,815.9803456762279
3825.604,0.8156218293446948,813.3444811757375
3826.4841,0.8114752676903719,705.6584886038187
3827.3665,0.8071786102970236,1004.9932842729414
3828.2468,0.8029621707220241,743.4943591097447
3829.1296,0.7989089473416988,926.4119391429479
3830.0105,0.7949077057157297,808.3975332093047
3830.8916,0.7904983413859344,667.9658250573754
3831.7751,0.7850516258666999,741.5184670981191
3832.6565,0.7782121649172835,774.0739370626476
3833.5403,0.7701118202743341,1328.7360461201602
3834.4224,0.7615355234384095,885.7566681267174
3835.3064,0.7536466989211866,733.7503825474874
3836.1887,0.7479355009690167,779.2713212728299
3837.0713,0.7456920105114815,938.0800627826659
3837.956,0.7474315062821698,967.1063089119373
3838.839,0.7524555549024443,930.1429111953926
3839.7244,0.7592785262881532,758.9181375665675
3840.6077,0.7664783218167239,1117.8485006957758
3841.4932,0.7734519147586953,990.5979672693888
3842.377,0.7801902542078457,705.4780302892116
3843.261,0.7869024949659003,809.2966533189962
3844.1472,0.7936662699277436,708.3334895194274
3845.0315,0.8003824046967428,1112.9665537950236
3845.9182,0.8069459619210839,902.3575456731813
3846.803,0.8131009987527126,768.5951910705791
3847.69,0.8185894574692559,810.8116915624728
3848.5752,0.8232018869931663,760.0075450991019
3849.4604,0.8270692149251377,733.3856879645618
3850.3481,0.8306495602515606,686.6566744883487
3851.234,0.8344334002248628,719.4713069823471
3852.122,0.8385734196169164,1005.8520006581207
3853.0083,0.8425692051284828,838.5927672346714
3853.8967,0.8456029111399711,601.3979860830142
3854.7832,0.8471144851872072,652.0606893319049
3855.6702,0.8473420546707311,644.5947684636787
3856.559,0.8471737779078531,658.1760150865814
3857.4463,0.8475610047233947,658.4138507034935
3858.336,0.8489841433734083,769.6923214964028
3859.2234,0.851337558649254,618.3078320286826
3860.1135,0.8541655889604977,694.768628368147
3861.0015,0.8568279103980205,640.3749951665552
3861.8896,0.8587129764301136,609.2453548519882
3862.7803,0.8594273439779196,706.5951890286626
3863.6687,0.8590016819582603,586.2577669967015
3864.5598,0.8578339970673838,744.1878871147837
3865.4487,0.8563299717619903,754.0729799934329
3866.34,0.854547368070835,748.4824966928961
3867.2297,0.8522673601751926,596.3873860652055
3868.1213,0.8493254481438601,797.9692812952235
3869.0112,0.845929269373944,610.8813567313497
3869.9014,0.8424953131328771,740.1527073677768
3870.7937,0.8392698908297666,609.0498832046466
3871.684,0.8361220836516279,774.4462592980877
3872.577,0.8326861972684899,716.0813076708408
3873.4678,0.8287976619160712,622.3151729377493
3874.361,0.8244899608103982,661.6760678087601
3875.2524,0.8197520317203263,855.284854412245
3876.1438,0.8142426004250711,650.3781344050042
3877.0376,0.8076469473853005,711.3119438591351
3877.9297,0.8003658753553625,562.4698129435725
3878.8237,0.7935474925368151,988.1607601153501
3879.716,0.7884857457399826,913.7787866248134
3880.6108,0.7855558007658138,746.858221401684
3881.5037,0.7839911635936491,677.1910919345423
3882.3965,0.7823661612546269,1009.9636882999342
3883.2917,0.7793864261354074,887.4843290153199
3884.185,0.7743084301677167,737.9767947580013
3885.0808,0.7668831306973345,886.0106091544056
3885.9746,0.7573939613715807,945.3202991768461
3886.8706,0.7465248426253219,837.4111097725063
3887.765,0.7354981919789947,909.2359218646573
3888.6592,0.7257498274430498,845.9123050513927
3889.556,0.718716515361972,900.7234226705876
3890.4507,0.7155558572080162,854.7522489928987
3891.348,0.7167654232371531,913.2731904545252
3892.243,0.7221532547416228,871.558199224887
3893.1406,0.7310458696852282,969.2714863372955
3894.0361,0.7424552864238233,1095.2605400089212
3894.932,0.7553556207079163,851.8525166055442
3895.83,0.7685991290514941,932.4806012174633
3896.7263,0.7808837513971271,740.2926669526001
3897.625,0.79132661491057,926.1003865089762
3898.5215,0.799629025990351,758.8286776373446
3899.4207,0.8063292688880576,741.3904899205403
3900.3176,0.8122183130596828,846.4665891992504
3901.2148,0.8179807790022133,769.2521410679792
3902.1145,0.8239356211651887,552.091904999985
3903.0122,0.8301153417400494,822.2537585463456
3903.912,0.836498412208944,632.5189508589374
3904.8103,0.8428183868734146,699.3364673127218
3905.7107,0.8485310587006087,740.7044943475353
3906.6094,0.8528338876836035,572.1534830328646
3907.508,0.8552437382499697,759.3488693722976
3908.409,0.8560923833891629,630.5984091108903
3909.308,0.8566644503031497,696.3631153945992
3910.2097,0.8586807592716792,663.2021808583653
3911.1091,0.863279538748611,1131.776954221726
3912.011,0.8702709262663832,672.6222146462327
3912.9111,0.8780932254154078,520.7798349931144
3913.8113,0.884859759386784,551.6620864997257
3914.7136,0.8894554725913203,681.775780920474
3915.6143,0.8919891591303868,740.1174955996986
3916.517,0.8934552191874701,695.0822725836485
3917.4182,0.8948907259101591,868.9972816427241
3918.3215,0.8968602416389985,718.4554444639521
3919.223,0.8993545830424646,653.3185074742128
3920.1245,0.9020800409143501,668.9644352509902
3921.0286,0.9047286110226318,677.8532785236448
3921.9307,0.9070496475757077,618.3070667000973
3922.835,0.9088277541497922,506.4692172623686
3923.7373,0.9098308179990601,653.0393847116702
3924.642,0.9100076075948824,630.4720190402526
3925.5452,0.9096800586811317,679.0722361475184
3926.448,0.9095582771638409,589.7555678238211
3927.3535,0.9104476773190254,547.266213437645
3928.257,0.9127911581186503,532.4775745016887
3929.1628,0.9163515662157898,592.6750143998022
3930.0667,0.9201728098276875,602.8184849764255
3930.9731,0.9230260480617136,518.5104347380504
3931.8774,0.9239295515931535,500.62325298512707
3932.782,0.9226395196467029,565.7170519940909
3933.6887,0.9196365609401349,530.2312858738644
3934.5938,0.9158237452542933,534.0457991266483
3935.501,0.9119961087721753,632.7891342159047
3936.4062,0.9085510196934822,627.5385198169269
