wavl,flux,ivar
3566.9744,6.714765645287861,10.529489602185961
3567.795,6.688784482577205,12.201432068193778
3568.6177,6.643851729583988,11.650103969842288
3569.4385,6.590027856116104,15.060338411120897
3570.2617,6.539015617667223,12.947499254081546
3571.083,6.50047842110088,14.110354068356004
3571.9065,6.478176047974183,18.673721941864198
3572.7283,6.470771224913159,12.051394940211313
3573.55,6.473843320261858,12.635492491738841
3574.374,6.483382775267071,11.347267738427645
3575.1963,6.497646561090155,15.365158988725556
3576.0208,6.517368436977425,11.157306173056206
3576.8435,6.544161672429615,9.427892234071715
3577.6682,6.57918477659858,9.661521604774824
3578.4915,6.620783201795759,15.059350020225592
3579.3145,6.6633346244091305,11.123556389959766
3580.14,6.697260929619845,9.561944508172843
3580.9636,6.711654177772192,11.23943165074157
3581.7893,6.6996078586633105,9.734364916461123
3582.6133,6.661777961919023,9.575570004337779
3583.4395,6.606335819048855,10.792150978332506
3584.264,6.5458375411426815,11.661422261611788
3585.0884,6.491286888496942,11.449577843655707
3585.915,6.449669075766162,15.576312263453682
3586.74,6.42487783674642,12.23002030255498
3587.5671,6.418519673767277,11.678388269855834
3588.3923,6.429245218570846,11.06842821707392
3589.22,6.449658492159604,16.616568785373413
3590.0457,6.4660100970781045,11.730082159450301
3590.8716,6.464329599442942,11.81081520398913
3591.6995,6.438789096431142,12.298788532079211
3592.526,6.396439266376698,13.196160950993276
3593.3542,6.352773990040737,14.701595416049168
3594.181,6.322632395558063,13.65560825491684
3595.0098,6.311513579444886,14.632153048177228
3595.8367,6.314977751005458,12.383853223748263
3596.6638,6.323861916683994,14.218626055550628
3597.4934,6.331359231434835,15.18033212310441
3598.3208,6.335999833422282,11.885543161249506
3599.1506,6.339476313938462,14.169442210870116
3599.9788,6.341707984493075,11.28278672179035
3600.8088,6.338730404297341,11.621389805871715
3601.6372,6.32600432254045,14.676342914641044
3602.4678,6.304366664900879,15.147209132859835
3603.2964,6.282689896812815,13.908364768787992
3604.1252,6.272907407026026,22.103990330533996
3604.9565,6.282290505264812,11.823178540606978
3605.786,6.308875696316849,13.94788273815313
3606.6172,6.344160809691914,12.132959300865666
3607.447,6.378720967070084,13.285521487911852
3608.2788,6.406851416240079,12.134948326369889
3609.109,6.426299898956577,12.607680270588352
3609.9392,6.436813043149692,13.771171995272223
3610.7717,6.438412658795577,12.155217473514536
3611.6023,6.431642530763974,10.02218318975986
3612.435,6.418598537067666,18.463525469776034
3613.266,6.403094379175821,11.175166143136611
3614.0994,6.388440838314658,13.727816488143656
3614.9307,6.375137722801764,13.814218868317324
3615.7625,6.3602913568817545,12.161525371029809
3616.5962,6.340287213039798,13.144369025043906
3617.4282,6.314071440666617,11.93686585936105
3618.2625,6.283936118343132,15.661801323361727
3619.0947,6.254422635678427,12.980543431868117
3619.9292,6.228847689556744,13.801814738363142
3620.762,6.207753988920649,15.492789545316604
3621.595,6.188737884338539,13.24306651030105
3622.4302,6.168849148041835,11.72463506503429
3623.2634,6.146922391485507,13.980310459394486
3624.0989,6.124105390318647,12.164304175072179
3624.9326,6.103917509909862,15.950000239716113
3625.7686,6.090506874582448,16.330588560326895
3626.6028,6.0866250671961195,13.786721947828779
3627.437,6.091218033559616,13.83203325748445
3628.2734,6.099857575717073,12.182037785495314
3629.1082,6.107460594316374,18.393704511788883
3629.945,6.111015254076494,16.99431411097449
3630.78,6.109402444899047,16.47431558158022
3631.6174,6.1018208606088855,12.668359184113443
3632.453,6.087456689960925,14.212100544104553
3633.2883,6.066982681826173,14.421427370260123
3634.1262,6.0441128025693915,14.806052930380336
3634.9622,6.025256634805185,13.737668164516576
3635.8005,6.0163420882729115,14.687158565979994
3636.637,6.020177263264524,16.363097023966326
3637.4756,6.03521661435385,12.987928520428433
3638.3123,6.056729530184835,11.907042772532394
3639.1492,6.079419143145934,15.903553502789007
3639.9885,6.099489652252032,13.236307209444503
3640.826,6.115263940055879,13.384366113968092
3641.6653,6.126574726259823,11.894019062831168
3642.5032,6.132883769488964,17.288110440780088
3643.343,6.133322026553916,11.77197910781492
3644.1812,6.128305561571855,14.611452562634028
3645.0195,6.120860261096296,12.400358847928507
3645.86,6.115297290168175,15.881367720381512
3646.699,6.1142099333917885,13.234332245778889
3647.5398,6.116460860841412,13.87173242660538
3648.379,6.118197377734114,14.48342588772191
3649.2202,6.116071725238681,14.77354849940114
3650.0596,6.1101900159825115,14.955952917048393
3650.8994,6.104166881999258,18.909140630622932
3651.7412,6.102070659928692,13.377395128037408
3652.5813,6.104929783818983,16.531952870753884
3653.4236,6.109931207767449,13.49110573014775
3654.2642,6.1126582836872565,17.048299011380735
3655.1067,6.110219451615817,13.241081848867482
3655.9475,6.102639067008511,12.744199022275406
3656.7886,6.091533284620836,20.639997000361703
3657.6318,6.0772267084923755,13.978833404348697
3658.4734,6.057436683622995,13.59475017314722
3659.317,6.029035484008579,13.60003711320444
3660.1587,5.992369910472281,14.058314368031828
3661.003,5.952574293793514,14.575094871146982
3661.845,5.917696861770066,16.933025173178784
3662.6875,5.893131867610813,13.977014080078812
3663.532,5.879417417380901,15.20120925373092
3664.3748,5.873800532809011,14.245919445016595
3665.2197,5.873695697214716,15.957089104463062
3666.063,5.878534586325664,16.05366478236698
3666.9084,5.888793092909955,15.311244352066927
3667.752,5.904455588078702,16.12195650084525
3668.5977,5.9246841544861,22.596449593659333
3669.4417,5.947210693708652,15.87464067813736
3670.286,5.968321175466006,12.732256229799328
3671.132,5.983487353737205,15.225782867470333
3671.9768,5.989319586696716,12.965017329659966
3672.8235,5.985220117932313,15.803388977257509
3673.6685,5.972941012363395,14.90907198888915
3674.5156,5.955064919809094,14.459197876494457
3675.3608,5.934013632631733,13.498018222706197
3676.2063,5.911179998754678,21.501320760234492
3677.0542,5.887043242968573,12.842600522077248
3677.9,5.862386149481216,13.809353842902471
3678.748,5.839316429481145,17.216715568149212
3679.5945,5.821567532698366,19.58169290747443
3680.4429,5.811059095906143,18.785662289412333
3681.2896,5.805023223174807,15.339951447694782
3682.1365,5.7966876706220605,17.832956696416268
3682.9856,5.780738695175365,16.199548997095263
3683.8328,5.758748335826441,15.324262731730188
3684.6824,5.73874244030416,18.555412338092772
3685.53,5.729666507119036,22.308938770687945
3686.38,5.734600576778795,17.784947587933992
3687.2278,5.749418484905865,15.312576844333906
3688.0762,5.766867759398388,14.067184326667276
3688.9265,5.781718184472698,14.671672512129227
3689.7751,5.792461752260431,18.079069625258136
3690.626,5.7995461344176755,15.39882216588076
3691.475,5.8026611539537765,13.328668496766584
3692.3264,5.800467019824441,16.279586003692884
3693.1758,5.791754786536349,22.278359172634705
3694.0254,5.776367120258157,18.160140399880397
3694.8772,5.755495290873646,17.488496248386898
3695.7273,5.732313439597438,19.73136694158608
3696.5793,5.711595802078788,17.564362218798767
3697.43,5.698291528244541,17.003375431224235
3698.2825,5.6943415117117775,14.65825546211955
3699.1333,5.697341781254757,14.170699803093896
3699.9841,5.701748716612726,18.603441112237146
3700.8374,5.7018790020826575,15.1150038604
3701.6887,5.694156019400942,17.3362871978161
3702.5425,5.677376307214079,14.959851950997201
3703.3943,5.651899058612618,18.215598916420763
3704.2483,5.618839759548326,15.819744796584018
3705.1003,5.58145103764673,18.310392037367432
3705.9526,5.545413259512965,16.502403987855956
3706.8074,5.517587187339252,16.847098377274992
3707.66,5.502513317597792,15.054413621634076
3708.515,5.499391326149014,15.803499347144335
3709.3682,5.503851029837122,18.587534176710037
3710.2234,5.512072457751699,14.821797427301492
3711.0771,5.523603782668359,17.497366067087547
3711.9307,5.540204102349569,19.182471397423434
3712.7866,5.56230199838796,18.191881048433423
3713.6409,5.586758864337896,16.085443855746924
3714.4973,5.608452176266422,21.292176320395996
3715.3518,5.622391639149904,14.019406106973973
3716.2085,5.625547975387863,14.896581668940037
3717.0635,5.616991330587977,14.824504464459817
3717.9185,5.598493332530527,18.731983277777783
3718.776,5.574963661928089,19.45617074445991
3719.6313,5.553949712960817,17.336358799936608
3720.489,5.541954825625469,15.24650167795592
3721.345,5.540416282012367,16.28798429660984
3722.2031,5.543883532904875,15.327020660521786
3723.0593,5.543774030892233,14.845176865305016
3723.9158,5.53464714092986,17.260388216443552
3724.7747,5.517103753358722,18.07753176961292
3725.6316,5.495606770915815,15.91791500686067
3726.4905,5.474090272687061,21.010841681776938
3727.348,5.4549645517391,15.067274660931854
3728.2073,5.439958671315888,21.22484294663451
3729.065,5.4309111262090495,16.986872192942286
3729.9229,5.4282046767327685,21.640048238474098
3730.783,5.4296932153299,20.122924125654404
3731.6414,5.431410144149958,15.04886374513234
3732.5017,5.429889812388577,15.244772631144382
3733.3604,5.424011516171872,20.067239026628293
3734.2214,5.414937284749664,17.68978694392922
3735.0803,5.404678904113607,18.657348524715868
3735.9417,5.394385577649228,22.06379568249229
3736.8013,5.384342704235197,16.51901266958488
3737.661,5.374869749293255,18.142237087868473
3738.5227,5.367328247254597,20.916497837116577
3739.3828,5.363563848204226,18.175084452811912
3740.245,5.363737061534311,18.288304804492174
3741.1055,5.364623787754303,16.025981771035582
3741.9683,5.360186929797092,19.420313848542804
3742.829,5.345176495730524,18.680381817835947
3743.69,5.319600810638667,16.586704196736846
3744.5532,5.290174850559831,22.62526987200142
3745.4148,5.2666530847224164,18.786352247836792
3746.2786,5.254318937415953,19.53723477172572
3747.1404,5.250758280808247,22.515787538026117
3748.0044,5.249181960172214,18.540173992936865
3748.8667,5.245649542305004,21.209760553991163
3749.729,5.242459806188178,19.405525768738595
3750.5938,5.2450866336581266,20.716285050702627
3751.4565,5.256225560816422,16.832195598002023
3752.3215,5.272727889895286,22.66246667934628
3753.1848,5.287286835178594,18.512502464549456
3754.0503,5.2934668714084845,17.556007844300918
3754.9138,5.289559331112793,16.34971779723302
3755.7776,5.2793543076507286,20.936039188104015
3756.6438,5.268964593429654,19.580355268844674
3757.508,5.262490766122456,17.476254089175814
3758.3745,5.259647010204498,19.318742522147076
3759.239,5.2576614701259325,20.441621230942133
3760.106,5.254656192985335,22.924560093424393
3760.971,5.251122948219595,23.160268877219348
3761.8362,5.2483420219367884,19.268091412442015
3762.7036,5.246307679320959,17.897439089506513
3763.5693,5.243397451692187,20.745101657378232
3764.437,5.23775162824093,18.60559658410068
3765.3032,5.228950656628642,21.0841097898545
3766.1714,5.21839095417654,20.228585573736243
3767.0378,5.20846047821575,34.79236534865636
3767.9043,5.200741326344497,20.52395144760727
3768.7732,5.194930594515968,20.173882745697608
3769.6401,5.189099989616802,22.014909520027253
3770.5095,5.181147548489883,20.604175386134052
3771.377,5.170724480376447,20.218116599335918
3772.2466,5.1596188254423305,23.609739100214863
3773.1145,5.150754952307669,21.333060802724486
3773.9824,5.1461626484850305,20.44065554535578
3774.8528,5.145918264429665,17.70287970392052
3775.721,5.148077031404971,18.021098574358437
3776.5918,5.149503171682581,20.740997118511313
3777.4604,5.147378814628805,16.17029125611733
3778.3315,5.140917286122708,19.44694595461136
3779.201,5.132046925617628,21.118007446523098
3780.0703,5.124111515965208,23.852929976856565
3780.942,5.119890634254142,18.883907634177415
3781.8118,5.120546095918577,21.07146852304196
3782.6838,5.125663158648738,19.274338411176828
3783.554,5.1334648428906835,18.806756300863068
3784.4265,5.140943058426616,16.10769451639668
3785.297,5.144383412137824,18.94615629305744
3786.168,5.141005573841562,20.219125158981235
3787.041,5.130267225550892,19.05971123169978
3787.912,5.114222976616325,16.61635582208008
3788.7856,5.096075930654684,20.967175238695013
3789.6572,5.078566598350021,21.810073629690216
3790.531,5.062240665327961,25.085609147048455
3791.403,5.045713650206118,19.35727723128484
3792.2754,5.0268123719264715,18.9045307074798
3793.15,5.004731304550884,19.653057473664
3794.0225,4.981332226525367,24.831860424266676
3794.8972,4.959877291741686,25.84582574083426
3795.7703,4.943312013399395,19.509268195614993
3796.6455,4.932440030902361,20.426500952787706
3797.519,4.926147828317764,20.96295374340552
3798.3926,4.921905842978186,22.67449870983091
3799.2686,4.916899617797021,16.927043106062992
3800.1426,4.90949606917138,21.867136945701585
3801.0188,4.900320650809131,22.228661560469174
3801.8933,4.892162062943869,23.842939503277766
3802.77,4.888396759876555,26.34428294422441
3803.6448,4.891890327179158,24.109598977306355
3804.522,4.90457517218487,19.409251360087627
3805.3972,4.926826746608863,21.982363663854112
3806.2727,4.956549857936988,24.883245941410756
3807.1504,4.988991054049749,21.11763633073756
3808.0261,5.018507856546033,20.00911394359188
3808.9043,5.041959976248261,17.687354627497562
3809.7805,5.059051364360992,28.108786287296457
3810.659,5.071157543116254,19.36039205053991
3811.5356,5.0790455638023495,19.43016217799959
3812.4126,5.082774020057412,21.56785451322684
3813.2917,5.082524638841866,20.78071511426822
3814.169,5.079455687390429,18.13807803978396
3815.0483,5.075493724922246,23.74929958768532
3815.926,5.072285135844587,15.472680804671427
3816.806,5.069907921928707,21.442850592046252
3817.684,5.066473435825068,22.33352044068364
3818.5623,5.058842146335616,21.30272560300849
3819.4429,5.044147202246856,15.96809524264711
3820.3215,5.0214107211264185,23.286426327323955
3821.2024,4.991817854186799,17.1627234641986
3822.0815,4.958607090871502,22.321500989122693
3822.963,4.92533655832636,23.804264604177945
3823.8423,4.894887720207316,27.61483947357679
3824.722,4.867401707013745,24.06603612826605
3825.604,4.839931070309869,18.53445889771325
3826.4841,4.8080256665966905,20.288522954915507
3827.3665,4.7683717944922845,21.2597760663522
3828.2468,4.722085127907409,27.904035694189453
3829.1296,4.67393133174228,23.12531594010166
3830.0105,4.630378015909339,30.239863146763952
3830.8916,4.595044248065964,23.137157582884175
3831.7751,4.566938795123049,22.727428401801582
3832.6565,4.541615602714937,23.59508032883374
3833.5403,4.51454526094684,25.856162473529963
3834.4224,4.485514237239172,24.524837088825425
3835.3064,4.458710737424113,28.776239080011486
3836.1887,4.44016526275521,25.105857812879744
3837.0713,4.433529426250275,25.530929893090082
3837.956,4.438685213088556,31.283348548409034
3838.839,4.452740780439133,30.469639331181824
3839.7244,4.472604476927494,32.73832457495161
3840.6077,4.496666561089508,25.588674161065434
3841.4932,4.5255174371648135,25.275300201644416
3842.377,4.560413948198614,28.224497637728277
3843.261,4.602033089932142,22.226306685987936
3844.1472,4.649141137368189,29.660556369810042
3845.0315,4.698111528999221,20.20339814261832
3845.9182,4.744711946165978,22.679677523236805
3846.803,4.784840290203774,24.966884147134955
3847.69,4.816986501150137,21.205641366115294
3848.5752,4.842149154437106,23.092808355598166
3849.4604,4.8634959106730795,25.00310981270149
3850.3481,4.884156843825321,23.2758793046456
3851.234,4.9054559726372835,19.998337351841993
3852.122,4.927137619832994,20.408546385075823
3853.0083,4.947990163692677,20.383439480850882
3853.8967,4.967222942839762,18.682106655964887
3854.7832,4.984231194970903,19.936860240256216
3855.6702,4.998619794912428,19.62132849433011
3856.559,5.0099044502433365,19.65159857906743
3857.4463,5.017650400364446,21.581144931242413
3858.336,5.021749272084327,21.506128666792474
3859.2234,5.022318202741019,18.642381476450907
3860.1135,5.01978106918154,24.099494110881857
3861.0015,5.014781324509028,21.391482428010924
3861.8896,5.008028854399009,23.734659789247747
3862.7803,5.000345868348567,19.010827192613462
3863.6687,4.99293612410281,21.020093813291847
3864.5598,4.98714015056938,21.70338375665263
3865.4487,4.983951953723083,19.389557436466422
3866.34,4.983164171981304,21.12347185521248
3867.2297,4.983099085421969,20.14088530387564
3868.1213,4.980774309977621,20.813284615816453
3869.0112,4.972690047485629,22.460865272954237
3869.9014,4.956101162259076,21.97699762699851
3870.7937,4.930305047720997,22.353958618757257
3871.684,4.897242047694402,21.91662580730636
3872.577,4.859700854732745,24.695608744746824
3873.4678,4.8196754329321125,23.818690679271715
3874.361,4.776307021828123,18.038188451137156
3875.2524,4.727581111376442,25.2408238060308
3876.1438,4.672110017918141,24.051344444905105
3877.0376,4.611183337574118,29.08523482823115
3877.9297,4.5487920896765015,27.256981762488664
3878.8237,4.488297668979737,31.62305507137388
3879.716,4.431302732222124,28.77181558078541
3880.6108,4.376079787235415,23.469112981422658
3881.5037,4.319603477332438,30.682085478856315
3882.3965,4.258475930640481,31.172187954075866
3883.2917,4.191136957234833,28.2248219430122
3884.185,4.119357076112824,30.164457899674254
3885.0808,4.0462978882279375,45.02521898064142
3885.9746,3.9760375458024964,32.51836386584694
3886.8706,3.910770694194873,42.78603477894787
3887.765,3.8522165821643486,33.503285272005456
3888.6592,3.801925990312336,44.97532361214711
3889.556,3.762833262226887,38.85559755045971
3890.4507,3.739139645280099,41.11468154693674
3891.348,3.733970673867242,33.665773587613344
3892.243,3.7479808507136787,40.03673557791885
3893.1406,3.7787785935610003,38.48376788802988
3894.0361,3.821827093445792,34.761457989575106
3894.932,3.8728729637528327,44.14235003521327
3895.83,3.928989728660938,33.86271643512031
3896.7263,3.987866303197613,31.9865280329354
3897.625,4.04803567013537,42.55756250938608
3898.5215,4.107717647850373,31.16006234972624
3899.4207,4.166758804367097,35.339529975342174
3900.3176,4.2255720647706685,32.971050454465704
3901.2148,4.285441994459239,31.343393323809373
3902.1145,4.3471043693721585,25.90120438606413
3903.0122,4.410179974510633,36.20753341276058
3903.912,4.474493676064704,25.080306072144495
3904.8103,4.538681312402327,29.619156609493178
3905.7107,4.600782444498404,24.427693365582773
3906.6094,4.657424664192249,23.05492386830355
3907.508,4.70619682754547,23.898623900554036
3908.409,4.746799572619003,24.888461654138247
3909.308,4.78129891074607,26.47539601355346
3910.2097,4.813794448629806,24.528320483340632
3911.1091,4.847888176392853,24.97873618624661
3912.011,4.885625497848552,22.600681503303914
3912.9111,4.926193845823076,20.612610720429362
3913.8113,4.967577780695809,18.305321019526197
3914.7136,5.0083855437252165,19.06456882669266
3915.6143,5.048830109296959,19.608944414764434
3916.517,5.090575888717495,23.705966169888637
3917.4182,5.1336721086836965,21.61750511635207
3918.3215,5.175506548846814,18.039469069841633
3919.223,5.21075052461435,17.987593027949014
3920.1245,5.234922422599733,20.689901473993928
3921.0286,5.246969042112052,19.28540312463702
3921.9307,5.250155522940358,18.83206030394439
3922.835,5.2503507116695625,19.800111054163892
3923.7373,5.252585265813185,16.674110113071173
3924.642,5.258657287932878,20.5310777694143
3925.5452,5.267036779390426,17.220016081073734
3926.448,5.274858194531061,21.908958199965845
3927.3535,5.279931879833857,20.13382040893496
3928.257,5.28156892362846,20.630040096517057
3929.1628,5.280518073662234,16.877893536432783
3930.0667,5.278423022332621,18.28496375316547
3930.9731,5.277408734667324,17.50711536553888
3931.8774,5.280111660949786,21.75230155336661
3932.782,5.290203015165079,17.44178556470209
3933.6887,5.312557977472106,19.73039680220449
3934.5938,5.350428408782139,20.302525665473503
3935.501,5.399952398613676,19.604938944483823
3936.4062,5.4450548692303995,19.134692565378344
3937.3142,5.46271896530469,21.874803813181906
3938.22,5.436497111088657,20.458213522625268
