wavl,flux,ivar
3566.9744,2.2907972621174495,385.3361790752448
3567.795,2.290223916516948,327.6686334120648
3568.6177,2.2858867937241723,313.6537089911138
3569.4385,2.2787056691865026,355.7421081404385
3570.2617,2.270331005472298,355.63954314833114
3571.083,2.262140654401429,355.7855841254855
3571.9065,2.2545782158199876,311.1325894264507
3572.7283,2.247921939492727,426.19440053428036
3573.55,2.243061192354148,401.21766999770296
3574.374,2.24153224282096,425.42037735239137
3575.1963,2.2442901676091322,409.43083601457585
3576.0208,2.2503926979091253,387.1079731728763
3576.8435,2.2569309225269434,358.0058039267232
3577.6682,2.260625009119601,322.14132543268704
3578.4915,2.259712668861225,322.2023460220366
3579.3145,2.254978656991937,374.3120097181888
3580.14,2.2489917017454966,343.89538473395424
3580.9636,2.244500724556802,407.1196997705296
3581.7893,2.2430112731219154,433.5058766865102
3582.6133,2.244700310546773,390.26419899343296
3583.4395,2.2490374534404483,326.4984176515642
3584.264,2.255250611509628,353.89246006685585
3585.0884,2.2623097504618177,359.5732781107296
3585.915,2.268730711530553,343.89796172971916
3586.74,2.272827613256444,407.06868049036774
3587.5671,2.2735525716594727,315.14298434961745
3588.3923,2.27098251340413,398.2204352318552
3589.22,2.266212695767398,442.3472859485919
3590.0457,2.260687868667087,364.82711276352745
3590.8716,2.2552325807844125,370.7552071903603
3591.6995,2.249568956617516,390.38285396365467
3592.526,2.242721606519142,317.8796616860508
3593.3542,2.234068621764802,335.3353749087059
3594.181,2.224317925042614,451.94097065917447
3595.0098,2.214948641339222,371.52151550298197
3595.8367,2.2070976887329627,350.8754789681261
3596.6638,2.200659049672015,420.9649922616498
3597.4934,2.1949234018507626,399.567346208764
3598.3208,2.1897544946103205,370.1602261904186
3599.1506,2.1859693751338196,407.7746510935158
3599.9788,2.184804862369389,377.14177109549144
3600.8088,2.1867856239613324,435.34331928051705
3601.6372,2.1913183127269065,333.5485373512963
3602.4678,2.1972230771440895,459.0951825403632
3603.2964,2.203377243213395,412.8736327413824
3604.1252,2.208979260357541,471.05078161159696
3604.9565,2.213206637440615,319.7369210247116
3605.786,2.215108479034148,359.862736783409
3606.6172,2.2140601819904226,330.17387700538006
3607.447,2.2101967213611613,362.22828807424264
3608.2788,2.20451920266811,379.9474807920883
3609.109,2.198634060715243,369.34239932765996
3609.9392,2.1940418041074086,475.07753248918385
3610.7717,2.191481160026357,414.76981926150046
3611.6023,2.1906232203139178,389.08695843359556
3612.435,2.19045428968411,399.71871479392365
3613.266,2.190123579617333,403.2867564957501
3614.0994,2.1893675768416934,364.17701833652865
3614.9307,2.1882692917184023,362.1721384234746
3615.7625,2.186815773296562,427.45001568688167
3616.5962,2.184839680184307,428.1294989156297
3617.4282,2.1822398105494933,407.2699048085268
3618.2625,2.179024930875832,396.67988361761957
3619.0947,2.1753062713553764,402.2699208789797
3619.9292,2.1713093805792743,330.31571728192733
3620.762,2.167582029485566,396.0552554946141
3621.595,2.1647543301004597,407.8646064958829
3622.4302,2.1630525940676706,426.05127271517824
3623.2634,2.1619434696999336,398.4932115356478
3624.0989,2.1603927877486906,388.3416077194808
3624.9326,2.157706869242606,335.4492603077743
3625.7686,2.154172764719117,355.16164008495014
3626.6028,2.151008872202115,367.25842385016847
3627.437,2.149402465551561,453.90261569649806
3628.2734,2.149513306067158,349.23865075932383
3629.1082,2.1501753125939818,381.299507155928
3629.945,2.1496045553382523,397.7847415979845
3630.78,2.14655905093024,361.8789058259729
3631.6174,2.1410800817425795,410.58026454941756
3632.453,2.1344939097082856,359.67989991666605
3633.2883,2.1285749179653557,457.5401441054296
3634.1262,2.12466932380134,389.71319568361884
3634.9622,2.1231611333422773,354.1383618364181
3635.8005,2.1234349612224888,470.470193386882
3636.637,2.1244172481343098,422.6812584947392
3637.4756,2.1251867339780643,412.5573194847221
3638.3123,2.1253204166991613,469.7294105748769
3639.1492,2.124849334404542,342.3356180864661
3639.9885,2.1239551960385166,403.1247540540224
3640.826,2.1227572279314755,402.93690755963235
3641.6653,2.1212609987485638,349.31166425645387
3642.5032,2.11943622347436,485.6888028807286
3643.343,2.117210650821743,383.28151718307504
3644.1812,2.1145291446638157,391.0315763261073
3645.0195,2.1114779255382508,394.71775215015816
3645.86,2.108505197292085,431.99252509373065
3646.699,2.1064379341014265,550.7957855078932
3647.5398,2.106090533985028,347.9858117226748
3648.379,2.1077779431507864,432.3666884764856
3649.2202,2.110963406841272,437.31261012380526
3650.0596,2.1143403860109613,460.7293568907724
3650.8994,2.1165304464297883,394.6797311023353
3651.7412,2.1168666266426404,410.2450999767917
3652.5813,2.115738924003518,425.0097427323403
3653.4236,2.1141626889673883,470.89242311971987
3654.2642,2.1130787172751027,434.8506821079835
3655.1067,2.1129897062953407,372.3089052974256
3655.9475,2.1140284150495625,469.5568366217035
3656.7886,2.1159786533834493,371.62233296613744
3657.6318,2.1181655276601745,391.358318963327
3658.4734,2.119504225399029,424.0290728169492
3659.317,2.1189495496962794,374.8849056349567
3660.1587,2.1159471005933796,373.7618960821454
3661.003,2.110616309189862,393.78180797141073
3661.845,2.103774208271766,394.50017091880045
3662.6875,2.0966693745730085,436.0423675791728
3663.532,2.0906747446184166,510.291552454696
3664.3748,2.086785398208902,396.146520290375
3665.2197,2.0851718080946764,375.4244669640407
3666.063,2.0853471092596245,431.8645541590245
3666.9084,2.0865160944946584,433.94234635074645
3667.752,2.0877943268355974,478.20975345379355
3668.5977,2.088239386693661,402.2410473028925
3669.4417,2.087072827169061,391.86876424346207
3670.286,2.0842491941539265,361.2267240837541
3671.132,2.0807464882811035,479.19382659334934
3671.9768,2.0780727294521544,460.67925382311205
3672.8235,2.077109517162309,483.17798718217915
3673.6685,2.077394384141367,389.8081062607302
3674.5156,2.077403316428473,425.27098199202925
3675.3608,2.0756840140694335,453.0812583859731
3676.2063,2.071918162739122,490.1597451645077
3677.0542,2.067149976222363,464.8359037352497
3677.9,2.0631511697329743,432.6570962316306
3678.748,2.061214343493878,433.42985858036207
3679.5945,2.0614888667387685,441.58422356532185
3680.4429,2.063107552032122,385.7255713387244
3681.2896,2.0649835578824174,441.13562317066845
3682.1365,2.066439445758462,421.729915506844
3682.9856,2.067248344140626,401.9917087336045
3683.8328,2.0674966802666597,408.29870804391606
3684.6824,2.0676173467312395,446.95351137148623
3685.53,2.0683107594059185,427.50844850977387
3686.38,2.0700649732638583,418.2081823409769
3687.2278,2.0725256822991387,377.9502403292749
3688.0762,2.074468028047688,497.68701079616324
3688.9265,2.074508397317993,366.51591452343075
3689.7751,2.0721151209080935,422.11608164438087
3690.626,2.068048189406849,460.359381798028
3691.475,2.063913907681943,451.6582743807237
3692.3264,2.0610764229970457,447.8347346507989
3693.1758,2.059950123660671,444.26288634262977
3694.0254,2.0599147883356617,381.40096126831435
3694.8772,2.059893082110903,435.5008980250041
3695.7273,2.0590223768597062,444.52870114194656
3696.5793,2.057110351288613,405.20880832633816
3697.43,2.054668959242385,457.9560430613639
3698.2825,2.0524507925286395,371.84310558933544
3699.1333,2.0508756813740265,448.5409917431569
3699.9841,2.0496671880922372,436.5831559936401
3700.8374,2.04804613574168,403.78911818092195
3701.6887,2.0452730146132754,484.0100221804172
3702.5425,2.0411124539887484,412.3337823959955
3703.3943,2.0360624590205205,431.82290931806637
3704.2483,2.0310722253376565,427.02427596990464
3705.1003,2.027222402723016,480.50556874050716
3705.9526,2.0252368111560077,512.5426978560317
3706.8074,2.025254990680251,438.546723344147
3707.66,2.0267096438818206,441.6193894895545
3708.515,2.028499604463871,435.2100406679113
3709.3682,2.0294338673213685,497.27579656599744
3710.2234,2.0287923762689846,445.2580633182625
3711.0771,2.026522848247106,507.4049104730948
3711.9307,2.022972195138466,404.0375644524669
3712.7866,2.0184952371386267,446.04896686821473
3713.6409,2.0135024495878566,497.8088299894531
3714.4973,2.0086876868019483,393.33871916081904
3715.3518,2.0051622342631163,552.1991043175194
3716.2085,2.0038510056405174,467.9302079678697
3717.0635,2.004872227466893,445.20610717985346
3717.9185,2.0073679502619997,605.9832834122009
3718.776,2.0101180266345415,475.3049956652652
3719.6313,2.012281377403073,490.62402837609994
3720.489,2.0137198251273363,461.9628642219533
3721.345,2.0145541791633867,439.97001853623436
3722.2031,2.014615757475113,534.0491076411445
3723.0593,2.013354021214245,467.04397662342325
3723.9158,2.010396901502023,471.39041041705724
3724.7747,2.0061705759039774,446.6102410245637
3725.6316,2.0019570840452414,526.1530513950958
3726.4905,1.9990556515852307,446.6167078187547
3727.348,1.99791494309238,442.06420946385515
3728.2073,1.9977984718564374,405.69895924587973
3729.065,1.9974043800219143,434.35331872998927
3729.9229,1.995814954004446,402.643168701605
3730.783,1.9930539853864024,452.31006371904635
3731.6414,1.9899725479009969,477.62598624588975
3732.5017,1.9876201575994652,405.86746148729367
3733.3604,1.9867204016326265,463.4797367353916
3734.2214,1.987331897886346,456.32979067657993
3735.0803,1.9888095906529146,476.37975935592607
3735.9417,1.9900240746612947,532.4582540432531
3736.8013,1.9898646995723,453.2510424002717
3737.661,1.9879049997462632,451.5288124381036
3738.5227,1.984661738139988,439.1409787962336
3739.3828,1.981232491768875,482.92143762277914
3740.245,1.9784169862197398,522.4721605858456
3741.1055,1.9761727905119133,527.3267259593348
3741.9683,1.97367458551154,522.1790922517716
3742.829,1.9701335628071757,443.7517021619068
3743.69,1.9656170871983434,467.7084238288295
3744.5532,1.9613118284690967,602.0452483350675
3745.4148,1.9589256522279925,433.7703346591145
3746.2786,1.9595625300073767,467.49693369099833
3747.1404,1.9631207077112705,505.1838904367108
3748.0044,1.9684685707313456,457.6411852681476
3748.8667,1.9740108226221005,485.6074921753696
3749.729,1.9783835353450547,469.02391396721805
3750.5938,1.9808862270496805,493.6344525726322
3751.4565,1.9817211086263122,482.0286421260104
3752.3215,1.9818489125058538,445.0586847387013
3753.1848,1.9822777840381594,438.5639027795592
3754.0503,1.9833181154724895,379.9835206502479
3754.9138,1.984383376465507,493.20596600639465
3755.7776,1.9845809580219453,410.37894460673556
3756.6438,1.983520751660031,427.98691186597574
3757.508,1.9816751942097983,474.8049559445209
3758.3745,1.979967424051171,510.0570264285845
3759.239,1.9790661700189274,518.2435246167613
3760.106,1.978902463535261,476.2198283769431
3760.971,1.9788079472689069,467.0218412371026
3761.8362,1.9780578066144339,442.1241001408111
3762.7036,1.9764099539194984,453.97015459578546
3763.5693,1.9742471666127712,481.1781185268379
3764.437,1.972193038000687,502.0317927890641
3765.3032,1.9706449572258402,482.18392164304106
3766.1714,1.9694981776781897,432.93582360970777
3767.0378,1.968239530465142,485.0158647678253
3767.9043,1.9661419709268635,490.5977660216132
3768.7732,1.9625247591678643,496.34129571114494
3769.6401,1.9571130063540854,492.75437474673504
3770.5095,1.950233168143601,460.9953258230795
3771.377,1.9429234951489862,483.5700282404109
3772.2466,1.9364836889581383,507.69573159223046
3773.1145,1.9321661280682914,440.0224939805246
3773.9824,1.930820878577656,438.4356753264361
3774.8528,1.93292918159398,447.2983908621512
3775.721,1.9384680025773084,458.87010618449347
3776.5918,1.9467313205942156,521.4474545454751
3777.4604,1.9561966171554896,460.01038856489964
3778.3315,1.9652048865654776,476.89720067375237
3779.201,1.9724438297105926,428.23555304532283
3780.0703,1.9772671157321795,508.74566886904097
3780.942,1.9793493552237387,541.0699564490335
3781.8118,1.9786857816671286,478.7045240826379
3782.6838,1.9760095951307988,459.52211134552783
3783.554,1.97282110567672,412.48502656892526
3784.4265,1.9704830848316246,500.2945616638418
3785.297,1.9692180834042514,416.33101956568316
3786.168,1.9680080518134484,425.04399493509385
3787.041,1.965661644917506,455.79494800417655
3787.912,1.9618793802144048,472.5296252032227
3788.7856,1.9572785676735678,435.91511336600377
3789.6572,1.9527076173393791,462.5705700845422
3790.531,1.948408699991008,545.8726908069319
3791.403,1.9439287998858725,506.37541325477605
3792.2754,1.9384739322005478,462.1864293694953
3793.15,1.931546736724112,484.2801102449423
3794.0225,1.9232681003034018,515.4311165582308
3794.8972,1.9139623642807952,448.95901038846046
3795.7703,1.9039049275494742,472.7030969095662
3796.6455,1.893241206416831,562.9221963080026
3797.519,1.8826809239478546,488.27716653272256
3798.3926,1.8736056731043484,551.1714351251579
3799.2686,1.8677083181420862,607.2361948806946
3800.1426,1.866170420463012,508.44004313907953
3801.0188,1.868988725642085,598.9482065625954
3801.8933,1.8751147709184344,544.4875218644676
3802.77,1.8831331324167038,579.5039750348988
3803.6448,1.891904615856527,488.38080969431746
3804.522,1.9011884436961803,550.3042920500019
3805.3972,1.911464393926892,539.081602850794
3806.2727,1.9235219360154987,493.96636318722256
3807.1504,1.9375275626118638,582.8637346888725
3808.0261,1.9523225161029143,493.11980891250147
3808.9043,1.9658533908414564,395.3246172573646
3809.7805,1.9758133138946194,473.4091004268259
3810.659,1.9809215673697147,446.43467793158413
3811.5356,1.9812904253062318,476.3340299485803
3812.4126,1.9783750564957663,413.84585975283494
3813.2917,1.9743068598828246,435.1904880264751
3814.169,1.9712859904774311,451.25046970976007
3815.0483,1.9709105097155526,486.66069380630626
3815.926,1.9735893413347478,446.4896521724766
3816.806,1.9781184036663062,457.4259339789972
3817.684,1.982012926682149,498.3782510034217
3818.5623,1.982839730400684,444.81047358568554
3819.4429,1.9794982895761646,448.94076535735275
3820.3215,1.9725705271245828,474.72555400591614
3821.2024,1.9633517982340836,487.73651610779586
3822.0815,1.952859123955993,548.4934231940852
3822.963,1.9414161776897396,444.21276096362465
3823.8423,1.9293671264787233,463.90230642769296
3824.722,1.917256628173779,551.8827727226386
3825.604,1.9055650309707266,504.96159571172507
3826.4841,1.8942370869303626,515.7023009806577
3827.3665,1.8824507002914346,505.0487718595479
3828.2468,1.8693866253657085,514.0913789672142
3829.1296,1.8545565833454767,538.426934136429
3830.0105,1.8382073605302491,604.3261210331045
3830.8916,1.8208139275071884,548.2373741906861
3831.7751,1.8028842920958834,626.9126431160414
3832.6565,1.7851340358854209,591.731707065782
3833.5403,1.7685052880015673,582.7504633984449
3834.4224,1.7547507196996575,558.6907659601493
3835.3064,1.7457963156515859,566.8716868248206
3836.1887,1.743135256397568,629.5952020532848
3837.0713,1.746981398664456,606.2230066906851
3837.956,1.756388695402859,587.1429203387398
3838.839,1.7697883407321757,525.9883926148156
3839.7244,1.7858412678023645,519.7550126505342
3840.6077,1.8034062106160038,581.8533269817882
3841.4932,1.8216375925926316,514.1903887552062
3842.377,1.8395901196445823,516.5684840365896
3843.261,1.8567451616351365,574.0213924447945
3844.1472,1.873142597792524,532.2960815280246
3845.0315,1.8891383982175762,561.153767420992
3845.9182,1.905138879169845,481.36566903148884
3846.803,1.920783161160046,436.4062076206886
3847.69,1.9352677305154238,443.3400794936573
3848.5752,1.947663982498735,515.5569260498925
3849.4604,1.9578559866786553,464.7153260691544
3850.3481,1.96662602740632,493.1224332695325
3851.234,1.975147572488193,453.5799436544806
3852.122,1.9845278925257048,491.52319254963476
3853.0083,1.995312310949017,399.01507514057704
3853.8967,2.0075997505693075,455.2797332937364
3854.7832,2.020737306604525,406.8778836516733
3855.6702,2.0334663282620236,435.42636219380006
3856.559,2.0441554394185806,443.7334336446893
3857.4463,2.0515122672530097,444.4876986873873
3858.336,2.055345293625695,469.15009733314565
3859.2234,2.0564243437475316,432.3713154676214
3860.1135,2.0559815513361923,444.87727097437335
3861.0015,2.055064059857221,386.96056544040806
3861.8896,2.0542607002711906,431.77851277078474
3862.7803,2.0536831434886293,419.6498247987968
3863.6687,2.0529695782001167,462.0624282287308
3864.5598,2.0512858525717674,447.8962588854317
3865.4487,2.047591675699839,387.56325430463585
3866.34,2.0411188393157134,398.57176222109587
3867.2297,2.031950176604542,468.74413794822954
3868.1213,2.020919472100352,424.64219329407655
3869.0112,2.0091700659506193,426.64161528474546
3869.9014,1.9972696385334925,435.4310010254251
3870.7937,1.9850274202480587,436.1610736603888
3871.684,1.9719786451652823,499.4127135668364
3872.577,1.9577311186473831,436.2190494828713
3873.4678,1.942383117923556,457.1521071688973
3874.361,1.9260025162803278,457.18901319739484
3875.2524,1.908684131602171,524.8774652744602
3876.1438,1.8902849026126936,527.9610307603352
3877.0376,1.8706950880232411,540.0573653020631
3877.9297,1.8501347903833771,561.8088674545907
3878.8237,1.828766868324722,632.0305141484721
3879.716,1.8068181260621607,549.3232842016394
3880.6108,1.7840787895288561,607.6590472075162
3881.5037,1.7604221193569887,501.4747852468785
3882.3965,1.7356563273678138,623.9105413519604
3883.2917,1.709735591179294,680.4827795613893
3884.185,1.6828828929496733,566.196803155081
3885.0808,1.6550712472911453,654.983167596036
3885.9746,1.6267016888021624,746.4646833072611
3886.8706,1.598413162101283,684.6142782522188
3887.765,1.5719409230993224,846.4656713318742
3888.6592,1.5497199971367632,786.4373254171865
3889.556,1.5346203017772164,914.648041478707
3890.4507,1.5291322079796992,798.5755779657229
3891.348,1.5341907027698232,801.1509143807035
3892.243,1.5488057330181653,712.1461936104005
3893.1406,1.5706105575253315,787.0614165376612
3894.0361,1.5967773632103393,700.0673678567294
3894.932,1.6255808546415942,706.3279831199609
3895.83,1.6565585317598566,759.9334115623225
3896.7263,1.6895487753524032,630.1485481696353
3897.625,1.7242946517084277,599.5823493032821
3898.5215,1.7595135230019534,576.8360726223646
3899.4207,1.7940781806556088,524.7489572194195
3900.3176,1.8268218020567297,683.4931846579057
3901.2148,1.8572769694593836,650.5772030169283
3902.1145,1.8851651044808444,502.9684614297214
3903.0122,1.9102339274145133,466.3706402867833
3903.912,1.932981089563915,454.4847790608513
3904.8103,1.9543249219233119,564.3648810827815
3905.7107,1.975698887411997,522.4267442173394
3906.6094,1.9979652066170692,476.65916826915753
3907.508,2.0211266447798937,469.7683851744379
3908.409,2.0442508390202656,409.5892710400241
3909.308,2.0660594261191703,389.8816058924567
3910.2097,2.086155386834152,406.97646184187755
3911.1091,2.104845341147289,403.13418830178125
3912.011,2.1230238123412066,395.98122830165363
3912.9111,2.141124835003687,357.5857031283193
3913.8113,2.1591574390052948,382.94605191067626
3914.7136,2.176699966432621,371.04982254822465
3915.6143,2.192928518698365,374.71560659888206
3916.517,2.2070127192384477,362.32039858172277
3917.4182,2.218148438963063,384.4906998945104
3918.3215,2.226263722826489,377.95115172615834
3919.223,2.232058244540643,375.9087100513804
3920.1245,2.236828358534338,365.0906686988804
3921.0286,2.2417595315196435,351.98086774747196
3921.9307,2.24746968336443,341.997188228922
3922.835,2.2541329634356853,337.06594398999675
3923.7373,2.2616607021374944,373.2745727389786
3924.642,2.269975762346311,356.387727161671
3925.5452,2.278725588476121,377.54223954774227
3926.448,2.287154823254511,338.29778261618384
3927.3535,2.294038301780568,352.0930159034604
3928.257,2.2980157579299885,329.82267318840707
3929.1628,2.2983953883562367,340.4194568279342
3930.0667,2.2955617640884483,352.4612283785567
3930.9731,2.290758916739251,342.13393658720616
3931.8774,2.2852681652995757,378.76259109567195
3932.782,2.2795054591682833,368.36839345800763
3933.6887,2.2729780691324506,331.24972195173757
3934.5938,2.264975359606749,400.7985138187438
3935.501,2.2551389997044,331.7443423744299
