wavl,flux,ivar
3566.9744,1.0919008262064458,781.7013329035011
3567.795,1.09206243653759,738.6892993203224
3568.6177,1.089367088155484,740.9471157887095
3569.4385,1.0849024078112797,494.6475281574104
3570.2617,1.0799364255501869,622.7257567685259
3571.083,1.0755240417749723,670.9184719504939
3571.9065,1.072235587868464,578.1934817741236
3572.7283,1.0701933576653062,862.1057345350496
3573.55,1.0690479551633234,594.9260050126171
3574.374,1.0682701069155376,823.473698048552
3575.1963,1.0675383155073666,591.0325662214493
3576.0208,1.0668184152909286,1016.970422562795
3576.8435,1.066021760329553,590.2504570827202
3577.6682,1.0646663091871902,688.2209015356178
3578.4915,1.0620994692786165,671.457058288124
3579.3145,1.0580352273329439,656.7580146268915
3580.14,1.0528687172495048,780.4671970479782
3580.9636,1.0476084284287144,573.115434551613
3581.7893,1.043398789349311,509.14379533774127
3582.6133,1.041182860210921,989.0110349676798
3583.4395,1.0413291038976167,613.1290132228714
3584.264,1.0436092464520383,725.9622885183488
3585.0884,1.0473927215080665,710.5557103704022
3585.915,1.0519325113771838,620.9369683875162
3586.74,1.0564741282598782,522.8476952517098
3587.5671,1.060426088818653,633.3560755273073
3588.3923,1.0633809285194142,594.1106744329337
3589.22,1.0652406324174504,613.7357647540892
3590.0457,1.0660991179091788,795.3832050048105
3590.8716,1.0661671476365957,692.9428938906236
3591.6995,1.0656544425690033,657.9381952767346
3592.526,1.0647459552882552,639.4059846605211
3593.3542,1.0636392731522224,648.7695929741998
3594.181,1.0626467323458442,733.8700603708862
3595.0098,1.062122669827401,702.1381748416821
3595.8367,1.0621500854444343,777.992848561681
3596.6638,1.0621840869937214,527.9848311169285
3597.4934,1.0611394443120374,588.305744856675
3598.3208,1.057984333906278,658.254875884552
3599.1506,1.0523254346461492,634.6638629945803
3599.9788,1.0446682596911787,1059.9336412604089
3600.8088,1.0360641391942358,596.3119934484968
3601.6372,1.027887442612996,734.384889274238
3602.4678,1.0215238100616773,675.8609691915985
3603.2964,1.0184278830557256,800.3213202475144
3604.1252,1.0197092315487135,714.7110174984156
3604.9565,1.0256601196973774,625.1858649486961
3605.786,1.035238424367988,750.8798904334584
3606.6172,1.0463734833112681,632.4174855719889
3607.447,1.056564769714135,685.5213699305218
3608.2788,1.0638752071533195,443.53753085606945
3609.109,1.067275000432747,654.4890681364623
3609.9392,1.0668033688502947,739.5860232761555
3610.7717,1.0632056460553418,519.3096090853467
3611.6023,1.0577118870953255,721.4334298988622
3612.435,1.0518678081858448,542.4804809921567
3613.266,1.0475028648597704,569.5606796048696
3614.0994,1.0460790378066298,942.3294113877212
3614.9307,1.0478813861416791,816.8514447206704
3615.7625,1.0516039297688957,740.4816820929286
3616.5962,1.0550812360517239,694.9173701322953
3617.4282,1.0566319517584113,599.7195275108783
3618.2625,1.0560380147833908,631.9913935349471
3619.0947,1.0543017728305837,733.6161119007136
3619.9292,1.0525748373248183,642.3484957930021
3620.762,1.0512004436423645,622.4114514305386
3621.595,1.0495490681647597,746.3680454468496
3622.4302,1.0467390337561697,682.9841752273851
3623.2634,1.0425159037893776,708.7805789236232
3624.0989,1.0374093421447461,688.2685940725421
3624.9326,1.0323170580527141,658.1337726979737
3625.7686,1.0279089850841248,869.8148351822464
3626.6028,1.0247258432798994,585.8731941636901
3627.437,1.023335422076588,568.7553516708925
3628.2734,1.0242056980678171,683.8789066741775
3629.1082,1.0271254181762148,657.9450954653004
3629.945,1.0310208520172937,832.755709750835
3630.78,1.034500809926385,752.9020944876694
3631.6174,1.03675541721312,696.3905233648418
3632.453,1.0376968806636062,701.0060318245137
3633.2883,1.037511794647036,664.8959910317484
3634.1262,1.036234396096874,517.8398493155587
3634.9622,1.0340000015098905,724.5274282953746
3635.8005,1.0314226885898472,824.863780417103
3636.637,1.0294781724631794,722.6826662393473
3637.4756,1.0287818456684652,677.9446255830047
3638.3123,1.0291832323623664,752.6953003370811
3639.1492,1.0300059670646151,698.9267151076026
3639.9885,1.0306709051010947,658.3006635982226
3640.826,1.031096035207127,665.4261108390991
3641.6653,1.0317288475286288,547.7704735544506
3642.5032,1.0332297814006874,791.4688041044661
3643.343,1.0359530724528159,665.1563606442742
3644.1812,1.0394407819163012,646.3591109717606
3645.0195,1.0425104221413102,525.8201888841214
3645.86,1.0439002652768885,827.103290952417
3646.699,1.0430285155626777,691.718617099594
3647.5398,1.0403042105444011,594.2398000210379
3648.379,1.0369067944597683,819.0350424049795
3649.2202,1.0342486232986754,913.017057880659
3650.0596,1.033428555402947,785.0730514149379
3650.8994,1.0346648506235356,657.2668880472621
3651.7412,1.0371616019963281,633.9117795858516
3652.5813,1.0394250348329486,637.296895654295
3653.4236,1.040005878885309,870.5951966054665
3654.2642,1.038146282575236,590.429201700387
3655.1067,1.034083899587763,910.4360704426796
3655.9475,1.028874795108131,666.5169415080816
3656.7886,1.02379434961093,582.2067771137109
3657.6318,1.019821983621463,531.8573493405521
3658.4734,1.0173880218918487,796.6626580822444
3659.317,1.0163152181637565,740.5295561993795
3660.1587,1.016042032450809,587.916841148854
3661.003,1.015888070339425,753.6649856337374
3661.845,1.0153645398798081,951.4193595319603
3662.6875,1.0142489959738972,572.7277592162343
3663.532,1.012254455239256,609.1383000685713
3664.3748,1.0085113082248731,754.314952420986
3665.2197,1.0014370827196926,650.261599054064
3666.063,0.9898214630619482,689.8134093908909
3666.9084,0.9745270311062946,717.7569995765813
3667.752,0.9598315666379408,618.616489784816
3668.5977,0.9517899274380561,709.178180469515
3669.4417,0.9547277669247637,675.3369135650681
3670.286,0.9678981738937802,740.5895299484192
3671.132,0.9860238971324173,880.7000871504715
3671.9768,1.002772984927459,770.8939312783335
3672.8235,1.0146252080640767,689.3755950845346
3673.6685,1.0214566202734765,713.786939454363
3674.5156,1.0250435022369284,641.1885147041877
3675.3608,1.0268569420245877,502.4243750428432
3676.2063,1.0272991872870025,592.3364789567507
3677.0542,1.02613552719311,702.1444445300673
3677.9,1.0234756243098937,634.3253462418945
3678.748,1.0203077270563217,736.3033360475083
3679.5945,1.0183339971597778,665.3975138733613
3680.4429,1.019109496348214,899.8880886447276
3681.2896,1.023185170869612,781.2102557454235
3682.1365,1.0297341743594643,676.4494694881647
3682.9856,1.036922133036424,625.0826649016713
3683.8328,1.0426873218107582,697.0496225032442
3684.6824,1.0456455936846476,696.0363420551696
3685.53,1.045242207260315,659.1735513133219
3686.38,1.0415513919069783,918.1107079040272
3687.2278,1.0350509312350724,654.7470873502555
3688.0762,1.026747841758625,636.6267846078822
3688.9265,1.0184499154647948,792.9360369003634
3689.7751,1.012480503259428,709.27600053334
3690.626,1.010508771339986,930.9576258354247
3691.475,1.0125898210866655,1005.9197153359715
3692.3264,1.017005341956396,949.3554630031665
3693.1758,1.0212853754426634,582.1784163398387
3694.0254,1.0237366878041605,654.9102007174646
3694.8772,1.0241358514485408,633.010655859877
3695.7273,1.0232736071707706,914.872474290848
3696.5793,1.02191130299302,769.1012111228486
3697.43,1.020234559757136,674.4957715152101
3698.2825,1.0181176793068265,668.2303610692755
3699.1333,1.015678472749653,733.507389066683
3699.9841,1.0133612453669123,799.8002101581951
3700.8374,1.011652531120636,733.0233932924065
3701.6887,1.0108085916422467,902.2440270796077
3702.5425,1.010793885813679,727.4075554683442
3703.3943,1.0114525041200007,702.0671246693727
3704.2483,1.0126946042887512,850.2906868624287
3705.1003,1.0145664909554941,681.0646073110828
3705.9526,1.0171445456198498,553.7657836558608
3706.8074,1.0202665257888814,851.9025176154821
3707.66,1.023342285806578,761.2593886895976
3708.515,1.0255916554241233,691.3487950575447
3709.3682,1.0264469177368145,568.9951812168338
3710.2234,1.0260013919216282,724.3994241721142
3711.0771,1.0250332164244005,741.4891989836544
3711.9307,1.0246382853323939,784.2507385285955
3712.7866,1.0256698754536133,640.5987180058496
3713.6409,1.0282198018014095,783.9762319636683
3714.4973,1.031425936309144,735.5853552049048
3715.3518,1.033736950801304,587.0068329837583
3716.2085,1.0338029740459012,540.2471774604296
3717.0635,1.0313689194382,707.4668971746511
3717.9185,1.027527876611852,744.8760858289248
3718.776,1.0239496399943058,562.1356823183974
3719.6313,1.0217741406005703,661.0210702195977
3720.489,1.0209653538577734,685.9378481779806
3721.345,1.0206870535391017,587.9777094112249
3722.2031,1.0200600648002753,656.392529339848
3723.0593,1.018717180920746,714.5830273697418
3723.9158,1.0168163353797977,647.1961467781467
3724.7747,1.014744695823077,854.159381186526
3725.6316,1.0128655745651267,684.8066255159971
3726.4905,1.011402116547167,754.3995120437128
3727.348,1.0105210584914426,671.146179793024
3728.2073,1.0103261613222272,733.1344477939296
3729.065,1.0107810019829828,841.2509185417142
3729.9229,1.0116259491760748,680.4950049653876
3730.783,1.0124721878083758,796.2057291556711
3731.6414,1.0129965947381119,705.0707944949895
3732.5017,1.0130386269211076,751.8107364280665
3733.3604,1.0124781649427417,740.5641945810041
3734.2214,1.011151036829467,718.772894039116
3735.0803,1.0090513161132513,720.4036649982136
3735.9417,1.0066409661586615,837.0054039310829
3736.8013,1.00496010101454,707.1994455157701
3737.661,1.0051477540760145,840.742152798648
3738.5227,1.0077882000623186,629.5235136431229
3739.3828,1.0124849663361857,806.8569115168839
3740.245,1.0181006692546166,668.7580125775066
3741.1055,1.0232188161415552,818.9401550556136
3741.9683,1.0266907046613736,603.6879042603622
3742.829,1.0277724876839631,680.3689025026562
3743.69,1.0263747371353602,797.1137400986661
3744.5532,1.0231986721342485,608.0829216184587
3745.4148,1.0196661193219108,806.790060121804
3746.2786,1.0171843726823142,734.0367761425929
3747.1404,1.0163060629812997,629.1266768857847
3748.0044,1.0163790200675509,633.8771731648831
3748.8667,1.0161649747258028,752.2467276937125
3749.729,1.014782377263719,687.7750636118095
3750.5938,1.0121879458575804,669.9331967249879
3751.4565,1.0090156468242168,732.5276212993284
3752.3215,1.0060400688930433,669.5958867582378
3753.1848,1.0038599890584066,840.942533773851
3754.0503,1.0027207959901054,624.9680843939318
3754.9138,1.0026154221914922,612.0111951775041
3755.7776,1.003451522062086,863.8233248184857
3756.6438,1.0052332966881978,503.7460098206727
3757.508,1.0079984694222779,658.8638618029553
3758.3745,1.011652899466309,616.3477311428492
3759.239,1.0158008550172228,718.2306305428074
3760.106,1.0199137555458588,726.5704329149165
3760.971,1.0234122898963065,682.0280288029674
3761.8362,1.025771796318925,657.3976435669872
3762.7036,1.0265096909481708,713.4333390097668
3763.5693,1.0254572532222856,615.5842047215311
3764.437,1.023100790644853,761.2823901868032
3765.3032,1.0204868464862853,686.767927574169
3766.1714,1.0185005432483174,688.763880482048
3767.0378,1.0172299533646258,691.1635862248488
3767.9043,1.0159930271137636,570.0079459697064
3768.7732,1.01404952975705,808.9688940300075
3769.6401,1.011228046667834,640.3826501638014
3770.5095,1.0079250319655384,714.7604915336701
3771.377,1.0048057029014066,735.5761342437708
3772.2466,1.002419110085078,622.8874514042952
3773.1145,1.001109898484588,644.7840227955907
3773.9824,1.0009804416571497,516.3947594471078
3774.8528,1.002041687778659,761.4178407448767
3775.721,1.004356156268995,730.3036954176171
3776.5918,1.008070954299037,770.2437726236068
3777.4604,1.0131143788650707,682.4979925325471
3778.3315,1.0190258052411276,606.2774821801097
3779.201,1.024967274044694,737.2151918873018
3780.0703,1.0302526224265427,696.2359881215639
3780.942,1.034600446037016,755.1303078233504
3781.8118,1.037929299508396,577.304622314171
3782.6838,1.0400502621036114,644.9530947461853
3783.554,1.0406068393406365,608.3582477304852
3784.4265,1.0395730909746783,674.7634728905929
3785.297,1.0376014145529506,670.162531912491
3786.168,1.0357263540549144,670.1051893831017
3787.041,1.0346299568926298,754.9257772780253
3787.912,1.0341559028111837,556.9300979748862
3788.7856,1.0334793050092357,721.8732693721026
3789.6572,1.0317666834305281,537.8312011061942
3790.531,1.0286917073592585,689.1815375482779
3791.403,1.0245405563901522,645.2632794084153
3792.2754,1.019826369488199,731.4318926119398
3793.15,1.0148646894571847,693.7357093531044
3794.0225,1.0095868817990086,628.9321842586596
3794.8972,1.0035607442571086,632.313212452565
3795.7703,0.9964458138076965,786.4566278533065
3796.6455,0.9882679887460224,806.0298436566352
3797.519,0.9797323580526112,833.1514908606397
3798.3926,0.9719344887080783,785.0689102912921
3799.2686,0.9659426901624666,894.2196437718811
3800.1426,0.9623780491824119,812.9848001852159
3801.0188,0.9612164608036659,630.4203028954438
3801.8933,0.9621687399368704,814.5547363890375
3802.77,0.9650617918444293,828.9680058355358
3803.6448,0.969970648655396,864.4967675597276
3804.522,0.9770968697898497,763.8482522517489
3805.3972,0.9863564844319114,756.7527586688109
3806.2727,0.9972869482349301,641.4865002183092
3807.1504,1.0090197086102535,790.6809135481975
3808.0261,1.0203941801822312,611.2097045343842
3808.9043,1.0304587110988404,600.5915990337085
3809.7805,1.0385387720526094,784.9526903222327
3810.659,1.0445741281694247,697.3652278935562
3811.5356,1.0489150395174534,669.5852601313261
3812.4126,1.052198172289489,559.7409315718697
3813.2917,1.0549648209082854,498.4962062019873
3814.169,1.0573939720314953,616.8989175891652
3815.0483,1.0593240166390099,604.9123514765389
3815.926,1.0604299175369971,714.8295642989169
3816.806,1.060538794831548,685.0630133946585
3817.684,1.059770535260677,779.3885839326281
3818.5623,1.0585268846879934,636.4620139242797
3819.4429,1.0573367506954505,535.8560837781804
3820.3215,1.0566500433080737,658.5331345350802
3821.2024,1.0566199378931416,657.5578874310786
3822.0815,1.057047175385029,649.2338344101272
3822.963,1.0574243249043087,642.9862894079339
3823.8423,1.0569972931276403,629.9370087396206
3824.722,1.054901814652961,552.4367315976524
3825.604,1.0504839436989142,646.1995983393967
3826.4841,1.0437805611798363,564.5316092383808
3827.3665,1.0355405048228141,693.914782209789
3828.2468,1.02690657656916,764.8684017830801
3829.1296,1.0185736582957428,698.5497024238271
3830.0105,1.0105126726718492,736.8252557597443
3830.8916,1.001919048715271,676.0005346653702
3831.7751,0.9917756651343679,670.721203152608
3832.6565,0.9795123553904571,641.885596952873
3833.5403,0.9651068076148075,713.9176400286724
3834.4224,0.9492554025231111,847.3051831319218
3835.3064,0.9329055097894544,866.3670906275195
3836.1887,0.9174974239294552,831.8802021440627
3837.0713,0.9048444964687218,880.5552397263699
3837.956,0.8970864891342359,802.0154309113411
3838.839,0.896006412344167,1136.0027037586551
3839.7244,0.9021183380001615,976.3842061015425
3840.6077,0.9144050191141879,900.0390812688328
3841.4932,0.9309230275824798,767.0759018446506
3842.377,0.949445371682522,749.0439414338282
3843.261,0.9683169988713076,839.9941900288629
3844.1472,0.9865231117736328,737.7828110732343
3845.0315,1.0034070688307641,655.2331074799845
3845.9182,1.018717431433035,768.6885952483262
3846.803,1.0321146596542436,653.4046719065317
3847.69,1.04345267899513,702.2247809293519
3848.5752,1.05262941621819,553.0703845131342
3849.4604,1.0598795935806185,747.2277570021826
3850.3481,1.0656670367211822,605.52620474855
3851.234,1.0704865818765354,598.67677645903
3852.122,1.0748010443413498,674.5825201873082
3853.0083,1.078938451988446,572.2609834135465
3853.8967,1.0832600253471254,583.7586589777512
3854.7832,1.0879977809222416,590.2479620661026
3855.6702,1.0930763145783218,589.5656351020684
3856.559,1.0979815800568469,527.4078243089543
3857.4463,1.1020197343463884,598.2441146142005
3858.336,1.104819492349722,660.1113265642124
3859.2234,1.1064452478027258,531.749574884355
3860.1135,1.1072619982045517,694.3938251334251
3861.0015,1.1075569809617865,591.2612692684309
3861.8896,1.1073599969030201,620.6072149339811
3862.7803,1.1064842792871434,612.2185662692957
3863.6687,1.1047729967301985,665.0883938430869
3864.5598,1.1023280781168276,515.3689869993073
3865.4487,1.0996683476020688,569.5960905928448
3866.34,1.0975545730474368,631.2452755371636
3867.2297,1.0966140319488507,662.0405814001776
3868.1213,1.096779447032447,687.4511045489785
3869.0112,1.0971142805526655,605.2277877182443
3869.9014,1.0962608839675054,570.6632385476648
3870.7937,1.0932955500812376,485.11477196198916
3871.684,1.088389068952362,579.8586754543336
3872.577,1.0826293792599384,693.549907490263
3873.4678,1.0773471405931456,557.8591719458828
3874.361,1.0732195155826303,734.0159542615949
3875.2524,1.0700852674886474,562.4927860245155
3876.1438,1.067145300574249,789.0464429161573
3877.0376,1.0634353619281514,603.0723253944459
3877.9297,1.0581297850326634,625.3392871584895
3878.8237,1.0505954617675914,612.6194158698569
3879.716,1.0405708684784918,652.832981503606
3880.6108,1.0280622166850166,762.5126114341164
3881.5037,1.013468045466356,542.2608180822235
3882.3965,0.9972967104070981,647.3324895231716
3883.2917,0.9801362675594181,792.0558859943948
3884.185,0.9626171266008454,853.743025982564
3885.0808,0.9448281988884445,821.1415169843933
3885.9746,0.9265200264874486,809.9713519281346
3886.8706,0.9069393005333872,841.2026413427702
3887.765,0.8856136777730719,839.1749607910245
3888.6592,0.862587781461723,938.1240467076265
3889.556,0.8389907083484933,903.7102240889358
3890.4507,0.8174640081816431,1211.391357646311
3891.348,0.8014068678475073,1207.2415889630443
3892.243,0.7942753658753892,1387.8550110761469
3893.1406,0.7978847336213775,1255.3130404389829
3894.0361,0.8116493183431207,1068.4533913603407
3894.932,0.83285842013169,1085.3686683725373
3895.83,0.8579844360133018,891.3434126644474
3896.7263,0.8838045606021228,999.9267605311281
3897.625,0.9085468180708067,987.1338301153936
3898.5215,0.9312903277563008,836.8172752022493
3899.4207,0.9519535766679539,886.2848695253931
3900.3176,0.9703892443223752,659.0068245823055
3901.2148,0.9866584015488135,726.4679269596459
3902.1145,1.0009001934566304,642.4154883443927
3903.0122,1.0133513248746493,825.1490792683926
3903.912,1.024570692068102,683.5371728733505
3904.8103,1.0350606033606224,745.265104090127
3905.7107,1.0452648100797488,746.7070026633247
3906.6094,1.0552734570397202,709.4913865074346
3907.508,1.0650984586497807,633.210406758143
3908.409,1.0748587483613563,576.415825630347
3909.308,1.084769667133935,652.6680960392284
3910.2097,1.095013680850009,674.1370792410426
3911.1091,1.10517813825817,592.007057383613
3912.011,1.1144093790963687,623.314682201355
3912.9111,1.1216081237103497,582.9773627391144
3913.8113,1.1261233746045307,514.185020351899
3914.7136,1.127991786643215,547.2307114607917
3915.6143,1.1279174714953986,574.0255107843619
3916.517,1.1270188473237313,558.436626379036
3917.4182,1.126458289008876,602.0556545040596
3918.3215,1.1271096789356347,684.9217180994706
3919.223,1.1293139744168175,558.2268270828087
3920.1245,1.1327818408326018,518.2547128601598
3921.0286,1.1367328381479678,591.8920851423493
3921.9307,1.1402471360760795,500.4703949264533
3922.835,1.1428192105804789,609.2608420461737
3923.7373,1.1445607219706095,508.31991061800534
3924.642,1.1460513509162393,553.2404893241179
3925.5452,1.1477513941779633,576.6462929231855
3926.448,1.1495643252742,493.0404054851077
3927.3535,1.1508485685466936,634.7785530814139
3928.257,1.1508937113588324,532.4230546897502
3929.1628,1.1495137684563572,568.003293671321
3930.0667,1.1472883121607484,498.73553335849203
3930.9731,1.1452923042968457,577.5302295539548
3931.8774,1.1445452681837132,507.3729718005926
3932.782,1.1453901746727435,600.3608655658788
3933.6887,1.1472458548851343,538.2637345965751
3934.5938,1.1487211769877528,503.69678299263074
3935.501,1.148086311325755,463.8908424057251
3936.4062,1.1438738398046597,532.6631787272563
3937.3142,1.1356160984106698,576.4606052814876
3938.22,1.1248503692112428,511.9994129447373
