wavl,flux,ivar
3566.9744,2.495163675715028,117.26888133779683
3567.795,2.48740424424483,84.79173378042908
3568.6177,2.478844630636785,113.31120008979339
3569.4385,2.4722935357310813,99.82122027560567
3570.2617,2.46915679705605,105.231297749637
3571.083,2.4692680498644135,80.44376207345475
3571.9065,2.471625986563422,112.7356369581567
3572.7283,2.4750682741767904,101.3464650792888
3573.55,2.4782872610650624,103.28621649658439
3574.374,2.4798254911616233,97.81446044532672
3575.1963,2.4787822755260587,99.65331582310627
3576.0208,2.4757673393808597,112.09933987264257
3576.8435,2.4729317427819244,106.9698886280556
3577.6682,2.47271704905508,92.03153823250278
3578.4915,2.4763284751059773,180.98076145661997
3579.3145,2.482954477328541,97.26731211927901
3580.14,2.49024770159308,98.10837005245905
3580.9636,2.4954934777121154,103.62119672775202
3581.7893,2.4970308242598342,106.88239472454336
3582.6133,2.4947506079384008,135.1200352804657
3583.4395,2.4896973078950033,103.67827850577065
3584.264,2.48316471889057,122.8263353141619
3585.0884,2.476013538284563,114.23972802507076
3585.915,2.468694583846951,99.74667073347148
3586.74,2.461519943094133,111.54046103624246
3587.5671,2.4546015405137114,103.05701429537473
3588.3923,2.4480772113560305,105.52255232316543
3589.22,2.442232726384509,121.27622281361545
3590.0457,2.43773617253415,108.16692572590354
3590.8716,2.4351745076562192,96.9413999797768
3591.6995,2.434604631500671,107.6907836050387
3592.526,2.435381865361855,93.28197998246998
3593.3542,2.43645035584812,89.45479695274939
3594.181,2.436690074962474,78.00712251375589
3595.0098,2.435055591089065,96.93388458290192
3595.8367,2.430651583843433,114.03628369231201
3596.6638,2.4229221710401427,103.58111489531693
3597.4934,2.411913355346033,106.81359961016103
3598.3208,2.3985837115486977,120.82211493259695
3599.1506,2.3846130300695187,95.23531036565927
3599.9788,2.3725430173802007,98.38666677022016
3600.8088,2.3649847541191042,127.10707465582063
3601.6372,2.3636972225419073,102.60304230892444
3602.4678,2.368306498254272,156.62089000251336
3603.2964,2.3762214791531586,110.53643300306916
3604.1252,2.384131298850581,129.18668394150222
3604.9565,2.3899058084658327,89.81173398959926
3605.786,2.3933007758208067,107.64936458470427
3606.6172,2.3951419477129323,126.7642796296326
3607.447,2.3958866193966784,102.77245194312376
3608.2788,2.39527910318988,111.3459886334509
3609.109,2.3930235710163923,113.74564103921053
3609.9392,2.3895186289959436,131.1081923183557
3610.7717,2.3858645041847986,112.89024019022021
3611.6023,2.3832569753128285,119.92566899617965
3612.435,2.38221719559082,118.95377593247943
3613.266,2.382416476163394,129.57650007745164
3614.0994,2.3830372989255446,112.8965298784399
3614.9307,2.3833020632285913,109.25075198863209
3615.7625,2.3826010201042287,106.24441688655921
3616.5962,2.380263781169426,105.0271219647323
3617.4282,2.37560690204211,107.32931424743917
3618.2625,2.368372963963899,95.85407368943433
3619.0947,2.359302633273998,107.19489195390582
3619.9292,2.34989252320161,134.94530733673446
3620.762,2.3418648458277485,114.45370243511455
3621.595,2.3362582365709654,121.13820994767997
3622.4302,2.3332082188499053,110.26695363516434
3623.2634,2.332195329834464,129.81123201556997
3624.0989,2.332469521019743,136.42365433370887
3624.9326,2.333279582384,120.05701056490616
3625.7686,2.333755328813809,111.68084110587306
3626.6028,2.3329563764965964,102.10262539300498
3627.437,2.330379911895882,104.71701511402821
3628.2734,2.326342612881081,122.53283280023818
3629.1082,2.3216188591747744,122.2795204945977
3629.945,2.3164230580094616,110.3831980441809
3630.78,2.310099213289042,106.44233026498608
3631.6174,2.301647286708293,103.88556174275655
3632.453,2.29079075689149,141.9059824574105
3633.2883,2.2781394855651533,137.75015401691613
3634.1262,2.2649310318674467,151.71252268005085
3634.9622,2.252838782197598,132.20503872993183
3635.8005,2.243480243924551,119.98776836991284
3636.637,2.2381062832785905,120.59989207211831
3637.4756,2.2366434271932243,119.62619949553196
3638.3123,2.2375596101429793,104.87082679955802
3639.1492,2.2386519608378945,134.1332424606416
3639.9885,2.238425190493425,106.88921940527784
3640.826,2.2368293022457117,131.1808184081639
3641.6653,2.2348135246894154,127.49809421811706
3642.5032,2.2332567382768396,124.23320268107845
3643.343,2.232160158961462,96.61353347452408
3644.1812,2.230730289998444,122.3470585655959
3645.0195,2.2280841249994543,126.21812915651303
3645.86,2.2239868470365236,129.65618098050933
3646.699,2.2190282114195408,120.25104197536047
3647.5398,2.214018748533452,117.28141561332198
3648.379,2.209436680489614,121.33127596666291
3649.2202,2.2052294985237504,139.20437181665594
3650.0596,2.201240086255243,122.7497995828225
3650.8994,2.197336190659564,137.92255290191363
3651.7412,2.1932343135068897,149.7980897598344
3652.5813,2.1882908839662636,115.64918916893603
3653.4236,2.1817284784501734,133.63089254916068
3654.2642,2.173505569041686,127.83506323600513
3655.1067,2.1647499195959834,163.08262905993925
3655.9475,2.157537577036774,119.16535071720602
3656.7886,2.1536134256686066,163.4124479887459
3657.6318,2.153467045357745,120.07934164752096
3658.4734,2.156236688798969,127.97209009335857
3659.317,2.160487335155601,135.7247634052464
3660.1587,2.1649723077518104,162.59819229190077
3661.003,2.1689638145278978,132.78788252332726
3661.845,2.1720844597897604,127.47687937994719
3662.6875,2.174397665837382,129.82709640912384
3663.532,2.1765104916547005,135.27393283888662
3664.3748,2.1793831734999927,136.45117120659506
3665.2197,2.183613121553443,127.24380254399168
3666.063,2.1886597332732673,130.3639371445619
3666.9084,2.1931187448059153,117.77815716406762
3667.752,2.1957491070336688,116.45165946233018
3668.5977,2.196464441278063,140.44822411458972
3669.4417,2.196061118589061,110.49860745332998
3670.286,2.195207024040359,140.01000752803967
3671.132,2.1937102325375086,99.737615891027
3671.9768,2.190710345321029,132.61759238745535
3672.8235,2.185295680638148,153.8560901747519
3673.6685,2.1770558554382777,127.27984452240713
3674.5156,2.16622502636594,115.98134509197367
3675.3608,2.1540008632001246,112.86985927853907
3676.2063,2.1422723071180476,129.9875141029271
3677.0542,2.1329917409848957,156.39316183371577
3677.9,2.127154087461725,128.50113608430487
3678.748,2.124063380014618,113.21668766119312
3679.5945,2.1219934774873184,127.39113112590296
3680.4429,2.1193351782432406,125.11383939627345
3681.2896,2.1156680629179982,146.4952006979266
3682.1365,2.1118873562854317,153.69115776298474
3682.9856,2.109480760051301,145.17026555325955
3683.8328,2.1093195905269924,130.30813806174794
3684.6824,2.11077934988769,130.83559169977232
3685.53,2.112097974700404,156.3746481620956
3686.38,2.111835229980897,114.31027842770635
3687.2278,2.110110641302834,145.71301488297865
3688.0762,2.1083371957302033,125.70360215187186
3688.9265,2.1076907784698826,152.7897400510672
3689.7751,2.1079812865379197,165.15460270054024
3690.626,2.108044491094128,135.9912861378717
3691.475,2.1069311779893867,136.73928291134675
3692.3264,2.1044149733333075,159.01275018510336
3693.1758,2.1006102429821034,162.122179145567
3694.0254,2.0955188914897547,143.24622430802694
3694.8772,2.0891724147936643,127.05255911816407
3695.7273,2.082016871043831,148.5862227641953
3696.5793,2.0748630323921793,153.1252082549633
3697.43,2.0687895235753238,138.2115486551853
3698.2825,2.064718046853804,128.6767986546456
3699.1333,2.063084398897691,149.83865144330662
3699.9841,2.0634195801529747,139.76714654584964
3700.8374,2.064500967294769,145.32311897694788
3701.6887,2.064952681750041,132.2244175516862
3702.5425,2.063907342983607,144.79519306112644
3703.3943,2.061208773548278,127.11237027973092
3704.2483,2.057229126840005,148.84522604665798
3705.1003,2.0526775369359958,173.1309237919836
3705.9526,2.0482380864831984,134.66255414773886
3706.8074,2.044203634635804,151.67354967943558
3707.66,2.0403266032573524,139.07173568831413
3708.515,2.0361109061452844,137.1055157433474
3709.3682,2.031531910820074,151.40131533322383
3710.2234,2.027121189121783,146.83615419377983
3711.0771,2.023501722361981,156.25376999217679
3711.9307,2.0206957000604118,142.27631014244125
3712.7866,2.0181234415054248,151.71496625817457
3713.6409,2.0151653187910417,164.96410339597693
3714.4973,2.0116426015152866,166.70493566801738
3715.3518,2.0079870309334718,143.84730594309207
3716.2085,2.004904812872024,154.90324668500702
3717.0635,2.0029397017520734,192.84784354564303
3717.9185,2.0018885696044584,175.17128641970137
3718.776,2.0007377374277113,161.07820000668033
3719.6313,1.998471168676911,143.25918816848386
3720.489,1.99530717030996,159.4403772738728
3721.345,1.9931136957038744,193.0580132014649
3722.2031,1.9940933532069576,196.88248670448164
3723.0593,1.9988528560342558,144.36996094575224
3723.9158,2.0055941913171766,165.426497031799
3724.7747,2.0111026687028244,139.53016075065082
3725.6316,2.012520136774439,134.9516410163919
3726.4905,2.008769867702052,137.99171175907742
3727.348,2.000798816155522,170.07787435842178
3728.2073,1.9908924645634656,182.6965554276569
3729.065,1.9816791332519357,162.0471188482955
3729.9229,1.9749106232434646,163.22894188212467
3730.783,1.9709623590587673,170.40760710988894
3731.6414,1.9689889318976486,148.2279230966996
3732.5017,1.9675372799020567,162.86142561617214
3733.3604,1.9653215066824872,149.82098906192545
3734.2214,1.9616550770004333,183.02125919644615
3735.0803,1.9566728981896477,171.97443112985985
3735.9417,1.9511500256574095,157.93232270850024
3736.8013,1.9462567297841775,172.03937667414627
3737.661,1.9429595032182916,165.8119349191676
3738.5227,1.9415270597977357,156.95701374801703
3739.3828,1.941239573465337,157.40489911928793
3740.245,1.9406660873500468,162.79833304605788
3741.1055,1.938546793262408,187.66903495701283
3741.9683,1.9345797296659004,165.28053629369526
3742.829,1.9295272295178707,146.29192968527056
3743.69,1.9243913065872038,139.72105828254104
3744.5532,1.9195476568428842,174.88422882940162
3745.4148,1.914644329422953,169.49032840247543
3746.2786,1.9093301266267881,161.4183800602848
3747.1404,1.904354613441916,181.39102087306068
3748.0044,1.9015724518003725,191.85136033018813
3748.8667,1.9028841896632487,179.39028711354774
3749.729,1.9086334313809632,178.03091388750875
3750.5938,1.9169301448577025,169.2555587090574
3751.4565,1.9242616673002217,169.23758822477913
3752.3215,1.927474857038263,177.67804619889623
3753.1848,1.925490904644676,135.486699544257
3754.0503,1.919902551986832,168.66555647173382
3754.9138,1.9138729643859391,197.017999594881
3755.7776,1.9101104310928005,178.40127046394315
3756.6438,1.9094542258089195,165.59112882161213
3757.508,1.9106008695276386,158.16774584921436
3758.3745,1.9109657700028795,169.1579505598154
3759.239,1.9081513030127324,175.20075101859769
3760.106,1.9012718167524951,164.52992021810033
3760.971,1.8915449498212358,171.13362548821155
3761.8362,1.881530403196887,161.590389373
3762.7036,1.8737110702684694,180.7655152902429
3763.5693,1.8691974971775114,184.76762748528463
3764.437,1.8672202083609963,199.72583064814117
3765.3032,1.8659678754658207,172.15210498877218
3766.1714,1.8638532177315184,157.20816438120838
3767.0378,1.860455599710006,193.57936279440727
3767.9043,1.8563950267846359,170.31176419083346
3768.7732,1.8525538906090748,187.20349724195688
3769.6401,1.8494788727885407,256.1947507758929
3770.5095,1.8472666526490402,159.58875276377424
3771.377,1.8458922879736432,195.47052010570883
3772.2466,1.8452721883841816,166.8429722364289
3773.1145,1.845122042105065,169.76708183556664
3773.9824,1.8447085481708603,176.25689660758334
3774.8528,1.8425930867217999,181.96203881109597
3775.721,1.8357691267779426,192.426429601374
3776.5918,1.8171677260933203,187.78026607673067
3777.4604,1.7728378400751075,187.01017261850586
3778.3315,1.6824445743578875,205.9445718011521
3779.201,1.5321570992332454,167.83458534511666
3780.0703,1.3346981475570918,180.3906584446991
3780.942,1.1424532307763338,161.05608245529888
3781.8118,1.0316495506306407,182.72517321524057
3782.6838,1.053482086402418,166.27904871127723
3783.554,1.1977715883725604,149.29115017679598
3784.4265,1.4006003438019548,169.71188216313024
3785.297,1.5871522319045093,161.02745710406595
3786.168,1.715970899748618,178.94692110651107
3787.041,1.7849282359889858,216.06619234879233
3787.912,1.8134077759184692,188.34687344825875
3788.7856,1.8227481281257831,239.70412123945502
3789.6572,1.825766623695288,193.77062591851714
3790.531,1.827105939273126,187.22514332266576
3791.403,1.8269258331939853,175.45557595022254
3792.2754,1.824477503542823,183.044500826473
3793.15,1.8198091013769049,190.9624379073182
3794.0225,1.8138221488661657,180.92341808740616
3794.8972,1.8074388245906177,181.92312185873348
3795.7703,1.8012873515246397,183.8658211041458
3796.6455,1.795793465695145,196.95076321404375
3797.519,1.7915616634356561,201.32079614170505
3798.3926,1.7891459805221626,196.26483928345772
3799.2686,1.7887009203573294,204.39744783734687
3800.1426,1.7897809077682694,177.4613502168046
3801.0188,1.7915370437227074,227.49729330126
3801.8933,1.7930857484437046,179.94095217333646
3802.77,1.7938410931394837,191.39617421188558
3803.6448,1.7936448895259975,177.4046639797189
3804.522,1.792728520606337,185.04750546158832
3805.3972,1.7914881053433938,200.90682694205634
3806.2727,1.790279137482438,249.48278428149743
3807.1504,1.789468720762876,195.9717581206282
3808.0261,1.7895880178310835,175.52094807129347
3808.9043,1.791239586688162,195.9662571404366
3809.7805,1.7947102609328962,173.8183778089218
3810.659,1.7996532528349154,226.43753304679512
3811.5356,1.8050448425052146,194.24975304073743
3812.4126,1.809696693153546,219.79297393151546
3813.2917,1.8127969764678722,151.79860576842037
3814.169,1.8141613484682264,213.0418518954952
3815.0483,1.81399829348994,212.3520989401168
3815.926,1.8123860153606175,188.39957449695518
3816.806,1.809146823654011,201.6500155943164
3817.684,1.8042874728597529,223.17753371581517
3818.5623,1.7984109625021698,200.58678670778346
3819.4429,1.7926250148511782,197.32440227997316
3820.3215,1.7879302238575456,183.76627885792558
3821.2024,1.784433225068312,183.69865121986433
3822.0815,1.7812764211528338,205.13568598626983
3822.963,1.7770366538002331,208.82198513538705
3823.8423,1.7705710571356779,177.69425837147546
3824.722,1.7615743755513746,223.92268969972994
3825.604,1.7507122568662217,195.6793726741847
3826.4841,1.7392840359654054,205.67305605763693
3827.3665,1.7282814843713392,235.41226253798072
3828.2468,1.7180183315982551,231.48914479729268
3829.1296,1.7078951262993738,212.90329009075293
3830.0105,1.6971228662334297,209.1115908579596
3830.8916,1.6852348932308174,220.91423005905122
3831.7751,1.67251014302251,201.8266364414929
3832.6565,1.6598305587478446,229.98192524587267
3833.5403,1.6478563957868932,199.83413259393345
3834.4224,1.6370012890632113,227.74418664768646
3835.3064,1.6275616461652913,241.65954225834255
3836.1887,1.6203959681986368,228.53714968767667
3837.0713,1.6167015512519038,237.87792813439316
3837.956,1.61745526171284,237.97310431841197
3838.839,1.6228770208130086,213.7310651193909
3839.7244,1.6326098131778835,210.64300539927675
3840.6077,1.6460431808675524,228.10176033716488
3841.4932,1.6625147133188838,257.7455351782039
3842.377,1.6806894211615522,216.90406388232907
3843.261,1.6986945004087286,199.84027817795513
3844.1472,1.7145831640266245,207.21355856562923
3845.0315,1.7270582395131637,184.31481080029047
3845.9182,1.7361180272158696,177.60427447947654
3846.803,1.7426111613075648,204.18768735523338
3847.69,1.7479441712179802,204.44980762453432
3848.5752,1.7534773098947967,211.5414690058606
3849.4604,1.760204291884546,197.42042206482353
3850.3481,1.7683977711152825,215.1575921202657
3851.234,1.7774503016745304,187.33633454374996
3852.122,1.786352304140782,201.64090047433373
3853.0083,1.7940848777943763,208.64207176966386
3853.8967,1.8001119021666547,167.91105159533615
3854.7832,1.804081607389579,192.25438862986843
3855.6702,1.8056033448781132,205.24252972111745
3856.559,1.8042072880617674,181.5481674218583
3857.4463,1.799838447047692,199.9035354239252
3858.336,1.793181826165566,185.47774570128567
3859.2234,1.785544953946495,204.7830068247846
3860.1135,1.778091681985014,174.55340395422326
3861.0015,1.7714389700106323,207.59246390693184
3861.8896,1.7654190852760459,190.62203757197688
3862.7803,1.759527733838859,205.98642236040092
3863.6687,1.7535475979665394,220.41384110881998
3864.5598,1.7478042226215038,208.18322504422832
3865.4487,1.743054204533434,229.55825861438987
3866.34,1.7395794470132064,186.17023067664582
3867.2297,1.7365666209997992,201.39539763252628
3868.1213,1.7321455228490272,217.0074712014321
3869.0112,1.7245379781666217,201.19218499978697
3869.9014,1.7132737894704395,205.91053801281248
3870.7937,1.6996082864113577,211.1815477257866
3871.684,1.685839560076335,237.33766589895615
3872.577,1.6736992057589721,218.03277523871432
3873.4678,1.6637171798556294,230.10045586156244
3874.361,1.6551611827928314,233.46485465069384
3875.2524,1.647072873223742,239.25456625788945
3876.1438,1.6387368176809742,211.81928525146816
3877.0376,1.629693468153721,234.8824247787389
3877.9297,1.619442363172546,202.77653740013562
3878.8237,1.607201789342034,193.4963121798491
3879.716,1.5924465540526545,240.7754951516125
3880.6108,1.575147671297225,200.53024207554125
3881.5037,1.556194300907254,239.0942222729042
3882.3965,1.5368327260800498,265.6645166185165
3883.2917,1.518200505707508,266.3581787901988
3884.185,1.5009649285140416,294.50336594236677
3885.0808,1.4849210394640706,275.1385535072952
3885.9746,1.4697731303504975,287.65014874731963
3886.8706,1.4553975004718946,261.936342022702
3887.765,1.442336805046636,349.4477067442818
3888.6592,1.4313472597668324,280.83603789478815
3889.556,1.4231916181103677,285.86352379917224
3890.4507,1.418581023239506,290.2321084443931
3891.348,1.418055210958738,325.17631654889067
3892.243,1.4219423581759087,314.07158943543664
3893.1406,1.43007956892045,299.0575040485037
3894.0361,1.4415374514755879,333.02952910970134
3894.932,1.4549053957449556,329.04798147534626
3895.83,1.468779583331832,315.9135649470727
3896.7263,1.4823499131964903,246.72610180207437
3897.625,1.4961439681303372,279.8908098721681
3898.5215,1.5115851245746688,250.49629483520178
3899.4207,1.530249250388416,1129.7048618437836
3900.3176,1.5521635066869848,237.59661438099525
3901.2148,1.575703352469145,256.5411197264343
3902.1145,1.5985542122211003,250.59742244677227
3903.0122,1.6192733028034574,285.0967762536077
3903.912,1.6383663004212885,259.17023695942544
3904.8103,1.6569323109395908,230.15245386435598
3905.7107,1.675449466550946,202.6833300981209
3906.6094,1.6928368909503482,215.07201460733668
3907.508,1.7075442081637786,183.81399711207285
3908.409,1.7187581308678117,202.0447970214014
3909.308,1.7269784055575994,211.29656587603156
3910.2097,1.733720416730742,185.84345474684034
3911.1091,1.7403739372399132,203.99127705359294
3912.011,1.7476679104517912,206.8236599085839
3912.9111,1.755435953623619,167.62349233097623
3913.8113,1.7630814855716832,186.6732204470937
3914.7136,1.7700851713331256,185.5021421026369
3915.6143,1.7764278291433482,184.3180495381369
3916.517,1.7827550517646436,191.89252766962812
3917.4182,1.7897890945507873,203.567494014576
3918.3215,1.797789378985748,200.4527487365421
3919.223,1.8061180931463032,180.64123952834316
3920.1245,1.8136243702850965,212.91598929046
3921.0286,1.8191896182208556,167.01495218612465
3921.9307,1.8222528480065068,192.95610291667154
3922.835,1.823069526109052,172.1411391303484
3923.7373,1.8223946387866463,204.9544962829895
3924.642,1.8210680045328023,189.4544432441072
3925.5452,1.8197234687997197,173.76797507012463
3926.448,1.8187133318986015,186.71007728785156
3927.3535,1.8181633908074366,188.83136233131486
3928.257,1.817991095331873,157.87004924464577
3929.1628,1.8178557713791113,173.87857058319818
3930.0667,1.817151421182691,173.39537294562933
3930.9731,1.8151220567045858,168.08187995162714
3931.8774,1.8111964803452765,201.5962109287777
3932.782,1.8053081723236448,175.78833470613992
