wavl,flux,ivar
3566.9744,1.412011581292649,88.14490456884803
3567.795,1.4063189722441296,90.32757106176628
3568.6177,1.4005615994465355,103.09414750433326
3569.4385,1.3959889924986073,98.10543913465149
3570.2617,1.3930039815404243,97.44452660316253
3571.083,1.3910072039543853,98.57766228087544
3571.9065,1.3888220061516883,88.22528755451832
3572.7283,1.3857761947374319,106.93753779962547
3573.55,1.3823613674902602,68.61273377367102
3574.374,1.379845456100799,88.5103584843255
3575.1963,1.379113417035565,89.67046738300927
3576.0208,1.3798722295403039,99.6392323936076
3576.8435,1.3810745079353755,73.1467990518988
3577.6682,1.3818731730228013,80.82788153101357
3578.4915,1.3819212160794832,97.52259341088319
3579.3145,1.3808445063816532,84.7176138814161
3580.14,1.377810671279319,83.527324402291
3580.9636,1.3720702544434258,76.56986614687338
3581.7893,1.36381900241847,90.61606568529417
3582.6133,1.3545475357957522,87.42690823360148
3583.4395,1.3461827953060268,95.0184485363234
3584.264,1.3402574694139644,88.94978251997532
3585.0884,1.3373154648372785,144.34393797577445
3585.915,1.3372185180581215,97.64750553334164
3586.74,1.3396006100837132,93.82384927822484
3587.5671,1.344102819033937,101.82480518751692
3588.3923,1.350166832482929,111.90918373311052
3589.22,1.3568669753644926,117.79174367953134
3590.0457,1.3627857632001965,91.18630187672818
3590.8716,1.366438565504923,85.43658864475314
3591.6995,1.3666949852151773,77.97249364492342
3592.526,1.3633356346853704,103.79665582154708
3593.3542,1.3573218917763576,74.88439604652166
3594.181,1.3505791254010535,126.5192019850552
3595.0098,1.345194277533202,107.25119773570826
3595.8367,1.3428002975817273,78.33264358384206
3596.6638,1.344015279849029,96.13033183923847
3597.4934,1.3482441267076988,111.02398410687863
3598.3208,1.3536118981337388,69.98883343580708
3599.1506,1.3576987336524464,106.68568108009283
3599.9788,1.358636487042989,106.93345068409472
3600.8088,1.356052905929977,100.49832524848486
3601.6372,1.350882877693695,95.34318818727533
3602.4678,1.3443909429009924,85.326633806289
3603.2964,1.3374665655114322,95.19806088583903
3604.1252,1.3303973975327192,92.89599397768686
3604.9565,1.323290312044952,122.8009880381743
3605.786,1.316591508978592,95.50160177982843
3606.6172,1.3111832911283874,89.33197395979562
3607.447,1.3082458205542213,87.52438541621613
3608.2788,1.3084750343055647,121.88373519112777
3609.109,1.3114791699453907,85.69587460769539
3609.9392,1.3157751987112292,96.66665042117543
3610.7717,1.319545087133765,108.91270874440487
3611.6023,1.3215652400691618,107.77748611613123
3612.435,1.3217613149779015,80.19350390341498
3613.266,1.3208841411024792,100.82020516328103
3614.0994,1.3197441219621857,101.81960586540386
3614.9307,1.318594711862897,105.41999361160326
3615.7625,1.3170998517712733,119.15567751947067
3616.5962,1.3148481060747903,104.0730175027374
3617.4282,1.3119047487439541,139.61674867651155
3618.2625,1.3088712696047515,90.97879960093952
3619.0947,1.3065449988116562,90.42346058428306
3619.9292,1.3054116077861508,82.84293946830131
3620.762,1.3055807558808161,129.19716615709055
3621.595,1.3069059501360145,100.52765676433582
3622.4302,1.308993794838391,120.59275096420404
3623.2634,1.3110164239541326,103.97605289394733
3624.0989,1.3118664242077531,79.42501166728972
3624.9326,1.3106444281393201,104.5856433287911
3625.7686,1.3071667168072774,109.45350009688701
3626.6028,1.3021788172182933,89.58339650902607
3627.437,1.2972783912303476,110.77333200157798
3628.2734,1.2945863025911806,83.31783876478619
3629.1082,1.2957390362855643,99.45131353980592
3629.945,1.3004556845090778,97.39751059105072
3630.78,1.3060735792649996,78.88613800472939
3631.6174,1.3091402225789281,73.75615980614918
3632.453,1.307884891053261,90.63597194918329
3633.2883,1.303568244230358,92.22128130359962
3634.1262,1.2992053560469665,120.08775681337632
3634.9622,1.2971429093972482,118.09608551228334
3635.8005,1.2975429536695045,113.90115974113591
3636.637,1.2990090950679438,96.57742493745984
3637.4756,1.3001327044596704,100.77108516867165
3638.3123,1.3004213112776029,102.16847233476246
3639.1492,1.300164359765472,96.04995798425337
3639.9885,1.2998126112896164,138.80265574296362
3640.826,1.2996552223155826,95.35843593794245
3641.6653,1.2998942296815625,112.315370572749
3642.5032,1.30078955432858,84.16346646773277
3643.343,1.3025737553705432,102.60206799243562
3644.1812,1.3052038197294733,87.4063923535315
3645.0195,1.3082860270717358,87.2860924649598
3645.86,1.3111550234993241,71.74419455137864
3646.699,1.3130027878154478,124.76374302215588
3647.5398,1.313135211814846,92.73646802382088
3648.379,1.3112972251819865,108.14352100262789
3649.2202,1.3079701223566997,79.90200404738239
3650.0596,1.304269891185224,140.22825018275432
3650.8994,1.3012898604302503,98.82591663605578
3651.7412,1.2995765794525609,137.8166625912199
3652.5813,1.2991223131802998,79.68565046308782
3653.4236,1.2997219253877497,109.09281626783496
3654.2642,1.3011289545860145,128.49873123539732
3655.1067,1.302783234265698,107.89745027918356
3655.9475,1.3035783540266817,112.07938431736609
3656.7886,1.3022231136452798,88.998360586547
3657.6318,1.2979391692006708,108.38870298674777
3658.4734,1.2910806381675806,121.92471856820916
3659.317,1.2831109343454616,90.24134178347583
3660.1587,1.2762315273575242,141.29776973510596
3661.003,1.2723752787527944,193.47781087246256
3661.845,1.2723601181634714,100.37517829582123
3662.6875,1.2754538598090686,117.0299330317235
3663.532,1.2801084133045337,102.27408855222366
3664.3748,1.2850772143551012,123.34048198719235
3665.2197,1.290029459547503,103.9635108323831
3666.063,1.2949430983134766,151.09058877673002
3666.9084,1.2994377122500882,97.84098925698778
3667.752,1.3026522460501149,94.45018212055436
3668.5977,1.3039137048735467,80.72206903033788
3669.4417,1.3030700494283947,99.97983039642513
3670.286,1.3003376971281098,121.66670107314059
3671.132,1.2959517432368632,90.51561932432581
3671.9768,1.290279233786996,111.12262086628601
3672.8235,1.2841402922953213,75.20387619660497
3673.6685,1.2789862823422293,115.66774127517894
3674.5156,1.2761892089550029,105.6393291074516
3675.3608,1.2761626858360136,82.03537164039223
3676.2063,1.2778719610331992,79.5400795509024
3677.0542,1.2794252135661306,104.20482349687086
3677.9,1.2791802775158923,97.36630625211188
3678.748,1.2766448721113142,132.14411323399412
3679.5945,1.2726095586001644,99.39463870841458
3680.4429,1.2685970379567262,90.05895075287825
3681.2896,1.2661401818514735,107.27627498441845
3682.1365,1.2660120175240805,174.92552090868602
3682.9856,1.2679605812428767,104.97092713704095
3683.8328,1.2710332894695828,81.60704576454381
3684.6824,1.2744354901518335,111.52909988861512
3685.53,1.277998646206122,127.28423687436151
3686.38,1.2819994664942,115.21987573775135
3687.2278,1.2864534425175895,81.97896783614235
3688.0762,1.290864058426171,162.78743283205438
3688.9265,1.2943536400416402,109.19482151498718
3689.7751,1.2960036369477637,66.21105197913036
3690.626,1.2951780518434666,93.09783712575715
3691.475,1.291649079321097,115.76374292448887
3692.3264,1.2855868860571393,107.65219875916505
3693.1758,1.2775738127871241,98.18962597053316
3694.0254,1.2685093856479313,123.7342920126005
3694.8772,1.2596313755849842,91.33367032401597
3695.7273,1.252376716297379,104.42301636099187
3696.5793,1.2478148618176486,111.82362262504367
3697.43,1.2463218264285165,95.97687995882326
3698.2825,1.2473489184661324,114.20493847440895
3699.1333,1.2497075553846326,112.57922499262465
3699.9841,1.2520738161333802,115.6306366175053
3700.8374,1.2533706122661994,106.51451543706993
3701.6887,1.2528771834951957,96.90847955073308
3702.5425,1.2503111241042435,109.36767366939327
3703.3943,1.246060532426967,99.78425032568776
3704.2483,1.2412799835326482,123.23043692584781
3705.1003,1.237577457162455,117.96094874065071
3705.9526,1.23602741722763,145.33645276123931
3706.8074,1.2364218596693268,109.29923346787089
3707.66,1.2372656423262234,122.46949876083424
3708.515,1.2367355466326737,101.51107333036784
3709.3682,1.2339022208556991,98.78383546043341
3710.2234,1.2292777592294786,119.85531228191066
3711.0771,1.2243987099060774,145.11155812748632
3711.9307,1.2208049090402224,118.67045804490108
3712.7866,1.2193502741225852,177.67140661106126
3713.6409,1.2199969810665925,108.78266775125994
3714.4973,1.221941616697924,172.68435211790927
3715.3518,1.224058525700572,94.16473893259608
3716.2085,1.2255299210019652,107.62635074107406
3717.0635,1.2261283456597274,143.2372527232429
3717.9185,1.2260096318847318,111.16744411451846
3718.776,1.2253222020101593,106.88921019757267
3719.6313,1.2242244009997412,83.90690533613781
3720.489,1.2230666113551383,123.01463844397084
3721.345,1.2222002150886995,104.24352871751962
3722.2031,1.2213687436977805,141.38060776530733
3723.0593,1.2195652357480666,103.9548079129796
3723.9158,1.2157935941043,111.50726178226417
3724.7747,1.2100950569480922,104.81108132605944
3725.6316,1.2037256487610286,113.49089457069057
3726.4905,1.198041638399698,113.32556533645112
3727.348,1.1935804499979636,114.13111872136496
3728.2073,1.1900051867654138,150.10905869790034
3729.065,1.1869832362015962,120.9542585553639
3729.9229,1.184623120772589,95.7269813289748
3730.783,1.1832570848919397,120.42898053318018
3731.6414,1.1829750405690291,115.02538907095801
3732.5017,1.1834582344649494,127.80589779980164
3733.3604,1.1841135525330324,146.0781580540471
3734.2214,1.1842515198270722,142.62070937272384
3735.0803,1.1833672317638526,105.40626019382812
3735.9417,1.1815826524690693,100.24822983754719
3736.8013,1.1798761105262165,116.0497570591079
3737.661,1.1795786575266078,130.174777568654
3738.5227,1.1814627785681977,123.25967801462869
3739.3828,1.185198776122216,105.70788962651888
3740.245,1.189804422288334,108.05941014659761
3741.1055,1.1944537705132043,101.64377929608847
3741.9683,1.1989435967532454,147.21650411776005
3742.829,1.203199942269053,131.79337714956915
3743.69,1.2068014096779889,160.3981057280844
3744.5532,1.2089946512065388,107.61416647497919
3745.4148,1.2093158431150102,155.55548668212148
3746.2786,1.2080629581213966,106.88543719345458
3747.1404,1.2059972993322607,124.6190963744632
3748.0044,1.2036469184083016,110.91236373558837
3748.8667,1.200997638391919,123.92945294183893
3749.729,1.1976713171729791,135.16952981737867
3750.5938,1.1933392649099224,116.2129321269424
3751.4565,1.1880785921588204,126.20528679798727
3752.3215,1.1825021475235693,119.84854598837185
3753.1848,1.1778424038300894,122.00195654367066
3754.0503,1.1753549703235477,149.12053073653507
3754.9138,1.1755234804063956,124.575486612737
3755.7776,1.1775478666593842,132.25022035298554
3756.6438,1.1799234944471257,105.63872452843609
3757.508,1.1815349718529724,94.12580853872855
3758.3745,1.1823072096378662,164.48990336707382
3759.239,1.1827427677888358,115.45995334319178
3760.106,1.183119145377187,112.59170604238298
3760.971,1.1832283932884842,203.2258489993782
3761.8362,1.182836347837217,117.62589628493981
3762.7036,1.1821192304594434,121.64955437635514
3763.5693,1.1815316033976209,101.47187793222093
3764.437,1.1812724374563974,127.24907482436322
3765.3032,1.1810174928408865,130.34657757675308
3766.1714,1.1801592778123322,89.61614104349555
3767.0378,1.1782790363848765,107.51481637312017
3767.9043,1.175379222377709,146.82746499730186
3768.7732,1.1718181487504284,136.69573062075315
3769.6401,1.16821158510034,138.38258185630914
3770.5095,1.165281478614519,158.40182175980715
3771.377,1.1637412983426574,142.1229497823756
3772.2466,1.1638859000799993,118.69528711017881
3773.1145,1.1653402728323803,118.18592218621231
3773.9824,1.167180727538951,153.60111283380564
3774.8528,1.1684244723254955,123.83905510364453
3775.721,1.1684973961833989,165.69162684859515
3776.5918,1.1675080274043246,118.84332176948986
3777.4604,1.1662514402105522,113.85386697178957
3778.3315,1.165859978574019,144.45789330625792
3779.201,1.1670836486837954,145.320756208302
3780.0703,1.169558405573304,101.02651130182619
3780.942,1.171849117380049,120.02638072782175
3781.8118,1.1724205781409054,119.371527034889
3782.6838,1.1708768353514554,109.51929775054387
3783.554,1.1682643649298026,127.63495410915073
3784.4265,1.1661293837561852,151.77656447615868
3785.297,1.1652812631151466,123.19936578669326
3786.168,1.1653376285461123,103.8874972377285
3787.041,1.165406287380866,113.72025079901206
3787.912,1.1648973811318857,125.33612785630721
3788.7856,1.1636608144644818,128.43971017525973
3789.6572,1.1616388465426655,137.44437570780406
3790.531,1.1587015471338395,130.3720812068605
3791.403,1.1549677122282884,113.36398940391739
3792.2754,1.1510110525978252,137.0124109482875
3793.15,1.1477214507723408,115.75376410364389
3794.0225,1.1459362702441849,142.1674223949984
3794.8972,1.1461179865275222,123.64730900701318
3795.7703,1.1482611691206366,128.43824467225852
3796.6455,1.1517734471753698,106.6270505160604
3797.519,1.1554190818676828,108.28400954060095
3798.3926,1.1577244368055328,119.70354246529772
3799.2686,1.1576323346188024,137.72176380353918
3800.1426,1.1550058919909103,132.92421038559348
3801.0188,1.150456977897435,131.86860137641486
3801.8933,1.1447443600601384,173.30125414613508
3802.77,1.1382372474787288,126.6839969482529
3803.6448,1.1311423359056803,128.43269650741237
3804.522,1.123813913171221,106.351932276389
3805.3972,1.117045673717331,160.2237043454702
3806.2727,1.1116774545349473,144.49984571947832
3807.1504,1.1083560331252043,154.095850339524
3808.0261,1.1074516272638857,126.71548652247597
3808.9043,1.108956684578934,196.33843120032662
3809.7805,1.1122896116989238,124.83850228834812
3810.659,1.1162490870655286,173.20201569903443
3811.5356,1.1194350877915566,127.28073330718424
3812.4126,1.121101312640066,145.36165549507356
3813.2917,1.1215322642862493,145.32103394475567
3814.169,1.1216805622175652,154.26297018432874
3815.0483,1.1223534439485652,169.30147925794057
3815.926,1.1236449630036591,117.50681449177652
3816.806,1.1250283198189506,127.03022672916903
3817.684,1.1258251317726717,159.93723840963506
3818.5623,1.125643049578315,149.13184199397517
3819.4429,1.124467530344448,128.53030352704374
3820.3215,1.1225900729478313,133.49772744900568
3821.2024,1.120507646163294,141.0522435308177
3822.0815,1.1189234463581108,126.3877454272877
3822.963,1.1185545194821724,150.44720188071244
3823.8423,1.1197249525983206,139.8215265887386
3824.722,1.121923485852012,143.29412802723166
3825.604,1.1238782136510346,137.87867291354942
3826.4841,1.1242310986403077,111.17009087915308
3827.3665,1.122404776726215,126.01879713100084
3828.2468,1.1189151840070386,159.1051975298219
3829.1296,1.1149306005524626,131.04978101148458
3830.0105,1.1115731790686194,154.74497717256386
3830.8916,1.1093183879874708,135.1864682100111
3831.7751,1.108017782592997,122.85509608398243
3832.6565,1.1072643386038183,134.5682665343495
3833.5403,1.1067341437301297,149.50608981566407
3834.4224,1.1062856231413571,124.76436206357083
3835.3064,1.1057753368525631,137.09855712635047
3836.1887,1.1048748976876168,142.56166223771646
3837.0713,1.1030834387978432,146.4919361920974
3837.956,1.100047012622317,126.31538760783181
3838.839,1.0960401913745967,137.90771975934368
3839.7244,1.0920902891969855,140.44530660703646
3840.6077,1.0896621798781,132.2546929024686
3841.4932,1.0898804668876776,146.9068038520909
3842.377,1.092981706391366,174.22365156797414
3843.261,1.0981547975269543,144.16828428637132
3844.1472,1.1038488447754597,163.37208385041959
3845.0315,1.1083237315417378,144.912897442258
3845.9182,1.1104584234161046,132.77105887306953
3846.803,1.1101769115010223,140.01240635538286
3847.69,1.1084528873042687,150.81227370714583
3848.5752,1.1066924006349639,148.67498826705062
3849.4604,1.1058861566883942,138.83281495007904
3850.3481,1.1060979222543708,134.38329891645728
3851.234,1.1065579062645983,138.32158783357653
3852.122,1.1063059073800579,141.15219822472955
3853.0083,1.1049217213926503,149.8498314388566
3853.8967,1.1028289513377219,152.62614774414664
3854.7832,1.1010166900320297,183.86536711615065
3855.6702,1.1003585656663109,144.5022581161454
3856.559,1.1011120407237098,146.4997413690051
3857.4463,1.1028155485008035,151.73558900755836
3858.336,1.1046261163769326,154.10282944751205
3859.2234,1.1057433873956815,145.9469502701506
3860.1135,1.1057194859931427,155.48082729863683
3861.0015,1.1044806698904368,149.8219803996209
3861.8896,1.1022851748525524,165.68296404276703
3862.7803,1.099691396760695,138.29504269698305
3863.6687,1.097473657134576,180.46583793461195
3864.5598,1.0962280861684066,190.4368751828502
3865.4487,1.095992553132351,131.1499580180979
3866.34,1.0961057703540895,151.64468291318505
3867.2297,1.0955937099021378,120.01439958278391
3868.1213,1.093791563361306,151.8104757852666
3869.0112,1.0907826152865903,137.54975431578202
3869.9014,1.0872873812081767,160.62103151588946
3870.7937,1.0841801367294364,125.05152553558673
3871.684,1.0820368890037322,147.42720978299036
3872.577,1.080921105195034,164.3934124888775
3873.4678,1.0805203664060021,126.3464928753186
3874.361,1.0803000733051258,162.98591913083584
3875.2524,1.0797071875215634,160.0926084230059
3876.1438,1.0783428011370881,162.90329692413516
3877.0376,1.076042384135783,176.64100725493176
3877.9297,1.07288007297421,148.14301413710788
3878.8237,1.0691095295820616,147.59436615559423
3879.716,1.065204089148639,147.79176511771638
3880.6108,1.0616094937574074,179.85263398325677
3881.5037,1.0584399554771469,189.6183905658534
3882.3965,1.0552892801281777,146.9371781414223
3883.2917,1.05169719686964,158.96594626974124
3884.185,1.047811501606808,170.153850216784
3885.0808,1.0444250013345295,164.24010835623505
3885.9746,1.0424571196364658,191.50390239272298
3886.8706,1.0422242291889263,152.66106815522747
3887.765,1.0432959431738753,145.4601697692491
3888.6592,1.0447955270062395,143.6958385379589
3889.556,1.0458988997030554,169.11514073229506
3890.4507,1.0462739910923975,146.09627361186637
3891.348,1.0463391998514433,150.12519327893833
3892.243,1.0470213506446018,170.69745441501826
3893.1406,1.0490742596051335,141.0571835626731
3894.0361,1.0524429032570757,140.68708447012176
3894.932,1.0563482315809216,163.01219353396422
3895.83,1.0598767046297666,147.477699968361
3896.7263,1.0624458560099634,165.53449084309275
3897.625,1.0638888308234997,149.1458286207404
3898.5215,1.0642270900873423,128.99130005952858
3899.4207,1.0636827509135836,147.6740044856341
3900.3176,1.0627917458730785,160.76956666795095
3901.2148,1.0623726240533455,186.16192321068255
3902.1145,1.0632333213581884,161.29261892406814
3903.0122,1.0657650351157915,149.10227618849518
3903.912,1.069752486136717,137.54059595942965
3904.8103,1.0744253556317338,198.7711148634085
3905.7107,1.0788542384019315,155.24494389515914
3906.6094,1.0822661818161257,142.84714440852505
3907.508,1.0843330766605976,131.15263378217438
3908.409,1.0850864623484864,135.2696663491714
3909.308,1.0847490938270605,147.40093302863477
3910.2097,1.0836544597976467,141.7776548185416
3911.1091,1.0822583025836443,105.54072560068985
3912.011,1.08107006039997,188.66984717708803
3912.9111,1.0805102016663066,139.868472275408
3913.8113,1.0807141316086657,146.54862775870708
3914.7136,1.0814768333061575,159.7782090460139
3915.6143,1.0823529621021932,164.40438082502789
3916.517,1.0829899533682266,156.01258529966572
3917.4182,1.0834773447333281,139.70563258702686
3918.3215,1.0843694129659582,186.73930925545676
3919.223,1.0861539244739584,155.2293285582723
3920.1245,1.0886654136896252,129.0993651164829
3921.0286,1.0910717859925414,153.4764120770459
3921.9307,1.0924980522857997,152.7517125221969
3922.835,1.0927225798759805,112.87590989821118
3923.7373,1.0922460350810825,136.05816924201758
3924.642,1.0918918195338523,138.6855867797421
3925.5452,1.0923280702664546,119.48694993771888
3926.448,1.0937649484974958,149.18473121455844
3927.3535,1.095876760290471,140.91217358142984
3928.257,1.0978812883279092,164.52855169025688
3929.1628,1.0988610175200242,152.76802892199996
3930.0667,1.098064285555294,142.65402108297482
3930.9731,1.0951385160962006,157.08942404933146
3931.8774,1.0902830822660334,153.29877007351988
3932.782,1.0842635138924634,142.2866988739871
