wavl,flux,ivar
3566.9744,1.7579813594295524,315.803716783193
3567.795,1.755933221090118,333.161162339833
3568.6177,1.7548248759908027,343.5059458012572
3569.4385,1.7545945532564815,387.6184575445729
3570.2617,1.7542774718841128,323.7985657969806
3571.083,1.7528977276828863,379.6024406378391
3571.9065,1.7501490579714118,356.4389871360428
3572.7283,1.7465165582591353,337.3003650350152
3573.55,1.7427882425255978,351.16095433070717
3574.374,1.7394373017819171,407.49568789865606
3575.1963,1.7362947745878325,358.61346168733104
3576.0208,1.7327121508461998,356.08622339836785
3576.8435,1.728267647007555,403.91498130670556
3577.6682,1.7231826894322806,452.7217007443566
3578.4915,1.7183035287376214,311.72662065980614
3579.3145,1.7144726725782533,327.9539920605003
3580.14,1.7119630033204043,378.83793086824926
3580.9636,1.710226683219391,401.46517055827377
3581.7893,1.7081418382713747,305.81008187007717
3582.6133,1.7048894276028466,401.16776747176584
3583.4395,1.7007062593816389,347.9811947546727
3584.264,1.6968858690717132,325.5916874990853
3585.0884,1.6946886537923407,406.07392684374923
3585.915,1.6943311503908314,386.37941595247776
3586.74,1.6949004971406252,393.50667667008736
3587.5671,1.6951740264855775,379.4957977613384
3588.3923,1.69446112681933,376.11394318149684
3589.22,1.6928819919627127,326.8344680503215
3590.0457,1.6912447583923647,315.4669318962735
3590.8716,1.690699624324961,408.46233481793615
3591.6995,1.6922531086103836,482.5277796446446
3592.526,1.696169672483895,333.99665685220356
3593.3542,1.701729205525085,266.1668301785428
3594.181,1.7073842843531195,375.6045536737251
3595.0098,1.7113582085371783,425.2775699164714
3595.8367,1.7121856974988876,299.4894788286797
3596.6638,1.7094567917243404,357.2891486217004
3597.4934,1.704149935810749,380.8578082288587
3598.3208,1.6983263177116974,377.6176019090895
3599.1506,1.693850822978795,368.40582209494437
3599.9788,1.6913979357285243,401.74449637813194
3600.8088,1.6902649627638826,360.09566350559254
3601.6372,1.6892952564194645,453.9852246899251
3602.4678,1.687701679852268,426.0818284648305
3603.2964,1.6851383982948764,354.5278906987417
3604.1252,1.6811943396815368,394.76208512902167
3604.9565,1.6753065719631057,326.8231911570984
3605.786,1.6674523893259137,405.7630338409394
3606.6172,1.6586018612196791,412.60117373407024
3607.447,1.650465593549639,468.7783708519754
3608.2788,1.6442369926799636,399.7897259459262
3609.109,1.6400127584777575,489.1359142539184
3609.9392,1.6371067415742846,395.6514444698689
3610.7717,1.6350480454158562,368.19806091089225
3611.6023,1.6339808318175562,385.1187326925304
3612.435,1.6342186714122402,374.7861789482322
3613.266,1.6357154476212425,369.8833103004179
3614.0994,1.638037916309344,441.9769120339451
3614.9307,1.6406866858800422,378.6215426405839
3615.7625,1.6433246908778345,372.520663591397
3616.5962,1.6456609271957903,362.892541897277
3617.4282,1.6473674666506322,397.08597176986876
3618.2625,1.6482582434633217,391.1171979660529
3619.0947,1.6484567654715423,390.90351469502474
3619.9292,1.6484075475567126,362.1328822212474
3620.762,1.6486088570495203,342.76856031654177
3621.595,1.649271765933358,397.2624297413513
3622.4302,1.6501333823223678,313.8725671322678
3623.2634,1.6505609790845126,424.13785575145687
3624.0989,1.6499509402965418,389.17382326751544
3624.9326,1.6481701472338621,406.1662438948926
3625.7686,1.64575532486913,397.3818042857661
3626.6028,1.6437468205614716,356.92772399906005
3627.437,1.6431680743188541,360.45526229034874
3628.2734,1.6445965982857946,393.2176430627161
3629.1082,1.6479225990682111,459.0488291211594
3629.945,1.6523617429947783,409.9564135121293
3630.78,1.6565523232733363,378.62164064658094
3631.6174,1.659076441750813,402.6744546165783
3632.453,1.6590931687970532,373.81586334553157
3633.2883,1.656894032884086,377.27364329312974
3634.1262,1.6536616393722827,454.4648493886435
3634.9622,1.6507190121692574,324.5931601730072
3635.8005,1.6487088965149022,407.8823760420919
3636.637,1.6474747779410557,344.9934751870955
3637.4756,1.6464284673043335,364.756359386659
3638.3123,1.645142610419824,365.96096606700894
3639.1492,1.6436227815583506,421.6486406938526
3639.9885,1.6422441759232795,398.5633238593244
3640.826,1.6415166719572243,405.7033657413816
3641.6653,1.6418311426037564,468.16883864159996
3642.5032,1.6433093781169428,380.44674832132625
3643.343,1.6457547888352275,360.5156237674567
3644.1812,1.6487489371661728,435.37076679884433
3645.0195,1.6518905260824923,407.1039356085527
3645.86,1.6548377556886704,395.51747322423483
3646.699,1.6571398696170023,392.22665840241945
3647.5398,1.658203457120177,366.44414338398605
3648.379,1.6575274619186349,378.9985531083554
3649.2202,1.6552112782191097,336.676050262147
3650.0596,1.6521994731132619,385.2974438037584
3650.8994,1.649840007050396,409.6269920529419
3651.7412,1.649074266766557,418.87189156256227
3652.5813,1.6498490566987816,330.75300188118007
3653.4236,1.6512595202511091,384.6787761342571
3654.2642,1.6522339432611124,350.3552919059871
3655.1067,1.6522063552966713,369.14506530258143
3655.9475,1.6513221937155482,385.1433775176445
3656.7886,1.6501790632585018,351.69073191918693
3657.6318,1.6493211684651414,367.41829361638554
3658.4734,1.6488846266911326,449.0107201426003
3659.317,1.64863759976066,385.2978503062195
3660.1587,1.648319232430304,356.69074267930375
3661.003,1.647823262374936,371.0232497840065
3661.845,1.6471314417950544,407.62832405857216
3662.6875,1.646259588451615,333.18724435048665
3663.532,1.6454200712955764,403.1429905466828
3664.3748,1.6451173430385317,360.0349550278317
3665.2197,1.6458835083115833,337.2386459083979
3666.063,1.6478673406024902,343.49914668641765
3666.9084,1.6507140548477763,372.1394465820962
3667.752,1.653759128910482,365.19826561761766
3668.5977,1.6563409841806245,345.5398507044604
3669.4417,1.6578049187572608,375.42255344845375
3670.286,1.6575852873197785,409.7287975956095
3671.132,1.6554791498908683,379.2336735494483
3671.9768,1.6520747518204213,364.55078043986185
3672.8235,1.6486737159839848,430.315093837371
3673.6685,1.6466413198385406,406.7960539963754
3674.5156,1.6465215235978732,405.2586959401775
3675.3608,1.6478044758792112,395.58969443083055
3676.2063,1.6494183146201695,431.9141606833388
3677.0542,1.6505040726980964,363.1758568944172
3677.9,1.6508209564818948,386.9496283791157
3678.748,1.6506540275370825,402.5442375396054
3679.5945,1.6504399380852852,351.6916316341411
3680.4429,1.6504742776901922,411.7346714716375
3681.2896,1.6507861863682132,392.37710787210847
3682.1365,1.65112820220629,393.4524723118167
3682.9856,1.6510532575085157,406.4427611388132
3683.8328,1.6501308131848336,367.95122307625627
3684.6824,1.6482665032792496,397.00907113182944
3685.53,1.6458908732783577,421.33336922830995
3686.38,1.6436134042843902,436.4766659224896
3687.2278,1.6416161390117932,350.24959263714925
3688.0762,1.639333866464567,481.6805559568702
3688.9265,1.6360149221083082,356.262265485791
3689.7751,1.6316446919406187,410.50219958829996
3690.626,1.6272013492670296,407.1333011012932
3691.475,1.6240989189294162,396.1215547253002
3692.3264,1.623166404070119,408.130878295281
3693.1758,1.6242550212246831,411.9326590017041
3694.0254,1.626514810276539,377.59724985845247
3694.8772,1.6290244747335656,350.9496384929802
3695.7273,1.6311500150473568,409.40641921796504
3696.5793,1.6325824371513233,406.5404925963493
3697.43,1.6331373047685507,389.9552178962488
3698.2825,1.6327338336072887,397.92376603911504
3699.1333,1.6314786681339848,487.5401852869069
3699.9841,1.6296425996324198,415.15902137866044
3700.8374,1.6274182325821192,443.169267580125
3701.6887,1.6247528447201571,407.7955574649315
3702.5425,1.621429466676794,403.4044963647773
3703.3943,1.6174370170902292,375.60258486989244
3704.2483,1.6130450928803115,399.7837222019948
3705.1003,1.6087415563343823,363.24936517920924
3705.9526,1.6049187473101199,510.3065340266561
3706.8074,1.6017046246378444,469.5199096902544
3707.66,1.5988782762996114,445.69668808162515
3708.515,1.5959571567766346,420.5198461762158
3709.3682,1.5926943483165514,283.7821783315167
3710.2234,1.589366643200811,412.47810594646194
3711.0771,1.5866601421095696,479.50630193752204
3711.9307,1.585104035900562,418.9976169883099
3712.7866,1.5848436812978524,491.5028413496138
3713.6409,1.5858663682251508,397.4378949140998
3714.4973,1.5882289078193226,428.53851193531193
3715.3518,1.5917989065975415,437.3983387967698
3716.2085,1.5958306146205492,430.4819111282379
3717.0635,1.5988910754208256,395.8500093789986
3717.9185,1.5996311345019534,339.92230115782706
3718.776,1.5976159936266792,428.77758987613015
3719.6313,1.593613950211626,481.30428526841996
3720.489,1.5889994007646273,458.8937634644581
3721.345,1.585015119892782,414.6283142691875
3722.2031,1.5822816817369225,383.17214100337407
3723.0593,1.5809312235672728,434.5083800451195
3723.9158,1.580794500171442,377.58786158444536
3724.7747,1.581537210993584,472.2387208347412
3725.6316,1.5826082322524286,405.0659628764449
3726.4905,1.583306510352401,485.329540413946
3727.348,1.5830386005837545,388.2701083801221
3728.2073,1.581645692556694,427.5209351274055
3729.065,1.5794919928759992,433.02266807640774
3729.9229,1.5772160111437088,432.5556107906586
3730.783,1.5753889184491372,411.493295349609
3731.6414,1.574283146191038,396.8905471097656
3732.5017,1.5737741682396522,393.59113755937176
3733.3604,1.5734368903179778,450.50180857077294
3734.2214,1.5727299115767692,464.6423808377291
3735.0803,1.5712842117509211,449.72655293810357
3735.9417,1.5691283317806517,467.61136666244835
3736.8013,1.5667735088293473,436.41736921954293
3737.661,1.5649461327108563,374.7845693097973
3738.5227,1.5641485654510217,513.5032624062014
3739.3828,1.564273673713632,401.45583962431544
3740.245,1.5646076316050654,416.2433232782795
3741.1055,1.5642955366272637,416.10109938905936
3741.9683,1.5628702098402558,399.09747612491367
3742.829,1.5604235407877503,437.0635454188067
3743.69,1.5573473498469461,457.261675015552
3744.5532,1.5540725342363646,490.361933782467
3745.4148,1.551086784138711,446.7138991146223
3746.2786,1.548950680875959,479.8750127923527
3747.1404,1.5482296631275316,507.3171916276193
3748.0044,1.5492028892742913,478.90447568770014
3748.8667,1.5517235554842461,393.45603344133156
3749.729,1.5552264167069614,446.8012184155513
3750.5938,1.5587652418558777,377.72921611720415
3751.4565,1.5610732666975968,435.7552955094082
3752.3215,1.5609776719965314,425.61128783744704
3753.1848,1.5579519344402812,400.8237036441122
3754.0503,1.5525284068769782,424.83813528241893
3754.9138,1.5462040700280362,399.11318187645065
3755.7776,1.5406792720166627,518.1560228912969
3756.6438,1.537118537818247,441.82985846026384
3757.508,1.5357610645649262,418.6009050725025
3758.3745,1.5360265007266156,394.75620731511634
3759.239,1.5370847830690868,425.09329448743915
3760.106,1.5383779129085515,465.23044263625906
3760.971,1.5398284402599587,430.20981035948404
3761.8362,1.5417184817717282,440.7752520882803
3762.7036,1.5442931046189934,468.06448100115375
3763.5693,1.5473461683645322,466.8927355175154
3764.437,1.5501678292420251,450.8394922945036
3765.3032,1.5518269956234974,405.55752558662203
3766.1714,1.5517208186027962,465.25165563340704
3767.0378,1.5498429334540063,427.11347857171006
3767.9043,1.5466444633143115,455.6845476922805
3768.7732,1.5426253251680735,426.18334837351085
3769.6401,1.5381562714862818,370.4741731413377
3770.5095,1.5336329083199107,435.32075539157665
3771.377,1.5300493373403727,442.05512430785313
3772.2466,1.529059645252562,459.2376384534904
3773.1145,1.532363002990086,485.9749824047381
3773.9824,1.5403981740224435,453.9984589378757
3774.8528,1.5513984296097738,439.99914531024314
3775.721,1.5615582394426921,411.48363926871195
3776.5918,1.5671112711529782,247.88006994752394
3777.4604,1.5664738598578587,409.2018111284141
3778.3315,1.5611929780075036,425.96696025858034
3779.201,1.5545286294584173,482.8903759050627
3780.0703,1.5490757919089666,459.5349359540343
3780.942,1.545535444835155,434.9957881968646
3781.8118,1.5431552387803484,427.60518187870184
3782.6838,1.540861120784227,418.9380693703241
3783.554,1.5381183483967158,444.4636137414968
3784.4265,1.534905386095779,470.0745301329174
3785.297,1.5313597680657252,472.5653628974506
3786.168,1.5274514146013134,485.64079940478956
3787.041,1.5231094721648266,418.2157738954806
3787.912,1.5184988650279436,391.19516637862364
3788.7856,1.5139984055265219,516.0382747354346
3789.6572,1.510148710357295,477.9207169513841
3790.531,1.5074170453070443,451.17772600914424
3791.403,1.506098736912548,501.86639611974056
3792.2754,1.5060122453854075,487.23489558005156
3793.15,1.5064099724016282,447.2984718142073
3794.0225,1.5063025731072104,422.21435945552224
3794.8972,1.5050976462326184,508.1492309045831
3795.7703,1.5029588770912903,477.63383691057976
3796.6455,1.5005529219931013,512.8246276295815
3797.519,1.498585132361098,434.79654225407245
3798.3926,1.4974864800739427,505.57106061848935
3799.2686,1.4974761418564653,546.7764337652604
3800.1426,1.4986638148800513,489.6461461179614
3801.0188,1.5010473555555828,488.7627198329956
3801.8933,1.5044301069684556,500.1093250032258
3802.77,1.5084665336709888,476.80350815016976
3803.6448,1.5126554569047441,463.9354186323668
3804.522,1.516431401091777,427.90187386623853
3805.3972,1.5191386227745542,590.4573755255166
3806.2727,1.5203038618714224,438.9727333837776
3807.1504,1.5198590128349303,578.0881623789535
3808.0261,1.5182119872416158,523.8224791435239
3808.9043,1.5159666267857421,429.897578323517
3809.7805,1.5136125700634548,538.6912057681985
3810.659,1.5113721633241388,523.5118647913802
3811.5356,1.5093558539468,550.2521181992781
3812.4126,1.5076786410313259,449.9070749729568
3813.2917,1.5065521900253347,466.8938190046762
3814.169,1.5062660164777337,512.1127124920904
3815.0483,1.5070348124417547,475.87407036196487
3815.926,1.508767236618383,434.6538257990033
3816.806,1.510911770524741,496.1700022890316
3817.684,1.5125449412417094,485.05481268498085
3818.5623,1.512794754122376,480.94168303899846
3819.4429,1.5112061979761282,484.34103677446114
3820.3215,1.5078627655705514,450.21811114324896
3821.2024,1.5031705879279351,465.01438488245975
3822.0815,1.4977126286055187,489.4414774120662
3822.963,1.49207495185297,447.6233365284863
3823.8423,1.4868114431408195,473.1259646919215
3824.722,1.4820940403130658,434.9609225764826
3825.604,1.477566431118452,483.7826279344003
3826.4841,1.472539192193266,430.76636030889506
3827.3665,1.4664119961145812,483.75411852135954
3828.2468,1.459208336097526,485.855424488955
3829.1296,1.451403525286631,483.3254128742523
3830.0105,1.4435737269652071,495.5882177970778
3830.8916,1.4358903640909377,401.57373105562704
3831.7751,1.4283455150858069,584.0298296891986
3832.6565,1.4212425016506758,586.4776269496418
3833.5403,1.415118576117746,541.1146858478209
3834.4224,1.4104205510914398,619.3137672701919
3835.3064,1.4069760233955568,453.5227903851367
3836.1887,1.4042753138180848,522.8297151676402
3837.0713,1.402087602104426,656.2931385853591
3837.956,1.4009799560797815,567.0656780506698
3838.839,1.4021326079567038,446.81135514815946
3839.7244,1.40657721983599,526.4902373502377
3840.6077,1.414403344464667,569.1682004616658
3841.4932,1.4246693534286818,558.1597792023551
3842.377,1.4358009924345978,525.9476228405339
3843.261,1.4465126724883133,478.9927572398173
3844.1472,1.4561152200601375,544.5254194810731
3845.0315,1.4642709995944019,418.9634610744077
3845.9182,1.470872828295297,493.3708587183512
3846.803,1.4759825697582767,541.0122994042648
3847.69,1.4802378180242037,470.093012630411
3848.5752,1.484641146495525,452.89477795468196
3849.4604,1.4900367589116568,488.15921468957464
3850.3481,1.4965645109697594,490.6628249962413
3851.234,1.5036323343501778,500.07128891986423
3852.122,1.5105035493138588,518.9325452854766
3853.0083,1.516566790072895,482.0630206437629
3853.8967,1.5215503542637516,478.2012096055255
3854.7832,1.525330625195129,461.4965597525972
3855.6702,1.5279667406753608,466.5904980976191
3856.559,1.5296311215111327,422.67177019136165
3857.4463,1.5305653008480626,419.45497609573613
3858.336,1.531026915216856,495.4412312431406
3859.2234,1.5312452201454783,423.5831019963598
3860.1135,1.5314765646938129,451.8297845386179
3861.0015,1.5320115263034115,469.00544934827855
3861.8896,1.5330435388217136,461.4431250132026
3862.7803,1.534449806005873,524.6075844585569
3863.6687,1.5356927814554753,410.30687965972726
3864.5598,1.536005806650982,507.3449724881747
3865.4487,1.534654952449121,432.3665616347318
3866.34,1.5311487406387878,477.48599310951687
3867.2297,1.5253497166462728,449.161345811501
3868.1213,1.5174087563179988,474.74970285004747
3869.0112,1.5078218955228622,463.6747724022514
3869.9014,1.4972582924023268,479.2099681801447
3870.7937,1.4864704459233296,472.43649412879535
3871.684,1.4761713027213132,515.0641037225975
3872.577,1.4666490314627225,534.4765462082639
3873.4678,1.4578876215136878,498.27469174189866
3874.361,1.4495291506996137,510.8536353732227
3875.2524,1.4413395058572342,501.8170568587332
3876.1438,1.4332455726325923,524.5492207759258
3877.0376,1.425286918107957,501.27193578122007
3877.9297,1.4173928745289546,532.2147055803648
3878.8237,1.4091010926391287,537.7193102165926
3879.716,1.3998656997753574,565.7009939248064
3880.6108,1.389265690452299,566.7514992139286
3881.5037,1.3774068214555344,590.398169290242
3882.3965,1.3646656143717524,541.3163719871933
3883.2917,1.351436727206272,563.2544421539502
3884.185,1.33799338896363,554.847152174874
3885.0808,1.3243037661163533,558.9341245102713
3885.9746,1.31062485505003,589.8959042373492
3886.8706,1.2975247453272525,644.8001511452269
3887.765,1.2860713993327628,645.1316478921304
3888.6592,1.2772794135931491,648.6362329761881
3889.556,1.2718691756033051,628.793055604515
3890.4507,1.2701332814810837,717.1467709735549
3891.348,1.2718805916642262,655.1713703370159
3892.243,1.276645957423894,666.3936843411899
3893.1406,1.2839999519363838,635.9668588211097
3894.0361,1.2936306398667055,641.4541280596231
3894.932,1.3053740766280908,696.4388692757777
3895.83,1.3189216806043227,563.164942091694
3896.7263,1.3336281207238574,578.0538291881151
3897.625,1.3490097705115005,554.7562794195048
3898.5215,1.3647391075077984,629.3302769111561
3899.4207,1.380858777166763,508.9892382268755
3900.3176,1.3970515240798145,521.2762345801563
3901.2148,1.4128271920919355,509.53887751500486
3902.1145,1.4278229013251813,517.7241158459449
3903.0122,1.442190782408662,538.8539785796532
3903.912,1.4566543759495094,422.192979424538
3904.8103,1.4714118992473872,448.9516509913588
3905.7107,1.4858454763626046,466.3921513906158
3906.6094,1.4986798147901343,589.8026194772133
3907.508,1.5092023213133152,424.0707739292835
3908.409,1.5178107812984503,465.7995247860836
3909.308,1.525771401574257,496.56552679026436
3910.2097,1.534581389228782,387.30581153871873
3911.1091,1.5450382609174065,469.4221844453483
3912.011,1.5571067835693668,520.1415672216573
3912.9111,1.5699382203270127,408.72319232813527
3913.8113,1.5825867893640935,421.4052077874236
3914.7136,1.5943492825694427,413.4411901713744
3915.6143,1.604736262440879,419.48930425963385
3916.517,1.613517077645949,388.51974621293004
3917.4182,1.6205377033053798,375.64587592268316
3918.3215,1.6260234280720254,372.4108134438921
3919.223,1.6304977375422673,382.95374152068376
3920.1245,1.6346461966203016,368.22884171280685
3921.0286,1.6389136857675517,435.50606425516185
3921.9307,1.6432586487357708,408.37661390674714
3922.835,1.6472974704673062,409.4003285059254
3923.7373,1.650548059671102,394.8021710680285
3924.642,1.6528698725040307,412.16080463196437
3925.5452,1.6545880789662326,397.6159182098075
3926.448,1.6563932544614184,384.5839752701382
3927.3535,1.6588849092367584,412.4789013934898
3928.257,1.662013576595906,348.853030420226
3929.1628,1.6648746872004374,389.01313235939506
3930.0667,1.6659914490709278,344.9142839606398
3930.9731,1.664105426054882,372.4989734974575
3931.8774,1.6587935830542857,367.8660741271872
3932.782,1.6505679177386268,367.53083971844023
3933.6887,1.6406353015322237,359.7694639895077
3934.5938,1.6306422095277637,398.00147932504495
