wavl,flux,ivar
3566.9744,9.773359163106251,37.830636801201834
3567.795,9.765273395653232,42.04377671789753
3568.6177,9.754436325720617,39.0200728216993
3569.4385,9.742875623170482,43.7104719843445
3570.2617,9.733929428263174,40.61287348573769
3571.083,9.73011546281483,39.94824508985707
3571.9065,9.731659866301463,41.934794710043384
3572.7283,9.737158725921725,39.997286796966854
3573.55,9.745049564217991,36.65658375058303
3574.374,9.754339111839494,44.44511776747518
3575.1963,9.764060843074633,40.00292153184475
3576.0208,9.773042436573691,40.25654587964071
3576.8435,9.780290016510213,41.29341132915666
3577.6682,9.785874465193817,42.911123345800746
3578.4915,9.790460198129304,38.63446255639336
3579.3145,9.794133923120478,41.70987587195781
3580.14,9.795458191177158,38.28909779584045
3580.9636,9.791778272129452,42.25492451153241
3581.7893,9.78060689249591,39.63427766235604
3582.6133,9.761346904684132,36.246752992969405
3583.4395,9.735846859364152,39.02492182862174
3584.264,9.707914328392507,45.18960371470189
3585.0884,9.681042703274388,38.59931278243309
3585.915,9.657149835896375,45.988229329350794
3586.74,9.636714424527787,43.10653631359551
3587.5671,9.61920693162983,44.658591024972104
3588.3923,9.604216959144939,40.379257241133686
3589.22,9.591336299738646,39.914523975061726
3590.0457,9.580327280336535,39.0049955605924
3590.8716,9.570521350943643,47.157647351785315
3591.6995,9.560611345807956,40.56536951568703
3592.526,9.548813979901395,41.28556267118286
3593.3542,9.53364653138659,40.92269564172334
3594.181,9.515500244636632,39.732609895813845
3595.0098,9.496936730629187,44.45990761296903
3595.8367,9.481868990754114,44.905440484720614
3596.6638,9.473086490564832,47.94595634064396
3597.4934,9.471095209850679,42.90713775119653
3598.3208,9.474527615102051,41.04987770354545
3599.1506,9.481589129710086,43.71676534870256
3599.9788,9.490848502386385,40.026059464383444
3600.8088,9.501117020993197,44.03617865670342
3601.6372,9.510945464691181,40.74113085031449
3602.4678,9.519164059011963,39.43277386543532
3603.2964,9.5252696920244,43.80133635056989
3604.1252,9.529204189338106,45.02124082973916
3604.9565,9.530094967860116,42.4362008605827
3605.786,9.525950150229738,44.942294651488396
3606.6172,9.51527888722591,39.43954637899567
3607.447,9.499463072940104,44.885175372915604
3608.2788,9.482882855017085,42.811273153794566
3609.109,9.470435825233945,42.01151533986397
3609.9392,9.463720305577178,41.5542583763128
3610.7717,9.459938292700754,41.214469124318185
3611.6023,9.453987381562554,47.815659387840114
3612.435,9.441999085965467,42.70350517537964
3613.266,9.423833263829652,47.803167746723375
3614.0994,9.402516856578327,43.912706882172074
3614.9307,9.382082408584054,39.984853797647666
3615.7625,9.364335216533725,45.15503409155092
3616.5962,9.347774874651474,45.720447224234384
3617.4282,9.329035252188557,45.33883300633161
3618.2625,9.305682958134543,41.71303126829015
3619.0947,9.278711791859774,43.910813186478364
3619.9292,9.25145872746647,47.160281480957046
3620.762,9.227712813601217,45.084855675667775
3621.595,9.209661111210089,46.72579426564093
3622.4302,9.19832714069675,45.88510719678288
3623.2634,9.194277642815305,50.056119996251894
3624.0989,9.197135249449666,41.70987007762521
3624.9326,9.204696896056221,47.830290766388075
3625.7686,9.213059699017867,48.69331470460118
3626.6028,9.218410773565056,45.24451191177955
3627.437,9.219402336661481,43.9319862549245
3628.2734,9.217396918642336,46.40510745473285
3629.1082,9.21437912635398,43.67593492874651
3629.945,9.210307090105102,44.90772201714678
3630.78,9.202675289221562,41.569775726166796
3631.6174,9.18835823752193,45.29617982314941
3632.453,9.16613137771731,44.26147909042865
3633.2883,9.13726771602143,47.12537673102742
3634.1262,9.104956481478592,43.48100960649507
3634.9622,9.073530821269632,47.43077329374655
3635.8005,9.04638461826854,52.0067059218231
3636.637,9.024760973656695,43.79016353616189
3637.4756,9.006218796008758,48.74198747237264
3638.3123,8.9864886234209,47.11015832426231
3639.1492,8.962394954208118,48.0392912263077
3639.9885,8.934334634143745,47.670339229237214
3640.826,8.90574072833254,53.27202238757806
3641.6653,8.879475715563117,43.3680426344003
3642.5032,8.855983637004043,50.38453657139628
3643.343,8.833239934344993,51.445706105644014
3644.1812,8.809451333803029,51.24727636449159
3645.0195,8.784604684641286,48.118823947257965
3645.86,8.76068628814219,50.590120110945605
3646.699,8.740480347265713,49.089617383850666
3647.5398,8.725728774078267,49.99286981446616
3648.379,8.716785353841411,49.380068141942814
3649.2202,8.712382098044325,50.68381375992603
3650.0596,8.710186116452444,48.87341215198058
3650.8994,8.707446506963084,51.881906550997336
3651.7412,8.702140409878442,50.080690513926726
3652.5813,8.69399508600375,48.39054060487708
3653.4236,8.684423313705144,54.219897163462505
3654.2642,8.675479597534324,51.331159743065086
3655.1067,8.668188016200714,48.44728043911388
3655.9475,8.662128822180163,53.868482928951956
3656.7886,8.65606974694542,43.90715522138014
3657.6318,8.64924529168665,50.68927993381249
3658.4734,8.642191507149533,50.99993348633371
3659.317,8.636754451307688,50.40985110887711
3660.1587,8.6356908390423,54.70116452595116
3661.003,8.641395709694931,50.65146531905597
3661.845,8.654216164522335,54.62077695788517
3662.6875,8.671451157998892,46.99094748941451
3663.532,8.687892753059344,51.10758220591667
3664.3748,8.697888881286973,49.33753151369413
3665.2197,8.698032546961697,48.097574684146196
3666.063,8.688204329289617,52.36636715740744
3666.9084,8.670895940728425,57.8424885678253
3667.752,8.64970883422342,48.69694261981254
3668.5977,8.627832529838846,57.34596686490675
3669.4417,8.608217325335117,53.727104863005145
3670.286,8.593314543233834,48.26112792161534
3671.132,8.58479932148384,53.63769079440458
3671.9768,8.582602409152729,52.117541620826316
3672.8235,8.584207961128731,53.4564988089204
3673.6685,8.585292484625468,53.390105808525455
3674.5156,8.581501467624921,48.62931870047548
3675.3608,8.570515822173526,53.26197310710438
3676.2063,8.55294380695256,55.88802867778571
3677.0542,8.53164047678037,52.8898170984329
3677.9,8.510480201489996,52.789207599435386
3678.748,8.49265279683622,60.299001268855726
3679.5945,8.480258999724253,56.4384454574229
3680.4429,8.473618095842419,53.97474190160549
3681.2896,8.471871419476482,58.880689264776656
3682.1365,8.473901193503805,51.53516832031492
3682.9856,8.47918782677273,54.367257662702634
3683.8328,8.487333082075073,54.554185476712064
3684.6824,8.497046123987307,51.12229618908045
3685.53,8.505681113256585,54.4242228848917
3686.38,8.510735456276972,53.45777271386841
3687.2278,8.511605388807496,52.617949489110124
3688.0762,8.510247934338194,52.00617894674684
3688.9265,8.509667969478777,56.80112514876015
3689.7751,8.511741573323473,55.36534258198505
3690.626,8.516182666335537,52.85133933572488
3691.475,8.521306420428903,48.28195099127349
3692.3264,8.525628105850965,54.42315043063859
3693.1758,8.528494216797116,53.21148402405633
3694.0254,8.529734847859496,50.51093281290788
3694.8772,8.529116517760759,52.491402317381024
3695.7273,8.526606441066258,58.89585713184939
3696.5793,8.522763027851358,54.031433590884006
3697.43,8.518327515190323,57.595318968912956
3698.2825,8.51302961962421,55.67644020474755
3699.1333,8.505146263360123,52.889277997979256
3699.9841,8.492393451321842,54.54165177859177
3700.8374,8.473686286447576,50.186139942837244
3701.6887,8.450427955892703,53.47408307445132
3702.5425,8.425589650583406,54.58938280804705
3703.3943,8.402434819325093,54.499196494321126
3704.2483,8.382600040087116,52.03268192374482
3705.1003,8.366311680607359,54.68317542516916
3705.9526,8.352720001025325,55.172961077524654
3706.8074,8.340888450120959,58.10763887600147
3707.66,8.33052921673998,58.146740496332164
3708.515,8.322354853050111,55.30520341675572
3709.3682,8.318365909985898,52.96464805064706
3710.2234,8.320700589044357,60.405065857524136
3711.0771,8.329716439313456,57.65486473226388
3711.9307,8.342348088503806,54.09582162345943
3712.7866,8.352608349435581,50.7172670074518
3713.6409,8.354495915759017,51.955573182743265
3714.4973,8.345894652058695,55.20911332053767
3715.3518,8.330122669378502,48.94689177434962
3716.2085,8.313901996301578,55.18065152018181
3717.0635,8.303771547485118,56.24054929335098
3717.9185,8.30275971422505,54.16532186589691
3718.776,8.309726635981882,56.83558857046317
3719.6313,8.320412100687218,54.50705767269427
3720.489,8.329757938370333,55.84497322550923
3721.345,8.333853022122296,53.26066993385371
3722.2031,8.33108221823339,55.89479896086125
3723.0593,8.32171914062162,66.27430066759898
3723.9158,8.307007078767702,53.36648103479814
3724.7747,8.288738975799337,57.75656985791629
3725.6316,8.269568802924724,53.999409392117656
3726.4905,8.252315851707587,59.40700537487947
3727.348,8.238974119359188,59.625801353598185
3728.2073,8.229150349739326,56.45122807784199
3729.065,8.220499572625522,59.79146953986219
3729.9229,8.210609862482247,56.512756459097176
3730.783,8.199222495075935,59.66828791599256
3731.6414,8.188355981233501,62.26619012994883
3732.5017,8.179882126445332,56.40725143993361
3733.3604,8.173574710947472,59.193494769878114
3734.2214,8.167210006520353,56.32981024250303
3735.0803,8.158850986882497,60.80804662700839
3735.9417,8.14840555818091,54.134243667256825
3736.8013,8.13765860949435,59.33642154887136
3737.661,8.128701931426068,66.11065230499969
3738.5227,8.122785412790412,63.1297104807344
3739.3828,8.120039909172451,56.06815350955705
3740.245,8.119725447982358,60.50096229417094
3741.1055,8.12071471133828,55.06195074975754
3741.9683,8.121876190263189,57.965722336532004
3742.829,8.122595747749962,54.862028770144136
3743.69,8.123332707070398,57.74018652425244
3744.5532,8.125693000096522,59.00397441346047
3745.4148,8.13167658096344,57.13132262441771
3746.2786,8.142426595663206,57.56901649285839
3747.1404,8.157023451105932,58.961735996093495
3748.0044,8.17265164573216,60.89528089726916
3748.8667,8.185476006216163,59.795285699036235
3749.729,8.192371679135979,56.77003974730476
3750.5938,8.191653169376997,57.3534960700521
3751.4565,8.183124432611177,60.36634048946263
3752.3215,8.167650853877921,56.593326862942696
3753.1848,8.147093784825906,55.64310892945593
3754.0503,8.124031263098674,57.52070439407029
3754.9138,8.101874377197054,61.92004007529452
3755.7776,8.0837421959494,60.697303421706195
3756.6438,8.07160717473944,59.47144230847285
3757.508,8.06560400116314,60.039963705070775
3758.3745,8.063963311572131,61.72955789492347
3759.239,8.064017123194628,57.669741528561154
3760.106,8.063102681872087,56.68289657045419
3760.971,8.059168330327495,67.75648955652203
3761.8362,8.051020934653284,55.56765888932068
3762.7036,8.038529398665487,59.23315501621608
3763.5693,8.022871823299175,60.54214307613389
3764.437,8.005948370869444,61.08663005670616
3765.3032,7.9897295414404,57.31334176008196
3766.1714,7.975234335418583,60.94351203239803
3767.0378,7.962828533845548,56.94581727007422
3767.9043,7.952808195765446,60.59666313567035
3768.7732,7.94611293233977,60.85585986030306
3769.6401,7.943857188260212,61.127476635725934
3770.5095,7.945926315566431,65.08215560123985
3771.377,7.95039587402085,59.85874890951626
3772.2466,7.954558872651227,59.97915124078558
3773.1145,7.956668543194578,61.95636851483444
3773.9824,7.956892965412796,61.66141863196792
3774.8528,7.956619917919688,61.76552509186507
3775.721,7.957185780946095,59.48227550250434
3776.5918,7.959147730591111,59.35239674434758
3777.4604,7.962375678489216,62.99827372551389
3778.3315,7.966501065222325,61.954396870222034
3779.201,7.9710430415733535,68.18543446290666
3780.0703,7.975381077907549,61.34649753325192
3780.942,7.978585177892061,65.60061740227228
3781.8118,7.979530456264429,65.64946082307841
3782.6838,7.977582063665245,57.26966479452555
3783.554,7.9733487677135555,57.26797529062061
3784.4265,7.968486740940987,63.250653475715126
3785.297,7.964250470219986,61.468744092849995
3786.168,7.95982296773294,60.39427292709562
3787.041,7.952550082162094,58.61017375601135
3787.912,7.940165039049778,59.315849661587244
3788.7856,7.92274479826314,59.721744916996116
3789.6572,7.9029252180096785,62.69751468156278
3790.531,7.883508915976728,66.74808296072334
3791.403,7.865814639761007,61.11685852662228
3792.2754,7.849227340868698,61.74008946375804
3793.15,7.832720516481081,60.01025400294078
3794.0225,7.816175058260811,62.33224757131546
3794.8972,7.800141044819109,67.71255104822502
3795.7703,7.785466201874081,60.61242663047565
3796.6455,7.772583454132355,66.36890232427001
3797.519,7.76188552295429,62.1239091338903
3798.3926,7.7538133711090405,66.70593274754518
3799.2686,7.7489939348718195,65.86281955985007
3800.1426,7.747917145190669,62.842843204371306
3801.0188,7.750458252229257,66.42772364897984
3801.8933,7.755892280822265,64.37781327341361
3802.77,7.763454228102301,62.75720193322357
3803.6448,7.772851524026492,64.60139947066678
3804.522,7.784439427352827,62.94021297601868
3805.3972,7.798400301509317,59.42953706765836
3806.2727,7.814326724173423,61.04076194722125
3807.1504,7.831229188746358,64.33614559058249
3808.0261,7.847957450942497,60.51938327192609
3808.9043,7.863751993690729,61.56172886789303
3809.7805,7.877701780106333,62.00605422908075
3810.659,7.888874409332898,57.73716880033316
3811.5356,7.896320499382728,63.88653562526257
3812.4126,7.899701116110341,56.350298248842115
3813.2917,7.899327306710198,59.024173971182776
3814.169,7.895935193701785,58.54930984838776
3815.0483,7.890163345189689,61.89253215988443
3815.926,7.8821670548387095,65.43609137385435
3816.806,7.871433939043994,61.372404797984345
3817.684,7.857393668645554,61.76483832834995
3818.5623,7.84008414933701,63.366514107768644
3819.4429,7.820694965650436,63.42406483065874
3820.3215,7.8014077617291795,64.43193080501716
3821.2024,7.783928794243899,65.57501353339835
3822.0815,7.768721664498708,62.272499963690954
3822.963,7.75442243760822,62.81112718265492
3823.8423,7.738888331178991,63.160934229131605
3824.722,7.720214873679769,63.96867154048717
3825.604,7.697717127659297,60.97274559562598
3826.4841,7.672202326274782,65.08749381414631
3827.3665,7.644994095929328,67.59257043506037
3828.2468,7.61776918500545,72.09478749667065
3829.1296,7.591719810824846,66.97714236212391
3830.0105,7.567929656263871,67.1569799230645
3830.8916,7.546762789237726,65.15359621120487
3831.7751,7.52800518099263,68.10633181459693
3832.6565,7.511188765298983,64.16304379599012
3833.5403,7.495756636417023,70.16272370179387
3834.4224,7.48193944765684,67.67809879526592
3835.3064,7.470661685203556,67.89140482439585
3836.1887,7.463415841873938,70.10236353707627
3837.0713,7.461372372181526,71.7537265451256
3837.956,7.465060515060105,70.26315072819908
3838.839,7.474549326526603,68.1494733959417
3839.7244,7.4900951103467435,65.98874429798246
3840.6077,7.511982879910856,64.13258770784654
3841.4932,7.540030125675439,64.51761074979048
3842.377,7.572343679303137,69.55074941327514
3843.261,7.605826289999681,66.13487030121205
3844.1472,7.637199172709761,66.11120525937403
3845.0315,7.664234037790124,64.88704649705022
3845.9182,7.686915631849533,62.804727245612476
3846.803,7.706432449549615,62.41817764613146
3847.69,7.724477457880728,64.23878962022822
3848.5752,7.741874081051682,62.26856540596222
3849.4604,7.758682334879514,63.925482592101
3850.3481,7.774721944983449,61.41965741621004
3851.234,7.790252724521573,63.65231199945812
3852.122,7.8064461360526325,64.7794036346781
3853.0083,7.8243279452353365,61.0770304129806
3853.8967,7.843862244995887,65.80690263203044
3854.7832,7.862743051199952,66.14925699648245
3855.6702,7.877099862657353,64.22575310403957
3856.559,7.883125656715973,62.70787085810487
3857.4463,7.879305526161746,63.119464614453335
3858.336,7.867335141190133,62.26998644090335
3859.2234,7.851215241094772,62.20511516050883
3860.1135,7.835179495128102,60.99116751033156
3861.0015,7.822419179277798,61.36217499011388
3861.8896,7.813898055676091,63.26049081588205
3862.7803,7.808488258830943,61.45028037097058
3863.6687,7.803911228893292,56.7870679550028
3864.5598,7.798086136355793,61.834067175545584
3865.4487,7.790093241663698,64.16888061810535
3866.34,7.7797559707350565,67.2980264358142
3867.2297,7.767062264627313,68.33985606701813
3868.1213,7.7517204892672815,65.76603568360619
3869.0112,7.733726887130136,62.10528434743857
3869.9014,7.7134728696699915,65.85059793763793
3870.7937,7.691582626329982,63.57901177302142
3871.684,7.668458522529205,64.90270517023953
3872.577,7.643525236120865,65.95714157873026
3873.4678,7.615958053446616,68.81286327168942
3874.361,7.58487199894915,70.26902891398622
3875.2524,7.550290347526611,69.07219799310894
3876.1438,7.512361139724693,72.85499491793446
3877.0376,7.47092106404024,67.23478786267046
3877.9297,7.425740343449503,70.89499958105974
3878.8237,7.376472232143921,73.23343704964904
3879.716,7.324136348433625,71.16696720384542
3880.6108,7.270271704668719,71.83412546682885
3881.5037,7.217026070681378,70.3130342981217
3882.3965,7.165176242414751,77.50967786999456
3883.2917,7.1139104089833225,81.23997143964237
3884.185,7.061624230097621,76.43628269163928
3885.0808,7.0063330254638885,74.53838361642345
3885.9746,6.948311194224346,79.39759790881234
3886.8706,6.889846056488398,77.54990935448477
3887.765,6.835659261574985,85.54198375051175
3888.6592,6.790345560662569,87.34813537411178
3889.556,6.7574042944566335,82.14617055594984
3890.4507,6.739281903935871,85.82268264247956
3891.348,6.737517581247623,90.36013123302894
3892.243,6.753221511169039,88.92100174814519
3893.1406,6.786193708184205,88.05859711471997
3894.0361,6.833596327062031,83.23133689122953
3894.932,6.890646267944707,81.82585193969015
3895.83,6.951972708352591,76.78586765283221
3896.7263,7.01299740281698,78.10090626599099
3897.625,7.0721646742797635,77.82734640062293
3898.5215,7.129647081285063,76.91237410650982
3899.4207,7.187347878560558,74.0358300965798
3900.3176,7.246037223966765,73.60705912438185
3901.2148,7.305495522285783,71.83972975723721
3902.1145,7.364416362488481,70.68754756735159
3903.0122,7.42127366319804,64.21910838242974
3903.912,7.47616245691117,67.7321783270166
3904.8103,7.529310253481965,70.15913786314461
3905.7107,7.580919715326045,69.86801839711966
3906.6094,7.629742908753651,64.8905224241801
3907.508,7.674471019393554,68.54086217664782
3908.409,7.714333304713127,64.01330169163887
3909.308,7.7491461962684065,65.36391230492153
3910.2097,7.779552306057247,65.90274261265601
3911.1091,7.806049153695966,63.51156265465413
3912.011,7.829703736307423,62.45232208694141
3912.9111,7.851721448767346,61.08500849152651
3913.8113,7.873493090690409,59.87860895370201
3914.7136,7.89579436515382,59.82383980781399
3915.6143,7.918245195915302,61.91253614441261
3916.517,7.939810083231625,58.78987473743542
3917.4182,7.959003794473777,56.46234088092872
3918.3215,7.974944780272751,61.315165339530076
3919.223,7.987399584899335,62.61869509022047
3920.1245,7.996874301886701,57.32461845224504
3921.0286,8.004101916460536,57.22376738544364
3921.9307,8.009991518312313,61.02933848907589
3922.835,8.01593331668729,61.14462091570225
3923.7373,8.023394896962348,61.433174823705365
3924.642,8.033137459814526,60.51166918761084
3925.5452,8.04432778944254,59.16515311507569
3926.448,8.054969180415332,58.53838531885249
3927.3535,8.063027087455916,61.57036780602304
3928.257,8.067421015908753,59.87947392236392
3929.1628,8.068344794253177,56.99097398581436
3930.0667,8.066519009189374,60.208395950963535
3930.9731,8.062359968975985,58.21782260193916
3931.8774,8.055648120214014,60.67310921253074
3932.782,8.045846411578445,63.30935278045467
3933.6887,8.032849569425133,59.65294797998976
3934.5938,8.017379916747702,60.05629198562724
3935.501,8.000187210452738,60.14884770943189
3936.4062,7.981440870103089,58.715839944052064
3937.3142,7.96023630030302,58.290211911373326
3938.22,7.935673110536723,61.6673896151924
3939.128,7.907199911697748,62.75778263191226
3940.0342,7.875395908367199,66.1955043255716
3940.9407,7.841491199851748,59.989551719998076
3941.8494,7.8072524019479665,64.8438829885042
3942.756,7.7744673248864204,62.65132377305467
3943.6653,7.7432253542516065,68.26292276631496
