wavl,flux,ivar
3566.9744,4.068315167074706,38.50766476036273
3567.795,4.066892833325773,27.896336826602706
3568.6177,4.072517270615009,24.985933228367088
3569.4385,4.081045426501847,42.467889012821416
3570.2617,4.089896724247751,17.27405287934655
3571.083,4.096895882590404,18.225787869409366
3571.9065,4.101334803761712,15.929678646397749
3572.7283,4.106079580358904,11.746960848901184
3573.55,4.117231282737335,31.269695495096933
3574.374,4.139302201912403,25.520180872609746
3575.1963,4.1697745047683785,55.53124560877548
3576.0208,4.199925194714308,26.59252756847142
3576.8435,4.220696370392476,38.31141427007523
3577.6682,4.229036287349253,16.79675715932893
3578.4915,4.227564500325822,24.664266842665846
3579.3145,4.220799324420903,17.70760079620616
3580.14,4.212359474986508,16.5809073538995
3580.9636,4.205138768396798,39.30997461978166
3581.7893,4.201012616182806,46.49844910401266
3582.6133,4.199068061097916,26.661049618609862
3583.4395,4.194700869140421,13.078955757145692
3584.264,4.182732869434901,24.56183128988865
3585.0884,4.162035949688496,20.556483539545567
3585.915,4.136665659526389,14.75915760093017
3586.74,4.1122606821510415,21.594419762025364
3587.5671,4.090439775372132,31.43461146102975
3588.3923,4.067492607884029,24.307940557579162
3589.22,4.036804341852507,35.69600300478552
3590.0457,3.9945915415970754,28.476580002566013
3590.8716,3.9434982419249853,35.844960034532065
3591.6995,3.893767558709626,20.927985955009536
3592.526,3.860662569475879,22.472868752422208
3593.3542,3.8574755221374457,54.99932829652753
3594.181,3.888685041993419,20.97030007545684
3595.0098,3.9464267134343136,23.56788836953593
3595.8367,4.013633008983578,37.839280467323675
3596.6638,4.074053371034825,14.762584740635441
3597.4934,4.11970563393448,19.839470655475196
3598.3208,4.151465266652539,21.946464622167376
3599.1506,4.174355259377886,31.969018337167025
3599.9788,4.19102325703387,23.48489055485783
3600.8088,4.201395462286706,18.501389821652058
3601.6372,4.205499147967008,47.865555737184074
3602.4678,4.205687398292038,12.043724612540029
3603.2964,4.204540980840544,20.237885910824737
3604.1252,4.20155654275387,15.367171942593624
3604.9565,4.193068852356957,33.671301392115794
3605.786,4.176038892515167,16.656732992162407
3606.6172,4.151174836253959,17.21058972829815
3607.447,4.122985567158625,18.203688324694387
3608.2788,4.096628843175643,23.495945794094123
3609.109,4.075728920695054,26.070839517124732
3609.9392,4.06093536764535,18.269115921151936
3610.7717,4.050774776946598,26.21477614895805
3611.6023,4.043413474206593,17.15048943015119
3612.435,4.038092354106104,32.387486893980224
3613.266,4.035223811341488,15.232922003782933
3614.0994,4.034384552602741,37.164671786501735
3614.9307,4.032193509867773,20.65608903371705
3615.7625,4.022010170800069,28.46626912669279
3616.5962,3.9967049649535205,24.81208167043082
3617.4282,3.954101673921328,19.14222122188701
3618.2625,3.9008589523998323,20.38444532879241
3619.0947,3.852431344103487,20.449193811584863
3619.9292,3.8245612684755623,30.83119006275336
3620.762,3.8242544290700806,28.371819559480812
3621.595,3.84549792226374,18.329351872217437
3622.4302,3.875242047676997,21.43852028266174
3623.2634,3.901936887827962,23.699563269991003
3624.0989,3.9201988861257298,27.83468474683415
3624.9326,3.9286116632551935,27.963113738318665
3625.7686,3.927481051824058,15.305323454135424
3626.6028,3.9187112992499658,54.38955037411367
3627.437,3.9069394266794446,22.10517123947457
3628.2734,3.8987298431741513,39.6098472664527
3629.1082,3.899790906302653,23.06759885544958
3629.945,3.9123235321751197,22.665767141724523
3630.78,3.934999189169033,22.88362327686397
3631.6174,3.9655529933335565,26.700534340159017
3632.453,4.002397040839849,19.14262463320214
3633.2883,4.044563984541754,20.360952927340612
3634.1262,4.088831728676085,18.32267314898599
3634.9622,4.127680624306076,24.74368529440487
3635.8005,4.152648766086368,22.06327976423453
3636.637,4.159583959033549,14.542567766101287
3637.4756,4.153597820869276,35.019454842178774
3638.3123,4.147012260519759,43.244012688467976
3639.1492,4.1514967654527855,39.37528384289121
3639.9885,4.170146790496332,17.975261346816236
3640.826,4.1951765817759545,16.49291086001855
3641.6653,4.213359743085352,15.353541249903376
3642.5032,4.213604275316171,23.807429111230753
3643.343,4.192438023565445,20.543384813991146
3644.1812,4.15449647743974,12.975452951116575
3645.0195,4.109149051515026,21.051669601963262
3645.86,4.066432869151792,18.196215334668054
3646.699,4.0342302365091305,14.84968223241664
3647.5398,4.015880784177624,53.85407409621211
3648.379,4.010270627100529,27.959060175635464
3649.2202,4.012904049759371,17.203483582919883
3650.0596,4.019747451794723,15.326953186665468
3650.8994,4.030786385700828,34.15601831205203
3651.7412,4.049112162556966,17.500940981296804
3652.5813,4.074934034121894,23.761356133502296
3653.4236,4.100880274710141,12.938290901069191
3654.2642,4.113416601116164,23.41658869451261
3655.1067,4.101670798696009,27.06537992175348
3655.9475,4.066338527803583,17.84891164990491
3656.7886,4.022289991087453,16.07554536898508
3657.6318,3.9918000981753594,37.777265075707746
3658.4734,3.9917345056160647,14.304470778347603
3659.317,4.02290019557544,32.98152549091081
3660.1587,4.070812441443579,29.628371963194546
3661.003,4.116975048318398,15.050761347427642
3661.845,4.149029004268011,26.180179467308506
3662.6875,4.163934336190492,20.04625742359874
3663.532,4.1623189621110415,13.475930247954711
3664.3748,4.14463662761403,19.929600759605584
3665.2197,4.113272410134938,12.906466227611535
3666.063,4.0778069671871995,61.70040810462228
3666.9084,4.054246567678121,25.00738855311775
3667.752,4.057088859283577,14.856134512184735
3668.5977,4.088690253109338,24.349661757167063
3669.4417,4.13612697843293,20.083054634603315
3670.286,4.178511538497635,23.628413468394825
3671.132,4.19790037492471,24.735462912402582
3671.9768,4.18659045693365,12.3259088453126
3672.8235,4.147850959747184,20.334467059146906
3673.6685,4.092432197797802,18.213936209429136
3674.5156,4.033715428087296,23.640871812575153
3675.3608,3.9848907713443205,13.836523243388804
3676.2063,3.95430742392222,26.385821742216905
3677.0542,3.943092662003228,32.279802348781764
3677.9,3.945032455970593,21.712165597363008
3678.748,3.9506845651245848,22.64568500296676
3679.5945,3.9533207122059113,19.945250249967444
3680.4429,3.951885832828492,30.213940166120388
3681.2896,3.9494111598238737,33.970705773634464
3682.1365,3.9499247278774434,42.10870958280902
3682.9856,3.9569454655592193,22.955438442324358
3683.8328,3.972924964935981,17.717626403190106
3684.6824,3.998199684162326,22.53119710014321
3685.53,4.029297503900443,11.615225574290518
3686.38,4.060073720956017,19.87713793441747
3687.2278,4.083743372049567,13.929717908125097
3688.0762,4.095672218840762,23.359975784651244
3688.9265,4.093996567101754,20.569881833746997
3689.7751,4.0801752566105565,16.216660910918083
3690.626,4.058435515590722,13.968198883925474
3691.475,4.03372277996604,22.995370784931914
3692.3264,4.008653846335618,15.264026795672725
3693.1758,3.9836524038992684,20.272981638315866
3694.0254,3.958588323111598,27.965544857310157
3694.8772,3.934379445673519,26.651938944143772
3695.7273,3.9126704727581973,19.645093520698754
3696.5793,3.8950332365269693,22.86657387017226
3697.43,3.8840695554158566,29.38556656161426
3698.2825,3.883215751533267,15.16819578016491
3699.1333,3.894645522618622,26.16233438696991
3699.9841,3.9162728068585033,30.871932425414602
3700.8374,3.9413433086122223,24.84047162036289
3701.6887,3.9611164741166496,13.461696729134168
3702.5425,3.969811372238569,16.57384174420541
3703.3943,3.967055149236187,35.90751398503264
3704.2483,3.95704510442564,19.12883955631478
3705.1003,3.9448863931054134,18.22646321035105
3705.9526,3.9335707702496268,37.72117916651699
3706.8074,3.9238699285267558,21.418586543117307
3707.66,3.9155634909850336,27.17249397758948
3708.515,3.9078071541309733,28.33721918791966
3709.3682,3.899530092792041,25.539398843906476
3710.2234,3.8901034451624525,23.532241150053444
3711.0771,3.8801724578242784,25.227054738099394
3711.9307,3.8708943742879067,18.693920328450027
3712.7866,3.862776533146539,12.794796534373663
3713.6409,3.8555515250416117,21.13253757500503
3714.4973,3.848744903102113,19.560880724411305
3715.3518,3.842118218560929,21.15607162317684
3716.2085,3.8351168987691935,21.690056075044176
3717.0635,3.826801492219026,28.228360134069067
3717.9185,3.816329060823903,22.87854395893605
3718.776,3.80386576272136,40.972477792333784
3719.6313,3.7911143051406864,19.62447574099752
3720.489,3.7806864685781285,35.219163391160436
3721.345,3.7754800287104424,55.69988091053449
3722.2031,3.777935541687167,25.88671385816985
3723.0593,3.789819550113163,19.145002264216053
3723.9158,3.8113058109902145,22.507717644422808
3724.7747,3.8392204373880126,33.17329553636739
3725.6316,3.866038554336398,24.47841431753986
3726.4905,3.883213821866975,20.022451457873924
3727.348,3.885808488813274,24.619719031787483
3728.2073,3.8752203409499155,29.940042859950122
3729.065,3.856845189601359,30.273846827108073
3729.9229,3.8361443180632957,16.11148936416442
3730.783,3.8171555823237564,39.568321628203456
3731.6414,3.802735377769531,20.44951953231939
3732.5017,3.793425708737482,20.870980322171402
3733.3604,3.786515764973596,23.289144165506215
3734.2214,3.7771775374961227,26.748236415938745
3735.0803,3.7626483747868704,35.30481112486699
3735.9417,3.7451157145004728,18.310607844154973
3736.8013,3.730988161349834,27.86090364905254
3737.661,3.7260395835279505,30.311030777719484
3738.5227,3.731056071708155,32.84509107454475
3739.3828,3.7405674375412623,25.713367535789857
3740.245,3.7459364481628645,23.162785078936622
3741.1055,3.7405306340490347,40.21951938860018
3741.9683,3.7239720237060023,27.953428121200684
3742.829,3.7025789317637843,18.184496320410197
3743.69,3.685125723206249,31.840776300379805
3744.5532,3.677589050434635,21.68216250523713
3745.4148,3.6804805819307553,67.36704369564274
3746.2786,3.6901027422548367,20.944564604785686
3747.1404,3.701830650121857,19.19485834681504
3748.0044,3.7126127693276385,23.32785944232599
3748.8667,3.720977118855035,35.69426574802133
3749.729,3.7258260603780418,26.708852712852913
3750.5938,3.7250001910762482,28.229529080143397
3751.4565,3.715646683849297,17.159999237171885
3752.3215,3.696405978792525,23.992773805168827
3753.1848,3.670242792551557,17.687120426995364
3754.0503,3.644951026240908,30.179689104386526
3754.9138,3.630926413130354,47.24651674122188
3755.7776,3.6350944238394383,28.447909809831756
3756.6438,3.655864260702254,30.81529515781436
3757.508,3.6820699838762074,26.812041925106556
3758.3745,3.699027276404754,33.27932875031153
3759.239,3.6967890210047853,24.540095679343874
3760.106,3.6756139591053203,23.567722798312563
3760.971,3.6441845494531764,32.78943451979421
3761.8362,3.6125360758511227,20.94165321801495
3762.7036,3.5863912261551327,38.087566673828455
3763.5693,3.56657901336348,26.263610663113756
3764.437,3.5516937066876717,37.45985951504114
3765.3032,3.541015762112659,29.551432613317353
3766.1714,3.533873535828253,33.662921498686146
3767.0378,3.527866389202787,32.60134142529928
3767.9043,3.5183850146302067,28.8704472347329
3768.7732,3.5011709146804293,26.12252943639523
3769.6401,3.4759336660373337,22.628115741209488
3770.5095,3.44693662012114,33.7883381010387
3771.377,3.420835861656644,29.117279905006395
3772.2466,3.4025736343915276,29.997039932288512
3773.1145,3.394339176087315,23.333369307504146
3773.9824,3.396137811376084,54.73385351075862
3774.8528,3.4074877978650315,42.62165948035632
3775.721,3.428145547705204,17.874247772816744
3776.5918,3.458716438285527,23.86052807649782
3777.4604,3.499410091961854,36.75931946925844
3778.3315,3.548520893875855,39.89100646086471
3779.201,3.599757353337693,20.71254264890683
3780.0703,3.643955442896851,32.18051362453266
3780.942,3.6722866935234886,19.065956656061406
3781.8118,3.6796284331257643,23.910863250471746
3782.6838,3.666609242935312,19.63010898180969
3783.554,3.639519933150469,21.840936061716825
3784.4265,3.6086526218034747,34.12308855667
3785.297,3.585191218088663,34.51688483261713
3786.168,3.5756500225031136,20.17541665156589
3787.041,3.5786609868578636,21.83305343867215
3787.912,3.585998914199475,32.67937673545171
3788.7856,3.588475021957692,26.94620771197985
3789.6572,3.581903455113646,37.13469615393209
3790.531,3.568207604346235,32.48756143636987
3791.403,3.55135188588017,22.042227133075322
3792.2754,3.5325550066178666,25.818859806480106
3793.15,3.5097510156569958,22.609195184702457
3794.0225,3.4807404609351575,33.44030457562421
3794.8972,3.445630493516865,35.1492843608128
3795.7703,3.4078100277668857,33.40399256715904
3796.6455,3.371967700595627,26.724145436203028
3797.519,3.3429416715172717,27.251928901930484
3798.3926,3.323545686420818,30.966183240972846
3799.2686,3.3136997024542483,28.31377408244609
3800.1426,3.310648708473608,29.53869954179263
3801.0188,3.311081038841056,29.238864121797086
3801.8933,3.3141976868347447,42.927695700849526
3802.77,3.3224603491899507,39.71518131083516
3803.6448,3.3387955073294666,42.95147821590829
3804.522,3.363185282851977,23.919878662882528
3805.3972,3.3916700878679036,18.67592407436636
3806.2727,3.4195034568935903,40.65726099637142
3807.1504,3.444104374998122,21.937665752641138
3808.0261,3.4658300076146187,22.175495442320848
3808.9043,3.4872309333516767,31.861843826636335
3809.7805,3.5105745110004376,31.20645671913944
3810.659,3.5364362029707066,46.31881551137205
3811.5356,3.5629069371137034,17.554083492744102
3812.4126,3.5876457437389875,36.548083161731235
3813.2917,3.609335498401999,23.872375628025747
3814.169,3.6268588920040683,27.07617713437467
3815.0483,3.63784837704365,29.487590748870556
3815.926,3.6389652116018456,21.407339476534812
3816.806,3.6292247381396656,22.33432574229239
3817.684,3.6117616804155053,33.512713658357946
3818.5623,3.591455846775585,19.186776938257623
3819.4429,3.570952005119025,32.41573104571254
3820.3215,3.5494471602565794,25.98255133668418
3821.2024,3.5245317089204673,24.49796504338964
3822.0815,3.4956212942299656,18.794965700479153
3822.963,3.4641948556258106,40.600091722285
3823.8423,3.4325823294557867,25.727992336812463
3824.722,3.401751432168668,39.73431603957201
3825.604,3.371601074947948,34.23119119905429
3826.4841,3.342285194312846,33.87505828644889
3827.3665,3.314036975532185,37.31000799076051
3828.2468,3.286846330403133,33.457634047165804
3829.1296,3.259094294906268,35.18183306700706
3830.0105,3.228605232733116,35.32715804946122
3830.8916,3.193696049980723,33.712011918337936
3831.7751,3.1542813905926135,38.07223759454858
3832.6565,3.111502845146505,34.83249093825958
3833.5403,3.0656079182731806,37.21608163109009
3834.4224,3.0169343690509893,32.95134562212325
3835.3064,2.9672146297046593,42.5412467578468
3836.1887,2.9223434577148577,51.51570117459454
3837.0713,2.8908347761459963,26.91350359813767
3837.956,2.880917141344268,33.327401210407345
3838.839,2.89716057255503,44.03318755402016
3839.7244,2.9390306294425357,39.49585688457801
3840.6077,3.0007475295402575,25.937069954162162
3841.4932,3.0730464360274734,49.94661355634013
3842.377,3.14424802159595,29.921934753694366
3843.261,3.204673596518607,25.04415940221757
3844.1472,3.2496636042738656,54.06531794313712
3845.0315,3.281269731871732,26.575421567907014
3845.9182,3.3076807880357597,32.26328586441611
3846.803,3.3383304341706603,24.309413877905943
3847.69,3.3794351800513973,31.672853681881726
3848.5752,3.4302346637596424,46.96171563917795
3849.4604,3.484144501139513,24.241694272016574
3850.3481,3.5323247976199146,29.22686006865029
3851.234,3.5677250295650484,25.2016422827082
3852.122,3.588501966535784,26.857792436705495
3853.0083,3.597208667262447,27.559801678751292
3853.8967,3.5992288120326728,30.08344654378959
3854.7832,3.6002009647644977,25.222781136457343
3855.6702,3.604530716734241,23.44855093115442
3856.559,3.614794138415039,31.069044403233264
3857.4463,3.631236679656549,28.838246917884792
3858.336,3.6512006898336633,55.62543201809346
3859.2234,3.6686980027455256,23.71490967878752
3860.1135,3.67677621321733,17.799861993656485
3861.0015,3.6710878987847764,23.30147324102419
3861.8896,3.653193562195927,19.1218086647828
3862.7803,3.6301419964311,22.613022542600923
3863.6687,3.61082571370234,28.422092653365002
3864.5598,3.600264867538752,37.08466305901709
3865.4487,3.5970131762712447,25.410141061826224
3866.34,3.594620670924404,25.342306333937188
3867.2297,3.586561533423046,27.789105847165153
3868.1213,3.570025763168082,32.58602526848446
3869.0112,3.5467593884915996,18.41658985508868
3869.9014,3.5210113247563806,20.844168523093334
3870.7937,3.496884955798622,57.12209946860657
3871.684,3.4761356042398033,34.052360560428745
3872.577,3.4570177454361537,30.485799875953326
3873.4678,3.436139789986427,29.78716680751014
3874.361,3.4103538465998633,24.943960873608532
3875.2524,3.3783853275799993,29.900660244509815
3876.1438,3.340209495243911,33.5621175634078
3877.0376,3.2966247607031307,26.38853645105279
3877.9297,3.2492998975440295,41.45991157041176
3878.8237,3.199592523347818,44.87172599588461
3879.716,3.1489838589438977,54.71370611949391
3880.6108,3.098552117337419,28.3655537280231
3881.5037,3.050216619717199,31.85695612387034
3882.3965,3.004991664802254,41.38806814941979
3883.2917,2.9615104749148276,39.49116762041774
3884.185,2.9155599586271888,32.556004421599546
3885.0808,2.8608008391371658,30.506889558674867
3885.9746,2.7928781446902367,52.735065474842315
3886.8706,2.7115746985901583,43.390180935082505
3887.765,2.623887959776007,47.82604482515931
3888.6592,2.5418091881299216,50.409541439959824
3889.556,2.4786240256503307,51.3021527787423
3890.4507,2.4442588045367653,74.87690120316896
3891.348,2.4416853840808357,65.85096206756961
3892.243,2.4686805477425375,61.72471649196401
3893.1406,2.520577051854305,52.00384490436545
3894.0361,2.5911877400766796,75.77776660705345
3894.932,2.673314279794133,58.548612169805175
3895.83,2.758499434852398,55.83082365173833
3896.7263,2.8384006497262244,32.1764604809402
3897.625,2.9092873904163,53.236218289953875
3898.5215,2.971790161927923,51.03687950808421
3899.4207,3.0306026362313085,35.744368750012036
3900.3176,3.089806240561453,42.67845537643939
3901.2148,3.151665540550901,28.333309578832207
3902.1145,3.215755852272156,41.21507904111105
3903.0122,3.279269050365908,26.37216487584596
3903.912,3.338906007138629,38.78455226807176
3904.8103,3.3902767602664694,19.28268106220447
3905.7107,3.4295297250612276,27.667941269702474
3906.6094,3.4535990499576075,32.49734899581858
3907.508,3.462500194270281,25.243113597612297
3908.409,3.460414644025816,25.38387370098684
3909.308,3.4555770843039957,32.389543876531654
3910.2097,3.4575338540333957,48.95176506273124
3911.1091,3.473418289981797,27.677520887486786
3912.011,3.5057842858133457,21.931345272253704
3912.9111,3.5521007126549824,29.533569681021703
3913.8113,3.606102140754999,29.249445532004202
3914.7136,3.659265392334416,27.78600076081852
3915.6143,3.702952644916316,31.539537810375492
3916.517,3.732484491062075,22.517371116113733
3917.4182,3.7486158666835405,22.023428455840573
3918.3215,3.7571141605001697,32.76885003203869
3919.223,3.764394379220088,30.018556225658344
3920.1245,3.77342761577155,24.395716985990752
3921.0286,3.7827305627344296,23.5215453597946
3921.9307,3.789422497733336,27.669788959902284
3922.835,3.7935538991241593,31.498809462050524
3923.7373,3.7990602606133863,25.37752520430743
3924.642,3.810465936360037,39.76901996256541
3925.5452,3.8276539556304776,20.46372055005808
3926.448,3.844041088555788,22.885246253319277
3927.3535,3.8500687567408245,21.652859624268007
3928.257,3.839787078811955,17.905849584459936
3929.1628,3.8153242826501708,18.53643987385622
3930.0667,3.7857184210122443,25.133878584944433
3930.9731,3.7609763043054376,25.838977498620192
3931.8774,3.7473775678707497,24.31966641163784
3932.782,3.7453238475083714,32.93163695211068
3933.6887,3.7510876549092447,28.062194547147065
3934.5938,3.7592204038974932,25.088768470656863
3935.501,3.7648850329045294,29.714239747597762
3936.4062,3.7648971608354023,30.638780284482387
