wavl,flux,ivar
3566.9744,1.052655749695201,100.31997345290621
3567.795,1.0467343360336787,75.78889079981252
3568.6177,1.0395880704990552,88.18059815956929
3569.4385,1.0308252144884777,111.45549304912635
3570.2617,1.0205119364007664,68.01713568783961
3571.083,1.0092157872699057,85.64901594535307
3571.9065,0.9976861321283353,134.29354119385175
3572.7283,0.9872725668878858,151.12022001728138
3573.55,0.9795367500853915,106.02102730432274
3574.374,0.97547735362888,129.216179725214
3575.1963,0.9748940475507769,154.59367251297263
3576.0208,0.9767340432931123,64.4555056411373
3576.8435,0.9800566462386402,123.25973344783968
3577.6682,0.9844425531630092,122.86838657296387
3578.4915,0.9895597009379393,86.83786626443762
3579.3145,0.9947960567116275,59.35533676239263
3580.14,0.9993366195191388,153.50220157944045
3580.9636,1.002524870943766,90.44762918140013
3581.7893,1.004172907697956,69.93276256450137
3582.6133,1.0043986247405006,114.66466556313662
3583.4395,1.0034649665949746,89.80238740034127
3584.264,1.00177519177559,77.2156598217458
3585.0884,0.9999934394124602,134.7932092212131
3585.915,0.9989616552339855,82.53934613193084
3586.74,0.9992314588839238,126.52795513969058
3587.5671,1.0004916506487993,73.62416556950781
3588.3923,1.0015006337561814,95.75017155426768
3589.22,1.0007951529408539,79.49115037682037
3590.0457,0.9977313658946398,114.66639340996872
3590.8716,0.9930670468378526,87.24009026854569
3591.6995,0.9885818033251602,119.36482948273809
3592.526,0.9860214206253225,94.04788682366538
3593.3542,0.9859523000799232,97.14970533162922
3594.181,0.9874132647955455,80.8486627352094
3595.0098,0.9884739405212299,79.44760940716255
3595.8367,0.9874089733970574,70.90519245724562
3596.6638,0.9837403087550323,69.0035272001367
3597.4934,0.9783743206233907,117.87842200644859
3598.3208,0.9729336242678287,153.48444141387154
3599.1506,0.9686685944566539,83.71055393892675
3599.9788,0.9661158623951438,100.74754023334634
3600.8088,0.9652693699548659,98.34825975883649
3601.6372,0.9660689476115474,90.54624386544539
3602.4678,0.9684720183437788,101.09401158161148
3603.2964,0.9721855780016504,117.10947980901287
3604.1252,0.9764966627657617,194.11381176731498
3604.9565,0.9802796915767289,85.32952112114938
3605.786,0.9821082468926067,120.47736088660096
3606.6172,0.9806154762974185,192.38450864024043
3607.447,0.9751232130351897,95.68510887666716
3608.2788,0.966443533328097,79.42344041554212
3609.109,0.9571763968031608,167.8444486950507
3609.9392,0.9505917163453497,143.71591632462037
3610.7717,0.9489808538041845,107.06417037081083
3611.6023,0.9524660428504372,122.97320557991334
3612.435,0.9592459307676378,134.7250737662009
3613.266,0.9668489878379231,260.3913589279285
3614.0994,0.973447820096653,116.70269377941618
3614.9307,0.9780603226248556,164.57234549811153
3615.7625,0.9802688992796708,83.67932820262043
3616.5962,0.9797900820166242,101.15930142538376
3617.4282,0.9767014609247201,78.45019561818658
3618.2625,0.9718253134836293,87.72191604013592
3619.0947,0.9666306325532187,134.7367332921785
3619.9292,0.9622516622850615,101.90652730687168
3620.762,0.9587043625239535,82.12167636340634
3621.595,0.9548706720654317,92.28334896795938
3622.4302,0.9494923958639275,87.1656835785989
3623.2634,0.9422199282600735,119.4949019001811
3624.0989,0.9337927204214078,129.58701019311758
3624.9326,0.9257038352345973,146.16012272123135
3625.7686,0.9193202075386618,120.23639179160926
3626.6028,0.9155072681359736,101.91778466987917
3627.437,0.9144095151673826,101.01147890472717
3628.2734,0.9156500841507222,124.86858184589559
3629.1082,0.918399531830655,257.26560830124004
3629.945,0.9214280094284216,83.35133131660875
3630.78,0.9232382335394423,79.69652765979079
3631.6174,0.9225696649706671,90.61622582525729
3632.453,0.9189265333233856,124.16739404976741
3633.2883,0.9127748815065873,207.45643608550515
3634.1262,0.9050998635000501,103.38509832762868
3634.9622,0.8968371899801815,114.39909660712186
3635.8005,0.8885257251528992,75.63582270549325
3636.637,0.8808669024398914,127.32783546950031
3637.4756,0.8748191991752624,71.59325386125833
3638.3123,0.8713144880723508,129.30262833390879
3639.1492,0.8705648589412721,123.42158099327165
3639.9885,0.872215085284177,124.1492520106969
3640.826,0.8758444909873377,152.4296499748803
3641.6653,0.8811377585762316,158.93020706161704
3642.5032,0.8873603338066101,116.35252794100575
3643.343,0.8931869180743303,113.46390604162497
3644.1812,0.8971623087375439,148.2602842508518
3645.0195,0.8986508761349632,122.60216294802076
3645.86,0.898053425757485,93.34741605571571
3646.699,0.8963150412059331,136.17192173826442
3647.5398,0.8941903649608993,141.803532714807
3648.379,0.8919805397267624,136.3654384042715
3649.2202,0.8897324364304662,103.51101769761418
3650.0596,0.8876326847164918,143.9807598090746
3650.8994,0.8860222413264279,113.86787830867752
3651.7412,0.8851060833964172,100.12909704867208
3652.5813,0.8845708868315122,135.32790815371249
3653.4236,0.8835342620995968,150.17962688326284
3654.2642,0.881063893817437,137.5849064902442
3655.1067,0.8769239649875786,191.66765485846116
3655.9475,0.8720058848562455,81.08480949362475
3656.7886,0.8677970464568562,167.19331690520343
3657.6318,0.8654080272268021,170.357073333854
3658.4734,0.8649201121660564,188.73255947775428
3659.317,0.8655687085082348,110.22682872347575
3660.1587,0.8665092283984546,92.96212959048586
3661.003,0.8673440352477666,232.738338002047
3661.845,0.8680597157951069,191.975018090169
3662.6875,0.8687210530472503,114.9024411488799
3663.532,0.8692823991366101,106.9585850811745
3664.3748,0.8696020913287887,113.81013505885478
3665.2197,0.8695265312559527,125.69997739808497
3666.063,0.8690188258046023,155.4137363570556
3666.9084,0.8683030827840006,152.00719622280647
3667.752,0.8677708397046542,99.50908794574414
3668.5977,0.8675482711952732,139.38559010879544
3669.4417,0.8672418887013743,205.89572164764243
3670.286,0.866296771587412,140.17498784085765
3671.132,0.8646135793945355,140.33388372012072
3671.9768,0.8625997778276181,145.05196968807766
3672.8235,0.8605245102645699,182.83738093804595
3673.6685,0.8581685735278554,105.4058726597576
3674.5156,0.8552444461939165,143.18429344281714
3675.3608,0.8521661912465648,143.13530236594016
3676.2063,0.8500105700512091,217.40071729790753
3677.0542,0.849717435576596,96.52852147254299
3677.9,0.8512564196736451,152.328943058578
3678.748,0.8536398074267517,149.72190686156728
3679.5945,0.8556598783801408,156.7563962120848
3680.4429,0.8566135940261564,88.9320143259643
3681.2896,0.856325922106201,124.0866565796996
3682.1365,0.8547795521329731,144.57198117259884
3682.9856,0.8518123210873081,203.8097135639413
3683.8328,0.8472206175567598,110.52643306247263
3684.6824,0.8409642599229402,193.86831907577982
3685.53,0.8334718702155435,134.50918003451926
3686.38,0.8255203040301002,100.32759746848475
3687.2278,0.8181668733466106,152.28486281149384
3688.0762,0.8123198686326805,97.12323240228295
3688.9265,0.8085792739209712,180.79590444510518
3689.7751,0.807137983876082,176.60802431923943
3690.626,0.8078268178245303,197.8041798146627
3691.475,0.8103673150967998,108.15752861214403
3692.3264,0.8145495915142323,157.3407880225266
3693.1758,0.8200410083880397,234.03597507683975
3694.0254,0.8260707854068594,136.93057611728906
3694.8772,0.8313217780463966,105.2930127167656
3695.7273,0.8344964894061675,125.8390470928886
3696.5793,0.8352662006054442,146.50467544608847
3697.43,0.8344772513744914,185.43908395519082
3698.2825,0.8335213597694079,138.54080644578892
3699.1333,0.8333945360343099,201.33222753237422
3699.9841,0.8342242948327369,134.0288483400305
3700.8374,0.835475168079956,184.38012781669056
3701.6887,0.8364171810584081,116.57591852142987
3702.5425,0.8365200489534456,150.59180684821993
3703.3943,0.835531661721082,128.62571065408773
3704.2483,0.8334003475543416,176.90676643985302
3705.1003,0.830251557546056,150.8372257012914
3705.9526,0.8263748284208,134.31348288763616
3706.8074,0.8221602795329761,215.198685728398
3707.66,0.8179649273765869,161.90896739610113
3708.515,0.813999849320363,139.38060654943004
3709.3682,0.8106474843600304,128.26344942814447
3710.2234,0.8085293310082065,131.5813141893602
3711.0771,0.8081783185764517,174.07221152432936
3711.9307,0.8093287059465899,161.10942717608688
3712.7866,0.8107647487160741,120.59856798711644
3713.6409,0.8109269440695432,102.26207153772319
3714.4973,0.8087493265825005,183.70465920585195
3715.3518,0.8039611513413594,167.56353565220516
3716.2085,0.796864522177702,114.75118150570948
3717.0635,0.7882951310636108,162.1328514894837
3717.9185,0.7795393939375992,177.23370935982396
3718.776,0.7721657719410603,124.26843831352824
3719.6313,0.767519741671681,145.84070621210512
3720.489,0.766028050476134,242.17695200640847
3721.345,0.7671640187803087,192.62981994098206
3722.2031,0.7698164622142837,155.90626338503435
3723.0593,0.7728625417261994,126.2193568683026
3723.9158,0.7755162314721806,243.2836290641839
3724.7747,0.7772455957916039,123.20586391411528
3725.6316,0.7776755567160067,136.71988759157244
3726.4905,0.7768131961790176,130.96371458029176
3727.348,0.7753252419135274,201.79835664820263
3728.2073,0.7744071985034576,149.91601828954325
3729.065,0.7751539531457148,172.64136165326207
3729.9229,0.7778806398885798,243.9794954421202
3730.783,0.7819694147788183,188.31198996021732
3731.6414,0.7861404916567337,145.43757967298893
3732.5017,0.788999403928291,158.61710682784872
3733.3604,0.7894272337954481,124.08617838976028
3734.2214,0.7869762089186816,153.21184490484353
3735.0803,0.7820473040123019,168.54919705726053
3735.9417,0.7757120045313742,128.97921731179778
3736.8013,0.769432827265043,154.788161080234
3737.661,0.7645589822538587,210.24137634879733
3738.5227,0.7620655042870171,218.27484037090716
3739.3828,0.7623323205670435,222.14642058382057
3740.245,0.7649516726888155,235.16825113129698
3741.1055,0.7687679033373902,234.34558117750987
3741.9683,0.7723249646610747,163.30497332662313
3742.829,0.7744413369611488,194.00487631483904
3743.69,0.7746878590295672,205.40153228699344
3744.5532,0.7732339854050684,197.9674777181119
3745.4148,0.7704886253440203,202.86650269672407
3746.2786,0.766882730418659,195.1058436905977
3747.1404,0.7630261571288932,125.89024880110422
3748.0044,0.7596990998061101,164.32239080595676
3748.8667,0.757615843741145,100.78255592594866
3749.729,0.7568677809905456,196.1103528668878
3750.5938,0.756728491965611,169.03343382575832
3751.4565,0.7560655391672026,128.4243775468935
3752.3215,0.7542767087934861,155.60153309079058
3753.1848,0.7520572879010783,196.08649236225605
3754.0503,0.7511215368426893,189.81249804505447
3754.9138,0.7529084955121423,171.6755901635691
3755.7776,0.7571938911057403,130.95715393430493
3756.6438,0.7619567736545426,110.85679671686735
3757.508,0.7646195051369995,165.99083110724916
3758.3745,0.7638025534955475,188.88109928544924
3759.239,0.7600107827266238,173.1062659469423
3760.106,0.7550162726183202,143.95184040972842
3760.971,0.7506990813877873,152.50118053306738
3761.8362,0.7480556453695725,174.85691336886413
3762.7036,0.7470549673995645,181.39166689604846
3763.5693,0.746985743073639,200.7626086826364
3764.437,0.7469595509967228,200.47087197731216
3765.3032,0.7462942878257272,198.2347676181526
3766.1714,0.7446712834589683,214.88903924128374
3767.0378,0.7421866894115549,160.27613739104913
3767.9043,0.7392842953701628,167.08110896803544
3768.7732,0.7365937218385451,167.67191094540567
3769.6401,0.7346879202897197,202.70166702862082
3770.5095,0.7338136493756572,211.55558401959863
3771.377,0.733887433845663,183.68682455044964
3772.2466,0.7345699647349948,197.40544021719725
3773.1145,0.7353309385350978,164.72481320910248
3773.9824,0.7355074259100385,195.58208107318194
3774.8528,0.7345553372914897,186.9838269426492
3775.721,0.7325327664157045,176.31430428875973
3776.5918,0.7303229207401668,171.96868068514758
3777.4604,0.7292849050156167,210.1809719710091
3778.3315,0.7304205799499036,146.69328475488913
3779.201,0.7338341859523083,159.75247630559414
3780.0703,0.7387858871379461,182.2468148694811
3780.942,0.7441101287017255,219.1736526990422
3781.8118,0.7485143350194113,110.4589501568901
3782.6838,0.7508475299921457,214.87801298277674
3783.554,0.7501960348446366,156.36169372656903
3784.4265,0.7461544800610665,151.19277882785397
3785.297,0.7391202397732693,196.5663926783968
3786.168,0.7303886268902575,153.15235140617403
3787.041,0.7219866405041994,166.0950395934254
3787.912,0.7161046336669074,235.547295137974
3788.7856,0.7140280159277068,259.8973354747784
3789.6572,0.7154960089842772,216.77471523379077
3790.531,0.7186939174283202,188.38240128182605
3791.403,0.7211847451122931,208.50786007684326
3792.2754,0.7211853376570043,145.69680693602803
3793.15,0.7182280027522734,150.7442094119295
3794.0225,0.713021265088996,203.8940474361998
3794.8972,0.7067054329906932,259.5712437786629
3795.7703,0.7003687919644893,200.02926779460338
3796.6455,0.6947459555922767,311.63510945669077
3797.519,0.6903381701394788,206.42956552637526
3798.3926,0.687371679968177,170.29790183443976
3799.2686,0.6859047818492879,271.55443009976653
3800.1426,0.6858839500984046,191.2346690921286
3801.0188,0.6871308561799193,244.30650582154476
3801.8933,0.6893311232104261,235.7537484064086
3802.77,0.6920868560847137,179.05025079132278
3803.6448,0.6949501442644479,169.4195271779105
3804.522,0.6975301343979387,210.43166891495773
3805.3972,0.6995391148884446,176.34790888404982
3806.2727,0.7009725290188354,375.76496438203833
3807.1504,0.7020458971555341,259.0757632636873
3808.0261,0.7028913954671839,217.39084210390754
3808.9043,0.7033343935013125,220.13883159736142
3809.7805,0.7030742557506734,170.77209720121493
3810.659,0.7021498971400802,204.62811290797725
3811.5356,0.7011153197636649,179.13806724767062
3812.4126,0.7007028630412618,296.8565905605949
3813.2917,0.7013643909360034,231.74357951215242
3814.169,0.7030342887044903,190.1606273575508
3815.0483,0.7051884823665245,194.5741367352442
3815.926,0.7069951155463325,168.4717270772872
3816.806,0.7076218193355639,174.5414794335401
3817.684,0.7065457154365562,188.10650269279904
3818.5623,0.7037803540434332,240.07598428009155
3819.4429,0.6998016788411417,194.13697854440042
3820.3215,0.6953426372965846,155.5360655237265
3821.2024,0.6910428137011749,272.07089130036707
3822.0815,0.6873316755810733,210.3134101350135
3822.963,0.6842816404864347,179.1343205611305
3823.8423,0.681748602449655,168.85155915734288
3824.722,0.6795401022043803,187.8910087937357
3825.604,0.6776514938265834,183.379138585163
3826.4841,0.6762329783710312,212.63406619828746
3827.3665,0.6752452405616016,234.6016053331554
3828.2468,0.6742299826199298,187.8728772598733
3829.1296,0.6724211296959883,253.87222428658572
3830.0105,0.6692515013445639,248.73186629713837
3830.8916,0.6647480592525165,240.54427852928237
3831.7751,0.6595486314225216,240.80374057378873
3832.6565,0.6545604260971815,257.4017271870084
3833.5403,0.6503830647830636,343.9999268431581
3834.4224,0.6471775176611682,268.1307016994348
3835.3064,0.644697548846533,303.0920304480204
3836.1887,0.6426351068189543,208.37134494691824
3837.0713,0.6408541271377413,190.64548952824117
3837.956,0.6395780301335738,199.71864682271604
3838.839,0.6393922832282212,182.80910002444332
3839.7244,0.6409804635548831,244.8782234336428
3840.6077,0.6446452863113936,268.0939778703467
3841.4932,0.649910075861995,312.45831327236783
3842.377,0.6554362738054546,288.6369039258182
3843.261,0.6596410138518076,200.6339542221303
3844.1472,0.6615183300332086,194.85197642379546
3845.0315,0.6613132809130333,251.41561204651836
3845.9182,0.6605175117413203,201.58525653070296
3846.803,0.6609847614105584,232.21767630368984
3847.69,0.6637140982601679,329.2315704611299
3848.5752,0.668182686004811,242.20907089164362
3849.4604,0.6728659952348979,246.5455054245245
3850.3481,0.6764579737249178,271.03442464534254
3851.234,0.6787456351192981,208.67586854691115
3852.122,0.6804823276988089,236.30733463266202
3853.0083,0.6823117245217458,258.2475440376098
3853.8967,0.6839836168319131,191.98590669396785
3854.7832,0.684476136187598,249.2233600072558
3855.6702,0.6829387976895307,257.4975431593288
3856.559,0.6794707691509415,170.87618085946997
3857.4463,0.6752263934914865,236.64910612184997
3858.336,0.6717544168137422,206.92150435934514
3859.2234,0.6702627258796439,238.16210199434911
3860.1135,0.6710353244624847,205.8702847704055
3861.0015,0.6734192497900259,244.70274730973975
3861.8896,0.6762223244746607,249.10504438086977
3862.7803,0.678284971656808,199.99130399171585
3863.6687,0.678880740037242,320.3567000972345
3864.5598,0.6778459770560344,155.98065882915915
3865.4487,0.6754389786651913,187.2128660716729
3866.34,0.6721307196505364,255.54165406229663
3867.2297,0.6684415414818984,258.06350182636635
3868.1213,0.6646550905759447,180.51569812346656
3869.0112,0.6607328537241708,196.47890484051322
3869.9014,0.6563600377463329,182.48966937876477
3870.7937,0.6512837804728724,215.30587965306728
3871.684,0.6456563323831441,308.04358500456743
3872.577,0.6400010176910348,290.71996672160105
3873.4678,0.6350681147004239,226.2798686293723
3874.361,0.6313628131181298,249.55190977037466
3875.2524,0.628998700333107,259.91497364096983
3876.1438,0.6276361210061706,195.8401631988774
3877.0376,0.6267028349369882,290.2091016964871
3877.9297,0.625644470763837,234.68665810191675
3878.8237,0.6241399547548124,296.91924395319415
3879.716,0.6221909716607841,248.3206095818565
3880.6108,0.6198938550820007,201.75437223521686
3881.5037,0.6171344836148697,297.17735355154934
3882.3965,0.61340423832952,242.5302873080792
3883.2917,0.6080420847528305,355.3292829354001
3884.185,0.6007690852816806,261.16790186777496
3885.0808,0.5919679276125566,242.37572899298556
3885.9746,0.5828252796233822,286.1835960376616
3886.8706,0.5747649515277884,320.77097743584636
3887.765,0.5690443335094266,423.5314642761019
3888.6592,0.5662737786522354,242.7694970304866
3889.556,0.5664729061810724,286.0080317752413
3890.4507,0.569174677744483,487.7895004313527
3891.348,0.5735553589842378,300.3824039617681
3892.243,0.5785477964989287,251.7004037713637
3893.1406,0.5831914384115687,273.73779802837043
3894.0361,0.5868028025182964,264.07418658321836
3894.932,0.5891547167077833,260.2920739653686
3895.83,0.5903398219246766,227.669366014591
3896.7263,0.5906795615709868,291.3591665212662
3897.625,0.590749874699744,312.2734487502585
3898.5215,0.5914190555110606,276.9890292811114
3899.4207,0.5937371708282531,383.4157436083352
3900.3176,0.5984730878679738,427.97508489857705
3901.2148,0.6056039129382313,319.6085714327496
3902.1145,0.6141534801377132,257.95562643806204
3903.0122,0.6226135392540917,222.82877456524315
3903.912,0.6299219169015962,256.835711717028
3904.8103,0.6357735067634533,214.93463525917355
3905.7107,0.6404954230067165,255.86821456205266
3906.6094,0.644361759674537,243.9451187864105
3907.508,0.6473478799681609,205.55328409450757
3908.409,0.6492030168150694,220.08792645028512
3909.308,0.6497523894817786,230.75162474467797
3910.2097,0.6491858467006305,226.53455198396705
3911.1091,0.6481770275940506,201.69455220589032
3912.011,0.6477742694435142,203.92581118964026
3912.9111,0.6489741148839858,340.0700103505283
3913.8113,0.6521085847924235,190.26760376304196
3914.7136,0.6565728588112825,186.95133088034132
3915.6143,0.6611177913825059,198.18622461845123
3916.517,0.6646434331261538,239.1391946254785
3917.4182,0.6666536078416219,273.60393849398145
3918.3215,0.6673264582957485,223.87535579278565
3919.223,0.6671826022554767,189.21814129379314
3920.1245,0.6668276748907295,290.93074516309434
3921.0286,0.6667791241619253,169.91343921441228
3921.9307,0.6673117209095256,273.81278463802647
3922.835,0.6682915634414083,179.59753589090099
3923.7373,0.6691156243698984,234.04468835922034
3924.642,0.668919100683201,210.49924357115592
3925.5452,0.6670100678067847,189.59213530766192
3926.448,0.6633525408553971,217.53148481868243
3927.3535,0.6587053258454444,266.2190723638855
3928.257,0.6543234638575383,242.36724000390493
3929.1628,0.651201855478385,246.5863855914239
3930.0667,0.6496077730634453,231.73175884117364
3930.9731,0.6489380967951193,240.20012550788047
3931.8774,0.6480867235560539,275.1716938792864
