wavl,flux,ivar
3566.9744,0.2292477762383058,1552.2902591509132
3567.795,0.21949196086618447,2498.975151153908
3568.6177,0.21249065411596438,761.6775858703102
3569.4385,0.206276115612902,369.8836164312943
3570.2617,0.1996735799506842,651.2224560565867
3571.083,0.1939362511174916,1524.1440343373877
3571.9065,0.19164773959501058,158593710.09293035
3572.7283,0.19453790957154168,9217.070431511289
3573.55,0.20218067096111042,2055.2721281991303
3574.374,0.21273535352940282,294.97474080606213
3575.1963,0.22421134117470531,10290.697287154133
3576.0208,0.2352029955810325,192.18219166191847
3576.8435,0.24423037141696982,4236.496222723138
3577.6682,0.24946606258295745,257.61424306261324
3578.4915,0.24894116603712127,196.7106911904825
3579.3145,0.24168644249620816,279.0929918531977
3580.14,0.22858594969747426,1197.8126066367997
3580.9636,0.2127189468886851,324.903025950026
3581.7893,0.19818256009306018,476.5273470119017
3582.6133,0.188463106573774,7247.51785057594
3583.4395,0.18438204118437995,1532.2428840200118
3584.264,0.1839101858914867,8922.769583984671
3585.0884,0.183869457666585,272.9478629328969
3585.915,0.18269100376677896,448.7673658474515
3586.74,0.18170966344088096,843.7102248237688
3587.5671,0.18389560162057414,2043.9054027088916
3588.3923,0.19132560189367676,619.776591077607
3589.22,0.20378258222433643,504.48131759625807
3590.0457,0.2190560057926032,1225.3679923384705
3590.8716,0.23449099512400354,508.055838177973
3591.6995,0.24780739275525435,2625.2595800898644
3592.526,0.2573997873615884,649.0107432094063
3593.3542,0.2629409024915704,335.4940930849404
3594.181,0.26563711827459163,474.98145951906486
3595.0098,0.26789076648331334,34178.35839945464
3595.8367,0.2717148117936675,493.8402524373022
3596.6638,0.27738522063332527,313.32300697242454
3597.4934,0.2835340082778541,498.84027719799235
3598.3208,0.28852637578333806,337.54210836151793
3599.1506,0.29179575989029966,2150.497840297422
3599.9788,0.29356260297831444,345.3312012344262
3600.8088,0.2938395092696517,803.1632685011513
3601.6372,0.2919109360374147,646.885660196982
3602.4678,0.287056084390878,194.95186374851653
3603.2964,0.2796370044609424,574.2200182831346
3604.1252,0.27112359286314913,1180.4348198897783
3604.9565,0.2631557031248297,152.36741917089364
3605.786,0.25657247809877776,146.40480004946977
3606.6172,0.2509512560888849,1724.0828306897038
3607.447,0.2451919681843939,18730.051535089544
3608.2788,0.23839879672477735,782.5384240296237
3609.109,0.23107996198742553,684.1395216347253
3609.9392,0.22530467797906836,816.6801423603706
3610.7717,0.22349533337080038,1969.7851911750288
3611.6023,0.22646169521306841,314.8871644291525
3612.435,0.23266814050445217,443.0149725267937
3613.266,0.2394923992620941,945.7266645050468
3614.0994,0.24522260034018786,766.92682161425
3614.9307,0.24946533327235504,338.50093637343514
3615.7625,0.2520592925343517,440.92781354235626
3616.5962,0.25177568879574824,522.6708290789453
3617.4282,0.2468083028094659,297.88032170165144
3618.2625,0.23676461171502622,254.03027635178492
3619.0947,0.2243819739527113,395.3745111434749
3619.9292,0.2146629822514108,7216.536579606984
3620.762,0.21223709027052257,2631.0500705847353
3621.595,0.2184476431152088,465.7647142750992
3622.4302,0.23100029905687267,366.3159274875009
3623.2634,0.24569195518179107,578.078045820067
3624.0989,0.25924732465259226,154.650716177676
3624.9326,0.2705523377257264,188.775002976182
3625.7686,0.2804786030323427,412.4094325424954
3626.6028,0.28984438259448697,395.1828913490354
3627.437,0.29786082738063785,156.33557207007976
3628.2734,0.3018850939916783,327.31107185051997
3629.1082,0.29892914037841994,163.9279860340085
3629.945,0.28766903418240825,494.49170334562297
3630.78,0.2696431489443457,177.40957705144808
3631.6174,0.24883270309162242,509.51783268266615
3632.453,0.23055101497842206,921.8900100627469
3633.2883,0.21890130912777744,6822.75617993722
3634.1262,0.21524772362490552,2337.5288554476488
3634.9622,0.2181141690059686,175.79158924584524
3635.8005,0.22473549023122621,2609.770090032257
3636.637,0.23292856111465876,561.4046202626978
3637.4756,0.24209204229852754,137.20845018316783
3638.3123,0.2526109306651489,1273.2786388271948
3639.1492,0.2647550634990851,246.49326915342726
3639.9885,0.2775070499812453,542.8765355640061
3640.826,0.28841672507289356,520.7253544544168
3641.6653,0.294993032483083,224.842246584783
3642.5032,0.29590932055225083,298.72659806055356
3643.343,0.2916055432848059,263.02432308180363
3644.1812,0.2837739212328542,512.8294435207428
3645.0195,0.2744607656870634,121.18158726522067
3645.86,0.26535658079238517,279.9966648002365
3646.699,0.25741784867327594,489.1708020942681
3647.5398,0.2506883083860317,206.57308971745942
3648.379,0.2449487232689579,1756.371775615001
3649.2202,0.24032368356717743,1211.7181239620136
3650.0596,0.23771340079392153,333.779218343444
3650.8994,0.23836903784410562,114464.13537751105
3651.7412,0.2432288659962841,249.4681909010986
3652.5813,0.25218939177183286,354.79351339206323
3653.4236,0.26397606540792923,1131.3165314095213
3654.2642,0.2763577360560124,188.41258186687443
3655.1067,0.28717492513270515,1761.8272499375498
3655.9475,0.2950017472403879,337.4101816114803
3656.7886,0.2997208807794251,399.8326407531062
3657.6318,0.30222637629131044,214.1816848998958
3658.4734,0.303847925987372,210.66112313420308
3659.317,0.3057435792246556,413.83467005889923
3660.1587,0.30838040905172387,298.1182234820123
3661.003,0.3114022631843115,268.8452548146581
3661.845,0.313832527623879,346.23391297281506
3662.6875,0.31476793132637976,188.01330928507826
3663.532,0.31402342347102885,1250.6687494603207
3664.3748,0.312417641919482,449.38026064577605
3665.2197,0.3113265411562816,203.96108614952655
3666.063,0.31174630828082595,9100.720374665802
3666.9084,0.3134296554281184,141.50184131135
3667.752,0.3148643605584154,794.3580950142261
3668.5977,0.31434681243159907,214.2371896954847
3669.4417,0.3114079121425954,235.86429008253214
3670.286,0.30740725450075324,212.96865810084438
3671.132,0.30457829834315503,12595.234260167686
3671.9768,0.30423107834981716,937.2563742202831
3672.8235,0.3056589310384818,2093.7798022009606
3673.6685,0.3068493279062723,363.5883477855191
3674.5156,0.30614223962032583,375.9467185109924
3675.3608,0.30311790697880103,216.33007711528077
3676.2063,0.2981214723598154,271.03172984614946
3677.0542,0.2914771084792241,241.6892665354104
3677.9,0.2835797996379839,2538.2259596770823
3678.748,0.27526698720973436,582.7960323954624
3679.5945,0.2680081772283312,248.23333035160687
3680.4429,0.2631306404901394,741.4642864688933
3681.2896,0.26128635259431543,340.0158350197282
3682.1365,0.26214126783155345,483.4159684001941
3682.9856,0.2645722715473952,194.86221445379556
3683.8328,0.2669833866187674,15957.287648925067
3684.6824,0.26782876408841894,432.409249338482
3685.53,0.26611242363313214,434.7295965453535
3686.38,0.2619199309529816,175.47710326035505
3687.2278,0.256807724998948,220.8407995623093
3688.0762,0.2535241095421804,593.6593856750633
3688.9265,0.25496100845333036,968.3103521018743
3689.7751,0.2625337503683097,561.4554139106091
3690.626,0.27525324384729644,374.55890671474765
3691.475,0.29003263100273724,335.84533751507206
3692.3264,0.30346558646792793,1362.4856258071695
3693.1758,0.31321437413235603,288.19075521219565
3694.0254,0.31889803230834407,170.0824617730078
3694.8772,0.321396946873822,980.4310459465406
3695.7273,0.3217678511421249,770.6348731595399
3696.5793,0.3206767386840623,411.108391686211
3697.43,0.3187502479574322,167.18176602880442
3698.2825,0.31714294366262846,225.5252858729976
3699.1333,0.3172978923809274,1931.8884538035818
3699.9841,0.31985833636108657,340.31353622682605
3700.8374,0.32389880612267063,216.1162865157371
3701.6887,0.3270992944266004,358.9098138507796
3702.5425,0.32677436171090923,535.4466677863875
3703.3943,0.3208817228772386,224.16901342564145
3704.2483,0.3088474113756023,156.7692570401938
3705.1003,0.2922496970429998,874.4051671538531
3705.9526,0.27449008045886164,610.4542365872705
3706.8074,0.2596495854026309,495.89108213853
3707.66,0.25087153779660354,40186.52690481627
3708.515,0.2491125585913955,247.5426704863394
3709.3682,0.2537600701252149,1787.2729092881489
3710.2234,0.26372748942329477,386.7458963309013
3711.0771,0.27796958642567005,1011.9134191562714
3711.9307,0.2952115671518862,3462.0431139770612
3712.7866,0.31346072940670167,605.8141570740629
3713.6409,0.3300064921572027,341.644310276393
3714.4973,0.3424820417375231,1319.8809959417913
3715.3518,0.34922327099418765,288.2989278405812
3716.2085,0.3496066118820741,120.56138563362762
3717.0635,0.34354234017075086,355.0645620703305
3717.9185,0.3310393677715419,224.50576859695283
3718.776,0.312227881691768,195.6418853142764
3719.6313,0.2885991951290502,393.5475516737575
3720.489,0.26370146107862547,554.6404453131958
3721.345,0.24313102771733808,5047.03492998905
3722.2031,0.23196942642629148,789.4487521231038
3723.0593,0.23270601132264568,6121.649049901722
3723.9158,0.2440222246160688,2480.1845923711267
3724.7747,0.26173261420314253,314.17603453999936
3725.6316,0.28034742091399356,924.4728057830923
3726.4905,0.29548987131394105,429.0112717030906
3727.348,0.305232518030145,170.5985941691425
3728.2073,0.31057017112859076,221.88746672661975
3729.065,0.31366679138422676,861.534418541992
3729.9229,0.3155467762826191,213.48606932606305
3730.783,0.3148369885066458,234.81342540226535
3731.6414,0.3087676589409957,201.8900392478672
3732.5017,0.29523847137205467,378.19394811924656
3733.3604,0.2745028202973279,142.76605368776558
3734.2214,0.24931326832376768,329.21269522252743
3735.0803,0.22470692960733982,938.5637517072769
3735.9417,0.20614164248846767,1822.2138367966368
3736.8013,0.19813549363516048,37926.124858638344
3737.661,0.2024392094531934,904.3853612753945
3738.5227,0.21779837985268963,7996.843536698791
3739.3828,0.2401722629448416,332.384037943475
3740.245,0.26405446122417014,154.46726363952044
3741.1055,0.28357971208051397,753.8005549025239
3741.9683,0.2945129099424506,261.69961388194116
3742.829,0.2950593914669587,523.8263268657599
3743.69,0.2863130886160585,379.40860454457504
3744.5532,0.2712993951882262,344.38865923218606
3745.4148,0.25387264226276013,2133.293945846922
3746.2786,0.23720267036544507,840.6405216755413
3747.1404,0.22330973729932177,109542.94583836372
3748.0044,0.21283837671144534,497.21869051571446
3748.8667,0.20629363552617083,951.7022330139303
3749.729,0.2050676914086023,9267.874660772104
3750.5938,0.21161304417444537,2592.4225438134727
3751.4565,0.2275789369525657,1222.9853645402989
3752.3215,0.251865106435084,508.91250342574773
3753.1848,0.2801159463322283,499.47839636749717
3754.0503,0.3070144805309377,267.1608676878112
3754.9138,0.3278457926693352,254.00247848416532
3755.7776,0.33950869059623007,155.27310698342825
3756.6438,0.34007090049337857,216.53890034216602
3757.508,0.32965298162679174,185.6722200369662
3758.3745,0.3118634463361894,177.50339591650913
3759.239,0.29384800979818293,445.51616426485697
3760.106,0.2829334959699202,1170.5245536862258
3760.971,0.28267268112026883,2194.7682534589458
3761.8362,0.2908364941842859,220.77499539193997
3762.7036,0.30178558290495516,225.17023747407188
3763.5693,0.31044107669965953,453.2983311556255
3764.437,0.3149676565702476,188.44006977477036
3765.3032,0.3160639452433652,1212.8859402582839
3766.1714,0.31492317347574417,139.65396906257274
3767.0378,0.312048285260543,262.6815290095441
3767.9043,0.30770768022093264,195.46743460829748
3768.7732,0.3026563232821446,1526.9929025241493
3769.6401,0.29815553467887745,275.8702356504658
3770.5095,0.2955711507836587,292.8447974651233
3771.377,0.29642106623566816,189.59741982138877
3772.2466,0.30203526324656493,4384.600708307025
3773.1145,0.3124718878592074,2552.442176451845
3773.9824,0.32573464310457356,170.15533256150485
3774.8528,0.3384600631347164,204.8520050932857
3775.721,0.34775016921657004,166.24913370091537
3776.5918,0.3529808081979581,164.39757357346787
3777.4604,0.3556165242070171,267.4600914534684
3778.3315,0.35814146582407336,109.74177688144822
3779.201,0.36265715097555373,319.81539540460597
3780.0703,0.37011227134269264,848.1378017365328
3780.942,0.38001838982752423,125.33226517955518
3781.8118,0.39060090792858576,161.7599044952999
3782.6838,0.39971107988639265,167.9227209095723
3783.554,0.40540382518414775,112.02266674413477
3784.4265,0.40625641301041576,180.88610534996934
3785.297,0.40117117241419253,116.93982412251201
3786.168,0.3898726804102632,241.57047769218764
3787.041,0.3737770368556353,145.69609048848523
3787.912,0.35638778900427986,341.14983790941244
3788.7856,0.34179423883107407,395.0153379188827
3789.6572,0.3330721128684546,971.7832191938705
3790.531,0.33079752828250836,206.18296390092002
3791.403,0.33314623568955065,1186.2838883399372
3792.2754,0.3366349303155525,589.4113733234769
3793.15,0.3375590150378309,308.93097168973105
3794.0225,0.3336031195370186,139.2550940688503
3794.8972,0.32474201332828967,160.1661332380114
3795.7703,0.31277987602406315,169.29867901123262
3796.6455,0.2998411147631057,203292.42489464037
3797.519,0.2878351893646324,233.92464099189868
3798.3926,0.27874105185698694,312.11410998646153
3799.2686,0.27525200609002676,755.5977827964698
3800.1426,0.2799887849672468,6092.459290726449
3801.0188,0.2936322906747903,269.1862000086904
3801.8933,0.31372375533290103,174.58106013313548
3802.77,0.33571959983593785,274.70601441286493
3803.6448,0.354758137315359,909.9736545306832
3804.522,0.3677408028760596,139.3348666667951
3805.3972,0.3735599368078913,268.608239251567
3806.2727,0.37317737183528965,102.78091203897985
3807.1504,0.3690823040135695,217.1102311377138
3808.0261,0.3647156197187108,146.38712830668186
3808.9043,0.3631587722902087,222.07429889418694
3809.7805,0.3656146669477145,481.5848849843525
3810.659,0.3704267945053486,230.8073488608944
3811.5356,0.3736176418591817,150.36700566097156
3812.4126,0.37100885519411414,528.0252043607566
3813.2917,0.36055110128240175,162.47133674939369
3814.169,0.34375271337298674,159.41978466749956
3815.0483,0.32494257024847095,1182.517834639264
3815.926,0.3095146368364505,248.92313947593317
3816.806,0.30109343952056616,142.79513842857287
3817.684,0.2997769467595105,2062.4253979772966
3818.5623,0.30181014980777443,218.91724094834962
3819.4429,0.3021345644539822,128.57409863605758
3820.3215,0.29820146993000635,226.39457522389537
3821.2024,0.2918819251431766,1440.937942102095
3822.0815,0.2872505723489147,281632.77458624996
3822.963,0.2859879520626612,235.407076420902
3823.8423,0.2852731885888641,246.16168904136836
3824.722,0.2802090178423697,165.74131576803896
3825.604,0.2683106218942732,406.13824730221796
3826.4841,0.2518349405551146,715.2409375566479
3827.3665,0.2358121715953003,1196.6371121535283
3828.2468,0.22476207862289233,495.8493070230298
3829.1296,0.22014355150554846,672.4750994434306
3830.0105,0.22054066135063807,302.83017110525947
3830.8916,0.22291398393087042,3279.5574976940406
3831.7751,0.22430877487991632,218.46996330642986
3832.6565,0.2232075327641649,619.9727828880928
3833.5403,0.22012699987664544,4710.164803663735
3834.4224,0.21690837972774235,475.4668022048517
3835.3064,0.2150379298198638,501.66155123590846
3836.1887,0.21445221752385146,378.3509284239225
3837.0713,0.21372583733775252,2815.647000834949
3837.956,0.21157213396376073,455.60928691572866
3838.839,0.2084740647450835,526.6802716891507
3839.7244,0.20713835539083925,3687.452412474535
3840.6077,0.21138021234053858,764.4529226188729
3841.4932,0.22402627448906867,369.32629109112077
3842.377,0.24506967034541838,676.1907502152307
3843.261,0.27156027452846093,297.2402361887117
3844.1472,0.2990168378644036,157.4037355783577
3845.0315,0.32350027696108663,328.28945503360836
3845.9182,0.3435883082295996,558.814836962378
3846.803,0.35950160078939336,236.03004066543554
3847.69,0.37167341217602534,258.3255497794655
3848.5752,0.37919782162332344,254.39966864437392
3849.4604,0.3808532349439661,127.86670177437107
3850.3481,0.37699284492782925,212.3950489241952
3851.234,0.37042269991244886,227.5455968006624
3852.122,0.3646481316696754,256.89339583326455
3853.0083,0.361324990626859,301.031309214992
3853.8967,0.3591480564973914,190.42820230370427
3854.7832,0.3553094665647056,205.55036951515635
3855.6702,0.34770131916397046,356.3045319052349
3856.559,0.3361095942617575,123.17239563641373
3857.4463,0.32191278031502124,419.57413390975984
3858.336,0.30688022563466577,538.5719052928603
3859.2234,0.29317692859266964,372.3462194178601
3860.1135,0.28372809491970746,261.18663115440506
3861.0015,0.28243219077084203,514.1443565409597
3861.8896,0.2919586817378433,1106.9234766082375
3862.7803,0.3112978374620727,530.058361129713
3863.6687,0.3350732817381946,135.51894140974235
3864.5598,0.3567046057105658,115.85710470622145
3865.4487,0.3717117665480738,511.0935569063548
3866.34,0.3797199151267539,154.00612160865953
3867.2297,0.38270360204050985,1402.1787390109196
3868.1213,0.3825194353103113,159.6323807449878
3869.0112,0.3792961981576468,197.99645334452913
3869.9014,0.37189599028830495,171.6425243185363
3870.7937,0.3595594185836946,182.96438386234445
3871.684,0.34364066617217137,134.31134243584782
3872.577,0.32781209484123924,290.78732677921795
3873.4678,0.3170054372469396,564.8208804119193
3874.361,0.31446789931871383,1024.7214524665271
3875.2524,0.3195511718155209,224.8995240242022
3876.1438,0.3275666970229237,988.8686099058039
3877.0376,0.3327297753229691,159.9483088844212
3877.9297,0.33204787374976613,136.9507022359533
3878.8237,0.32723646162021325,263.6173144210988
3879.716,0.3227487818863652,2103.354806117259
3880.6108,0.32171659497719024,217.98097661571927
3881.5037,0.3236216849525621,159.4815167541485
3882.3965,0.3253921142511211,237.72525611951332
3883.2917,0.32421731661015013,213.79551019985155
3884.185,0.31902412547118486,443.38977102926185
3885.0808,0.3099522142884356,283.1370563494792
3885.9746,0.2978025590955267,1070.3390954332347
3886.8706,0.2841941739296384,1326.657295043701
3887.765,0.2721016307477062,1090.02193920935
3888.6592,0.2648765164924064,1280.1690776538549
3889.556,0.26497707753842864,352.2134441476944
3890.4507,0.2730445244336558,2098.447773984939
3891.348,0.2878303542141943,485.58462647984385
3892.243,0.30638842378079467,288.1886372285844
3893.1406,0.32515242916549136,329.9244639930888
3894.0361,0.3408605490475063,146.1816813393985
3894.932,0.35208932750048916,319.2486534921122
3895.83,0.35928823424135975,183.52682268679857
3896.7263,0.36382412810720416,340.25760428056554
3897.625,0.366716053123293,158.79779804343494
3898.5215,0.36793731318997464,159.96364562719072
3899.4207,0.36711503074100155,181.6078600907502
3900.3176,0.3644888404586404,119.40581354747603
3901.2148,0.3609847703068657,446.26857622911916
3902.1145,0.35739617065579826,300.31308740700626
3903.0122,0.35386724898137056,109.16988789141594
3903.912,0.3501867839303286,261.05875604048487
3904.8103,0.3465717691878147,1148.0486359353395
3905.7107,0.3439602674811997,195.22692033256115
3906.6094,0.34390851607914696,220.54432705664777
3907.508,0.3479097765204654,238.0984841780726
3908.409,0.3564415613003993,377.57591024320095
3909.308,0.36815314501585117,146.0902811367814
3910.2097,0.38043425573064205,168.95435325974393
3911.1091,0.39066901066502896,95.05420513759407
3912.011,0.39771837400430193,435.6936572053286
3912.9111,0.4018293966187155,123.46401063952477
3913.8113,0.40397212578496333,130.44262492936193
3914.7136,0.4049592537631398,110.89981256741088
3915.6143,0.4050968502003286,134.47208051572414
3916.517,0.40415503746944753,109.20818439836127
3917.4182,0.4014400012900749,285.32179252344685
3918.3215,0.3959923902879442,162.5294886577375
3919.223,0.38715781357454143,91.62973626734183
3920.1245,0.37523947980992806,329.14699886293596
3921.0286,0.3620207841347013,108.54776666054204
3921.9307,0.35073406655370815,8246.674817320101
3922.835,0.34513195032459854,315.61341805226124
3923.7373,0.3490044073915227,135.05812061762555
3924.642,0.36565331482169344,60994.03673263983
3925.5452,0.3963707897607316,247.86717183636353
3926.448,0.43728098409453325,189.15914917429257
3927.3535,0.47619164464721875,554.1342857717086
