wavl,flux,ivar
3566.9744,1.0900988206329363,238.41239706808557
3567.795,1.0868250725614628,255.55346240011863
3568.6177,1.0832905341967045,241.0880912212088
3569.4385,1.0799827088370084,211.25634227908208
3570.2617,1.0770192968865466,286.2343270297731
3571.083,1.0742760329652923,189.59446026933747
3571.9065,1.0716626994614002,254.4211808098314
3572.7283,1.0692663021229916,249.96461247977328
3573.55,1.067011896055842,211.32393747184656
3574.374,1.0644752389592966,200.12876004322732
3575.1963,1.061207124872219,262.51327174502063
3576.0208,1.057296371331716,280.29951960460625
3576.8435,1.0537073256046536,263.8359566906566
3577.6682,1.0517656959723385,201.16191739589314
3578.4915,1.052302754238157,218.72056417682165
3579.3145,1.0549784217386728,209.67473269912765
3580.14,1.0584725866712847,237.26099131993712
3580.9636,1.0612606380108827,242.54174702651622
3581.7893,1.062545780669553,230.95324284858683
3582.6133,1.0625493981833944,274.7648278503107
3583.4395,1.0621568550482103,161.19064306615059
3584.264,1.0621451608662864,252.8042175375699
3585.0884,1.062644998407461,305.3086154078475
3585.915,1.0632592511395336,219.77510266139382
3586.74,1.0636077023909682,215.99824349463628
3587.5671,1.0636749536413592,211.60560725691548
3588.3923,1.0635580218934477,278.76536781462886
3589.22,1.063003950060503,233.48107865282026
3590.0457,1.061406435932416,260.18861224069605
3590.8716,1.0583785278715248,198.4364810902066
3591.6995,1.0543069960098281,230.74287194918443
3592.526,1.0502796471539624,301.5512784295645
3593.3542,1.0472662738857854,232.77491198600913
3594.181,1.0454008100508283,215.35345067010468
3595.0098,1.0437626840423722,265.60539742780986
3595.8367,1.0409981554100947,272.0786127612202
3596.6638,1.0362492140626691,234.6123761963683
3597.4934,1.0298799459719816,236.88700314659553
3598.3208,1.0235511979875436,244.33079516844552
3599.1506,1.0193059839904695,268.2465483929404
3599.9788,1.0185635518245415,256.6698725757219
3600.8088,1.0212870036719714,256.5413479650546
3601.6372,1.0260642044402737,238.60704968109877
3602.4678,1.0309145220729874,226.8701572163615
3603.2964,1.0341769844026438,270.5253648046999
3604.1252,1.0351993348581396,191.23854882526737
3604.9565,1.0343022115240992,306.86797711883287
3605.786,1.0323451290188834,323.7915139726583
3606.6172,1.0300589254095986,245.0231473041321
3607.447,1.0276346202936981,250.2112957493044
3608.2788,1.024710185013114,233.41094979906543
3609.109,1.0208238217406753,270.9302725136196
3609.9392,1.015853376898058,316.3518707257269
3610.7717,1.0103201960820427,231.79853345855088
3611.6023,1.0054154949550422,200.970483294586
3612.435,1.0025094450643433,331.7447637093969
3613.266,1.0025584118533362,277.83220408448534
3614.0994,1.0055077840392344,257.0015648517973
3614.9307,1.0102843035148517,254.0817320772641
3615.7625,1.0153967933148151,217.5588295678975
3616.5962,1.0196361901333977,237.62667490894796
3617.4282,1.0224582875906423,279.85223725364193
3618.2625,1.0239066652401334,219.170066728327
3619.0947,1.0240864521479944,205.0045992100488
3619.9292,1.0228791810413156,267.62819002702
3620.762,1.0201106097274788,259.097296182659
3621.595,1.0159738302117918,288.20557040355743
3622.4302,1.011206501001689,294.69646093144377
3623.2634,1.006833956291595,263.7208468743591
3624.0989,1.0035657719218114,293.76568651636074
3624.9326,1.0015595409724212,260.66049207696614
3625.7686,1.0004439002912318,240.93057736045174
3626.6028,0.9997156115312191,212.1473599155575
3627.437,0.9990273194741164,261.7130610138965
3628.2734,0.9982144780132823,286.9850910331993
3629.1082,0.9970944767812111,216.81512308880892
3629.945,0.9953403226191702,234.6341907721531
3630.78,0.9926550228075054,285.698467434252
3631.6174,0.9889522707654248,227.3330580874331
3632.453,0.9844748411376395,214.36635322783823
3633.2883,0.979640378284944,241.24480364404474
3634.1262,0.9748957344604382,326.62240755165953
3634.9622,0.9705473159911746,268.03686701955985
3635.8005,0.9665460225784779,225.9776945659333
3636.637,0.9627608654951275,200.19971666791727
3637.4756,0.9592684665538256,266.36643749102467
3638.3123,0.9564969096951401,278.55888773037003
3639.1492,0.9547374059853007,369.3772852342156
3639.9885,0.9537715255448067,287.60904230029524
3640.826,0.9530469302653609,278.6534820160028
3641.6653,0.9522644987154175,298.84666394699786
3642.5032,0.9517173275144309,293.21452803866487
3643.343,0.9519671159228056,284.57601412673387
3644.1812,0.9532642681591627,292.44177260005966
3645.0195,0.9552762288909092,379.38275413473986
3645.86,0.9573229641941473,296.0897198714547
3646.699,0.9588463162200438,279.35476067286766
3647.5398,0.9598039694813102,343.4917887300217
3648.379,0.9606240035766603,286.3179458524732
3649.2202,0.9618385651318042,300.5599952554373
3650.0596,0.9636067847311495,296.3677441472418
3650.8994,0.9655774394403994,325.8855234888554
3651.7412,0.9671190841641698,255.5050165974295
3652.5813,0.9677169507763715,262.6394253741102
3653.4236,0.9672628923073869,279.3016489788207
3654.2642,0.9660451587408629,291.8068106089183
3655.1067,0.9645034353511998,360.78570447908356
3655.9475,0.96294873021215,227.41247303216377
3656.7886,0.9614405482060324,341.76108921655367
3657.6318,0.9599721014091634,230.28190314567223
3658.4734,0.9587242178417097,301.2590511705249
3659.317,0.9580854169777013,348.59704950130157
3660.1587,0.9584488897726406,309.1630320501242
3661.003,0.9599063622549473,257.3265655960402
3661.845,0.962127301831724,249.68189812209036
3662.6875,0.9645763300032006,374.58142510571975
3663.532,0.9668092040775272,261.1685327099361
3664.3748,0.9685587139384406,322.6052249714767
3665.2197,0.969592144233384,247.75382045755995
3666.063,0.9695723141820627,258.49894399684814
3666.9084,0.9683139958949373,336.34869527900514
3667.752,0.9661431705024107,356.31938233765754
3668.5977,0.9638349370580759,363.75420872018435
3669.4417,0.962135562115463,319.9608455592064
3670.286,0.9612537048440731,266.95460293851556
3671.132,0.9608803662824841,270.3292830532731
3671.9768,0.9605377072287842,334.87626504027867
3672.8235,0.9599181640101133,307.24383920258197
3673.6685,0.9590668341537588,269.66748051299487
3674.5156,0.9583646733162818,288.40046874731263
3675.3608,0.9582891240711051,255.18788012988492
3676.2063,0.9589389286225132,333.86498487272206
3677.0542,0.9597420064245868,272.7489150094689
3677.9,0.9597308800320133,280.7153447064305
3678.748,0.9583179684506057,285.3526431103492
3679.5945,0.9558102582937771,248.00078185845018
3680.4429,0.9530520315515761,367.1738775118687
3681.2896,0.9505805740561702,312.86865635413346
3682.1365,0.9481180389251388,355.7156220060293
3682.9856,0.9450717447659355,257.98161130894357
3683.8328,0.9414615985903818,254.71395982528966
3684.6824,0.9381478800840216,266.63041982690646
3685.53,0.9361961420458503,251.18112196723885
3686.38,0.9358765347934851,398.8515664840647
3687.2278,0.9364860015565949,314.42742391034557
3688.0762,0.9369712924822937,307.90214039242807
3688.9265,0.9366710337476303,306.6148902781494
3689.7751,0.9355006547335888,257.25382445356735
3690.626,0.9336916654956048,329.7903688334945
3691.475,0.9316836164498431,299.4095282508784
3692.3264,0.9302156924265736,307.8933998022774
3693.1758,0.9302732248570169,383.02159840603133
3694.0254,0.932492982542036,272.509962314717
3694.8772,0.9365379360907188,342.91418725855596
3695.7273,0.9409740536094787,307.3235356668558
3696.5793,0.9440648909934446,260.282226748521
3697.43,0.944796629840727,274.0642310842678
3698.2825,0.9435703383087561,290.68189926666946
3699.1333,0.9418744201403959,353.5327563695677
3699.9841,0.9411721716123244,329.90921565532796
3700.8374,0.9418491066562792,262.87262950029606
3701.6887,0.942984275807253,336.94798985771115
3702.5425,0.9431312612093645,218.5291469097771
3703.3943,0.9414067965657783,274.5757438371108
3704.2483,0.938022483425633,305.5972550477429
3705.1003,0.9339349142059522,321.51151319029816
3705.9526,0.929950783725018,248.41146694794787
3706.8074,0.9262525262602971,271.51389520733994
3707.66,0.9226729188214355,346.0121006742868
3708.515,0.9192202823213073,315.4562092735649
3709.3682,0.9163768347026433,353.1668545647458
3710.2234,0.914677591538336,353.2156320277547
3711.0771,0.914306365462642,283.0865808933859
3711.9307,0.91500892624322,357.30977625252706
3712.7866,0.9163620812598218,351.38216905412384
3713.6409,0.9179227901920046,304.34984299339703
3714.4973,0.9192538459609342,296.18898464499216
3715.3518,0.9199625352814796,292.70192776571804
3716.2085,0.9199298200439605,261.17665955652404
3717.0635,0.919409595264459,267.5518062695805
3717.9185,0.9188185846351158,281.12936133853395
3718.776,0.9183113466945763,372.8966040020213
3719.6313,0.9175058864630046,302.16289394746036
3720.489,0.9155971803378101,254.60700547951043
3721.345,0.9118870686872962,276.23289702103176
3722.2031,0.9062965694609273,409.4512552607607
3723.0593,0.8995985536946512,468.88723209185173
3723.9158,0.8929617875117825,293.1126046780453
3724.7747,0.8874396158358653,333.81918993251526
3725.6316,0.8837416530879632,343.23778820625
3726.4905,0.8822053736955022,259.3736224122955
3727.348,0.8828927010397764,408.8080330201668
3728.2073,0.8853904537094031,296.42541761355903
3729.065,0.8887461865185914,436.735855253149
3729.9229,0.8918615015535661,262.4801898064306
3730.783,0.8940181370707827,385.1211506923454
3731.6414,0.8950726661156949,267.7256120916567
3732.5017,0.8952273744729382,334.4544269828717
3733.3604,0.8946509194124955,356.50359215320555
3734.2214,0.8933819703980141,299.7760402893632
3735.0803,0.8914745208705903,321.44342003872976
3735.9417,0.8891052833774464,285.4066244273746
3736.8013,0.8866373474153675,288.87387799599225
3737.661,0.8845221164719466,347.4149257200212
3738.5227,0.8831588912596219,309.4954859278546
3739.3828,0.8826502061479977,345.6257042200261
3740.245,0.8826106077381702,323.99466093670696
3741.1055,0.8823315261301719,305.7637368171253
3741.9683,0.881207129909996,288.71129823834934
3742.829,0.8790738813946052,310.0814179594423
3743.69,0.8760913172146012,322.60640130786805
3744.5532,0.8723204736867082,329.2224478836161
3745.4148,0.8674706686246682,251.23687040483213
3746.2786,0.8610367914483833,455.77576024987127
3747.1404,0.8531452470345228,317.435068163727
3748.0044,0.8452630369498334,297.9141540166242
3748.8667,0.8403358791990193,322.89252647309013
3749.729,0.8412579564342259,354.0602095068505
3750.5938,0.8488995487534333,292.46863122857457
3751.4565,0.8610116510427769,435.64468240628037
3752.3215,0.8735439029084693,305.69914719289704
3753.1848,0.8829059761559633,315.0247097792412
3754.0503,0.8879377407191675,312.3897850482373
3754.9138,0.889700447048907,446.38688523838033
3755.7776,0.8901421853340431,309.7374355792969
3756.6438,0.8905509241233859,402.0937818183552
3757.508,0.8910094865458711,281.38439132943915
3758.3745,0.8908335293058826,304.94894273067484
3759.239,0.8893788701957666,329.4506551921286
3760.106,0.8865784461645481,341.45553693780414
3760.971,0.8830231942785601,272.6411125482132
3761.8362,0.8795909167956794,304.4145990490846
3762.7036,0.8770163548449826,329.034788642181
3763.5693,0.8755684954474047,421.7577339670037
3764.437,0.8749564966910374,344.28120369989585
3765.3032,0.8745889780333815,339.38140899344796
3766.1714,0.873881873974238,422.7934476570276
3767.0378,0.8724701141455198,456.45375640357946
3767.9043,0.8702722423119501,308.39841641569586
3768.7732,0.8675437921722284,281.87245570676254
3769.6401,0.8648808151197933,389.6495553791516
3770.5095,0.8628943995635535,312.4209502193625
3771.377,0.8618368424280485,359.6539071191826
3772.2466,0.8613961613528646,323.6110347749413
3773.1145,0.8610048512242826,419.3546840327536
3773.9824,0.8602946455093655,385.96685813794545
3774.8528,0.8593282816460719,284.0458530386159
3775.721,0.8584785188976706,450.2110168315502
3776.5918,0.8581123712609978,285.29013224445976
3777.4604,0.8584037771399294,326.38359388906355
3778.3315,0.8593405722438254,328.47400708640043
3779.201,0.8608431959024189,352.38669815429273
3780.0703,0.8628053308536207,349.15867988700955
3780.942,0.8649760284789588,369.66373772694254
3781.8118,0.8668616616168907,351.18125502728736
3782.6838,0.8679185660297825,379.4738670656693
3783.554,0.8678543246746654,368.9705869437375
3784.4265,0.8668462630870758,359.742623789198
3785.297,0.8654111253095222,378.7779271579317
3786.168,0.8640430368366017,350.6471627375352
3787.041,0.8629726429001341,333.1998941822641
3787.912,0.8622220123248147,424.49818423836246
3788.7856,0.8618128886468449,346.9901395995383
3789.6572,0.8618970701078195,311.17702197307636
3790.531,0.8626193997885151,318.4125466064165
3791.403,0.8638811473796476,252.68919376558017
3792.2754,0.8652642073705283,272.91415070011635
3793.15,0.8661881565755994,317.27287886413427
3794.0225,0.8661554741178812,349.8866852795497
3794.8972,0.8648902738080967,359.995314574596
3795.7703,0.86231965496018,349.4314651378368
3796.6455,0.8585381481979262,340.7753931675855
3797.519,0.8539416147123277,325.8561105589621
3798.3926,0.8492209651795601,312.5942701080724
3799.2686,0.8451865523410346,325.48860101233316
3800.1426,0.8424359086511696,336.8022683899073
3801.0188,0.8410568484085715,400.7062302898518
3801.8933,0.8407521760760738,314.3889809964208
3802.77,0.8409944200026139,303.46149242600217
3803.6448,0.8411253475897621,448.6474127308536
3804.522,0.8404878357873378,286.41644471062887
3805.3972,0.8388217476824565,397.2324983651093
3806.2727,0.8366526015638086,308.0145040411306
3807.1504,0.835140308458425,387.2102423820047
3808.0261,0.8353024839217315,332.80396838639166
3808.9043,0.837223955327242,322.92116576134134
3809.7805,0.8400141032203744,311.5656313559407
3810.659,0.8425488010420958,411.47399570584787
3811.5356,0.8442358837819542,336.1228122166375
3812.4126,0.8452958767031226,420.41111585150367
3813.2917,0.8463232732979288,294.6103437189144
3814.169,0.8476586910270468,372.00586254413184
3815.0483,0.849117446132584,359.1254644963471
3815.926,0.850178515548372,351.6575573719968
3816.806,0.8504136716007317,365.32197054455816
3817.684,0.8496778585754907,319.48078534427384
3818.5623,0.8480386551949018,279.4915266595723
3819.4429,0.8456173242174325,385.41443641032413
3820.3215,0.84258365483844,390.8463614419479
3821.2024,0.8391773113116665,412.3109218062914
3822.0815,0.835822199383299,364.6653113670785
3822.963,0.8330234721336109,548.2929638458434
3823.8423,0.8312035598238984,394.09505212078653
3824.722,0.8303453352413074,396.62519546976534
3825.604,0.8298992616012072,345.54101731157294
3826.4841,0.8290599466536723,328.2790123874491
3827.3665,0.8272808980225902,357.03345611976636
3828.2468,0.8246103199157825,341.70895951501615
3829.1296,0.8214992822054411,399.111287546773
3830.0105,0.8184252681556681,466.1055305931444
3830.8916,0.8155665212948359,352.109059926709
3831.7751,0.8128937807240026,416.68410922820226
3832.6565,0.8104332248473383,314.31085933244674
3833.5403,0.8083496921427805,335.87375225379003
3834.4224,0.8068913053801561,413.0984972185332
3835.3064,0.8061659472485082,341.44574606507814
3836.1887,0.8061361790852906,419.6597926526966
3837.0713,0.8067384068319365,463.9607197615136
3837.956,0.8079460653197513,407.33660570906517
3838.839,0.8095919211045599,372.11849761573995
3839.7244,0.8112388619277099,382.48151114555225
3840.6077,0.8123507545890923,346.8039497142043
3841.4932,0.8127907621671152,356.6148732232678
3842.377,0.8130516894526605,450.483152030711
3843.261,0.8139323209930829,483.9925563735883
3844.1472,0.815880325269206,410.95717475000396
3845.0315,0.8186165829601176,314.77569386612424
3845.9182,0.8214331400854213,433.3137906131519
3846.803,0.8237225621653459,501.0072500635541
3847.69,0.8253624683416363,353.7351380284098
3848.5752,0.8265558699923798,386.16933141412875
3849.4604,0.8275595110651197,405.74959697930564
3850.3481,0.8285412332895246,463.35153809374026
3851.234,0.8296347360592322,357.0267449597708
3852.122,0.83097761826206,372.16269649205816
3853.0083,0.8325565125453215,466.5091671499207
3853.8967,0.8341021947045839,374.6754638926138
3854.7832,0.8351173274679078,323.93389591847296
3855.6702,0.8351235432678135,319.9076396205365
3856.559,0.8338663094956832,369.6003156145918
3857.4463,0.8314496859555937,452.48075914095176
3858.336,0.8283213077901833,397.2139982989146
3859.2234,0.82521285138841,385.9657817450064
3860.1135,0.8228008803522976,329.2317533374595
3861.0015,0.8213631607029009,504.32631493928716
3861.8896,0.8205172754756844,347.74897696831863
3862.7803,0.8195032122157584,488.03003915160855
3863.6687,0.8177541933055228,447.965567861864
3864.5598,0.8152817522929949,469.5473284176508
3865.4487,0.8126707094627139,387.8286986119046
3866.34,0.810658858437104,358.5440473298224
3867.2297,0.8097670660839109,381.57357775325806
3868.1213,0.8100187307709698,403.3973757312945
3869.0112,0.8109854616941745,391.60262158460176
3869.9014,0.8120657578535481,329.101917738312
3870.7937,0.8128083072768606,371.00886812974176
3871.684,0.8130239998056134,395.99857318908397
3872.577,0.8126756408227881,380.33230017029376
3873.4678,0.8117213743302358,351.6307858392089
3874.361,0.8101072506434496,395.13793574929826
3875.2524,0.8079154620188506,464.05926236694484
3876.1438,0.8054286332738382,421.0647925525293
3877.0376,0.8030405208037025,458.73849878651004
3877.9297,0.8009988719564115,365.40241317188327
3878.8237,0.799077495157905,376.78178199536524
3879.716,0.7965590876383418,435.24206825977456
3880.6108,0.7925105825382209,427.8026110017394
3881.5037,0.7864078951692071,428.19822604018924
3882.3965,0.7785443122095589,407.39644982944884
3883.2917,0.7700417509929737,396.22912136878296
3884.185,0.7624030597136113,518.7543797734604
3885.0808,0.7566361872696797,560.2333948730964
3885.9746,0.7529464546684493,442.8110409526951
3886.8706,0.750733162412295,458.5400121854572
3887.765,0.749185425542099,366.35023950107535
3888.6592,0.7477855927991126,373.40563919425006
3889.556,0.746567605983176,468.25050184410924
3890.4507,0.7459815275814993,377.0366386590804
3891.348,0.7465243084215247,466.3836893773617
3892.243,0.748446453307188,590.7810866043953
3893.1406,0.7516829357802781,401.0596750325129
3894.0361,0.7559231842198088,401.71336503844685
3894.932,0.7608425211962354,432.9445982229492
3895.83,0.7661902703970165,396.43088718143633
3896.7263,0.771719501900926,410.01668136462354
3897.625,0.7771695370827187,488.5240356144467
3898.5215,0.7821010447010625,478.7278984081105
3899.4207,0.7861285412311532,530.5675101796008
3900.3176,0.7890830947196973,351.99363526856945
3901.2148,0.7912484652596538,394.8988910306179
3902.1145,0.7931829403464681,375.9733080644295
3903.0122,0.7954173911764679,434.0871471919125
3903.912,0.7982957138491936,395.0215578109395
3904.8103,0.8018733347000808,379.76494992588766
3905.7107,0.8059119607075389,467.2552852856782
3906.6094,0.8098076904080412,350.8553333347449
3907.508,0.8128899001832557,449.4658498725495
3908.409,0.8148612189049036,458.3067018018988
3909.308,0.8161168622322642,347.394322850221
3910.2097,0.8175997040644686,355.5971250329856
3911.1091,0.8201248186784929,365.4174131652641
3912.011,0.8237840021300168,392.42386822166804
3912.9111,0.8278141276274952,319.59641053471387
3913.8113,0.8312277691616662,373.95448123758825
3914.7136,0.8335284690187383,364.78221142002917
3915.6143,0.8349743019015115,394.29717661433756
3916.517,0.8362667332146757,347.49625688787546
3917.4182,0.8379290011388235,343.15664671171544
3918.3215,0.83996182834071,350.4941966889301
3919.223,0.8418565652980713,466.95287577258495
3920.1245,0.842989607789103,352.9332885598783
3921.0286,0.8430296314183792,377.73863470453557
3921.9307,0.8421452455074726,363.1019210633841
3922.835,0.8408252432592375,296.3601288041725
3923.7373,0.839499153128958,450.9242930256042
3924.642,0.8382891267124991,335.7359673357305
3925.5452,0.8371633849466484,341.03832213813615
3926.448,0.8361924141718032,400.6506658452589
3927.3535,0.8356246843574152,332.88595992499484
3928.257,0.835665021476724,389.4157179590631
3929.1628,0.8361913199807601,364.5824504619864
3930.0667,0.8367300810230083,371.22125279597833
3930.9731,0.8367336287921099,352.8835305242386
3931.8774,0.8358985093510122,358.34954047121954
3932.782,0.8342475090195551,352.1333230666445
