wavl,flux,ivar
3566.9744,14.787405267361377,5.2583902852898765
3567.795,14.748657210408373,4.957882220793381
3568.6177,14.715007149980826,5.170311903952736
3569.4385,14.67933411544062,3.8693998861351893
3570.2617,14.64268192432987,5.897372126033555
3571.083,14.613501982648405,5.6117940608658365
3571.9065,14.600356936660491,5.260875073667786
3572.7283,14.606382686927107,5.522416885724452
3573.55,14.627478744203097,5.553965420243845
3574.374,14.6554472882439,6.219924954645997
3575.1963,14.68213642000621,5.206228894741704
3576.0208,14.703344387854278,4.907290769157318
3576.8435,14.719132252696406,4.895839477340526
3577.6682,14.732149132476406,5.14172705604321
3578.4915,14.74430778553793,5.0610518702683445
3579.3145,14.756001233542733,5.2335653587994235
3580.14,14.767717749766552,4.387016663488208
3580.9636,14.780941136506998,5.888513645942164
3581.7893,14.795605078025192,5.403552910021318
3582.6133,14.805865891968747,4.77264920114216
3583.4395,14.801125087969464,4.757067618976655
3584.264,14.772851294764669,4.452169504166275
3585.0884,14.721554040318347,4.763588542805341
3585.915,14.657406998193908,4.8447911035872835
3586.74,14.595530668147426,4.710683095053353
3587.5671,14.547485555513143,5.826149529109769
3588.3923,14.51683504904739,5.251278542488761
3589.22,14.497355144763922,4.162619865999147
3590.0457,14.478293318572437,5.3587273764836185
3590.8716,14.451355129143222,4.636585996297793
3591.6995,14.415589076179447,5.519989782409124
3592.526,14.376035245319043,5.373220833889046
3593.3542,14.337368126062216,5.580596593392339
3594.181,14.30052563821439,5.888822846466918
3595.0098,14.263534545938848,5.801585381805523
3595.8367,14.226826948931667,5.761775061578616
3596.6638,14.194780628547033,5.977932292155565
3597.4934,14.173058219271523,6.826253540195516
3598.3208,14.163308731381973,5.837946469068512
3599.1506,14.160704909726086,5.225707810776221
3599.9788,14.158076243619414,5.52896598050593
3600.8088,14.151887831360066,6.054041067006655
3601.6372,14.14441313725614,6.489505712377237
3602.4678,14.139933556466524,4.586020367416041
3603.2964,14.139348474905432,5.682195028834308
3604.1252,14.136469538392971,5.60989646716064
3604.9565,14.114976902261713,5.328240884695916
3605.786,14.043921440442025,5.476439179950425
3606.6172,13.875165644956985,5.485364293954414
3607.447,13.559875056853894,4.586675660854004
3608.2788,13.086864903160773,5.553174398536789
3609.109,12.536655412969786,5.982682045887836
3609.9392,12.077535494413452,5.141669427817546
3610.7717,11.89068989023043,0.6741524506936123
3611.6023,12.051953753990654,5.977681635436065
3612.435,12.47533522187348,4.087420030849751
3613.266,12.973189653475416,5.38891266507357
3614.0994,13.382876518099064,5.648064757717609
3614.9307,13.634535258449096,4.797000980343285
3615.7625,13.749046334688746,5.821890895238683
3616.5962,13.780179814472337,5.076752023957609
3617.4282,13.774046910965305,4.730778777429616
3618.2625,13.758032793333282,6.0284463643137105
3619.0947,13.747459688192766,5.8116528171226784
3619.9292,13.752346341916372,5.522825178263898
3620.762,13.77807847093213,5.637641961604946
3621.595,13.823062714659544,5.280325346669781
3622.4302,13.878072267337387,5.651306335275505
3623.2634,13.927986662163208,6.4389440413677494
3624.0989,13.957982579790546,4.777552560974781
3624.9326,13.959318632896547,5.658075683777863
3625.7686,13.934010998943346,5.7123164274461695
3626.6028,13.893090178698483,6.126560635494446
3627.437,13.84984580938775,6.7138059176108555
3628.2734,13.81350891504673,5.301408523181787
3629.1082,13.786655484473847,6.220064693128188
3629.945,13.765061980766452,6.286552527373033
3630.78,13.74110336834182,6.5869740226075795
3631.6174,13.708110123255489,5.3206055554328575
3632.453,13.665711543201326,6.044614018823807
3633.2883,13.620166226165034,6.124483721001796
3634.1262,13.580464349934664,5.437573602428244
3634.9622,13.55327023829398,6.031952517624069
3635.8005,13.539568908102028,6.070475322613694
3636.637,13.535843124756141,5.733001272001799
3637.4756,13.536034352382549,5.31051309958149
3638.3123,13.534618554645757,7.292820242770096
3639.1492,13.529169984704067,6.298180355942755
3639.9885,13.52078396790637,7.475195092390772
3640.826,13.511871117436485,5.50094663818689
3641.6653,13.503168974336406,6.1399740337653075
3642.5032,13.493630789875384,6.473867018604239
3643.343,13.482943465885722,6.163011995085575
3644.1812,13.474246775178669,5.728567880988891
3645.0195,13.472983540593264,5.991032144783468
3645.86,13.482513970613276,6.102739451991367
3646.699,13.499913040668723,6.152783928345264
3647.5398,13.516680775143099,5.623871979844724
3648.379,13.52353416785505,5.918741364297453
3649.2202,13.515984250127044,4.848779369771327
3650.0596,13.496229081822351,5.881503649937939
3650.8994,13.47100414045044,7.137020047980867
3651.7412,13.447351400382344,7.395637917176037
3652.5813,13.428995044696876,5.837405325626881
3653.4236,13.41509600257864,7.64581718816288
3654.2642,13.403109710370929,5.420421310427103
3655.1067,13.391873076783103,7.173213419861314
3655.9475,13.382305417954562,5.898404636149043
3656.7886,13.37432648799161,5.515604917559714
3657.6318,13.364684668696082,6.109699898020408
3658.4734,13.349195586308163,5.375208778836011
3659.317,13.327320280225607,6.7996559305000766
3660.1587,13.303860016713726,5.952736316005782
3661.003,13.2842177692569,5.958879566236363
3661.845,13.269102189999174,6.271591125598976
3662.6875,13.253425767431812,7.124804884653419
3663.532,13.231613037323966,5.426067242854376
3664.3748,13.203747786707792,5.837413242054934
3665.2197,13.176779611931691,5.887949574083468
3666.063,13.160780412113926,5.876221569383543
3666.9084,13.161666407585294,5.748335049775882
3667.752,13.176661997561878,6.951316549184989
3668.5977,13.194994449784186,6.088087659345298
3669.4417,13.203519851483609,6.218332717782206
3670.286,13.193858615185686,5.94101165374017
3671.132,13.165473869332729,6.273753207803766
3671.9768,13.124319924445123,6.2622051356836685
3672.8235,13.077995387888928,6.185535956068862
3673.6685,13.03296837030977,6.886148575198558
3674.5156,12.99335231877786,6.4527575534929476
3675.3608,12.962660667746684,6.869143238937341
3676.2063,12.942491326850442,7.737457177207054
3677.0542,12.93017241605078,7.0265525012934
3677.9,12.917656628303087,5.750970599595704
3678.748,12.895564367873956,6.539324877898999
3679.5945,12.86074641081077,6.727448913234855
3680.4429,12.818645194760883,6.797135660792145
3681.2896,12.77929213572201,7.172202622970769
3682.1365,12.750383734223046,5.842030776305083
3682.9856,12.735898782295951,6.102657006430559
3683.8328,12.737627796164242,6.248595492720792
3684.6824,12.754741955819048,7.529136199048338
3685.53,12.781566741146804,5.76687047846044
3686.38,12.808436793706193,6.3887133379703425
3687.2278,12.82623889431058,6.516312228643825
3688.0762,12.831760242145391,7.96150250003268
3688.9265,12.827265662239574,8.131687435659618
3689.7751,12.81591951489172,6.10964530114353
3690.626,12.797609267392646,7.173807099284774
3691.475,12.7702897265168,6.00463933928914
3692.3264,12.734532888775119,6.032253987714393
3693.1758,12.696786241406658,9.275031008153144
3694.0254,12.66564791519383,7.98361921362162
3694.8772,12.645738336452204,7.9990673472243525
3695.7273,12.63421915409144,6.100968658554254
3696.5793,12.623314339858057,6.549332208482618
3697.43,12.606956966229491,6.675998342902381
3698.2825,12.584264378979316,6.734781368809052
3699.1333,12.557944142965775,8.20668766967127
3699.9841,12.529816862426792,6.544342820522829
3700.8374,12.499424309353522,6.424242852586918
3701.6887,12.466184277869854,8.516911798265163
3702.5425,12.430701973185942,7.022226583256249
3703.3943,12.395252846340744,6.793589344249557
3704.2483,12.362152400492958,8.428119202726664
3705.1003,12.33433011723854,6.909883941766
3705.9526,12.31464514917244,7.099711649819502
3706.8074,12.304815188353512,7.340542324147435
3707.66,12.303775870297669,6.741832733569957
3708.515,12.308029150854825,6.625450260083707
3709.3682,12.314403554395621,6.806943723730117
3710.2234,12.322307485069834,6.565832554029006
3711.0771,12.333047326699052,8.681692213448038
3711.9307,12.347325642536639,7.9522351745485755
3712.7866,12.363442403749815,7.838103954578793
3713.6409,12.37768585435818,6.43357202019469
3714.4973,12.386608941227738,7.02800221020499
3715.3518,12.38840485228078,6.814104009083394
3716.2085,12.38333144208329,7.209024312001233
3717.0635,12.373001450796155,6.918216867824229
3717.9185,12.359665658260134,6.770181343304789
3718.776,12.345997908112764,7.2666920612462995
3719.6313,12.33473091494599,7.048345957410893
3720.489,12.326427617745853,7.721145692966442
3721.345,12.31734126318064,7.10952557069407
3722.2031,12.299973436205313,6.248879364158578
3723.0593,12.268451352931153,7.094351526389077
3723.9158,12.223464845308628,6.308396647189711
3724.7747,12.172011032443173,7.160794023633486
3725.6316,12.122441860819988,6.869066241237012
3726.4905,12.078803948761825,8.048948429887373
3727.348,12.041939745390236,8.483907256918995
3728.2073,12.012165046092361,8.622608391350404
3729.065,11.991936147237128,8.02600763759613
3729.9229,11.98413869742253,7.081796937213423
3730.783,11.989212754877796,8.24676017163694
3731.6414,12.002864037023514,7.963007157358811
3732.5017,12.017540785983055,7.237956264425273
3733.3604,12.02672751772593,6.446666139266667
3734.2214,12.028944373775069,7.954440083222544
3735.0803,12.02736560758345,7.8392902923721195
3735.9417,12.02612176409522,7.725624068520569
3736.8013,12.026560883369408,7.623513324487445
3737.661,12.02645755105567,7.24950086591265
3738.5227,12.022180110049483,8.41080149642488
3739.3828,12.011532185926004,7.318543785379162
3740.245,11.994719398484659,7.553076455532046
3741.1055,11.973518948191753,7.50645887719042
3741.9683,11.949481541083022,7.57873847225541
3742.829,11.923929885290791,8.014849776290326
3743.69,11.898097517790177,7.708118701380908
3744.5532,11.873818850403099,7.492387974990842
3745.4148,11.853766327351346,8.19796863400862
3746.2786,11.840599289114815,7.535827801959932
3747.1404,11.83634929094401,8.184554555208143
3748.0044,11.840909613672485,8.870692067270493
3748.8667,11.851173413587171,6.950773799576409
3749.729,11.861231738440699,7.977477214388252
3750.5938,11.86387857008438,8.060297714025918
3751.4565,11.852991021527885,7.014088788482533
3752.3215,11.825755268318018,7.913679639569279
3753.1848,11.783978071133914,7.245789726616564
3754.0503,11.73326649165715,7.5623485109452915
3754.9138,11.682306930847986,7.794152433730597
3755.7776,11.639898759443241,9.320206404395844
3756.6438,11.612590876510856,8.659485914424403
3757.508,11.601944444420406,7.275896889769079
3758.3745,11.602805847373098,8.405133269230454
3759.239,11.605397634374855,7.651178876914207
3760.106,11.60005881505213,8.229113684921074
3760.971,11.58247687310982,8.732834655367727
3761.8362,11.555652165284997,8.124818407398456
3762.7036,11.527355029638208,7.825389574621006
3763.5693,11.505393758740553,7.827748819424193
3764.437,11.493309176730007,9.02533431256736
3765.3032,11.49028786120295,8.291840379148175
3766.1714,11.493371172806489,7.738906683051544
3767.0378,11.499987035952621,9.02146599604217
3767.9043,11.50811255308706,7.4367106434820425
3768.7732,11.514467658889979,8.424112263541085
3769.6401,11.513333760850042,7.686035571272153
3770.5095,11.498223875651416,8.607698554141594
3771.377,11.46555547147607,7.772971614597755
3772.2466,11.417009455545402,8.525729498060397
3773.1145,11.35969794904956,8.414437732333923
3773.9824,11.302603442695723,8.934019913853467
3774.8528,11.254047485731274,9.647016274935744
3775.721,11.220974757927344,9.372613906417282
3776.5918,11.207573209795727,9.110360767548995
3777.4604,11.214541070826408,8.67366925377958
3778.3315,11.237672166575246,8.548458783504012
3779.201,11.269279392977197,8.37677446770975
3780.0703,11.302155305322746,9.067064128155192
3780.942,11.331981379516066,8.235742105911685
3781.8118,11.356354503113515,7.998566871068342
3782.6838,11.373259357573565,8.971687826431541
3783.554,11.380457824195833,8.30709036258678
3784.4265,11.377353333819512,7.858052243016852
3785.297,11.365550756956651,9.27344307736398
3786.168,11.347349027758186,9.307245117323458
3787.041,11.32389664504887,8.908065702268832
3787.912,11.295741280792933,9.303098182374276
3788.7856,11.264338145274344,8.172124299621641
3789.6572,11.233209063428395,9.007793120044104
3790.531,11.205002834409731,9.202849873437286
3791.403,11.178800310206746,7.58535061225904
3792.2754,11.149237231242912,8.382894805128208
3793.15,11.110278891708724,8.897106608682018
3794.0225,11.060205564529694,8.827266061757964
3794.8972,11.002480943854573,10.20729392686507
3795.7703,10.944202276567523,8.756562167819864
3796.6455,10.891628571517684,9.36968116128796
3797.519,10.849660653490375,8.807929182588136
3798.3926,10.821426822045504,10.073437339151656
3799.2686,10.808998881946225,9.428911865200105
3800.1426,10.812348495041714,11.383737958983682
3801.0188,10.827887882649787,9.538475458167266
3801.8933,10.848871973675447,10.342308299003227
3802.77,10.868483639818624,9.444713266541763
3803.6448,10.883220120300226,8.311577577818948
3804.522,10.894851672058808,8.016914112074796
3805.3972,10.908533195154464,10.156565217480079
3806.2727,10.929886207568282,11.206632065082117
3807.1504,10.962348224820762,8.909132238467455
3808.0261,11.005125555047732,9.61091375299743
3808.9043,11.052868067371122,9.208551133579466
3809.7805,11.095972038671176,8.677719642823327
3810.659,11.125229620218418,8.435104023497026
3811.5356,11.135571389473293,9.82411089618373
3812.4126,11.128421176004105,8.623710842627045
3813.2917,11.109516244193545,9.856963518573988
3814.169,11.085612662015512,10.665407987439053
3815.0483,11.061354897481106,9.110128481603686
3815.926,11.039177982677899,8.338514036245328
3816.806,11.020355823495334,9.300795299112886
3817.684,11.006752126142754,8.474541840661223
3818.5623,10.9997318989629,8.335761857683337
3819.4429,10.997694943951014,8.904003550814512
3820.3215,10.994177860105829,8.491782539567867
3821.2024,10.97905540481763,9.163175878773163
3822.0815,10.943209831029494,9.108425668314306
3822.963,10.883596625239619,9.484501001934532
3823.8423,10.806660517003827,9.282555827255337
3824.722,10.725021612582246,10.792671314643211
3825.604,10.651499987059566,9.907088519642096
3826.4841,10.593597648767034,9.37629527199686
3827.3665,10.549868056369986,9.316893240544635
3828.2468,10.513017262650616,9.082191733959856
3829.1296,10.47388556015715,10.978593478752515
3830.0105,10.427319937262205,8.741653140035394
3830.8916,10.373478223365668,9.619869796788512
3831.7751,10.315685593605975,11.194412242758945
3832.6565,10.25685590804448,10.99557959635459
3833.5403,10.197009630396598,11.31253067581811
3834.4224,10.137084153910202,9.932604539626515
3835.3064,10.081097591220406,10.13810958003337
3836.1887,10.037081500185788,10.5226394799384
3837.0713,10.012817602672257,12.953716067602981
3837.956,10.01285749369583,11.27079155480587
3838.839,10.037164996528384,10.767828755416435
3839.7244,10.081812984735986,10.54754767962558
3840.6077,10.1392606905054,11.415628713466045
3841.4932,10.199970146938965,10.123189319816692
3842.377,10.253832252900798,11.461489901186445
3843.261,10.294996170779456,9.99333188491005
3844.1472,10.324203802962021,10.555532817185298
3845.0315,10.34770264695145,10.050185046520404
3845.9182,10.373173037936049,8.67662252122781
3846.803,10.404664715257455,9.982351709582757
3847.69,10.442141530170185,10.056955960892541
3848.5752,10.483468500142706,10.381905165528762
3849.4604,10.527686437983647,10.333296166134899
3850.3481,10.574663907727011,10.64497194468517
3851.234,10.6223108134458,9.971216121337788
3852.122,10.666276107361233,10.060057816411797
3853.0083,10.700936250835296,8.79759290776005
3853.8967,10.72342298549016,8.590805780837186
3854.7832,10.73489050733364,9.09584782017888
3855.6702,10.740460632590608,10.540702065601426
3856.559,10.746559314754803,9.254807820274241
3857.4463,10.757649443009386,9.49570702090608
3858.336,10.773992404744396,10.230973018851893
3859.2234,10.791625815456907,8.574324579054794
3860.1135,10.805248387554627,8.816667974491045
3861.0015,10.810929576729869,9.051015772421618
3861.8896,10.80799396529852,9.376690677169682
3862.7803,10.798472033277424,9.52291369404117
3863.6687,10.785579577199709,9.57835729533933
3864.5598,10.771463871846057,8.813356374256225
3865.4487,10.755926090775196,8.783751589644877
3866.34,10.735902452007354,10.238522330819618
3867.2297,10.70756167554845,11.27814131961225
3868.1213,10.669599772897397,9.244789338378046
3869.0112,10.628164349541091,9.515545917431538
3869.9014,10.599166738429396,9.853397861987265
3870.7937,10.60616566615333,10.355774643166072
3871.684,10.668273797230794,11.282971196631546
3872.577,10.780765114396697,10.07899642482004
3873.4678,10.900022034523785,10.13421033027733
3874.361,10.957052518179406,12.75326647851702
3875.2524,10.895362832116085,9.931220296347817
3876.1438,10.710405530059322,11.13374133311015
3877.0376,10.449851851492703,11.597667702389911
3877.9297,10.18154198237886,11.44951024215874
3878.8237,9.95020166643276,11.10751019248685
3879.716,9.76823232867057,12.499075901528961
3880.6108,9.623645277373534,14.22644267771197
3881.5037,9.500559052389923,11.454544726890054
3882.3965,9.385888755741396,12.462432572204396
3883.2917,9.272014026944337,12.10149380152527
3884.185,9.156680335270883,13.257196444098817
3885.0808,9.040093049495145,13.563834260167333
3885.9746,8.925868097380999,12.348386501319826
3886.8706,8.816957027810957,14.598223668503248
3887.765,8.716594938025539,14.095611921258438
3888.6592,8.62722200559215,16.02126595614992
3889.556,8.553000185465335,15.657538894777918
3890.4507,8.501370218485603,16.081245064279432
3891.348,8.480417537556537,13.887056335259835
3892.243,8.495859988467542,15.400938815868102
3893.1406,8.546853039397087,16.518558393350947
3894.0361,8.625178574280415,12.078217697488679
3894.932,8.719950008117056,14.34275057051586
3895.83,8.822850106017228,12.961245338453187
3896.7263,8.92982585941619,14.550883317439796
3897.625,9.040972903879512,15.093212526497977
3898.5215,9.15437539955213,14.982712185646513
3899.4207,9.266455869485236,12.808561817985373
3900.3176,9.37175542112843,13.380839365795604
3901.2148,9.46911847433109,12.492689711180736
3902.1145,9.562328204337046,12.799137767904677
3903.0122,9.656706820099286,13.587303598743045
3903.912,9.75569649345433,13.117653326251792
3904.8103,9.856425792032924,9.709270941298902
3905.7107,9.953550157039176,9.744916627734021
3906.6094,10.042578938110523,11.080436776338782
3907.508,10.124837327817607,11.516262530130536
3908.409,10.205750798150282,10.059658675798667
3909.308,10.28947530311627,10.118850123468022
3910.2097,10.375677589851804,9.511118789562037
3911.1091,10.457734054844517,9.719208973900672
3912.011,10.52881988195698,8.98629903282886
3912.9111,10.585649121090754,10.304675238573699
3913.8113,10.631426871471518,10.246184203021285
3914.7136,10.672526285602801,9.547337423385496
3915.6143,10.714157214739213,9.275217879256537
3916.517,10.75882293218168,10.486138778706575
3917.4182,10.80582063810254,9.053130174451518
3918.3215,10.853373184826532,9.98589883101378
3919.223,10.899228751662134,8.756724390687644
3920.1245,10.942213191888357,9.588364051358045
3921.0286,10.981663327829002,8.967743300678245
3921.9307,11.016388438084702,9.491855043653809
3922.835,11.044916537920592,8.511340743577103
3923.7373,11.06527528746957,8.837681432351072
3924.642,11.0764007030154,8.511385705350571
3925.5452,11.078803077395992,8.965694068824597
3926.448,11.075532733687846,9.16323398200417
3927.3535,11.071437951449484,8.48766967843571
3928.257,11.070722278454708,9.088168448424055
3929.1628,11.073849570684116,8.985081638882336
3930.0667,11.076833301263335,8.529826953348605
3930.9731,11.073937352543615,8.3596736824529
3931.8774,11.061581302232844,8.756790375177452
3932.782,11.040305849362566,8.76835255139239
3933.6887,11.013852773309104,9.561756325841717
3934.5938,10.986987675450797,8.666800623782771
3935.501,10.962577625465178,8.64673265843762
3936.4062,10.940262024196107,9.166024183963579
3937.3142,10.915765475854792,9.50544240794143
