wavl,flux,ivar
3566.9744,0.5332820434485969,165.40319155859098
3567.795,0.5351258301407584,99.02625785574142
3568.6177,0.5375310346518922,244.32502110107677
3569.4385,0.5402183743915516,184.06312424089484
3570.2617,0.5432214421558558,207.71719115682663
3571.083,0.546393448141627,172.47593574887296
3571.9065,0.5492285563688981,184.90327214733702
3572.7283,0.551275038776131,140.63938343123138
3573.55,0.5528689584132056,220.01269764587875
3574.374,0.5550036434433381,314.4286636974937
3575.1963,0.5582958377290708,88.24093935590597
3576.0208,0.5621523055370862,193.05510796041375
3576.8435,0.5648866700072042,98.04506439272704
3577.6682,0.5647419941341532,205.2423438248238
3578.4915,0.560799158298988,107.83417180544761
3579.3145,0.55347950993456,176.88008551661267
3580.14,0.5444801756045812,178.29777170788694
3580.9636,0.5363208641899536,91.48957331340648
3581.7893,0.5311877642503836,298.7609796436391
3582.6133,0.5300725325328398,200.88726533380637
3583.4395,0.5323133889829121,168.6064811754376
3584.264,0.536094180689861,521.4479726078613
3585.0884,0.5395109281857802,242.82645960271606
3585.915,0.5415160185610544,196.98572316047677
3586.74,0.5421583879496863,209.93984327416604
3587.5671,0.5421421742103101,156.244922443289
3588.3923,0.5421746846257881,149.09073542253776
3589.22,0.5426946033995665,206.74669644743148
3590.0457,0.543860360491115,246.5779009536667
3590.8716,0.5454841715374454,190.88240942085
3591.6995,0.546901804759813,173.5630530135252
3592.526,0.547100438595366,150.65568170876912
3593.3542,0.545231240789355,148.0282059053088
3594.181,0.5411516072197318,334.1533397988809
3595.0098,0.5355946609269926,127.80405838911646
3595.8367,0.530023431102931,150.29972151894972
3596.6638,0.5259968701590516,160.15975311337183
3597.4934,0.5244643457533087,357.88227268725444
3598.3208,0.5250530413094551,107.12273507882313
3599.1506,0.5259958945615048,494.2840895031236
3599.9788,0.5251999882033442,167.07478104798145
3600.8088,0.5218886291798732,220.03976736971086
3601.6372,0.5174083066378015,428.36257773728937
3602.4678,0.5142018329211602,327.6262779524784
3603.2964,0.5139022497071354,427.4106241788254
3604.1252,0.5160935037336718,171.3120564093534
3604.9565,0.5188998787038561,140.6597135506352
3605.786,0.520555871010064,344.65872791095745
3606.6172,0.5207006754043989,261.1448777794126
3607.447,0.5203146455292663,166.8200159561579
3608.2788,0.5206806922857857,1894.532745906706
3609.109,0.5223380471623185,154.87644698094982
3609.9392,0.5248336406223979,166.1023682698997
3610.7717,0.5271942256489793,134.58543138545974
3611.6023,0.528547764112168,155.98645090383457
3612.435,0.5286173958255629,447.11151945390424
3613.266,0.5278654878503026,160.58243639985704
3614.0994,0.5272768054417751,157.1126653128721
3614.9307,0.5277281553640889,191.80833303603447
3615.7625,0.5293230095785386,245.51153154840654
3616.5962,0.5313115012301631,168.58764437463086
3617.4282,0.5326663325731574,167.63778765786807
3618.2625,0.5328325378888775,171.76565975810453
3619.0947,0.5319053278702875,190.45057069562347
3619.9292,0.530254802404345,162.3136023728898
3620.762,0.5280816520716323,153.85204757356772
3621.595,0.5252733754823018,124.61255259861198
3622.4302,0.5215950203547116,296.98757616843886
3623.2634,0.5169730361716272,142.5294667180305
3624.0989,0.5116216689665964,219.31171249899018
3624.9326,0.5062754701363239,165.812945893126
3625.7686,0.5021019232439584,210.81680392179197
3626.6028,0.500455439211621,145.39152428602034
3627.437,0.5020875430830897,255.78230134472054
3628.2734,0.5065016092354756,171.03823367817756
3629.1082,0.5118458415457839,118.76006189159035
3629.945,0.515867416607883,153.37170073803057
3630.78,0.5170832949428947,184.81809372593347
3631.6174,0.5155017654170424,215.62522383366715
3632.453,0.5122799563299713,179.5007182197205
3633.2883,0.508828791894863,135.96113609873854
3634.1262,0.5060449023885903,181.10864383448344
3634.9622,0.5040686554003642,209.41459000007836
3635.8005,0.5024978834343422,160.61806897953784
3636.637,0.5009466595774327,142.32646423975677
3637.4756,0.4993068220924087,196.8533946801796
3638.3123,0.49763925377361506,290.4367299075459
3639.1492,0.4958522340863373,168.175553745592
3639.9885,0.49368879254749926,189.7183081003637
3640.826,0.4910088184680282,269.22148092651383
3641.6653,0.48797450401848724,217.2015446648205
3642.5032,0.4850633673502036,208.45203292295145
3643.343,0.48276124938060017,280.41915399891207
3644.1812,0.4813201316140378,250.70871452965744
3645.0195,0.4806804138846498,141.3217160548646
3645.86,0.4807492800113735,371.6591138010423
3646.699,0.4815662624170475,334.8558774180912
3647.5398,0.4830418076786751,157.57519395446516
3648.379,0.48450596043985666,442.0319254336027
3649.2202,0.48473648570738587,292.87022233992843
3650.0596,0.48255310935257273,177.90131826393912
3650.8994,0.47755419654937464,294.4400647572865
3651.7412,0.4704322342595516,272.8729652568923
3652.5813,0.4628121885221479,235.80738571122282
3653.4236,0.45645810500072664,606.412613397003
3654.2642,0.45260778600709495,289.8618679951545
3655.1067,0.45144466944817196,622.3854894318479
3655.9475,0.4523329381902839,267.2959147198859
3656.7886,0.4543135018074716,263.5135266037461
3657.6318,0.4566482586337926,835.5583762649003
3658.4734,0.4591131936410696,218.17364225341854
3659.317,0.46196872883749546,401.5280889893939
3660.1587,0.4653712274205938,366.8584039091328
3661.003,0.4688550944814446,160.93981286310415
3661.845,0.47143405516105075,219.619404053921
3662.6875,0.4726129112930874,111.51740639196078
3663.532,0.47308092577050814,367.56610019033803
3664.3748,0.4743904679996211,192.2249951175997
3665.2197,0.4779210287917501,424.84389861068405
3666.063,0.4840623390248917,340.4700951804593
3666.9084,0.49213034688267093,221.99850422365762
3667.752,0.5004270646642234,234.64711115475356
3668.5977,0.5067862091759997,317.6100673867588
3669.4417,0.5092559596366046,161.31202035992894
3670.286,0.5071926660842404,174.20371027591767
3671.132,0.5016038070668892,152.15304958367267
3671.9768,0.4947265181677503,202.1452189614945
3672.8235,0.4888833109628935,235.21785123035755
3673.6685,0.48558672175232515,268.4901971966233
3674.5156,0.48500186192004757,222.07215398823863
3675.3608,0.4861920827413285,188.0258695452481
3676.2063,0.4877239871631456,166.1456592135401
3677.0542,0.4883332950218249,224.8890103661714
3677.9,0.4873152118378319,144.88185910839698
3678.748,0.48466409256280324,213.01489114288736
3679.5945,0.4810643433780091,206.04344223982244
3680.4429,0.4775958393726228,294.8780112653664
3681.2896,0.475238923034552,246.59805569079035
3682.1365,0.47425807453255847,172.61116071993354
3682.9856,0.47414751882583916,247.53472926350722
3683.8328,0.4741486383605307,533.3523250663594
3684.6824,0.4739289588074728,153.504180314245
3685.53,0.4738274445247566,1138.5201023975392
3686.38,0.4745178918358731,185.09777564189042
3687.2278,0.4764005436248019,220.64870228935254
3688.0762,0.4791494012350935,230.77509699092357
3688.9265,0.48169598537545866,182.4145259489241
3689.7751,0.48274404354962647,302.2598947069436
3690.626,0.48159861332480985,186.75154775593546
3691.475,0.4786329689016567,272.0686479422117
3692.3264,0.47502113665839335,242.40035468680523
3693.1758,0.47198886187177497,207.90241718261518
3694.0254,0.47006230042779185,466.9964430020119
3694.8772,0.46904937151710924,394.0565914822007
3695.7273,0.4685808982149774,115.16687807919008
3696.5793,0.46863950729271003,175.29017815836448
3697.43,0.4695208528968317,290.280420651352
3698.2825,0.471310986250565,225.68102520143015
3699.1333,0.47358170796316423,188.29913918419396
3699.9841,0.47575180704513637,344.51988804684123
3700.8374,0.4775781471451693,276.09625546307274
3701.6887,0.479146828446459,342.338888488286
3702.5425,0.48047420057730983,209.07978029541954
3703.3943,0.48122548784502306,237.93224114375653
3704.2483,0.48097958977594735,156.78349889346413
3705.1003,0.47960708491671017,384.2243712049066
3705.9526,0.47736179098061593,167.0533785745726
3706.8074,0.4746680424780451,406.00637921922305
3707.66,0.471968334796102,286.1962017951073
3708.515,0.46966944562141466,289.46434275712505
3709.3682,0.46821548759477816,332.6252913363487
3710.2234,0.46791062137301836,283.08802403535776
3711.0771,0.4687110753597231,195.26082834603716
3711.9307,0.4701010669732971,232.46624990778372
3712.7866,0.4712298865932313,385.860891031814
3713.6409,0.47119326159709995,109.72420716736806
3714.4973,0.46937356168508815,194.80250437386232
3715.3518,0.4657474347708636,181.7253349019928
3716.2085,0.4610841812306808,199.87196882852686
3717.0635,0.45694178122454054,450.95548955298455
3717.9185,0.4549689784882095,362.55574080520284
3718.776,0.455991736631696,169.0779255006185
3719.6313,0.4594726296619678,263.18459675793497
3720.489,0.46400337530419355,273.7273463318003
3721.345,0.4682882035571571,196.4380076528125
3722.2031,0.4718528539653193,221.70362959620442
3723.0593,0.4747601615892402,180.8898749247024
3723.9158,0.4770865262647857,137.32688320176845
3724.7747,0.4786787638616524,246.3834606088831
3725.6316,0.4794576271446524,135.4303056070192
3726.4905,0.4797002721440913,296.27590751524616
3727.348,0.47973188103007347,289.52570024841305
3728.2073,0.479400701958004,265.79085522870133
3729.065,0.47807654000359295,189.3392396570401
3729.9229,0.4753421956483012,368.06542784698934
3730.783,0.4716104259204632,273.90606142358376
3731.6414,0.4679712904361688,185.28551275060315
3732.5017,0.4653103256792129,334.12421388770264
3733.3604,0.4637371788093576,252.40471128937065
3734.2214,0.4626395988021842,164.83014191746784
3735.0803,0.4613382024404226,195.9205895609567
3735.9417,0.45960761509010606,231.3260527492145
3736.8013,0.45775968695742236,276.136932383472
3737.661,0.4562263485975186,229.70987756165837
3738.5227,0.4551736515539173,297.69091446141783
3739.3828,0.4544985218962061,291.93601769966745
3740.245,0.4541718735440507,207.805198650562
3741.1055,0.4545224834006254,236.90083993636446
3741.9683,0.4559697499511256,199.64030276970288
3742.829,0.4583253896475838,204.00186441073905
3743.69,0.46043045965990986,378.35563468724877
3744.5532,0.46066908156430275,227.08068762329881
3745.4148,0.4581253077455857,239.95620265484249
3746.2786,0.4533657901334156,504.77913251727483
3747.1404,0.448211382577163,389.5027751135376
3748.0044,0.4446260941293497,188.59855203124476
3748.8667,0.4438077959267924,374.30169469957303
3749.729,0.44573239791360714,243.09993026730484
3750.5938,0.4494883853211737,267.80899940033345
3751.4565,0.45393058099644595,386.1836930447894
3752.3215,0.45838029019337145,201.416628419206
3753.1848,0.46265503937660896,224.05687131965863
3754.0503,0.46679217229069314,198.73353000552527
3754.9138,0.47061901569714387,337.5288348704289
3755.7776,0.47376177544284254,338.7594509202856
3756.6438,0.47575470458493635,386.93732328160263
3757.508,0.47625034668186705,182.48178370041356
3758.3745,0.4752793809953688,332.76376411853806
3759.239,0.47338102600882037,234.58005451793196
3760.106,0.4714727320581691,241.39993519796548
3760.971,0.4704449405110136,243.56120306950515
3761.8362,0.4705794194697777,214.15012665217293
3762.7036,0.4713181595301933,168.52405602890363
3763.5693,0.4715894939490099,132.4950181561046
3764.437,0.4705741920248987,225.33147964717384
3765.3032,0.46827041106417394,220.75689978073066
3766.1714,0.465363837209407,279.9509144920913
3767.0378,0.46260360423423497,295.6722492667845
3767.9043,0.46023473209900945,250.9098752767833
3768.7732,0.4581668627552611,198.36524821220593
3769.6401,0.4566318015355084,261.54738241926134
3770.5095,0.4564768203033533,461.1446449633653
3771.377,0.4586547664020693,160.11474945325637
3772.2466,0.46323483303155255,215.06473202908904
3773.1145,0.4688412160575669,303.38443006196144
3773.9824,0.47321161334993533,140.8878139246355
3774.8528,0.47439185006724127,203.5885182786465
3775.721,0.4718684078618066,172.4320845804712
3776.5918,0.4668415235490201,139.12858293115525
3777.4604,0.4614892256262957,199.28830700075287
3778.3315,0.4575799764041925,193.37796583983481
3779.201,0.4556171416216151,354.1068175558246
3780.0703,0.4547796250472863,242.1953900554986
3780.942,0.4538170420435462,199.8104419146577
3781.8118,0.4520214324308018,504.94674836988634
3782.6838,0.4495975752205482,177.86263038550143
3783.554,0.44739139460822547,392.1714771814039
3784.4265,0.4462615418482729,205.28036928775853
3785.297,0.4466327556551497,392.5345412502117
3786.168,0.4482577096153484,301.10110291918267
3787.041,0.4503559202846806,156.2858184900959
3787.912,0.45203121100894006,221.83347815349262
3788.7856,0.45282733569717315,300.88993544427814
3789.6572,0.45292406118157036,213.3439846704309
3790.531,0.45292640923502386,393.6910733915769
3791.403,0.4533850643063287,303.5811387810128
3792.2754,0.4544221814232653,429.5480348133367
3793.15,0.4556723542216625,211.24856599548818
3794.0225,0.4565393317150721,173.01020286904603
3794.8972,0.4566169170661282,228.3881750534787
3795.7703,0.4558671153851239,274.685083968955
3796.6455,0.4544584772860968,265.2398098476695
3797.519,0.4525572502025509,202.75347522759913
3798.3926,0.4503865371909702,456.16075215354067
3799.2686,0.44846952451420014,195.53165890080106
3800.1426,0.44758665146397236,495.0422690215095
3801.0188,0.448299098309603,209.44091536623998
3801.8933,0.4505680533020428,315.6039244847225
3802.77,0.453797277550932,230.42461097509258
3803.6448,0.45709521635855854,410.6218943799902
3804.522,0.45952077278470216,486.24408563675775
3805.3972,0.4601054271495917,164.90013713653963
3806.2727,0.45816872489273847,219.35286993929367
3807.1504,0.45378619528539116,302.0041769911075
3808.0261,0.44811840418596816,212.98389226217466
3808.9043,0.4428890708087257,269.8959554996823
3809.7805,0.43952973761516784,354.5614252554229
3810.659,0.43843407238378007,283.2880269529014
3811.5356,0.4391996908267846,349.4910813200129
3812.4126,0.44129772912444054,372.6838750744649
3813.2917,0.4445542872876237,440.8603164092294
3814.169,0.4489700833619718,298.6224897398731
3815.0483,0.4543121496232131,276.9154867209274
3815.926,0.45973868006780333,140.27234898810678
3816.806,0.4640574777654501,259.8511404857492
3817.684,0.4662405764125506,230.9747624311956
3818.5623,0.4661432591905464,266.5162204518689
3819.4429,0.4645949320458117,225.68573349445384
3820.3215,0.4628198958026876,223.79013278561405
3821.2024,0.46147625200828846,335.27387900449787
3822.0815,0.4602416481056828,162.3854179758238
3822.963,0.4582311728382253,170.5180498977946
3823.8423,0.4549093999214151,207.56649364910982
3824.722,0.45058003937528157,176.6480105784971
3825.604,0.44622445903051017,313.0066789643109
3826.4841,0.44296974007110784,290.7983062780938
3827.3665,0.4414516890043727,238.5517571511888
3828.2468,0.4415204073797911,430.103139646618
3829.1296,0.4421931871064819,193.11154524769216
3830.0105,0.4420726192342023,351.8619643181181
3830.8916,0.4400593450857892,214.10161501539892
3831.7751,0.4359258220621067,244.661521015148
3832.6565,0.43046250785401424,236.4900053825345
3833.5403,0.42494067062331475,212.82870727762457
3834.4224,0.42051451133857404,392.5081548642944
3835.3064,0.41762829793681655,353.8140753564512
3836.1887,0.41604342246358983,373.4519539078298
3837.0713,0.4151303106129702,524.6240365517438
3837.956,0.41432066347756935,300.69359771185543
3838.839,0.4133537931536322,413.96447538265664
3839.7244,0.41229857310698415,603.2295442228025
3840.6077,0.41151151754108756,248.05596428780515
3841.4932,0.41152124422466957,419.724020515582
3842.377,0.41286628806415887,327.44257137655376
3843.261,0.4159220888462386,248.85312398479033
3844.1472,0.4208827002687821,317.0713416313664
3845.0315,0.42773790214016644,609.4606101578529
3845.9182,0.43625182438666243,182.98036839968796
3846.803,0.44561740438430186,564.8286264032129
3847.69,0.4546481447248108,226.29104180029134
3848.5752,0.4620572322696383,290.6703004094791
3849.4604,0.46715268461988957,162.5479898442881
3850.3481,0.4700324855107664,181.52408812435075
3851.234,0.4714580020048859,243.65746457127415
3852.122,0.4725469176294218,210.6568871420501
3853.0083,0.4742761903010404,186.10145783684266
3853.8967,0.4770292103354502,330.4474650772279
3854.7832,0.48026144263588133,212.49777367975923
3855.6702,0.48276135119879404,155.376917785779
3856.559,0.4833896569331425,256.5358734144611
3857.4463,0.48187766597569925,272.16936931055307
3858.336,0.4789658658155488,309.4816016100763
3859.2234,0.47583654041104356,162.7381701468384
3860.1135,0.47334547174097574,201.82283732650916
3861.0015,0.47183183193861167,205.35768715713064
3861.8896,0.4712881501261171,237.44028547381876
3862.7803,0.4716178679142177,288.9483189368356
3863.6687,0.4725535229917426,203.02284865023205
3864.5598,0.4735055508948035,225.50471132839724
3865.4487,0.47367921125857254,205.4018879539512
3866.34,0.4725255123060106,217.48609177540501
3867.2297,0.4700736452805107,154.3075749548923
3868.1213,0.4667986056439184,328.9237023886998
3869.0112,0.4632170840054352,196.59119665319406
3869.9014,0.4595062337964712,257.8031242586587
3870.7937,0.4555866207600839,277.46927345953725
3871.684,0.4515213885230557,260.57048004772656
3872.577,0.44771354893250237,292.8214249254998
3873.4678,0.4447903096249993,313.92662799286495
3874.361,0.44300857803054433,211.58700329085733
3875.2524,0.44194855962554214,258.642463361423
3876.1438,0.44064484747101174,235.43993367101598
3877.0376,0.43819059875344185,144.22032198465433
3877.9297,0.4343525751760971,185.98161584976324
3878.8237,0.4296722214559022,521.0137892182712
3879.716,0.4250382662558907,226.6249460261721
3880.6108,0.4208692876989375,872.9378653072813
3881.5037,0.416895990658532,284.309116037189
3882.3965,0.4125308185327435,275.8680960622452
3883.2917,0.40757319674429604,351.16483581879
3884.185,0.40248919194671795,334.7390340043061
3885.0808,0.3979779913561227,290.88406638735535
3885.9746,0.39449450696658933,553.013510345055
3886.8706,0.39179815983380895,342.3355388063071
3887.765,0.3891164834959297,210.5711922565577
3888.6592,0.385673970869227,414.0342886664696
3889.556,0.38139992000803385,545.0109495056353
3890.4507,0.37723868755213663,301.9718249536477
3891.348,0.37463391362065945,376.4414147931926
3892.243,0.37471243544082716,290.5658908456891
3893.1406,0.37755687178901043,373.2553064518103
3894.0361,0.38220155117710286,827.4121276674288
3894.932,0.3873379918849831,569.4705044408805
3895.83,0.3921065990672664,334.8114587073821
3896.7263,0.39638643622544645,337.1542259526485
3897.625,0.4005582398426573,334.39257155134294
3898.5215,0.40488341790632415,403.8270923386955
3899.4207,0.40941433127557725,530.4321398032146
3900.3176,0.41413283914839005,566.6516133220224
3901.2148,0.4192280234271247,489.56615549839256
3902.1145,0.4249255439664589,383.28686971989464
3903.0122,0.43121034533792213,221.79522526256736
3903.912,0.437924182678598,279.6939190321221
3904.8103,0.4448097670704275,272.42213881005154
3905.7107,0.45163942034821225,290.96096121622725
3906.6094,0.4579253912916829,288.6619885089192
3907.508,0.46295924906768465,191.23791420656352
3908.409,0.46603532340825327,272.80435092929145
3909.308,0.4668926398934553,240.66159789986546
3910.2097,0.465969339973337,257.8711409951394
3911.1091,0.4641638469151778,549.7698885127637
3912.011,0.46242114430724895,218.76722409625972
3912.9111,0.4615722552025349,246.7733047103455
3913.8113,0.4623505724697423,241.12990834159973
3914.7136,0.4653166178202903,257.0252995740125
3915.6143,0.4703895629426862,279.9140307426586
3916.517,0.47653112816685617,181.33491437962698
3917.4182,0.4819494823959136,198.749591802177
3918.3215,0.4851346742101228,293.6881393535819
3919.223,0.48571293609052046,231.65399272958433
3920.1245,0.4847328664571854,250.77845860004757
3921.0286,0.4840282228826096,225.08700020381946
3921.9307,0.48520944700476054,250.21098271669888
3922.835,0.4887894750214891,154.50173968079915
3923.7373,0.49393486369173223,187.39622786518765
3924.642,0.49907408235691664,135.65724363842565
3925.5452,0.5027591467792887,183.62744224247643
3926.448,0.504443460920807,185.79469494164297
3927.3535,0.5044774645229678,270.81668521168456
3928.257,0.5036330383819541,154.85544041985233
3929.1628,0.502521824337256,225.1876796927494
