wavl,flux,ivar
3566.9744,3.2819510776381438,203.92951332854943
3567.795,3.280755957834845,202.90661810541798
3568.6177,3.278697702494342,235.93790021512524
3569.4385,3.2751064179639857,208.12731037023147
3570.2617,3.270340815980084,228.65136218042923
3571.083,3.2656828921762258,256.7263712991313
3571.9065,3.2622461828721527,237.0074056532588
3572.7283,3.260146202228112,226.6897534504863
3573.55,3.258322792968692,242.43294357723562
3574.374,3.255228530835442,227.01665908100418
3575.1963,3.249832207252863,217.39685848808966
3576.0208,3.242287175986661,242.9559456789518
3576.8435,3.2340258949832945,221.68704320278871
3577.6682,3.2268494532954137,238.88867966955527
3578.4915,3.2220694459942294,243.08924716499575
3579.3145,3.219946392031295,216.01264332059728
3580.14,3.2199928237243567,254.28362946282883
3580.9636,3.2213869893024394,223.71731702966147
3581.7893,3.22315880365041,206.07640909418447
3582.6133,3.224269292430779,215.12998779759252
3583.4395,3.223934065955476,194.17098665653148
3584.264,3.22194849315652,237.81580081879758
3585.0884,3.218688311327775,249.88193232806933
3585.915,3.2147751569059486,223.5350192665229
3586.74,3.2107717538184266,236.641244433541
3587.5671,3.2069225732233524,231.5139785697395
3588.3923,3.2032791616988785,254.31440486954762
3589.22,3.199912788444251,215.83444153027594
3590.0457,3.1971646366190303,249.55662309296005
3590.8716,3.195271258897738,227.64237129570063
3591.6995,3.1939031117555023,211.10901102151925
3592.526,3.192162975934994,199.66957953020037
3593.3542,3.1891074861489885,250.08909490445603
3594.181,3.1842547257844704,230.14487851654286
3595.0098,3.177626328947501,199.42129698282653
3595.8367,3.169873159549016,234.0835028257984
3596.6638,3.1621939102087517,222.38339835244855
3597.4934,3.1560385914326083,249.01440478263243
3598.3208,3.152421102473176,237.6329806278664
3599.1506,3.1513651626742694,226.6044925743075
3599.9788,3.1522661251207618,242.6256937189841
3600.8088,3.1543960029116143,252.91906997659032
3601.6372,3.156986347851613,228.9191294108232
3602.4678,3.158969873442637,241.06027762633852
3603.2964,3.1589687611258257,224.3469237781623
3604.1252,3.1559279408361682,233.0964419851778
3604.9565,3.1497291408080144,250.74871839356013
3605.786,3.141415319545427,234.05971941660692
3606.6172,3.132621458670862,237.39500014428393
3607.447,3.1249872326973134,244.12625696972623
3608.2788,3.119372888744979,240.74095400579083
3609.109,3.115671866645377,246.33158649051362
3609.9392,3.112925217853093,225.13847298570835
3610.7717,3.110035040111068,234.26212143873798
3611.6023,3.1065905644861673,232.49747137973543
3612.435,3.1032828409588475,243.10821368432295
3613.266,3.101660091507976,246.71772220545063
3614.0994,3.1030564527125937,242.2692075341295
3614.9307,3.1075581433938235,235.67041058931736
3615.7625,3.113797267715561,245.4656045123183
3616.5962,3.1197510702586464,235.53673712855746
3617.4282,3.1238382408992598,239.3834897507283
3618.2625,3.125617500475762,235.75809785106912
3619.0947,3.1255424037556274,225.17821577040772
3619.9292,3.1244302722041284,236.47808545949283
3620.762,3.1229864019062257,226.52437053079473
3621.595,3.121611853480101,263.639899175297
3622.4302,3.120445503625048,243.26362716601912
3623.2634,3.119464856495924,240.2065588153097
3624.0989,3.118486683916246,228.31365952751491
3624.9326,3.117177159053253,233.2931859791254
3625.7686,3.1151877501916303,202.5137236880331
3626.6028,3.1125200435466644,240.83245633069822
3627.437,3.1096467630071487,260.73681669782
3628.2734,3.107198908747654,274.16704171297937
3629.1082,3.1054806417588936,257.468408802514
3629.945,3.104293931918238,252.0693578692592
3630.78,3.103307642899724,245.37334369346735
3631.6174,3.1024232625533887,233.0365511112641
3632.453,3.1018839292759828,269.99694146647664
3633.2883,3.1020529741385063,240.79407361027793
3634.1262,3.1031254797308203,268.8833302278879
3634.9622,3.1048995186458477,255.1034201745798
3635.8005,3.106859254793344,241.94832677332704
3636.637,3.1085176377682573,244.92500002249295
3637.4756,3.109834886413815,248.03815765911025
3638.3123,3.111156827115225,247.6529074058388
3639.1492,3.1127843531032537,238.2935596604263
3639.9885,3.1145529452033673,230.2016681178484
3640.826,3.1158727139145688,248.9699322501631
3641.6653,3.1162717324404308,249.87398732851048
3642.5032,3.1159847374537195,190.4381635268147
3643.343,3.116168210979473,275.15897213967827
3644.1812,3.1182960073005956,269.8370849718383
3645.0195,3.1229657304626794,234.63846820635828
3645.86,3.129105170232988,253.80190020508283
3646.699,3.134416805795273,221.61899551386938
3647.5398,3.137035007389574,247.951975274755
3648.379,3.1367023530337774,236.74676203063493
3649.2202,3.1346971213792894,233.36719076286153
3650.0596,3.1326901682640527,226.01772251665128
3650.8994,3.1317262865607294,237.2358375751541
3651.7412,3.132068606443452,246.09673091148696
3652.5813,3.133447657139805,225.7766367572815
3653.4236,3.135112977261718,278.4314876597881
3654.2642,3.135679338381131,242.9315750994759
3655.1067,3.1335287393647744,237.4951414374776
3655.9475,3.127945346926701,208.88579091669737
3656.7886,3.120034578341153,229.36980661126017
3657.6318,3.112338987813318,245.54259697842667
3658.4734,3.1073216161051502,240.55140762664746
3659.317,3.105869883900192,249.36206797971852
3660.1587,3.1073364534231978,229.5801555810548
3661.003,3.1104595990930752,265.0894125105675
3661.845,3.114128991841038,246.46476558265744
3662.6875,3.1175771258239933,213.943288782773
3663.532,3.1202691596468095,213.14798422140274
3664.3748,3.1219768249143653,261.03336816883836
3665.2197,3.1228941195432727,243.08242357170644
3666.063,3.12346367129542,226.73848524143958
3666.9084,3.1241518684768756,254.81609228723067
3667.752,3.125293376223653,255.06204309012827
3668.5977,3.127093337190377,235.26813591253963
3669.4417,3.129599159780192,220.85654664369787
3670.286,3.1326228814056445,247.13711898120187
3671.132,3.135544238455283,227.76110987167766
3671.9768,3.1372636786318777,215.05335567940153
3672.8235,3.1366541735272317,219.41409986603014
3673.6685,3.1332929310212774,219.0658030790639
3674.5156,3.1279370094458474,250.25186766439586
3675.3608,3.1223365252705184,244.19912293885469
3676.2063,3.1183187426473524,253.52863937870887
3677.0542,3.117031826457218,247.3665048355361
3677.9,3.1186107224462623,215.69753225834043
3678.748,3.122321192640128,244.8503505885034
3679.5945,3.1269010468520264,264.31984132357246
3680.4429,3.130998964294786,246.62573419551248
3681.2896,3.1334713175415834,217.16358312479792
3682.1365,3.1337290000745277,248.02780481035035
3682.9856,3.131787623345664,213.92633672551094
3683.8328,3.1281807384667184,205.55069570586727
3684.6824,3.1236355241013207,264.71231922081216
3685.53,3.1187992213695823,231.35400082047846
3686.38,3.113883970146401,227.87771062379323
3687.2278,3.108751491686014,267.71686411215836
3688.0762,3.103179458747737,244.35411413886786
3688.9265,3.0974104546107424,228.0851856924464
3689.7751,3.0924003627640464,229.44751106953484
3690.626,3.0893846699729335,280.19162422514887
3691.475,3.089256865457885,246.90576982858332
3692.3264,3.092031745058344,258.69100298035977
3693.1758,3.0969486158445387,258.30405076105546
3694.0254,3.1031538298002364,217.2047523198886
3694.8772,3.1104246215412075,259.85675326630553
3695.7273,3.1191631732764717,226.09065018950616
3696.5793,3.129445716147241,233.8451107528335
3697.43,3.1394101428258585,237.0360970035132
3698.2825,3.1452945254494056,245.03709550791652
3699.1333,3.1433796635403795,251.06562001085422
3699.9841,3.1327569516309413,255.69813338918297
3700.8374,3.115949394090334,252.09230157682128
3701.6887,3.097418174999129,250.3018146091894
3702.5425,3.080882763458559,261.6381634127834
3703.3943,3.068459915324277,251.03511850243476
3704.2483,3.0604402679481377,254.5710865373967
3705.1003,3.056098410198464,240.23325105444528
3705.9526,3.0541037503233364,272.1664762329939
3706.8074,3.0531176323061375,235.82303091803175
3707.66,3.052142394202689,244.3349372643555
3708.515,3.05064454212086,243.4805274734416
3709.3682,3.0485862160727293,256.14323270972125
3710.2234,3.046345679930465,229.14855536370212
3711.0771,3.0445307847779524,248.62307756431852
3711.9307,3.043492835237542,240.03557021545487
3712.7866,3.0429277195449123,228.59157507063043
3713.6409,3.041968190575748,250.48879458654707
3714.4973,3.0398569144871255,258.433007032203
3715.3518,3.036702436435527,257.79253664647564
3716.2085,3.033470193120538,265.1851751022115
3717.0635,3.031215164142917,299.2372703415685
3717.9185,3.0300358233051283,260.50514979118793
3718.776,3.02882645063056,252.7503315463528
3719.6313,3.0260106463588756,233.4746119174694
3720.489,3.0206780776584026,259.4213085309698
3721.345,3.0133539891529355,231.0715915349175
3722.2031,3.0056419718648546,257.95558705853824
3723.0593,2.9992571200299336,281.8231579563441
3723.9158,2.9947050318919124,254.8703708755186
3724.7747,2.9909349490190755,256.315985394558
3725.6316,2.9861789477533187,262.6038224083033
3726.4905,2.9794628974325286,244.411907563483
3727.348,2.9717686699624606,281.27023771865913
3728.2073,2.96549216590518,273.08262688303364
3729.065,2.9628368352627703,287.9566920752279
3729.9229,2.9641027020825597,262.0765080887682
3730.783,2.9675286393214617,252.785898125263
3731.6414,2.9705184996945566,257.3059450693672
3732.5017,2.971403869331591,262.0083577138743
3733.3604,2.970205426180736,284.8369037942989
3734.2214,2.9680431911057585,263.71197983710357
3735.0803,2.9658727245532317,301.94792451636806
3735.9417,2.963700124340329,247.02318847149593
3736.8013,2.9609874137277226,251.84483808445069
3737.661,2.9575288874918964,299.9414671183152
3738.5227,2.9538982433378655,255.71269273638399
3739.3828,2.9510226254487892,269.7472553735931
3740.245,2.9492765071623688,267.9789432890049
3741.1055,2.94813932299855,265.06375397115636
3741.9683,2.946635515187656,247.30661869439865
3742.829,2.9442845437552645,261.2431082040527
3743.69,2.9415102385315235,271.9982339522187
3744.5532,2.9391260155242165,227.6631277241907
3745.4148,2.937461477088697,276.3142052790859
3746.2786,2.9360588568753148,261.94003484990617
3747.1404,2.934320445072946,295.01736437948756
3748.0044,2.9321855743310046,257.21923699498524
3748.8667,2.9301689266949675,302.46069889677733
3749.729,2.9287230010472265,312.7103105143075
3750.5938,2.927813347082703,243.71700984226777
3751.4565,2.9271369458868874,268.93225532904586
3752.3215,2.926621829440553,259.62161251050736
3753.1848,2.9265252993081203,267.4069308512662
3754.0503,2.9269473767257996,263.36903359954516
3754.9138,2.9274750148787843,256.1346366692767
3755.7776,2.9275451980790903,259.0197212146737
3756.6438,2.9271744597068725,265.1603057331872
3757.508,2.9271896909458843,258.9712076340885
3758.3745,2.92855533115817,271.2058456385287
3759.239,2.931352941934196,271.1321161480387
3760.106,2.934383471649715,267.53792667222285
3760.971,2.9357098580295133,251.19721843891483
3761.8362,2.9338982523221695,264.5549246870307
3762.7036,2.9288834410595572,257.3837771496838
3763.5693,2.9220811981312864,277.9523251405626
3764.437,2.91559062979991,293.99766676989316
3765.3032,2.9113806391060106,260.4293575596905
3766.1714,2.9105376353668855,313.0380951337123
3767.0378,2.912966438527054,277.60513711706403
3767.9043,2.917359348107413,262.64849941905874
3768.7732,2.9217186545158746,272.9787525595766
3769.6401,2.9242510688184704,277.4522064903276
3770.5095,2.9243221449531243,256.4852441919562
3771.377,2.922602292201567,334.97594935612636
3772.2466,2.920421665773233,288.6669148639033
3773.1145,2.9188291280102594,271.5834465772537
3773.9824,2.9180744548838553,282.4880129001721
3774.8528,2.9178838203791,246.77547193109996
3775.721,2.9179914785702015,284.3242398228635
3776.5918,2.9183304577359364,284.7918813708932
3777.4604,2.9188098969498406,269.7616225012064
3778.3315,2.9191393646360044,300.10813470406833
3779.201,2.9190038323943246,301.2680369045225
3780.0703,2.9184147828278,251.74467214198592
3780.942,2.9177549190082663,271.3033816899066
3781.8118,2.9173940369357485,288.2425167209914
3782.6838,2.9172303580515666,282.0126281851578
3783.554,2.9167137071351896,279.32808070760956
3784.4265,2.915324188509515,251.91022906194704
3785.297,2.9130110591655005,272.25217379092726
3786.168,2.910131195572756,269.1608316084278
3787.041,2.907112427618713,245.11612797248057
3787.912,2.9041926342637328,273.3446821720583
3788.7856,2.9012527852824284,275.90293964995715
3789.6572,2.8978976662501736,292.74593963199766
3790.531,2.8935584948380932,284.9298027639777
3791.403,2.887802341120745,268.5761315121052
3792.2754,2.8804072671805816,288.821442973137
3793.15,2.871385834993079,281.8269370321976
3794.0225,2.8611247404959594,280.0696994017617
3794.8972,2.850383121295893,311.9771846746658
3795.7703,2.840455107416778,272.97828270456955
3796.6455,2.8325987495904266,304.2770786044865
3797.519,2.827673163946444,315.68879758404154
3798.3926,2.8257700440724927,289.4432252570207
3799.2686,2.826503784861185,282.4559200007181
3800.1426,2.829387099910667,294.1770178838592
3801.0188,2.834101079497663,272.99846273687155
3801.8933,2.840365388045011,292.4180409680437
3802.77,2.8477313754080567,282.36217690165006
3803.6448,2.8552918284703597,302.6139140926225
3804.522,2.8619797451360713,278.88655638499984
3805.3972,2.8668819344304315,313.5344128212555
3806.2727,2.8697480919283382,292.5523499049546
3807.1504,2.8709351712810527,286.6067468968636
3808.0261,2.8711186477743778,310.54394161347625
3808.9043,2.871022275442654,263.59885236723136
3809.7805,2.87134280655223,301.1632969190843
3810.659,2.8727466257500094,273.6603100514981
3811.5356,2.875663466307462,286.01009785837135
3812.4126,2.8800290406015567,251.8763298545343
3813.2917,2.8852638784423275,287.2778285895394
3814.169,2.8905188607373287,279.3134677424323
3815.0483,2.895067058571215,293.4443447424765
3815.926,2.8982851712067936,272.51022008315323
3816.806,2.8996821487990436,279.51712318162026
3817.684,2.8988657732703014,265.6314367577624
3818.5623,2.895626702396584,286.8904955593262
3819.4429,2.8898998286127653,285.1245023083354
3820.3215,2.881817852586274,261.26302829511667
3821.2024,2.8715831875268436,278.3578903782689
3822.0815,2.8595354645502447,317.8849388558527
3822.963,2.845927991081929,279.9899808673383
3823.8423,2.831308723573136,307.9845519015126
3824.722,2.816524298897307,304.83105084232824
3825.604,2.8026874849349794,314.1538911742722
3826.4841,2.790721551015914,300.6012500742449
3827.3665,2.7805441639038495,309.94369861946274
3828.2468,2.771129684169082,322.7443908986235
3829.1296,2.7606739900105057,306.78813135601894
3830.0105,2.747594256590946,323.45316964350724
3830.8916,2.7312788842137463,326.40512997232923
3831.7751,2.712680175793416,312.31608670815723
3832.6565,2.694170490027293,303.158476160591
3833.5403,2.678109142864829,315.32616440690333
3834.4224,2.6660885189022716,376.2027381510878
3835.3064,2.6583293784995563,339.7107472761795
3836.1887,2.654518521836267,326.25612624629593
3837.0713,2.6545735514925024,384.65507983349215
3837.956,2.6590445303484116,304.3001264880719
3838.839,2.6685245295729825,377.90683685926007
3839.7244,2.682925859837944,319.64809946628907
3840.6077,2.7009386752356805,316.4270078168265
3841.4932,2.7206364366830766,303.4989902721204
3842.377,2.739911507545792,310.2210640950993
3843.261,2.757448842198295,315.4834366495358
3844.1472,2.772901006208002,292.9620376765594
3845.0315,2.786701899460845,320.47488891901116
3845.9182,2.799872116260803,313.60583359550805
3846.803,2.813126974539953,289.6034942463621
3847.69,2.826695322095066,304.0998546830146
3848.5752,2.840103131491415,280.64667843431
3849.4604,2.8528417145027882,294.2156654838624
3850.3481,2.8647088887084413,296.9884272685774
3851.234,2.8757009920698295,273.0837812609739
3852.122,2.8858490158856807,291.29095482036104
3853.0083,2.8947142315565246,274.1872871932664
3853.8967,2.901717300113462,275.2700727738593
3854.7832,2.906465858969331,272.51621999223545
3855.6702,2.9093219996357877,276.88097901957735
3856.559,2.9113047074125653,280.1171084317598
3857.4463,2.9135172598515626,265.3583796458744
3858.336,2.916448111821469,276.0357161649953
3859.2234,2.919667150284964,264.26915321535813
3860.1135,2.922334600040468,263.65451882065713
3861.0015,2.923846317174826,273.21500516790036
3861.8896,2.9241584979770776,271.16119838197824
3862.7803,2.923427253619591,311.633367745682
3863.6687,2.9215961497723475,266.01490821659974
3864.5598,2.9183034468475055,277.0707948869323
3865.4487,2.9131378419058502,254.24363563622168
3866.34,2.9057143647465185,281.1000619738268
3867.2297,2.895822519628392,275.31011429009595
3868.1213,2.8834028226424917,242.62524454560997
3869.0112,2.8688465463933674,319.14946716874846
3869.9014,2.8527090348990702,310.68979761070284
3870.7937,2.835375216365,283.7002322527646
3871.684,2.816900997745131,302.32072138641524
3872.577,2.796893901548857,269.45350411177907
3873.4678,2.775423757022492,291.0812592831406
3874.361,2.7530460253045934,293.12599594309836
3875.2524,2.731057289876896,313.2271797407115
3876.1438,2.710440309167459,335.4178708795893
3877.0376,2.691374528552825,299.8370529171938
3877.9297,2.6732732834752304,308.6505368245616
3878.8237,2.65493837111272,298.61539153768774
3879.716,2.6354838118128643,340.52531634489685
3880.6108,2.6143495408918063,322.99658853940804
3881.5037,2.5916310056434306,351.84227239088193
3882.3965,2.567487902261231,344.87573400689496
3883.2917,2.5420063817016794,367.1720885561896
3884.185,2.5153058475905508,391.828604762245
3885.0808,2.487224793608052,366.0669063783514
3885.9746,2.4582532877618744,440.4838613699744
3886.8706,2.429488038493373,404.4681493178623
3887.765,2.403383666871315,409.35895074817523
3888.6592,2.3829623554528427,423.4831156656669
3889.556,2.3711326906439205,429.00356032209226
3890.4507,2.3696947382370017,436.90563738081914
3891.348,2.3785975530630585,456.8187525452743
3892.243,2.396243029486305,386.07593833885915
3893.1406,2.4206123473096275,415.00701684227363
3894.0361,2.4497726174332066,400.2325067881234
3894.932,2.4824516767946547,377.0632576303743
3895.83,2.5174537840983864,360.47075129804585
3896.7263,2.5530875649321247,371.7452097521782
3897.625,2.588004146170314,323.41664700002275
3898.5215,2.620905657557457,351.6734703047636
3899.4207,2.651380805240496,335.01060559788857
3900.3176,2.6791462059943023,297.9598621482388
3901.2148,2.7046660972012457,329.70242118988966
3902.1145,2.7289058537311264,337.24536759559396
3903.0122,2.7529546656708397,300.21701351393915
3903.912,2.7779548998176846,329.15496717217746
3904.8103,2.804225858174636,315.53521470541943
3905.7107,2.831581834101573,304.93666242173236
3906.6094,2.859049986803503,268.28900948189937
3907.508,2.885617837619915,279.9063561573965
3908.409,2.9104328413217218,278.77209322091784
3909.308,2.932885128679786,250.23762386806882
3910.2097,2.953082149680125,273.4382803868236
3911.1091,2.9713704138112567,254.98535714918333
3912.011,2.9885696017732144,293.5007761472454
3912.9111,3.0053807421283074,282.02282949978957
3913.8113,3.022458272871623,255.62799853359692
3914.7136,3.0400821722056506,243.70838932752616
3915.6143,3.0578368265136326,258.20587697769633
3916.517,3.0749304261878834,247.7065991805548
3917.4182,3.0903295292094506,229.78918999671106
3918.3215,3.10359835607751,240.98052502713978
3919.223,3.11480362425964,234.2601410170518
3920.1245,3.1244088788842115,226.81510290013702
3921.0286,3.1327518349757555,256.21981062625537
3921.9307,3.1398750948743923,232.42560765094942
3922.835,3.1457763190220382,240.8052352956155
3923.7373,3.150392163921635,238.00140520439763
3924.642,3.1537167021318635,233.18871105198318
3925.5452,3.15568239297343,250.39992358207357
3926.448,3.1562377426175003,242.25532671859517
3927.3535,3.155365396478298,237.33113061232785
3928.257,3.153097526378271,242.07130833572324
3929.1628,3.149395221328892,227.4675882655147
3930.0667,3.144120368376328,244.222820360365
3930.9731,3.13708439909149,235.61213218085643
3931.8774,3.1284262962902294,231.15999267269152
3932.782,3.1186577666137545,228.83495627831732
3933.6887,3.1086031875030886,235.2770749711265
3934.5938,3.0991255824848527,237.2591142006829
