wavl,flux,ivar
3566.9744,1.1223235704558903,400.00114327066007
3567.795,1.1138598620897724,544.4077050679616
3568.6177,1.1075314112876906,494.3152413409706
3569.4385,1.1038250293056173,448.6107000559393
3570.2617,1.1024051170421805,417.5842242218945
3571.083,1.1025822185235006,534.7786153504142
3571.9065,1.1038903089540335,494.9874285557164
3572.7283,1.1063468002102277,489.95774101773156
3573.55,1.1101600719294487,471.7545928500239
3574.374,1.1152206041697612,509.0709857339748
3575.1963,1.1208313992286205,443.43612718589907
3576.0208,1.1260936979493206,485.74413315700167
3576.8435,1.1303642620237275,545.9775023149447
3577.6682,1.1336139343097942,544.0420678504084
3578.4915,1.1360429627039907,558.5432491256014
3579.3145,1.1375907808149905,479.9563914529584
3580.14,1.1377543511880701,455.90928374828
3580.9636,1.1360016358625031,497.04938602151924
3581.7893,1.1322619585291913,427.01610480970385
3582.6133,1.1269921519441306,541.3027412811882
3583.4395,1.1207272729765225,523.1991660391885
3584.264,1.113870678459966,455.5630593365614
3585.0884,1.1067085806009658,464.9692362416564
3585.915,1.099787741304841,549.2036305130201
3586.74,1.0941114345127532,607.2618303768521
3587.5671,1.0907384867963057,699.4941208983611
3588.3923,1.0903160916684398,474.3513429738043
3589.22,1.092565048790576,698.2356818386734
3590.0457,1.0962594694439376,606.1564891997145
3590.8716,1.099714427359587,572.5788875432879
3591.6995,1.1014709307003228,478.3474326956235
3592.526,1.1008537202754414,550.6334584657692
3593.3542,1.0981878702340995,454.3796486438193
3594.181,1.0946567769490945,699.5119966907348
3595.0098,1.0918089872507724,522.058517092023
3595.8367,1.0908810662985513,634.648179987195
3596.6638,1.0920461967820005,637.0499099600762
3597.4934,1.0943496679668707,467.9618829561131
3598.3208,1.0963732702252655,493.81330659347
3599.1506,1.09719396486147,369.036660952178
3599.9788,1.0966548004342462,490.4663878803799
3600.8088,1.0950028885970777,423.5482508415893
3601.6372,1.092487473286229,632.9387355598041
3602.4678,1.0893346941875526,470.19344422676863
3603.2964,1.0859506820718314,541.7823838291387
3604.1252,1.0827670502642812,425.99549719355355
3604.9565,1.0799614847861767,621.740584618667
3605.786,1.0774028305139987,540.8533449659105
3606.6172,1.0749582096995103,484.06934776219475
3607.447,1.0729775225795173,550.0505550706857
3608.2788,1.0722078863104725,467.19320771449594
3609.109,1.0731888564542107,587.1295747683369
3609.9392,1.075597033751973,844.3550040492258
3610.7717,1.0783145811610964,506.477744505067
3611.6023,1.0801844859607226,565.2521072224815
3612.435,1.0808343294879064,492.112039298456
3613.266,1.0806573943081277,526.8519741127814
3614.0994,1.0801741369896094,520.6404478367378
3614.9307,1.0795027006816322,476.7814900054997
3615.7625,1.0784593908412112,506.38265234835853
3616.5962,1.0769866637169747,511.356956823505
3617.4282,1.0753326153755205,477.8263045620738
3618.2625,1.0738465490210463,565.167392985665
3619.0947,1.0728393277301975,513.3306787407421
3619.9292,1.0725923147724408,524.3742630117889
3620.762,1.0733577250232627,562.5851485417073
3621.595,1.0750436956949407,544.637249495931
3622.4302,1.0768980136147308,570.5147394255602
3623.2634,1.077682652360505,557.1069866085058
3624.0989,1.0764759097154661,580.5987432399295
3624.9326,1.0733734757514157,520.799545957204
3625.7686,1.0694319661550373,586.2722389297725
3626.6028,1.0660002388090222,481.347906232701
3627.437,1.0639067668773583,409.8484570123464
3628.2734,1.0632067906598903,667.8074966434758
3629.1082,1.0634074081481975,508.9419438149071
3629.945,1.06401503214903,551.3201016184768
3630.78,1.065073122043531,468.24511781468965
3631.6174,1.0672369720358437,555.3579198677086
3632.453,1.0711653428416799,572.01832623923
3633.2883,1.0767942155713337,544.373157246387
3634.1262,1.0830799052027122,443.7242639818756
3634.9622,1.0883485809341997,445.10621325606667
3635.8005,1.0911361790665424,500.4265523633351
3636.637,1.0907383340623995,496.1392176049022
3637.4756,1.087615082349982,557.3990672642229
3638.3123,1.083265567579729,554.4194192767195
3639.1492,1.0794767225075688,526.2376521007952
3639.9885,1.0773538831612932,511.64838589125804
3640.826,1.0767453301703034,562.0491290763823
3641.6653,1.0765376579520078,540.4968096318528
3642.5032,1.075691704134079,600.9296637308018
3643.343,1.0740644910060102,582.9033437574233
3644.1812,1.0723921316891356,478.90826157605363
3645.0195,1.071497823837136,564.6343317989413
3645.86,1.0715687799106797,476.0840912629461
3646.699,1.0720102176016846,576.5194209985666
3647.5398,1.071846425548775,494.6878004500173
3648.379,1.0702985976448887,547.5496533385412
3649.2202,1.0672752211721797,518.3923106206324
3650.0596,1.0636239814694777,611.3997887335264
3650.8994,1.0607364376065442,497.54567273707454
3651.7412,1.059665206191253,562.4556775607504
3652.5813,1.0602416419434195,527.0926780498045
3653.4236,1.0610216887687203,645.2632667447319
3654.2642,1.0601974099768077,450.7333523620334
3655.1067,1.0567569339575034,695.3359403014776
3655.9475,1.0510959732393483,483.12689396725904
3656.7886,1.0447069934015416,510.6625687429926
3657.6318,1.0393344727055238,888.6548647404286
3658.4734,1.0360732800396961,618.5315853999479
3659.317,1.0348190360511569,506.9164334088843
3660.1587,1.0346577809922906,471.9857270830925
3661.003,1.0347377972109109,567.070110725629
3661.845,1.0350138385274095,521.6866515336069
3662.6875,1.0361670555386235,471.95784630862653
3663.532,1.0387934294533836,738.8442839794518
3664.3748,1.0425683277321138,520.6236114226557
3665.2197,1.0461890075430065,639.295660198221
3666.063,1.0479624433039427,542.7891150384733
3666.9084,1.046755516580389,555.2870672538061
3667.752,1.0426350797909663,682.565635877338
3668.5977,1.0369343052959576,645.9058098075581
3669.4417,1.0316976548384416,619.8993953777434
3670.286,1.0285315193177598,541.8907008303441
3671.132,1.0278862234323534,659.9687712835629
3671.9768,1.0291546286262927,467.97531313481704
3672.8235,1.0314380376728867,597.8267742538383
3673.6685,1.0341194384505692,663.0425585781758
3674.5156,1.0368089454207003,500.8135186563583
3675.3608,1.0388966293792725,529.5017055223268
3676.2063,1.039556466331836,464.90625819670527
3677.0542,1.0381802855869986,577.2070857624503
3677.9,1.034889631616618,471.70416314294675
3678.748,1.0304666125123478,563.5452956394571
3679.5945,1.0259041795961183,561.5790699958992
3680.4429,1.0218400269883932,651.5874631883493
3681.2896,1.0185128986095133,564.7373915880491
3682.1365,1.0158524464201644,731.7260691120789
3682.9856,1.0136720305706028,625.1087051669325
3683.8328,1.011800068679495,644.4560698188394
3684.6824,1.0101951781205938,490.4626223164267
3685.53,1.0090609915595783,543.0834328688167
3686.38,1.0086754395990496,547.2477704100028
3687.2278,1.0091922000510414,583.4805976976028
3688.0762,1.0106029246528898,734.895169226101
3688.9265,1.0128630850961138,575.4034919052865
3689.7751,1.015820073315779,542.3281764542752
3690.626,1.0190191713165346,720.1024391245245
3691.475,1.0216439277901275,590.6171553438812
3692.3264,1.0230106177973806,525.1371057250333
3693.1758,1.0230532130999017,740.0592565965522
3694.0254,1.0223853126321394,614.8298133484716
3694.8772,1.021777589690789,601.8903417393094
3695.7273,1.0216379434273104,558.2047273074695
3696.5793,1.0218938731915068,595.5633489053174
3697.43,1.0222370163162071,544.1647488424611
3698.2825,1.0223575827982316,446.5735992700086
3699.1333,1.0220061023378373,500.93169960083634
3699.9841,1.0210163986853469,498.19648505375153
3700.8374,1.0193959669994224,439.28511566866837
3701.6887,1.0174346473984264,663.5634793097033
3702.5425,1.015596367503418,600.7768099625903
3703.3943,1.0143218563494842,521.2807589976567
3704.2483,1.013794114233482,658.4856863524626
3705.1003,1.0139180282776767,715.483980330632
3705.9526,1.0143905569183178,721.465847539225
3706.8074,1.014848770704559,640.1601956232472
3707.66,1.0150256172366392,568.0586747920485
3708.515,1.014883176654429,648.4484961473228
3709.3682,1.014612171146795,646.760743965144
3710.2234,1.0144999470963199,608.0105412149094
3711.0771,1.014752981538913,657.7353074257304
3711.9307,1.0153728632901495,728.0030428036541
3712.7866,1.0161299018274,505.9022319816678
3713.6409,1.0165809705089919,613.5614820411423
3714.4973,1.0161853857948508,782.1838633166543
3715.3518,1.0145883770660935,459.9879852413646
3716.2085,1.0120170774698298,655.9578548910979
3717.0635,1.0094332707351805,843.2450660043394
3717.9185,1.0080072779474352,708.2098629760794
3718.776,1.0083523577367204,617.8350532092868
3719.6313,1.0101580667338266,660.7338015908491
3720.489,1.0125619770213996,578.8136174463093
3721.345,1.0147501897282927,608.5909255192972
3722.2031,1.0163359374145453,456.1896923389305
3723.0593,1.0173008839141353,644.8998117997714
3723.9158,1.0178407989737588,679.6394135514263
3724.7747,1.0181452534279027,760.2178791609468
3725.6316,1.0182464134051712,604.8804970450959
3726.4905,1.0180069629545239,551.310166592499
3727.348,1.017247035805951,620.7199650713121
3728.2073,1.0158895696305075,574.3038822987861
3729.065,1.0140428330257405,744.6306452378751
3729.9229,1.0119640381551143,661.9694017548851
3730.783,1.0099830009985802,629.7335451967639
3731.6414,1.0083928659276122,574.6993741265724
3732.5017,1.0073245026059747,651.4158378857472
3733.3604,1.006777868580353,631.81279560282
3734.2214,1.006697496294143,592.1877698183074
3735.0803,1.007075586295279,688.5881887428812
3735.9417,1.0079575858149468,518.969803707789
3736.8013,1.0093413054622677,742.6981326952886
3737.661,1.011068775661721,543.3452136289393
3738.5227,1.0127536282921583,656.8739384292461
3739.3828,1.013737709752061,538.5217762410849
3740.245,1.0131291724534075,562.3148261726491
3741.1055,1.0099966830186053,490.2085269659093
3741.9683,1.0038789346349177,436.8222394844508
3742.829,0.9955141959858482,601.255149009046
3743.69,0.9869313297384856,488.74252313781176
3744.5532,0.9807330275280861,593.9925115097119
3745.4148,0.9788045550136802,555.0777489972999
3746.2786,0.9813056304203407,635.269120616767
3747.1404,0.9868861724232639,702.7210608774514
3748.0044,0.9936383353335092,677.4500473736501
3748.8667,0.9998073467661193,707.2433689302295
3749.729,1.004263270371715,596.366267293042
3750.5938,1.0066369688290482,610.4128529422394
3751.4565,1.0073980638195974,678.5939180514583
3752.3215,1.0076263771638037,679.9305516521576
3753.1848,1.0083126564395928,599.793373109237
3754.0503,1.0097267518144568,696.2451948798274
3754.9138,1.0112952992748832,703.2331081644979
3755.7776,1.0121222922421866,598.8187866015895
3756.6438,1.0116287856194839,654.7468127532261
3757.508,1.009869915900526,470.3917937792034
3758.3745,1.0073262294966325,536.95892062046
3759.239,1.0045048887278765,742.4252014901947
3760.106,1.0016171694345954,611.1009597051925
3760.971,0.998680364786681,565.4313330841625
3761.8362,0.9957271755432301,601.1775602765101
3762.7036,0.9930424949445792,660.2359407875258
3763.5693,0.9911693449441696,540.983863203982
3764.437,0.990653626419339,539.9323209109307
3765.3032,0.9917903384865562,682.0914689355734
3766.1714,0.9944159383614808,648.7573312696076
3767.0378,0.9978594753996081,513.7802574138778
3767.9043,1.0011577875216897,688.5574702502794
3768.7732,1.0034093670066155,581.8330334014095
3769.6401,1.0041631312370836,650.4559661000981
3770.5095,1.0036603126636063,540.3018375849805
3771.377,1.0026185630140747,596.6956894317982
3772.2466,1.0016725516964156,617.6589831056042
3773.1145,1.000866403556016,624.9274625336284
3773.9824,0.9996449791868145,611.2881340223274
3774.8528,0.9974698191948784,595.7743147366186
3775.721,0.994570247615966,516.0942289870878
3776.5918,0.9920759322915814,728.994906063469
3777.4604,0.9914732542939441,757.0392897865843
3778.3315,0.9936188993749762,724.3056776147632
3779.201,0.9981513138167335,672.1821844743353
3780.0703,1.003693453933837,574.4565865637126
3780.942,1.0086442445379087,590.2662562112391
3781.8118,1.0119140380100016,690.7303267222218
3782.6838,1.0132663022162558,598.4731483405795
3783.554,1.013015800643499,589.5883710897913
3784.4265,1.0116236699672854,648.5015933113116
3785.297,1.0093754559766936,613.7033151839867
3786.168,1.0062718749122435,461.96237901263703
3787.041,1.0021878952419938,519.8420472208777
3787.912,0.9971853166779885,590.9399883558423
3788.7856,0.9915239769877123,650.912718760402
3789.6572,0.9855119079368145,682.124184081011
3790.531,0.979161861404918,570.6725307318504
3791.403,0.9725049399368916,598.2469387848923
3792.2754,0.9659086211286149,717.17967737959
3793.15,0.9601032368367405,690.5324389019044
3794.0225,0.9556586011985944,634.278783853319
3794.8972,0.9524543161074934,679.0247234454811
3795.7703,0.9499581495345174,742.3738978348425
3796.6455,0.9476999065820447,695.2384225404854
3797.519,0.9456157657398296,763.6912469271579
3798.3926,0.9439197793826664,782.9107007809151
3799.2686,0.9429227316492839,812.0109889434453
3800.1426,0.9429540290895415,730.1199155703191
3801.0188,0.9443618793099681,815.5727253354879
3801.8933,0.9474759922686365,781.1656154537438
3802.77,0.9524397928951527,756.9704023269541
3803.6448,0.9588667102369921,671.5077437158627
3804.522,0.9658842963137068,683.4863135058356
3805.3972,0.9724701228834576,654.9140447792813
3806.2727,0.9782662052788815,549.4826011593557
3807.1504,0.9837974357274073,649.5551816891548
3808.0261,0.989955329825129,839.3028607752019
3808.9043,0.9972348154349919,664.382687452499
3809.7805,1.0050873972543306,647.1330668247757
3810.659,1.0122518457288605,589.9512649510783
3811.5356,1.0173304416328446,577.9224991266609
3812.4126,1.019627364226726,551.5344950150425
3813.2917,1.0193432301524963,774.6330942970167
3814.169,1.0172846873310606,566.7775997832834
3815.0483,1.0142562287379073,600.6309599146444
3815.926,1.010708710870228,691.5918175035254
3816.806,1.0067441797464214,612.5479847006159
3817.684,1.0024541905745248,575.1692651308285
3818.5623,0.998014165331627,662.8191209532777
3819.4429,0.9936370267017727,630.3523494264823
3820.3215,0.9895008149844084,618.3884204873408
3821.2024,0.9856484925361436,569.9085615985231
3822.0815,0.98206213936539,722.7626262346221
3822.963,0.9785387222524387,570.5590783759714
3823.8423,0.9747356239870053,588.7760250334657
3824.722,0.9702150767036003,723.2488965499149
3825.604,0.9646218294822814,667.3285908774698
3826.4841,0.9578314953296874,744.4916096257177
3827.3665,0.9498740903376833,677.0903805662466
3828.2468,0.9410598256033926,657.1779010697452
3829.1296,0.9317681635047292,630.077509258959
3830.0105,0.9224480253014403,725.0096074487258
3830.8916,0.9132802025722354,676.6560451678865
3831.7751,0.9042603584079627,877.834747890712
3832.6565,0.8955093732211764,835.345322831286
3833.5403,0.8873536684695175,733.2773629587484
3834.4224,0.8805030711210722,1077.6974992952041
3835.3064,0.875688558748302,970.7710443572818
3836.1887,0.8735805029778253,740.1236710354324
3837.0713,0.874683750362366,803.2306517526322
3837.956,0.8794221180466228,812.7314251424943
3838.839,0.887923358393621,888.9194997062513
3839.7244,0.8998024247612428,605.6374467561594
3840.6077,0.9138633182963821,986.4104291199317
3841.4932,0.9286000143233363,754.8413769823336
3842.377,0.9425791563596954,630.8268691142293
3843.261,0.9552015202974442,546.7390721266539
3844.1472,0.9666576301565347,813.617343126422
3845.0315,0.97740815854081,510.60879561200727
3845.9182,0.9877489286546648,714.3514133030404
3846.803,0.9973024989616477,594.2762028326397
3847.69,1.0054692192860983,633.7565504590591
3848.5752,1.0118009274960098,547.6804893613771
3849.4604,1.0165020049463491,520.465077883621
3850.3481,1.0203007716401937,577.2989797381946
3851.234,1.0240823651526223,555.3080615345284
3852.122,1.028623974511315,498.0499041032303
3853.0083,1.0343177671309132,687.6231940363878
3853.8967,1.0411467052098926,615.5427050092138
3854.7832,1.0485004442150017,591.4092443925567
3855.6702,1.0553559938785648,633.7355866675749
3856.559,1.0605557302478594,522.2842201589045
3857.4463,1.063322004601106,557.3800757704151
3858.336,1.0636898745556294,516.5343510631981
3859.2234,1.0623391111046434,568.9511659539609
3860.1135,1.0600736126531913,558.502312559805
3861.0015,1.0574162832417533,592.13167225493
3861.8896,1.0546367000377006,533.4445408238902
3862.7803,1.0520953682361522,568.6568797927509
3863.6687,1.0503057172787813,611.1612374498741
3864.5598,1.0494897940893397,599.5316506253785
3865.4487,1.049182842891438,604.4793819691158
3866.34,1.0482505340184336,573.9516119492367
3867.2297,1.0454844598375233,526.0381524737879
3868.1213,1.0402776043283783,584.4743248068345
3869.0112,1.0329656831496663,624.2131539432903
3869.9014,1.024449132664251,495.0058433306923
3870.7937,1.0156476437588275,575.9947485828109
3871.684,1.0072467862202352,644.1037039358533
3872.577,0.9995819064009954,654.6094105154334
3873.4678,0.9928644931039333,630.6655576794905
3874.361,0.9869217183887834,599.86794608022
3875.2524,0.9812169693441708,705.9107315878767
3876.1438,0.9748882086869824,686.5589838108065
3877.0376,0.9670974642743767,651.1979457130443
3877.9297,0.9572715627787273,698.8373193988826
3878.8237,0.9449390815927338,653.5594966679687
3879.716,0.9299395652696141,717.860465167475
3880.6108,0.9124539731670795,687.6788869445519
3881.5037,0.8934363729099143,837.7092824607147
3882.3965,0.8740772506023622,876.3810090970301
3883.2917,0.8553836325947868,921.6220531417432
3884.185,0.8379895902334096,820.8596152867156
3885.0808,0.821894285769001,967.3673489051918
3885.9746,0.8070981454172491,1254.9364318386201
3886.8706,0.7935636380461889,1005.2223149384243
3887.765,0.7816917896719644,1193.699275593696
3888.6592,0.7722702582017749,1119.2672461000552
3889.556,0.7665785122527662,1254.9530456598536
3890.4507,0.7660503166645035,1264.2010752383937
3891.348,0.7715608969048511,1069.880009304614
3892.243,0.7829276841261071,1103.0442679821313
3893.1406,0.7990438612944745,965.6447634772385
3894.0361,0.8180988036588891,867.765970617486
3894.932,0.8383715405741768,1039.2939886026988
3895.83,0.8584303452988136,740.3055935341795
3896.7263,0.8771097275500824,1017.8665382986245
3897.625,0.8939272802107969,748.5584134109455
3898.5215,0.9087979305678642,750.3982492554223
3899.4207,0.9223716885097147,815.6785004712495
3900.3176,0.9354843178665755,600.505378599641
3901.2148,0.9489651630813207,760.7377955692775
3902.1145,0.9630647021306428,598.6028654060659
3903.0122,0.9772505949537338,543.6845297543812
3903.912,0.9908342920657084,553.360560069412
3904.8103,1.0033117789189858,633.0762239090321
3905.7107,1.0149116145129913,627.9367930216056
3906.6094,1.0261647726279353,607.2980633490147
3907.508,1.0375784157082395,581.0403640993524
3908.409,1.0492374470897816,577.313924958237
3909.308,1.0607829841673462,543.361524984686
3910.2097,1.0718741996028593,575.286458038308
3911.1091,1.0821840637748685,522.8351515631863
3912.011,1.0916766386344643,532.3864968455482
3912.9111,1.1003811642994292,496.16609287618905
3913.8113,1.1084552254737428,454.4702505058445
3914.7136,1.1159299075980977,510.7275626252996
3915.6143,1.1225343068321587,492.6575738460479
3916.517,1.1279461207286026,481.5864024521751
3917.4182,1.1320416234429072,488.04387951978316
3918.3215,1.1352711583432686,545.5998559242282
3919.223,1.1385154493255483,511.38855482122773
3920.1245,1.1426914548116427,556.4476049371506
3921.0286,1.1481463199325346,457.52223379400823
3921.9307,1.1542857202402437,475.4726468739163
3922.835,1.159924551387259,470.66025351349623
3923.7373,1.163876443830959,547.370382011055
3924.642,1.1655834073790743,590.2805026215965
3925.5452,1.1650319367740067,524.6653621801747
3926.448,1.1624663858936215,479.1139042960956
3927.3535,1.158210808544466,444.84611372612255
3928.257,1.1528623341706303,499.0696890296254
3929.1628,1.147279550872865,495.81880680412746
3930.0667,1.1424386826460031,496.33798582339347
3930.9731,1.1389690209961256,461.50619315211975
3931.8774,1.1370443826219283,547.5966377217217
3932.782,1.1364058279722065,472.01089568875045
3933.6887,1.1366614881401214,547.5165654578873
3934.5938,1.1374676010335827,537.8424694806174
3935.501,1.1385274913564318,429.6152922608316
3936.4062,1.1394245906322908,544.1002544064137
