wavl,flux,ivar
3566.9744,4.368596795062408,11.252331756871495
3567.795,4.306592397144333,10.79771988819292
3568.6177,4.251332209590991,11.584289650306435
3569.4385,4.211736349271286,11.43519062504251
3570.2617,4.193516997835831,12.35922021824249
3571.083,4.195553881689747,18.887468129178387
3571.9065,4.209098182354624,9.742107331598499
3572.7283,4.223281311463611,12.022447562442316
3573.55,4.232714307191658,8.871367111590368
3574.374,4.24009949472996,14.831938641855427
3575.1963,4.25149097037717,19.93809845173869
3576.0208,4.269240722951702,18.08401258350868
3576.8435,4.289221519032216,16.223167494420412
3577.6682,4.304648799617989,15.437720759126554
3578.4915,4.310711976588334,12.945201198463895
3579.3145,4.306823625167308,20.53029325236342
3580.14,4.295356388258026,18.296703112777447
3580.9636,4.279796380869147,11.437223029371118
3581.7893,4.263242715440824,12.405521899011212
3582.6133,4.248532466303426,14.508502380369745
3583.4395,4.238549751293977,17.550099986338104
3584.264,4.236534652514698,27.446915701735076
3585.0884,4.244343218567924,9.772855610506388
3585.915,4.259996085564154,11.27446522288735
3586.74,4.276227334284981,17.439282649751178
3587.5671,4.28304632841452,7.302413089739222
3588.3923,4.272772626924097,14.071004172768719
3589.22,4.244814206695307,16.600655346417533
3590.0457,4.206795683419089,12.827536776536883
3590.8716,4.17030006078323,15.592837036552028
3591.6995,4.144788263357203,16.89331898592054
3592.526,4.132904109658101,9.939026035246432
3593.3542,4.129967696088872,12.79028048724505
3594.181,4.12854340434681,18.444244698774916
3595.0098,4.124193230563356,8.836916178586472
3595.8367,4.119393780064413,19.104025075241662
3596.6638,4.1225660571486795,15.255471927075181
3597.4934,4.142114150475719,36.779650008735246
3598.3208,4.178723778283597,10.925364128704166
3599.1506,4.223640229710393,11.079823166099528
3599.9788,4.26393258472658,9.770858527745778
3600.8088,4.29250530783722,14.990759387409081
3601.6372,4.311576615432896,19.268671377254442
3602.4678,4.328681623011683,19.619394300653322
3603.2964,4.348187165132574,16.13406789559319
3604.1252,4.368484278970508,7.501718681995185
3604.9565,4.3856254335874985,22.766917409419676
3605.786,4.397408936819009,21.435763164796864
3606.6172,4.402604586262978,9.396798670487026
3607.447,4.397013586372244,18.711998380568012
3608.2788,4.373668464752691,19.22382977364799
3609.109,4.328510960069581,15.875835596538753
3609.9392,4.266127841449394,20.87225381296708
3610.7717,4.20061709123457,12.91041124773207
3611.6023,4.149961647428154,18.062681801465473
3612.435,4.1247947110707734,18.44713480808432
3613.266,4.12237592723806,13.159066891138485
3614.0994,4.128481802124818,8.928873455329628
3614.9307,4.1280129039694184,11.60632509845333
3615.7625,4.114899087998736,17.95152936788779
3616.5962,4.094067491694408,15.627936642193632
3617.4282,4.076694392070658,12.832243648536373
3618.2625,4.073288601421231,10.703063873895006
3619.0947,4.088970266517307,12.798385640009052
3619.9292,4.120336856877799,14.006906125716139
3620.762,4.154761721298727,18.2120763252964
3621.595,4.175513826122511,7.245999898491168
3622.4302,4.170637964544993,12.548365103958702
3623.2634,4.1404092161938,16.268981783990043
3624.0989,4.095559630289398,8.529832720199263
3624.9326,4.048175110120603,16.438178575492213
3625.7686,4.002273072046233,14.258436674399949
3626.6028,3.954945557498953,11.83217062369987
3627.437,3.9038072079458512,15.023154223023452
3628.2734,3.854194467389927,154.18413233090172
3629.1082,3.8181087318095512,15.066582457293004
3629.945,3.8058610091230594,15.081192690999078
3630.78,3.820866118393765,23.069444293534982
3631.6174,3.85982116520912,82.89942106884021
3632.453,3.916077007000924,14.821109292373631
3633.2883,3.9825393669102747,15.488868849313437
3634.1262,4.051365765038931,12.972064634731064
3634.9622,4.112917549300288,28.989533686583467
3635.8005,4.158929760067054,10.775021832361611
3636.637,4.185097458808148,9.045234822473091
3637.4756,4.194435244336467,15.060413315512246
3638.3123,4.195038509485145,15.442836771454516
3639.1492,4.195365019939451,16.84611749582105
3639.9885,4.1994635882799844,11.843189075090232
3640.826,4.2055281504678135,31.64605823427366
3641.6653,4.207896084693105,18.792499403752103
3642.5032,4.200395435134233,8.540826897660615
3643.343,4.179314352702893,13.764396775978657
3644.1812,4.145172361392885,18.204673379839168
3645.0195,4.1024685278944055,17.960369587978697
3645.86,4.058451872394243,15.551295715586749
3646.699,4.0213130938852855,19.060957258083945
3647.5398,3.996779361014991,10.399903415623406
3648.379,3.9864920607890375,19.236860817284267
3649.2202,3.9877759947951565,33.897088976085456
3650.0596,3.9970419901978067,11.746846766560752
3650.8994,4.013188867229051,28.34799337580624
3651.7412,4.037299970978791,27.485445239192217
3652.5813,4.068207896266368,17.265907484814626
3653.4236,4.09967565231505,12.955040258882665
3654.2642,4.122077190508431,12.384350423758805
3655.1067,4.1290652439645985,11.02281549136558
3655.9475,4.121575532934537,9.007969179090836
3656.7886,4.10671569130645,11.319724018052277
3657.6318,4.09243985196731,23.159246948762434
3658.4734,4.083042056471011,12.222444991733303
3659.317,4.077791873791192,44.177829498351436
3660.1587,4.073335071500837,14.154518481781976
3661.003,4.067035978676965,20.04622937633706
3661.845,4.059569165553433,20.379084864997598
3662.6875,4.05505450872657,14.363093108224625
3663.532,4.0591266066293485,25.473554745543947
3664.3748,4.075632223571308,8.105674356294465
3665.2197,4.10414873207283,18.121750771138778
3666.063,4.139020913647263,60.22721748893008
3666.9084,4.171211070905393,11.10637116126258
3667.752,4.190701110075809,17.153586677816904
3668.5977,4.190761998688981,12.60890469721701
3669.4417,4.170452823643293,16.008499332903806
3670.286,4.134722927518063,14.356341728266756
3671.132,4.0916786208017895,23.248914877747055
3671.9768,4.050410858573838,12.496023925928311
3672.8235,4.019544569617899,11.981516680920242
3673.6685,4.007078367800515,18.00022373148222
3674.5156,4.016885135810512,15.232066955106898
3675.3608,4.044566784614464,19.2809646482713
3676.2063,4.076632708166317,11.535636273509164
3677.0542,4.096118104689856,27.565878783571073
3677.9,4.092121691561941,14.208218648508339
3678.748,4.066747960030434,12.324509881902143
3679.5945,4.033511658961703,14.676339080469017
3680.4429,4.008704067127173,17.831974161712346
3681.2896,4.003525926482052,11.611135081891884
3682.1365,4.02034028314924,25.789120216604633
3682.9856,4.054014800636877,15.573111441535804
3683.8328,4.094158515046393,21.2715535904871
3684.6824,4.129136525840147,22.950016549787605
3685.53,4.149625676117336,12.207172489093075
3686.38,4.153049164318552,18.150662533843175
3687.2278,4.1442673505091445,12.376660601179694
3688.0762,4.133112844296041,12.76073985937007
3688.9265,4.12925823226084,19.952675003429963
3689.7751,4.136794938658644,13.555545188166594
3690.626,4.150726982513153,13.681849314442305
3691.475,4.157767886435781,11.387902278631756
3692.3264,4.142789544696212,11.895459949517141
3693.1758,4.098068210258285,9.304517881174919
3694.0254,4.02916957217688,15.0610536619419
3694.8772,3.9530461990228076,23.49048389031189
3695.7273,3.8902364307430877,23.253521621009316
3696.5793,3.854521401760147,14.989806381862897
3697.43,3.8491408770037348,16.67920690031227
3698.2825,3.866489573378219,14.479321395371098
3699.1333,3.8921760837558845,12.046195993307538
3699.9841,3.9118049608780745,22.666587957899427
3700.8374,3.9180497718361114,18.63677902459614
3701.6887,3.9137964248827495,34.40284782085026
3702.5425,3.908064413801427,11.963356437275566
3703.3943,3.9072847609178147,9.013969021775543
3704.2483,3.9095433737505028,16.697907848217405
3705.1003,3.9069179133300604,14.466443333843026
3705.9526,3.8930797119367777,11.912066232803573
3706.8074,3.868639784836841,16.104535918086512
3707.66,3.8403693930360743,15.86101072334879
3708.515,3.8152531943520884,13.949911546819708
3709.3682,3.7966130196247954,12.910795721298635
3710.2234,3.7834484851195347,12.430773736437153
3711.0771,3.773396153361672,15.145724995052499
3711.9307,3.764593914579044,16.936366786618876
3712.7866,3.7559498102570053,10.131344494390097
3713.6409,3.7470848051145436,18.692643526450194
3714.4973,3.739016155845802,19.09967537078335
3715.3518,3.7347980782466412,10.63436246537901
3716.2085,3.7379255155292235,25.254834099066628
3717.0635,3.7500374031581165,13.836092778911294
3717.9185,3.770051164753408,20.650542487185604
3718.776,3.7950414217397754,29.873282002603247
3719.6313,3.8207374378734893,12.295486459430888
3720.489,3.842197453770901,26.301540937835945
3721.345,3.8542946247484955,14.827801536327069
3722.2031,3.8540360310853874,23.77971347016693
3723.0593,3.8416789074060107,17.333263026243806
3723.9158,3.8201290825653453,13.534211597852412
3724.7747,3.793277309607714,24.49152536115814
3725.6316,3.7652242111849508,35.86708394902361
3726.4905,3.738960871587206,17.7980389343232
3727.348,3.7159693643724183,23.738955545878937
3728.2073,3.6961729150859397,20.40943592586556
3729.065,3.680470282078682,35.031642561610155
3729.9229,3.672091404252689,23.887352047125237
3730.783,3.675396724147837,35.07558802824731
3731.6414,3.6920417484310097,20.97012245318624
3732.5017,3.718435273251938,22.877845324934167
3733.3604,3.7463830488714636,16.625534075666724
3734.2214,3.7673958206822,15.698346595241194
3735.0803,3.776556290332273,17.66708231053489
3735.9417,3.774815929103704,28.358068061358708
3736.8013,3.767366849600151,31.197725957944183
3737.661,3.7604051292645773,19.657362569666915
3738.5227,3.7583165239083542,19.068822818352597
3739.3828,3.7623856891204737,12.207255236240101
3740.245,3.7706328463063263,23.58354577972427
3741.1055,3.7787478546392768,15.638092481150123
3741.9683,3.7827641553254407,20.231757537264272
3742.829,3.781884695528562,37.55402181709956
3743.69,3.778984354383569,14.239182647337936
3744.5532,3.777272461041283,13.75282599113994
3745.4148,3.7762399940315885,15.162942622197715
3746.2786,3.7709596147035356,12.533881525799671
3747.1404,3.756020376997433,20.49406041788085
3748.0044,3.730570059263754,16.94069930504535
3748.8667,3.7005877445717084,29.062308799054673
3749.729,3.675313701284696,20.828502168963766
3750.5938,3.6614622344695182,20.363097194086578
3751.4565,3.659546713777787,14.646059771227893
3752.3215,3.664757831321839,32.321479338113974
3753.1848,3.6710455042786068,15.032775147519462
3754.0503,3.6743472482321344,15.845645857554496
3754.9138,3.6734735248945913,15.528022566802147
3755.7776,3.669540824426889,11.28819593265052
3756.6438,3.664489109917679,20.700243970760408
3757.508,3.6596008004532687,27.491314959728463
3758.3745,3.654833494937151,13.940887326423274
3759.239,3.6497950735252025,21.171726699028277
3760.106,3.6448829268388105,17.95214180242012
3760.971,3.641578117876178,9.428490493193516
3761.8362,3.6415051045294495,14.65098618577351
3762.7036,3.6454384069497494,19.046317700346393
3763.5693,3.6523095655166524,21.448207250161175
3764.437,3.658650792330716,13.453353230230237
3765.3032,3.659126292356045,19.16758256106297
3766.1714,3.648992956756236,18.670178046482015
3767.0378,3.626850442767261,24.544217318109677
3767.9043,3.5952063636092038,25.27005673094729
3768.7732,3.5588919852891143,15.909034667032612
3769.6401,3.5239587750285373,45.347549061919885
3770.5095,3.496779550894127,16.926760248411494
3771.377,3.4839804980212152,19.400815735541666
3772.2466,3.4891573294183784,32.94385071004016
3773.1145,3.509940237536275,13.222563184749848
3773.9824,3.538085666107688,15.430602659440924
3774.8528,3.5637584257851507,16.618546263463053
3775.721,3.5805320926466293,60.365839556289885
3776.5918,3.588675402078304,16.491571864561568
3777.4604,3.5938221128443955,30.44732713791897
3778.3315,3.603144791679759,16.755329230779804
3779.201,3.6201260945016673,19.131136542069
3780.0703,3.641884816024735,31.330238859763934
3780.942,3.660905373932957,22.211528628872635
3781.8118,3.6701753066818,13.833840010195306
3782.6838,3.668139501657438,27.991941909933455
3783.554,3.658760772788391,34.59560000951248
3784.4265,3.647409658033885,12.819261370367588
3785.297,3.6367098657582537,13.205377753884708
3786.168,3.625532415774935,18.269258359684432
3787.041,3.6114910587892086,19.96578358149311
3787.912,3.5937941158214906,14.154848904407064
3788.7856,3.5737200423969644,13.50066766632574
3789.6572,3.553481563971058,24.802100354589065
3790.531,3.533868191253858,28.989926033029874
3791.403,3.5143054951980637,15.477592123279477
3792.2754,3.4942080032675595,20.017539611420226
3793.15,3.474394792917377,22.02314576738918
3794.0225,3.4559464486292972,31.073742384118454
3794.8972,3.437383155380191,14.94962346152599
3795.7703,3.4149585204081854,15.770608006207295
3796.6455,3.385845690300508,24.16822086275426
3797.519,3.3526522539774186,24.995967074020307
3798.3926,3.3237449066417186,34.785200652724775
3799.2686,3.31016171682551,19.8311349412461
3800.1426,3.3205116616780113,38.53907647638184
3801.0188,3.3564303086714506,34.66572067352257
3801.8933,3.410700206821547,19.533595115799947
3802.77,3.4698363801255274,16.626258343738037
3803.6448,3.5183263996462517,16.704988517083272
3804.522,3.5454715098779768,16.746877897374358
3805.3972,3.548540943464943,28.300701063885285
3806.2727,3.533784639060212,11.705552239506293
3807.1504,3.5130067634953805,34.48734562218798
3808.0261,3.4987278985659636,24.23875507776231
3808.9043,3.4987253713831996,12.967138871597191
3809.7805,3.513266684912555,12.930023261634124
3810.659,3.535919334255869,14.33058361657046
3811.5356,3.557652891670847,18.039383606402318
3812.4126,3.572315722106384,25.82304697106877
3813.2917,3.5791254085327386,13.706221066185643
3814.169,3.5813827230190793,24.284604540599446
3815.0483,3.582921147597624,20.802349350717105
3815.926,3.585309930323415,29.602565961705466
3816.806,3.587946187906473,15.130474136497412
3817.684,3.589709629198893,14.270637489461036
3818.5623,3.590015345604345,18.27372173672385
3819.4429,3.588348327787686,26.957147568296758
3820.3215,3.5836338818807336,20.420080469360997
3821.2024,3.574567852326217,27.490979968324993
3822.0815,3.5609368018852052,23.079999513289224
3822.963,3.544210798698894,15.566818386521573
3823.8423,3.526860622019765,21.74821768708566
3824.722,3.509883021905105,18.6723554560175
3825.604,3.4916360886404703,18.46274905295526
3826.4841,3.469431411125305,18.32289496893308
3827.3665,3.4420315539248727,18.93921467529385
3828.2468,3.411079930482913,20.81374141372558
3829.1296,3.378807645888755,23.664775779010853
3830.0105,3.346351149682595,19.567198745443687
3830.8916,3.3125519701030806,20.518403897538157
3831.7751,3.2749310716319138,24.251090927620602
3832.6565,3.2313803868899122,21.005132191751738
3833.5403,3.1815605785694023,19.02983365035424
3834.4224,3.1300746955900154,15.771230652863103
3835.3064,3.085730350279254,25.934140515930714
3836.1887,3.058715008999391,23.35313451105062
3837.0713,3.0544725698831408,36.83020191275599
3837.956,3.071219203671693,23.067660396186838
3838.839,3.101782463292523,17.214635831802518
3839.7244,3.1395025776399015,16.44231876273258
3840.6077,3.181818250943439,30.735595958869542
3841.4932,3.229949739552996,18.732322610663513
3842.377,3.2835335647094355,29.636742698920152
3843.261,3.338223629590518,27.971211852226002
3844.1472,3.386960553999985,26.429101765126603
3845.0315,3.424268647999565,23.61213458476087
3845.9182,3.450190153966375,14.733849321348025
3846.803,3.468599291622009,13.413867918065739
3847.69,3.483952904712598,23.842248320534548
3848.5752,3.498040497468837,13.553603882942312
3849.4604,3.5107617890666867,16.65881875758272
3850.3481,3.522602473476543,24.273525205871415
3851.234,3.5357977138574173,19.873620937378313
3852.122,3.5529534262628157,17.02992753423683
3853.0083,3.574226159575458,16.81858021704236
3853.8967,3.5970088495396144,17.345742766537423
3854.7832,3.617410327179537,23.828699911076587
3855.6702,3.633414674993636,20.604658398667656
3856.559,3.646262362119328,15.248006399652308
3857.4463,3.659186974920943,18.817218794529087
3858.336,3.6737217431668165,16.921963187761754
3859.2234,3.6863669430174832,13.406477852055813
3860.1135,3.6906818789982005,14.321054626766662
3861.0015,3.6832435290519685,20.390163462005916
3861.8896,3.6682526753943066,17.001955356333706
3862.7803,3.6552821257248667,18.032517402055984
3863.6687,3.652348008187337,27.31736099917061
3864.5598,3.660082373467615,18.96537943327957
3865.4487,3.6719428719671536,14.398944054653036
3866.34,3.679057208162007,18.596890522862346
3867.2297,3.6751057068665602,16.308280076983575
3868.1213,3.658763503709385,15.485857237394812
3869.0112,3.6331077090201256,22.98281259110549
3869.9014,3.602822905542375,26.54910611203152
3870.7937,3.5713686221193317,16.523956759391332
3871.684,3.5398295894095626,20.47791703507706
3872.577,3.507108569572304,12.730270873722112
3873.4678,3.4722430594737674,18.981247622104064
3874.361,3.434805846747479,19.05244567635639
3875.2524,3.3956530001245726,28.067944175278818
3876.1438,3.3560573326022856,23.125047895970884
3877.0376,3.3176046560111976,21.46403113291957
3877.9297,3.281431662390114,41.50596541683563
3878.8237,3.2460113456971458,23.10817110817529
3879.716,3.207650948991201,21.80452561147762
3880.6108,3.162427062012299,16.737266119864977
3881.5037,3.109915321687131,27.27839273961608
3882.3965,3.0523115198357518,23.740453606541582
3883.2917,2.991539835852025,35.41640971956949
3884.185,2.9275277165852236,33.61512835259889
3885.0808,2.8580908710661355,42.627092351920695
3885.9746,2.783022250206672,27.35039196171544
3886.8706,2.7048006178768635,32.111450210922975
3887.765,2.630326531188307,27.28688041788018
3888.6592,2.568980876873212,37.84984435197212
3889.556,2.5314715877151874,29.649179629971467
3890.4507,2.5266496781228183,36.543579851980475
3891.348,2.556412573942792,59.50961929222251
3892.243,2.613088964828274,53.01447076535649
3893.1406,2.6829230941333906,48.29149300167051
3894.0361,2.7527287192767496,22.256540113375006
3894.932,2.8176880008411866,27.264788114007917
3895.83,2.8807054086869495,63.66238780465648
3896.7263,2.946138662384859,32.78074503006684
3897.625,3.0151863224768483,41.62869724566283
3898.5215,3.083705727604612,37.366134409537594
3899.4207,3.1469271296794337,20.805185845822724
3900.3176,3.2016753934168523,25.907400663062308
3901.2148,3.2487120349422973,19.687755092266585
3902.1145,3.2907336719774976,35.10081736585429
3903.0122,3.3300506751309684,33.2579169101535
3903.912,3.368030298247034,14.939360245541653
3904.8103,3.404275028671249,16.383132571549403
3905.7107,3.437735929997251,25.640631567258964
3906.6094,3.4666402214989387,17.944602379673412
3907.508,3.4898804023123455,18.977745585289888
3908.409,3.507941221707215,24.396159932397442
3909.308,3.523273037882627,15.898915592190725
3910.2097,3.5392620524823006,30.154104349048282
3911.1091,3.5573953455141467,18.31360414173648
3912.011,3.5760321123096817,16.270317190768317
3912.9111,3.5910713915233545,16.053196876801596
3913.8113,3.5992548716360813,26.78327797328038
3914.7136,3.60080417179594,28.93214217765658
3915.6143,3.6000964666086883,23.13210932951106
3916.517,3.6034946927604565,28.956174548969376
3917.4182,3.615273508558343,22.140405129245963
3918.3215,3.634510603038937,14.651698262792342
3919.223,3.6551678036419735,20.515730196299174
3920.1245,3.6703206498872194,27.32073014791436
3921.0286,3.676648927634682,16.71294377035462
3921.9307,3.6762945679685126,18.772489196797146
3922.835,3.67484772312571,29.953831799329173
3923.7373,3.6773605378285654,18.892204319719106
3924.642,3.685831368898615,15.654583506696818
3925.5452,3.6991726931076356,23.692588614949507
3926.448,3.714651122841899,17.334798373649992
3927.3535,3.729197817022451,14.43673908972632
3928.257,3.7403924990501953,17.84327354874725
3929.1628,3.7474308658276545,16.989287286612072
3930.0667,3.7503387250882394,21.552470753899506
3930.9731,3.7485343232070707,18.43630821359771
3931.8774,3.7402706381998923,13.205552558274809
3932.782,3.724528855982553,18.486375544005544
3933.6887,3.7038546696347585,21.311322372301692
3934.5938,3.68532215244498,16.878980152768957
3935.501,3.6772887436420767,37.78588741713571
