wavl,flux,ivar
3566.9744,1.7871017857675766,365.2735722583941
3567.795,1.7853793241447373,422.4701080113878
3568.6177,1.7843542133776389,380.50625553179907
3569.4385,1.783662159946946,421.65393870492824
3570.2617,1.7824270616864109,352.0040439354122
3571.083,1.780005799894441,359.0132092424177
3571.9065,1.7764599385276747,394.8768658537959
3572.7283,1.7724819565623666,366.38744558529794
3573.55,1.7687793919955708,360.4611068619083
3574.374,1.7656751322308186,392.6030275964162
3575.1963,1.7632451703229686,386.66721999189815
3576.0208,1.7617204224795475,421.0372807225323
3576.8435,1.7617131034149172,435.41148452921266
3577.6682,1.7637717569502818,352.66320490815696
3578.4915,1.767695497845188,404.9365576358872
3579.3145,1.7722568709090092,329.9608623934375
3580.14,1.7756064431394594,353.5943628712311
3580.9636,1.776113035782773,467.3144301931607
3581.7893,1.773272609974709,378.6579645476501
3582.6133,1.7679929025884105,331.2379380739384
3583.4395,1.761944864021645,469.1511388965484
3584.264,1.75645577380777,385.7641411389391
3585.0884,1.7515865174096064,396.8304963679146
3585.915,1.7464810010949443,394.0778745942893
3586.74,1.740558175928073,444.8634383894071
3587.5671,1.7342976329207145,450.6204673680681
3588.3923,1.7291579257927772,424.0851466359588
3589.22,1.7264905203064773,407.50793309329714
3590.0457,1.7267201404738657,423.65620535336564
3590.8716,1.7290499256303622,461.2781204486689
3591.6995,1.7319955904913813,412.21190147247773
3592.526,1.7341733859106112,410.98869368388694
3593.3542,1.7349145147593488,430.64663918093515
3594.181,1.7341709065362845,417.26651323327866
3595.0098,1.7319836523419134,445.88353023260873
3595.8367,1.728077227381489,400.71608628013473
3596.6638,1.721999371448411,449.37956014079384
3597.4934,1.7137790834695024,362.72480727411704
3598.3208,1.704589293681999,454.13973668302594
3599.1506,1.6964695013755053,375.971271718679
3599.9788,1.6915875811269856,413.0750114740161
3600.8088,1.6908939164892747,413.88284576637557
3601.6372,1.693542442609352,404.49919850798017
3602.4678,1.69729587083061,467.0585258837327
3603.2964,1.6998471348920567,453.7632712960205
3604.1252,1.7002776696907127,406.588800917594
3604.9565,1.6994512243468134,463.3315350433041
3605.786,1.6991592915949945,380.12757636744334
3606.6172,1.7006053084244053,378.4133301798635
3607.447,1.7034933211836731,577.980093562413
3608.2788,1.7064129480840347,398.34475037392366
3609.109,1.7079784170167194,397.10808400532994
3609.9392,1.707775712478279,410.7515753598456
3610.7717,1.7062942930228147,407.473987958711
3611.6023,1.7042374471773594,388.65739209704464
3612.435,1.701865791110035,448.6017431125794
3613.266,1.6990304737496145,414.9669615430929
3614.0994,1.6956147099040388,436.76231803011245
3614.9307,1.6919790602959286,435.7241622825253
3615.7625,1.6887744953549577,446.70847350391665
3616.5962,1.6865043157530408,457.75293363949055
3617.4282,1.685202701849127,429.2866365541936
3618.2625,1.6844579090283593,427.33068032741033
3619.0947,1.6837309332771895,438.0724029100342
3619.9292,1.6826742628062124,481.0887848906231
3620.762,1.6813944025550216,520.8084432214923
3621.595,1.6803948006157905,460.6111665122254
3622.4302,1.6801968411643664,422.08798592139436
3623.2634,1.6809179928130737,457.41421436999053
3624.0989,1.6822481742921491,408.71680889234784
3624.9326,1.6837516235128034,440.02757777480645
3625.7686,1.685043853430881,388.46534460563
3626.6028,1.685610534776919,376.78901683663184
3627.437,1.6848233576403921,428.96897424796765
3628.2734,1.682352645759282,427.4539438624832
3629.1082,1.6785924407899333,373.14409663286074
3629.945,1.6743883609187438,377.1538977273555
3630.78,1.6704684652941195,464.62164971728873
3631.6174,1.667043099485816,452.9241651217168
3632.453,1.6640984704124273,474.78808786365386
3633.2883,1.661679701962956,390.08630706310964
3634.1262,1.6599887627725367,404.5669200103331
3634.9622,1.6591660806193975,467.46893363595956
3635.8005,1.659016102091114,422.1817084072499
3636.637,1.659040540182196,398.25757002810303
3637.4756,1.6587438522023636,398.11739496160124
3638.3123,1.6579751593084144,402.58743008905776
3639.1492,1.6569598727948427,529.5226005338277
3639.9885,1.6560195862474572,422.5514892557278
3640.826,1.6552670815122605,481.30911563910377
3641.6653,1.6545196579426888,470.70937149090895
3642.5032,1.6535219262506942,441.21815115089095
3643.343,1.6522125669403633,472.71148492026606
3644.1812,1.650876930628421,471.816539270437
3645.0195,1.650044876489665,489.68637290309425
3645.86,1.6502550904115314,433.1067905314391
3646.699,1.6517530501371265,561.8646149373623
3647.5398,1.6543528654884585,427.85794482768415
3648.379,1.6575445497244383,411.8042301973266
3649.2202,1.6607978406770745,509.21183495095744
3650.0596,1.6636190584683852,452.2094044640298
3650.8994,1.6655241053864849,474.24857831151877
3651.7412,1.6659813959362628,462.7523830916738
3652.5813,1.664666309204861,444.1585360502225
3653.4236,1.6618205124960963,491.41522809428466
3654.2642,1.6583923204222468,479.1294738471227
3655.1067,1.6556402885239672,441.1883840999466
3655.9475,1.654524667111134,387.94292414451974
3656.7886,1.6551658750039373,450.68504415141024
3657.6318,1.6568779648106609,456.62682530614
3658.4734,1.6585902398221335,427.7722803836318
3659.317,1.65944790637241,452.66252744983285
3660.1587,1.6592108533491405,481.88257100409476
3661.003,1.6583908066808863,480.44895254542564
3661.845,1.6580061214725628,395.71272263553766
3662.6875,1.6590179847965736,450.13828801917595
3663.532,1.6618283030335828,423.376798468257
3664.3748,1.666133527881604,448.5175880141375
3665.2197,1.6712882233647295,446.9052947187814
3666.063,1.6766311366231672,398.98281683292623
3666.9084,1.6817426000635116,387.1475873032604
3667.752,1.6862651893069738,460.95787303143726
3668.5977,1.6898505537062858,443.7463036722406
3669.4417,1.6920688940339048,473.9927057527207
3670.286,1.6926709170406375,413.56566295893884
3671.132,1.69178702464058,454.07479435884477
3671.9768,1.6899749786935092,428.5125295067141
3672.8235,1.687944932215019,493.28847989549763
3673.6685,1.68623098148121,439.31299041217324
3674.5156,1.6849714689208908,395.18859325713663
3675.3608,1.6839826763973615,463.32769568147984
3676.2063,1.6829137551252675,401.5096877191679
3677.0542,1.6814495208696327,456.4726290668682
3677.9,1.679460203036129,429.081826580392
3678.748,1.6769909605228608,513.2335969749804
3679.5945,1.6742182422521823,439.4332434772439
3680.4429,1.6713265822486558,495.47442260085404
3681.2896,1.6685356264327804,427.1884658830451
3682.1365,1.6659665309238343,524.1922292651122
3682.9856,1.6634356901471197,463.6797665270172
3683.8328,1.6603917756447546,444.5478935022222
3684.6824,1.6563033535823521,580.4605260353579
3685.53,1.6515186087911449,515.2878748519811
3686.38,1.647578032376449,448.0737443461017
3687.2278,1.6466862624301493,550.9146147660897
3688.0762,1.6502901371530099,512.7939405330812
3688.9265,1.6579548134779003,450.2126809496459
3689.7751,1.667112775824857,468.24729077234196
3690.626,1.6743326411102837,454.0630073041985
3691.475,1.6770962889612437,501.92069974526123
3692.3264,1.6753007282437384,445.8947202412034
3693.1758,1.6709801828620785,409.91751173118337
3694.0254,1.6666689508327928,453.90973470404913
3694.8772,1.6638699223622178,441.87760424088015
3695.7273,1.6627238732270242,413.0383727366585
3696.5793,1.66254067026053,509.1031091308995
3697.43,1.6624421549710098,424.94701194929183
3698.2825,1.661688502417315,397.56648140481343
3699.1333,1.6599444981280311,467.71273972455487
3699.9841,1.657443152197954,435.0463889466199
3700.8374,1.6548254906401292,511.5170789371061
3701.6887,1.6527116604971264,409.1002236750819
3702.5425,1.6512889579810548,497.7858753445101
3703.3943,1.6503642935040372,384.81160670276444
3704.2483,1.6495949945529722,441.0759263827266
3705.1003,1.648690425474503,458.760264771591
3705.9526,1.6473451584183598,489.3775604682372
3706.8074,1.6451275470599662,407.94971922563735
3707.66,1.6416142907585507,391.628622437072
3708.515,1.6367199645197081,496.7454310256997
3709.3682,1.631102553831805,488.23875025464923
3710.2234,1.6259494939047856,433.4240525327782
3711.0771,1.622391518408085,516.9867413066595
3711.9307,1.620663181517058,471.1173600513867
3712.7866,1.6199515299894298,443.5809243270205
3713.6409,1.6189901808657818,479.2454272143147
3714.4973,1.6169071016169994,518.5149921335264
3715.3518,1.6136562382963928,494.82936186810025
3716.2085,1.6097677508626287,476.80859386683557
3717.0635,1.6060108175568708,513.9732470901223
3717.9185,1.6030992713660275,514.8520483119366
3718.776,1.6015754094787849,478.7416186639124
3719.6313,1.6016226674095835,502.1217889981687
3720.489,1.6029310806007118,492.88891088312005
3721.345,1.6048556620289305,430.8988285142823
3722.2031,1.606758305292542,525.8025663798733
3723.0593,1.608198815123242,398.1887636556179
3723.9158,1.609003343015582,497.9793603824655
3724.7747,1.609238574391329,505.75932914457724
3725.6316,1.609208277463033,506.17932733287046
3726.4905,1.6093155326313597,503.49956433924604
3727.348,1.609767480291609,490.634217137697
3728.2073,1.610393475746351,520.3202063962942
3729.065,1.6108181625992042,508.6778505844646
3729.9229,1.6108776399100073,462.8173849284626
3730.783,1.6107710137442095,529.5197249549066
3731.6414,1.6107322831958715,458.29708108123594
3732.5017,1.6105840915027247,515.0213811144241
3733.3604,1.609747246963199,496.23800505994797
3734.2214,1.6077133232247496,491.17339382515144
3735.0803,1.6045134453979564,538.7781981216253
3735.9417,1.6006974390793427,448.99661305810923
3736.8013,1.5970746460491803,433.84267197721186
3737.661,1.5942560978592935,515.8811889949743
3738.5227,1.5923919387363101,537.2326407910667
3739.3828,1.5911289621423665,507.8218937886683
3740.245,1.589868229346059,507.0978309995076
3741.1055,1.5882705789878926,474.8244146922773
3741.9683,1.5864848896484252,526.2034858744963
3742.829,1.584936788735831,514.5959077774536
3743.69,1.5837755015255333,495.7730254200794
3744.5532,1.5826039279174078,426.4032122918221
3745.4148,1.5807079370055046,475.72511964988894
3746.2786,1.5775461340803907,499.46283598865637
3747.1404,1.5731725112442099,469.193339384429
3748.0044,1.568176073069629,475.2345732114104
3748.8667,1.5634394070481852,501.25361297977753
3749.729,1.5596923221009482,574.2918405801393
3750.5938,1.5573996352803248,622.0172912165983
3751.4565,1.556918491749718,499.31375665856854
3752.3215,1.558643221359655,620.5702681441817
3753.1848,1.5628209956667785,504.99420503194733
3754.0503,1.5690260838453698,480.40668521379627
3754.9138,1.5757770470403099,496.4269391174577
3755.7776,1.581154140062005,380.08722096737483
3756.6438,1.5838324480601373,494.79067735562654
3757.508,1.5838028103896902,426.66187836013233
3758.3745,1.5821609287723297,480.947789288887
3759.239,1.5802254294798255,465.77158226438974
3760.106,1.578877499039671,483.66287034949386
3760.971,1.5785559189186626,448.81366188483685
3761.8362,1.5794351813811027,552.0195884037728
3762.7036,1.5813962958899557,465.0830323619509
3763.5693,1.5837569814192816,518.67418958007
3764.437,1.585340434342422,499.65295207261244
3765.3032,1.5849930610397098,476.15608991105285
3766.1714,1.5822962393743158,533.3604953469725
3767.0378,1.5778130253955287,592.2307871844366
3767.9043,1.5726153033729804,458.91927932253185
3768.7732,1.567610223778977,536.1256629325655
3769.6401,1.5633218062290692,503.8847868876422
3770.5095,1.5600343734755697,530.3609435533729
3771.377,1.5580675571285416,519.9606744847531
3772.2466,1.5574766710814045,486.3352202003782
3773.1145,1.5577558516801642,484.15664430391
3773.9824,1.5579888613210942,503.5986644543988
3774.8528,1.5575447424328621,468.96831127420757
3775.721,1.5566274484997706,456.7319754632677
3776.5918,1.55609626665456,497.1935564233355
3777.4604,1.5567784179074335,552.3280764124095
3778.3315,1.5589247723254567,506.4664856783876
3779.201,1.562183118750268,516.11456236833
3780.0703,1.5659337888084386,566.872990141028
3780.942,1.5695649408944952,478.2448716496873
3781.8118,1.5725877264636714,493.43178812417165
3782.6838,1.574771557590007,531.1473625674213
3783.554,1.5761526574261049,544.3477140954371
3784.4265,1.5770678647987968,454.8814608403069
3785.297,1.577938688220996,513.7889872173948
3786.168,1.5789307983359862,499.79697906958654
3787.041,1.5796850525596793,416.65896754158507
3787.912,1.5794851490288875,511.88286851616976
3788.7856,1.5778119035918412,454.63447287521456
3789.6572,1.5747813745953405,479.32199923043567
3790.531,1.5710233469486616,538.0154260690877
3791.403,1.5672739182175792,523.3895995693287
3792.2754,1.5639397973679614,525.2544631867557
3793.15,1.561017365702003,492.30495911683283
3794.0225,1.5581579825542644,518.0472946501131
3794.8972,1.5547487527488366,519.3656227055382
3795.7703,1.5502559064954675,456.85034782856707
3796.6455,1.5445641067164462,490.24097472577563
3797.519,1.5383249988657903,582.151973368604
3798.3926,1.532750032254916,574.8356626069217
3799.2686,1.5291514457715607,544.0517928618458
3800.1426,1.528352317188398,563.9487164915474
3801.0188,1.5302134070367823,525.3911073694247
3801.8933,1.5336664714628967,613.6243717478307
3802.77,1.5372595370918907,476.8741100956851
3803.6448,1.5399194781060568,540.0948917979875
3804.522,1.541601843900766,520.8085505783529
3805.3972,1.5431591127307323,529.2203610082444
3806.2727,1.5456266143695432,530.5350514073771
3807.1504,1.549345417564733,547.104555662143
3808.0261,1.553596668814177,488.44032724804805
3808.9043,1.5570877593854404,469.5969039888337
3809.7805,1.5586685021961482,500.4074711819247
3810.659,1.5579636037899136,552.3798806539818
3811.5356,1.5554708958098493,479.0130251754649
3812.4126,1.5523627446362842,522.7203321212023
3813.2917,1.5500438848831373,530.9523969138925
3814.169,1.5495014571071561,499.47009205406766
3815.0483,1.5506905900097139,494.89109387190166
3815.926,1.5525899151715483,512.5729794716717
3816.806,1.5539424452745085,488.59239571248065
3817.684,1.5539834021286982,443.5800935585127
3818.5623,1.5526352021060585,558.6234995143878
3819.4429,1.5502320259742328,539.6807281406068
3820.3215,1.5473666079898778,464.70791032002785
3821.2024,1.5447867111949556,532.8641904260043
3822.0815,1.5431839810480636,543.6529622100215
3822.963,1.5426671349993304,537.1127815867543
3823.8423,1.5425182960188615,565.4801662362783
3824.722,1.5414928813365094,514.3478400479539
3825.604,1.5384937147919,457.23852835708755
3826.4841,1.533085032282959,535.45744603691
3827.3665,1.5254059426421662,500.83753704684466
3828.2468,1.5159682262782972,472.8574652622624
3829.1296,1.5053242420033481,534.3804962780004
3830.0105,1.4942298470286335,593.9985754882019
3830.8916,1.4833830469610507,632.2456494762627
3831.7751,1.473270130025863,565.726662020611
3832.6565,1.4641043843839663,546.56968734965
3833.5403,1.4558246913262496,592.6293557665718
3834.4224,1.4486000528989043,653.6092207514563
3835.3064,1.4427600067378872,571.5387205183353
3836.1887,1.438715126424059,555.9199009538133
3837.0713,1.436682773994857,632.5333782901212
3837.956,1.4367905155174416,578.6952436314997
3838.839,1.439150931201269,607.4112783883658
3839.7244,1.4437704552361323,683.2488357587453
3840.6077,1.4503077818418406,622.0124398133529
3841.4932,1.4581889995302513,538.49038948007
3842.377,1.4667906942124618,555.1906726087173
3843.261,1.475771703263837,646.7695754201618
3844.1472,1.4849199352941986,561.3030455988758
3845.0315,1.4938594173289776,528.664089553206
3845.9182,1.502218609017344,501.8259238493155
3846.803,1.5097942970058993,599.2246964985873
3847.69,1.5170539818194961,515.1822881047749
3848.5752,1.5249282964038093,515.5835923953883
3849.4604,1.5343503027415453,587.9129563914914
3850.3481,1.5455064828669074,579.8021964924359
3851.234,1.5574612304223097,554.9584004522907
3852.122,1.5688031698211449,469.7652875388327
3853.0083,1.5782065114601418,531.5835163205436
3853.8967,1.5851035527866049,483.50046513262623
3854.7832,1.5894436033184633,489.7227442705595
3855.6702,1.5915716749255862,490.43892017690786
3856.559,1.5920662600583693,488.52017797635983
3857.4463,1.5917297715417398,518.9905474232245
3858.336,1.5913447878863698,526.8999263474994
3859.2234,1.5913081677049594,500.58432685261266
3860.1135,1.5915092051546464,423.5487637702674
3861.0015,1.5915670846156087,480.1554979506127
3861.8896,1.5911279898507473,465.1428075299491
3862.7803,1.5899443365354433,475.3186861772982
3863.6687,1.5878298722731818,459.12841376042167
3864.5598,1.584595528221347,482.01822719192546
3865.4487,1.5801024501258072,468.3451472183118
3866.34,1.5741899818497607,494.1069527263916
3867.2297,1.5668183715317925,432.6288762509787
3868.1213,1.5581252735413567,456.5357329591179
3869.0112,1.5487070267619334,491.2611369473766
3869.9014,1.5394330312895215,586.9472625963228
3870.7937,1.5311214848839698,527.1579944376729
3871.684,1.5240834463880972,548.4701215732873
3872.577,1.5177414464687835,526.6610257363158
3873.4678,1.5110327810857005,551.7746488818416
3874.361,1.5028866455220808,509.9246900120381
3875.2524,1.4928987791608044,618.3760749475157
3876.1438,1.4813239092070203,545.5708469636073
3877.0376,1.4688044065596497,563.2491595180686
3877.9297,1.4559944078359521,648.3346257962872
3878.8237,1.4430586895332584,622.0657945588858
3879.716,1.4299809164090487,568.5817327066678
3880.6108,1.416647146636809,555.2227909744115
3881.5037,1.403252068282707,607.7139698532413
3882.3965,1.3899928905671521,635.0557279046367
3883.2917,1.3769679167177575,675.2467589712238
3884.185,1.3641496070279817,612.7831909691936
3885.0808,1.351180943433761,698.845199469956
3885.9746,1.3378774022148008,658.3784202324392
3886.8706,1.3243726801935765,735.3084974972321
3887.765,1.311651205937274,822.8110449703626
3888.6592,1.301260262019547,789.1643876848387
3889.556,1.2949391360025362,814.5331413332555
3890.4507,1.2939989331122386,778.6579675708251
3891.348,1.2987316753536244,766.9107186836856
3892.243,1.3083354972369141,759.8723259816093
3893.1406,1.3214077164753921,771.1447045214377
3894.0361,1.3364009888141986,702.1149684583645
3894.932,1.352351498255999,667.5070353109141
3895.83,1.3688817619416482,601.2480624201482
3896.7263,1.3858108689208044,605.6525216153063
3897.625,1.4031070093466547,586.6467092840114
3898.5215,1.420413560739445,663.0184198719966
3899.4207,1.437491607853196,560.0110698424826
3900.3176,1.4539910003476655,703.0055497168049
3901.2148,1.469820822079426,585.8530475538187
3902.1145,1.4849733911624972,597.6224942341007
3903.0122,1.4994156453916005,573.7649287311683
3903.912,1.5133395988325915,593.120987934904
3904.8103,1.5268644390565491,520.9825218567361
3905.7107,1.5402802547391345,499.82222593287986
3906.6094,1.5538708926711111,486.22320351218815
3907.508,1.5681282551795133,556.8959858168837
3908.409,1.5835004682795852,463.9891171827406
3909.308,1.599945161120776,465.68070698544085
3910.2097,1.6169574246959,477.5086571085192
3911.1091,1.6333718448738002,462.4185187174735
3912.011,1.648085777206047,446.71034836625313
3912.9111,1.6601986628391874,394.4533352299081
3913.8113,1.669576728189262,432.99627736478044
3914.7136,1.6767896046362698,400.0785486132251
3915.6143,1.682814482064132,487.3284697628039
3916.517,1.6886377436988267,459.01270299028624
3917.4182,1.694678541245074,405.8970541994296
3918.3215,1.7008106257794176,440.9926062331934
3919.223,1.7065765669077373,430.2799551665508
3920.1245,1.7116776676136924,443.6508998430808
3921.0286,1.7160874579695566,417.4454888740592
3921.9307,1.719959874059979,452.8916149926791
3922.835,1.7235599251619516,448.03728858502245
3923.7373,1.7270434933103849,433.07732951091833
3924.642,1.7303830439855001,427.0294383586609
3925.5452,1.7332288815739871,405.0396037703808
3926.448,1.7350573804371667,401.8847386046027
3927.3535,1.7353819585575532,421.9205464204239
3928.257,1.733998195355959,395.44092670059695
3929.1628,1.7310990224648384,421.07932043192653
3930.0667,1.7272472210416592,379.8593849780715
3930.9731,1.7231123930957077,386.32740260044255
3931.8774,1.7191982147917084,434.02144434057783
3932.782,1.7154685521218105,412.8902932724824
3933.6887,1.711387880904864,380.0807162952317
3934.5938,1.7063032735671115,389.5804195065306
3935.501,1.6998036990422993,450.7952624571401
