wavl,flux,ivar
3566.9744,13.17297762807363,4.596133086518575
3567.795,13.20914179637234,4.035165229410918
3568.6177,13.242732295477547,4.286042500170935
3569.4385,13.256621364425042,3.374973308333638
3570.2617,13.240574098152406,4.708926036278836
3571.083,13.197622838424513,4.016312875969107
3571.9065,13.141977472129327,3.4691136179356716
3572.7283,13.091224962280585,3.6026684101031243
3573.55,13.056549582848827,4.467834071020862
3574.374,13.038886064135003,3.8541186083783354
3575.1963,13.030748309423553,4.544078434137076
3576.0208,13.022276859728887,3.9214775666867374
3576.8435,13.008398478643896,4.629829985596263
3577.6682,12.991680624563102,4.260507482811545
3578.4915,12.98014329226301,3.811986004819726
3579.3145,12.98150327006956,3.6871755237667
3580.14,12.998850941757732,4.035457686422239
3580.9636,13.029221133980231,3.85098153698648
3581.7893,13.065424284776634,4.324677548819782
3582.6133,13.097622506999526,4.690181454969626
3583.4395,13.115530874470144,3.9634252055949912
3584.264,13.110095493793729,3.6561785926123616
3585.0884,13.077006784163117,3.7684118150973274
3585.915,13.01901424707933,4.089516338713961
3586.74,12.946888838269627,3.777846101350783
3587.5671,12.875097021858554,5.139869601421071
3588.3923,12.816710040713865,4.567443176571809
3589.22,12.77596851094195,3.1259252603566656
3590.0457,12.748179341338705,3.967640469344722
3590.8716,12.724376610014623,3.845284490414119
3591.6995,12.699828760911405,3.865962592831306
3592.526,12.677401812457848,4.8831063008332745
3593.3542,12.6625639738213,4.089364870504913
3594.181,12.656147901118203,4.666907417684398
3595.0098,12.651848062860463,3.6043642961736255
3595.8367,12.641639291069472,4.156368398354096
3596.6638,12.622539932314066,4.781686060674483
3597.4934,12.598341573886954,4.824967007822317
3598.3208,12.575797350894367,4.431069209137097
3599.1506,12.558334154213522,3.9877881123631127
3599.9788,12.543601287839417,4.912906228059953
3600.8088,12.525517596181967,4.278504825216425
3601.6372,12.501008452904768,3.8182438221249004
3602.4678,12.474467461040806,4.489009918675204
3603.2964,12.455805406097799,5.153923526097957
3604.1252,12.451458129265598,5.6169488698234336
3604.9565,12.458052238848781,4.556921210479601
3605.786,12.464028574234673,4.036007990317229
3606.6172,12.457968790336082,3.965826501232588
3607.447,12.435344182885272,4.1748555616423095
3608.2788,12.39910919628892,4.177752315580202
3609.109,12.356862832169917,4.0713638979675455
3609.9392,12.317239115210105,4.106746363598097
3610.7717,12.288065762208285,5.471837249487592
3611.6023,12.274001213325574,3.7421107491898935
3612.435,12.273494041436832,3.517978649095815
3613.266,12.279388335332985,3.919091701954194
3614.0994,12.28345410853772,4.571763617865801
3614.9307,12.281549604856496,4.23595678691196
3615.7625,12.27414014387276,4.266473170924777
3616.5962,12.2619567265987,3.7494000026950713
3617.4282,12.242571277171724,4.240248828462209
3618.2625,12.211323925567426,5.21351129717871
3619.0947,12.166079340020026,5.3585478685453305
3619.9292,12.109845430342839,4.524646757277977
3620.762,12.05140034542094,4.396247627442866
3621.595,12.001212678772292,4.91887639907459
3622.4302,11.967937020929956,5.118880961919266
3623.2634,11.955912712937607,4.758337451870296
3624.0989,11.963917382461648,5.233524349703759
3624.9326,11.985681538428427,4.968134531276129
3625.7686,12.01103524251256,4.043904113601349
3626.6028,12.028569890569925,4.656446536071095
3627.437,12.0308516357444,4.156569882284431
3628.2734,12.017923417661175,4.676128057677797
3629.1082,11.996774701796728,4.719843704102845
3629.945,11.975952394318435,4.854737844728649
3630.78,11.960756831911308,4.734355389370069
3631.6174,11.952182098063641,4.26082103090536
3632.453,11.950653110249908,4.635125522748558
3633.2883,11.958964113689616,4.485021615362574
3634.1262,11.98141389476925,4.81119088480452
3634.9622,12.018890735402323,5.961590543125141
3635.8005,12.065777887886442,4.610563927921282
3636.637,12.110703068593173,5.207480204061899
3637.4756,12.143058223737428,4.9043392654079625
3638.3123,12.157261066683983,4.357308926746233
3639.1492,12.154253063264916,4.428383639126376
3639.9885,12.138844238426964,3.8484074640267742
3640.826,12.117556667494819,5.467612043554235
3641.6653,12.096323096552888,5.492658321522699
3642.5032,12.078655241977332,5.153218908808613
3643.343,12.063846094929964,4.111258789308061
3644.1812,12.04822311323632,4.505036919428458
3645.0195,12.028305158221666,3.924200147390841
3645.86,12.004427773070862,4.505131880349092
3646.699,11.981719741783355,4.756768406647416
3647.5398,11.966322959045351,4.637504595991153
3648.379,11.96035479366497,4.162487310118296
3649.2202,11.959210213237494,4.358556856317631
3650.0596,11.954868758836172,3.659989217129626
3650.8994,11.941837075243257,4.543392388683188
3651.7412,11.920749306829732,4.4691982722063885
3652.5813,11.897474246719227,4.870587971144991
3653.4236,11.878807015166258,5.058829773825709
3654.2642,11.869398578223315,5.3653192306595034
3655.1067,11.870417332930735,4.5597485497019195
3655.9475,11.88010780170442,4.980610165510566
3656.7886,11.893831249121146,4.264113380886351
3657.6318,11.904203178499495,5.247216833361454
3658.4734,11.90334825486242,5.250004868167296
3659.317,11.887752801917935,4.753658245391645
3660.1587,11.861519107896559,5.658270888428983
3661.003,11.833801991317078,4.472566026255684
3661.845,11.812582055425299,4.685497541156239
3662.6875,11.799047803905431,4.96913990125435
3663.532,11.788610744812154,3.74471339043281
3664.3748,11.775911844137262,4.5831466575780455
3665.2197,11.759267623387645,4.1803544170685845
3666.063,11.74158369394448,5.161760437957155
3666.9084,11.726711430575005,4.283410983070672
3667.752,11.715602876702345,5.282319421244306
3668.5977,11.705296805321986,4.045564122756943
3669.4417,11.692514543421778,4.8843877432012075
3670.286,11.676702567509402,4.818403992033532
3671.132,11.659107020323557,4.5148112568430685
3671.9768,11.639115472810333,4.947392328399841
3672.8235,11.612508546473919,4.794827013123216
3673.6685,11.57516976275472,5.335600591652185
3674.5156,11.52769624751134,5.034641152498118
3675.3608,11.477785926954235,5.045695626380421
3676.2063,11.43580008234673,6.089940562149544
3677.0542,11.409110378910762,4.873044510745703
3677.9,11.398410195178776,4.323618945670705
3678.748,11.398097425668547,5.1959039877574735
3679.5945,11.400556076814484,5.60184674482945
3680.4429,11.399690624694077,5.0895760499740845
3681.2896,11.391932814261104,5.036464809730317
3682.1365,11.375366223403686,5.0508299310466
3682.9856,11.34932277542722,5.807015051466441
3683.8328,11.315758086665296,3.8679354451823507
3684.6824,11.279880232581354,5.581514921190539
3685.53,11.25009351027128,5.062302443357185
3686.38,11.23420622802566,5.787934358494651
3687.2278,11.23537104023299,4.846497120531548
3688.0762,11.248650872353007,6.3574046367024355
3688.9265,11.262677293579964,5.049090791280403
3689.7751,11.265637137887447,4.843531733452769
3690.626,11.25205565677307,4.765196551448576
3691.475,11.224887117927814,5.068471892826164
3692.3264,11.192116110273588,4.921744133524748
3693.1758,11.162351024241891,5.651336096553017
3694.0254,11.141185343264537,5.658773787593606
3694.8772,11.130519557146387,5.681602568501302
3695.7273,11.128754747744116,4.974682738123668
3696.5793,11.131610131304637,5.81351136470492
3697.43,11.1335450085302,5.346509202773243
3698.2825,11.128987975626995,5.97536114667737
3699.1333,11.113597424939837,5.615926314033989
3699.9841,11.085841872602044,4.878409992279772
3700.8374,11.048210091427428,4.65086152443975
3701.6887,11.007081796159902,6.17980776133232
3702.5425,10.969105982245487,5.937206773849696
3703.3943,10.938731102298044,5.861471152738714
3704.2483,10.916605101034527,5.986002926343166
3705.1003,10.901761379256875,5.6266738782319985
3705.9526,10.892794739288176,6.3314150104060785
3706.8074,10.888071803911753,6.035447056737465
3707.66,10.88516499947562,4.858507853100054
3708.515,10.881355883674562,6.08569922366149
3709.3682,10.875084952228555,4.930698073899448
3710.2234,10.866399447104284,5.812117447774345
3711.0771,10.856248298580162,5.394447400996748
3711.9307,10.845425469933112,5.686184421046738
3712.7866,10.834671425226443,6.775418293860233
3713.6409,10.82523854950584,4.777550384264408
3714.4973,10.817929603747697,4.844011651879037
3715.3518,10.811542194433368,5.092657560259549
3716.2085,10.802549651051425,6.34854514933499
3717.0635,10.787784315905313,5.475682466832266
3717.9185,10.767249201087179,6.632576066922968
3718.776,10.744491976805072,6.365101847819732
3719.6313,10.724403647530467,6.082391159448213
3720.489,10.709679720597642,5.943660292078176
3721.345,10.699672185232673,5.758926318875618
3722.2031,10.691237490255093,5.986525932754812
3723.0593,10.681764466047742,5.1888945593044316
3723.9158,10.670915539907472,5.908725178263648
3724.7747,10.659773880743728,6.376540042292614
3725.6316,10.648653794068728,6.894205905775702
3726.4905,10.63677892635332,5.254908491957825
3727.348,10.62526139709471,5.460877060750981
3728.2073,10.618466550539559,6.906482214637174
3729.065,10.620786913137252,5.639933033323729
3729.9229,10.630956691645787,5.3505624894922885
3730.783,10.640786196389866,5.401137987966102
3731.6414,10.639934585443216,6.24863187492859
3732.5017,10.622646267046154,6.013001048680341
3733.3604,10.590819155959776,5.978243947859436
3734.2214,10.551865609720794,6.233727653404441
3735.0803,10.514927679312686,5.844048745199625
3735.9417,10.486197333901119,6.742293658868075
3736.8013,10.468208656161373,5.734703077378003
3737.661,10.460801252528661,5.7377256666783625
3738.5227,10.463761103642911,6.146253557506596
3739.3828,10.47661965726059,5.3705672591676406
3740.245,10.495625895435547,5.793209948008822
3741.1055,10.511535672786929,5.814895070552635
3741.9683,10.513640904495391,6.08582763014155
3742.829,10.497548339476637,6.114330043703029
3743.69,10.469801396499212,6.075957391201551
3744.5532,10.44333520168289,6.121461492458984
3745.4148,10.427892332285884,6.5054061928007
3746.2786,10.422767946901661,5.097293900001144
3747.1404,10.418637119007782,5.839229321935611
3748.0044,10.405018806701648,6.6366542932564645
3748.8667,10.37771249642766,6.257673577760492
3749.729,10.340663778009992,6.987261566118072
3750.5938,10.302837249013523,5.6353808359952255
3751.4565,10.273780809550018,6.766583114838854
3752.3215,10.259162675314228,6.454612107816325
3753.1848,10.258808796600878,6.59388805809721
3754.0503,10.26534031337524,6.105149536351787
3754.9138,10.26631704286578,5.512635718255264
3755.7776,10.250545441725086,5.964627875128103
3756.6438,10.21506464894089,6.296496146103262
3757.508,10.167839993179841,6.477082637447416
3758.3745,10.122137158611945,5.912414354467594
3759.239,10.089054445845981,6.284748853814604
3760.106,10.071373645866977,5.6308421860518205
3760.971,10.064345092117502,6.742030537462081
3761.8362,10.059469020292868,7.187159044512073
3762.7036,10.049602569648735,6.441961337558774
3763.5693,10.031944064493615,6.644805211849385
3764.437,10.00771851606366,6.93752691977271
3765.3032,9.980229245353499,6.792261273721897
3766.1714,9.952522006530772,8.174391691019904
3767.0378,9.927427479507505,7.293153084825139
3767.9043,9.907467531689845,6.644333881950435
3768.7732,9.89431166294955,7.365868733109944
3769.6401,9.88711898014922,6.4966963972423315
3770.5095,9.881617226984705,6.879210618970898
3771.377,9.872110462870758,7.194625198015185
3772.2466,9.854912007752704,6.567775998230193
3773.1145,9.831481209841748,7.376887133901112
3773.9824,9.808046849020114,7.640804675675551
3774.8528,9.792096090090158,6.841774100574352
3775.721,9.787862049698822,7.323479639993465
3776.5918,9.793875805401829,6.078538729041597
3777.4604,9.804685374590703,8.739667140660872
3778.3315,9.814548197405989,6.397884239168557
3779.201,9.819892384938445,7.29222742323353
3780.0703,9.819755430104749,8.04833489011499
3780.942,9.814551913482195,6.022421987351221
3781.8118,9.805257702123262,7.551296151496396
3782.6838,9.793035228276295,7.620455044140101
3783.554,9.77903033319021,7.323464243796596
3784.4265,9.763333808619967,6.336529700828905
3785.297,9.74475976030193,6.1766317969374365
3786.168,9.721503332395633,6.666572281532569
3787.041,9.69342694183857,7.640562198156464
3787.912,9.663787711707968,7.8665114539741285
3788.7856,9.637386688265877,7.513319233961952
3789.6572,9.617361954523366,7.391171290842126
3790.531,9.601972219509195,6.417391051754204
3791.403,9.586224716850557,7.4032427782258665
3792.2754,9.565834457491903,7.236447258411064
3793.15,9.540579808585548,7.7414838060728215
3794.0225,9.513909249124783,7.8891508975920415
3794.8972,9.489079015570939,8.99869962486323
3795.7703,9.467119177186987,7.105288089899428
3796.6455,9.44719547292139,7.234031462402599
3797.519,9.429604563121798,8.316736168985145
3798.3926,9.416580902399799,7.706912792732934
3799.2686,9.41095863765396,7.13886947345934
3800.1426,9.41385253422119,8.491167096918813
3801.0188,9.423836963855948,7.451487866309061
3801.8933,9.438305470912471,7.56801038852116
3802.77,9.45555513421391,7.2686787775837445
3803.6448,9.474883144280772,7.27468094039627
3804.522,9.495211803750577,6.6056690832188165
3805.3972,9.513054330712137,8.120485650640013
3806.2727,9.52379276513728,6.981048419102265
3807.1504,9.524711031344882,6.128381509356029
3808.0261,9.517275079384618,7.425862861161934
3808.9043,9.505715334530624,7.721175935368383
3809.7805,9.493781044657796,7.017513575203264
3810.659,9.482941626308076,8.145544226729928
3811.5356,9.473702265846997,6.869651563813835
3812.4126,9.466933681954629,7.439620989576289
3813.2917,9.463873183701196,7.368174216839375
3814.169,9.46482822144077,7.34752674614241
3815.0483,9.468193393890845,7.452823840763983
3815.926,9.47070118149864,6.552621865448226
3816.806,9.468604342883008,7.57570973381183
3817.684,9.4587376401458,7.16526738617539
3818.5623,9.438898878531724,7.223091689751689
3819.4429,9.40791234183689,7.860241570285744
3820.3215,9.366573193623452,7.617729737096882
3821.2024,9.31779156569286,8.227391312298408
3822.0815,9.267188432330379,7.936740823446108
3822.963,9.220753426587027,9.139103754601283
3823.8423,9.18330831767203,9.190981810349983
3824.722,9.155594291524872,7.87394318373817
3825.604,9.13388029312736,8.450410103857697
3826.4841,9.111277577712103,7.159357237454916
3827.3665,9.08060114833285,7.511345960574099
3828.2468,9.038609271882414,7.01321381236939
3829.1296,8.98708283837849,8.545755168979081
3830.0105,8.931967338372713,8.575746075292365
3830.8916,8.878858536693075,9.128923604304216
3831.7751,8.830724546431904,8.467835765979874
3832.6565,8.78825110903348,8.671284002768683
3833.5403,8.750772719273252,7.963796270298158
3834.4224,8.718643794683546,8.873109917042276
3835.3064,8.692641097082275,10.225815877143289
3836.1887,8.67393779196588,9.212363629211778
3837.0713,8.663723134005172,7.32322880287866
3837.956,8.664182614729938,8.29799448413638
3838.839,8.67826718472067,8.82043924663131
3839.7244,8.707463680803885,8.109574937405931
3840.6077,8.748432060424907,9.204462442460793
3841.4932,8.793099883745068,8.572352359078515
3842.377,8.831919830531541,9.137059098155403
3843.261,8.860332384046057,8.010777510085923
3844.1472,8.881241011813914,9.037118210563492
3845.0315,8.902120211862362,8.953763447252808
3845.9182,8.928964573246466,7.943275764582657
3846.803,8.961243380752347,7.7893568724240385
3847.69,8.993463320705017,8.891545730873597
3848.5752,9.019781410002356,8.885714644100572
3849.4604,9.038682619992345,8.569302473128115
3850.3481,9.052512843683164,8.511299630413173
3851.234,9.063951880341495,7.688606732946018
3852.122,9.073259013822444,7.78712736223427
3853.0083,9.078163188373244,7.391771247994644
3853.8967,9.076773013102144,6.7845073950564645
3854.7832,9.070123194154244,8.697830602873113
3855.6702,9.062308529998305,8.02185980109918
3856.559,9.05819981254881,8.602751712102672
3857.4463,9.060685445683962,7.863766706882677
3858.336,9.069203069851945,8.026236082918894
3859.2234,9.080158069945519,7.7242138309509665
3860.1135,9.08903641302849,7.902951181031561
3861.0015,9.092491703737053,7.51597287492166
3861.8896,9.089602962642495,7.4409922951941025
3862.7803,9.080984929542526,8.745079363627562
3863.6687,9.06742712986029,7.835195134728319
3864.5598,9.049223607005642,7.776561358043928
3865.4487,9.02733604312557,6.560234897263521
3866.34,9.003618297326396,9.026869314258928
3867.2297,8.980165068276627,7.843310396075649
3868.1213,8.956979635429366,7.707417133769065
3869.0112,8.931801879244858,7.733557893447623
3869.9014,8.901331076010496,8.12345472972966
3870.7937,8.863518564269002,7.366074743285294
3871.684,8.818697985187816,8.68282536804167
3872.577,8.767887498827667,9.196025769553323
3873.4678,8.712141042665374,8.523170927143186
3874.361,8.651237606541173,8.692516514813176
3875.2524,8.585706598357858,8.40090346985804
3876.1438,8.516481967442957,7.593823806802455
3877.0376,8.444639533672495,8.757219012359203
3877.9297,8.37095520621234,9.678861222388784
3878.8237,8.294779530443934,10.053892264439714
3879.716,8.216608817237269,9.603715013260054
3880.6108,8.137737356578512,10.74278961874328
3881.5037,8.060563348052252,10.771108186308814
3882.3965,7.984902004972417,10.809720211260164
3883.2917,7.907759763399761,10.641389397608128
3884.185,7.826211107723036,9.81973007355349
3885.0808,7.73912707609372,14.022423274003827
3885.9746,7.649834843103066,10.493391829229164
3886.8706,7.563340076282277,11.91771204837741
3887.765,7.486568726600681,11.092894025086675
3888.6592,7.426374085044684,13.309413985778923
3889.556,7.38964071135636,12.714481407576663
3890.4507,7.3822889597625805,13.76842736883886
3891.348,7.406979598546513,11.746409757250218
3892.243,7.461401470227309,10.90620086413296
3893.1406,7.538253373292516,11.57691130858779
3894.0361,7.626003022650773,11.513010107673836
3894.932,7.714159074639238,10.971165602514459
3895.83,7.79661079281229,9.499302865143731
3896.7263,7.872557655607239,9.526830020911499
3897.625,7.945950314876928,10.484415999535905
3898.5215,8.019860028222235,10.432158539418133
3899.4207,8.095030417691731,9.199169966660419
3900.3176,8.16877071816921,9.895142527319027
3901.2148,8.239269865445877,9.975059417297308
3902.1145,8.306699505977118,8.703864866127573
3903.0122,8.371675067291305,8.88328871129388
3903.912,8.434286259858112,9.57135026751772
3904.8103,8.492282997187127,9.352379430007108
3905.7107,8.543038652840988,10.388619225713505
3906.6094,8.583647754951459,7.969341267939258
3907.508,8.612900117763486,9.22601253453847
3908.409,8.63244904867214,8.974735208935112
3909.308,8.647382728063556,8.83265521723095
3910.2097,8.664400624593396,8.484922397418115
3911.1091,8.687551478484,10.330425836578543
3912.011,8.716575498217281,8.819664666907515
3912.9111,8.748390576293053,7.943691657643031
3913.8113,8.781653805702943,9.369091002272098
3914.7136,8.820059737440802,8.468717143707524
3915.6143,8.874639823788879,7.935591404722194
3916.517,8.967984024421972,9.090460854632855
3917.4182,9.135301285840905,8.664825446539181
3918.3215,9.41693887958516,9.124574540441436
3919.223,9.823035895355108,7.763486706167831
3920.1245,10.294568045654822,7.714149164327003
3921.0286,10.6913524416542,8.051011002284456
3921.9307,10.850208248225742,0.6813826658779832
3922.835,10.695737413966553,8.129904120114052
3923.7373,10.29595854924465,7.9687680729376416
3924.642,9.812278794029407,7.440526862977568
3925.5452,9.398172174931032,7.631209831895194
3926.448,9.120472604637227,8.476402995915974
3927.3535,8.967747021177617,8.325852040636446
3928.257,8.897194983554215,8.634602719348033
3929.1628,8.86913240823679,8.602479817278091
3930.0667,8.859723731541344,9.05077874431809
3930.9731,8.855623977628722,8.334007237811862
3931.8774,8.848569117542992,9.097938062229177
3932.782,8.833725922368986,8.567160994561299
3933.6887,8.810607982917373,7.986744026312129
3934.5938,8.783086597793622,7.904750870600264
3935.501,8.756150721471679,8.186948417592381
3936.4062,8.732770794509088,8.85942527146697
3937.3142,8.712371748316455,9.581484243179581
3938.22,8.693375895647872,8.88578559405928
3939.128,8.675320245129798,9.006587614518299
3940.0342,8.659434933196785,9.324009008634711
