wavl,flux,ivar
3566.9744,0.8347282478837839,640.9348645503784
3567.795,0.8324680650989338,546.4539715356153
3568.6177,0.8295865488011802,479.1241042303947
3569.4385,0.8262672808998964,746.1568668518797
3570.2617,0.8234544438943459,888.6425178612665
3571.083,0.8223948500558536,996.1838762256217
3571.9065,0.8237660058941492,790.2976490016417
3572.7283,0.8272667442459104,462.8656189219704
3573.55,0.8318263150334053,612.9495901217347
3574.374,0.836124280064055,525.0718824476692
3575.1963,0.8390334287943823,584.7922645740978
3576.0208,0.8400083796234827,688.8695695860264
3576.8435,0.8391110591540526,1038.7149389205356
3577.6682,0.8368278950735552,666.2309976875595
3578.4915,0.8338008744294771,601.3505822711572
3579.3145,0.8306902007363904,512.7289899390947
3580.14,0.8281508235669102,694.3387903155366
3580.9636,0.826679601054022,819.1588485414235
3581.7893,0.8263070986716569,579.2786706589563
3582.6133,0.8266127643216623,760.9318573799069
3583.4395,0.827068242442561,720.2536559747581
3584.264,0.8274656257437627,598.2490404705659
3585.0884,0.828063422948233,754.2573253174226
3585.915,0.8293218967402084,756.8902895578422
3586.74,0.8314140474900851,610.348201904322
3587.5671,0.8339407042644524,831.4815070194384
3588.3923,0.8360298019886381,535.7040573537838
3589.22,0.8368541337800128,638.0113056247826
3590.0457,0.8360446017224399,518.3829562319706
3590.8716,0.83385949708186,504.6125750861025
3591.6995,0.8309972992085104,390.2568246978258
3592.526,0.8282538252230973,695.574934832259
3593.3542,0.8260806155550695,534.07854471606
3594.181,0.8244418250019638,567.9675476788177
3595.0098,0.8229553077935312,604.4006245170876
3595.8367,0.821322885830519,666.4983062707331
3596.6638,0.8195749183325006,580.9978661759197
3597.4934,0.8180261093870116,554.4250509543242
3598.3208,0.8170093644219495,1424.567306940748
3599.1506,0.8166084248919033,575.5296367735159
3599.9788,0.816642424876262,611.3151440197397
3600.8088,0.8167889253080838,409.8894314156282
3601.6372,0.8167485655630684,568.6231595689269
3602.4678,0.8163061866315302,632.416231954767
3603.2964,0.8152871964156603,719.8573527255319
3604.1252,0.813520785470541,589.6601110323415
3604.9565,0.8109511019017052,810.5525627781692
3605.786,0.8078946734535554,622.9688326641418
3606.6172,0.8051277696556864,616.2685023438695
3607.447,0.8037692625635685,760.3348817941669
3608.2788,0.8047660410943643,806.331563071409
3609.109,0.8083415130751447,615.160579196208
3609.9392,0.8136963431180299,758.624175898931
3610.7717,0.8192007508085971,704.4116202672304
3611.6023,0.8229694763780155,520.9462254069398
3612.435,0.8237437885433541,815.4789004322898
3613.266,0.8214353346819628,785.6588378521525
3614.0994,0.8172425638104637,723.0105603381854
3614.9307,0.8130770904834381,892.2889866216889
3615.7625,0.8103951955136007,534.8716214550257
3616.5962,0.8094053681758729,635.249453743499
3617.4282,0.8092197564123509,492.89207560670246
3618.2625,0.8088286165608308,772.1861137958867
3619.0947,0.8078880021839234,515.7154630680863
3619.9292,0.8065904374599135,682.9695161911933
3620.762,0.8050959877997331,556.6065810807759
3621.595,0.8032909296190417,647.1616754119619
3622.4302,0.8010834528058353,506.58607670364773
3623.2634,0.7986780360957714,510.04570397823426
3624.0989,0.7963785912460827,656.722309673096
3624.9326,0.7943405355296627,692.8090725510411
3625.7686,0.7925877420654844,567.7189489475361
3626.6028,0.7914347617143642,619.2127104927297
3627.437,0.7916174923274871,668.043779690144
3628.2734,0.7939050933910502,584.2994668972094
3629.1082,0.7984086924490787,624.7179210862525
3629.945,0.804338006074415,687.0426715901339
3630.78,0.8102207718107887,660.3720859328798
3631.6174,0.8146123299380132,626.6913284539945
3632.453,0.8165992313614368,641.44728860886
3633.2883,0.816319403643982,659.0791979536426
3634.1262,0.8149258150445574,503.36270810881547
3634.9622,0.814011203734753,590.1538195636665
3635.8005,0.8145853730968506,790.2379747038507
3636.637,0.8164329575686247,536.4939521704385
3637.4756,0.818403645389303,547.8370997233416
3638.3123,0.8193539893954674,651.2661776730059
3639.1492,0.8189778205539024,1119.247759989296
3639.9885,0.8178235227912428,645.1185205173426
3640.826,0.8167359921019557,658.1466040015288
3641.6653,0.8162056042896388,592.3298325267994
3642.5032,0.8161773100412729,560.431609533387
3643.343,0.8163091374878552,532.512879407049
3644.1812,0.8163579123032483,609.3550939770249
3645.0195,0.8162776447632468,604.8525942791633
3645.86,0.8160207920231319,769.6624509157756
3646.699,0.8153975693863906,502.3140979555322
3647.5398,0.8141987427815659,717.04538190735
3648.379,0.8124344279113689,613.8944299863798
3649.2202,0.8103484508660947,617.5483640179539
3650.0596,0.80826413147378,572.4862854049705
3650.8994,0.8063461228654857,933.628997829653
3651.7412,0.8045724878142696,704.5131620954751
3652.5813,0.8028445836369204,517.2370035516377
3653.4236,0.8010551797316792,700.2960248664273
3654.2642,0.7990749953438863,510.8913153970277
3655.1067,0.7966360727321355,538.3847280224695
3655.9475,0.7934957053021411,657.5071452336516
3656.7886,0.7897269785821964,697.7398879867291
3657.6318,0.785913652549757,578.9181088178634
3658.4734,0.7829808328089499,662.8068247371194
3659.317,0.7816998841393045,621.7177812392366
3660.1587,0.7823476842976966,720.8896069114413
3661.003,0.7845450292865705,580.113307858042
3661.845,0.7874224523178537,644.9915007328548
3662.6875,0.79009280476974,530.365023333419
3663.532,0.7920161816670463,701.2821985387963
3664.3748,0.7930268787196609,903.4552877645292
3665.2197,0.7931250950916217,654.2747604571567
3666.063,0.7923625165576352,529.4733125363757
3666.9084,0.7910239880942133,667.2474774639613
3667.752,0.7897258956581085,794.5532638288054
3668.5977,0.7890468649058094,608.4648586609997
3669.4417,0.7890336937035238,875.6470358681942
3670.286,0.7891527261048908,543.7321046625847
3671.132,0.788911685949267,706.6858013970681
3671.9768,0.7884848548048659,630.9024639942537
3672.8235,0.7885993938583622,799.14880268196
3673.6685,0.7897775400275645,476.8165609508564
3674.5156,0.7918031346345434,617.9326320146375
3675.3608,0.7939384774414187,542.8928529151284
3676.2063,0.7955841417958422,784.9394555591789
3677.0542,0.7965477401619252,626.0363496082971
3677.9,0.7968387220402767,694.9187320554896
3678.748,0.7964329607150791,586.2940707365318
3679.5945,0.7953008238247815,553.5010731464057
3680.4429,0.7935559117460955,587.2993047327675
3681.2896,0.7914479730125518,894.8008154457348
3682.1365,0.7891628057419676,731.8222437972922
3682.9856,0.7867477153851459,523.3351856956796
3683.8328,0.784199404083907,769.8807587742119
3684.6824,0.7815008478917388,888.6310740289653
3685.53,0.7787294839683048,765.3467544099045
3686.38,0.7761117005517133,842.4398098590161
3687.2278,0.7741367658508683,651.2764549844942
3688.0762,0.7733137475965597,537.079980219662
3688.9265,0.7738355665315283,652.4262739073715
3689.7751,0.7754034826055201,871.6837563508872
3690.626,0.777450572208813,824.1455227552112
3691.475,0.779428792365623,846.8371919161814
3692.3264,0.7809717228800425,820.9388509294502
3693.1758,0.7818466727131801,836.8631531534514
3694.0254,0.7819594858239828,593.1650114901664
3694.8772,0.7813185910930175,729.8752055559701
3695.7273,0.7800362987620129,652.9616708881754
3696.5793,0.7783899984464822,624.2288478158035
3697.43,0.7769509793471292,748.7931410800018
3698.2825,0.776426043999336,681.9200352471407
3699.1333,0.7771697009820706,752.1705754579596
3699.9841,0.7787221595989633,940.0491536780169
3700.8374,0.7799943157237519,744.8295461807187
3701.6887,0.7800137311726679,721.3615432067083
3702.5425,0.7785968386436535,688.7157169354484
3703.3943,0.7763434438359688,640.036576611003
3704.2483,0.7740957987976749,623.940284963191
3705.1003,0.7724818615658277,582.334255870607
3705.9526,0.7717123955033903,692.7580566030508
3706.8074,0.7717043195526782,663.5248767602624
3707.66,0.7722725561018302,660.4600295370774
3708.515,0.7733192603726197,575.1003319440576
3709.3682,0.7748817807877463,529.9482209020526
3710.2234,0.7770182199541938,654.9661575468532
3711.0771,0.7795662608602182,795.3509695377873
3711.9307,0.7821000643413265,748.8186419806896
3712.7866,0.784057952109485,612.1352257776916
3713.6409,0.784871349050514,966.0797805430475
3714.4973,0.7840297585774798,577.8590247729796
3715.3518,0.7811755385251564,735.7811225650831
3716.2085,0.776424517473931,680.5124796366613
3717.0635,0.7707224922554605,640.8388666405898
3717.9185,0.76557412526877,946.5752362150142
3718.776,0.7623588962861716,654.8793474702159
3719.6313,0.7617326990019887,670.6745649501919
3720.489,0.7635483571189534,743.288988806428
3721.345,0.7672405414453003,668.0274639954129
3722.2031,0.7720797454419681,789.1414994768701
3723.0593,0.7770542550001436,675.5254787199988
3723.9158,0.780984460820111,965.171401566238
3724.7747,0.7828751515281143,718.7562586568457
3725.6316,0.7823964890421053,837.0953483370763
3726.4905,0.7800196899214661,634.7886543708374
3727.348,0.7766932859986664,724.8288282394664
3728.2073,0.7733880729265376,717.2268004317926
3729.065,0.7708454723311959,682.6765496706637
3729.9229,0.7693685942878736,582.5429296854651
3730.783,0.7688412248744759,871.7227399757166
3731.6414,0.7689354372084595,757.0641067168558
3732.5017,0.7694373410430244,829.3350381261018
3733.3604,0.7703756463157433,814.3144552439345
3734.2214,0.7718076654230831,675.5804931201166
3735.0803,0.7735044888557197,583.5090871626171
3735.9417,0.775013535915385,647.4092754511769
3736.8013,0.7759920372714554,721.9502080247102
3737.661,0.7764928130872819,729.2138310952027
3738.5227,0.776780964591627,752.6367051509724
3739.3828,0.776918298253542,599.1657852799893
3740.245,0.776532299606329,550.4838275727626
3741.1055,0.7749891783194971,798.7047855978205
3741.9683,0.7718470535620866,698.773836997101
3742.829,0.767362960521414,762.8728347396798
3743.69,0.7625704518610401,965.0401151737744
3744.5532,0.7588606249958099,637.9232118288111
3745.4148,0.7572016377191249,746.8601069873998
3746.2786,0.7574524650925751,599.2893725764742
3747.1404,0.7584594466437443,685.3272021185514
3748.0044,0.7588249442385879,672.3140526622315
3748.8667,0.7578686507085247,698.2730943176896
3749.729,0.756119243823189,764.660907794865
3750.5938,0.7549289440687825,659.3518462300614
3751.4565,0.7554886749188773,591.5437480851299
3752.3215,0.75793707949203,902.5674613191195
3753.1848,0.7612924091734923,629.7818165167635
3754.0503,0.7642524211172662,632.3895757409421
3754.9138,0.7660523230965768,543.304814174814
3755.7776,0.7668493671214741,774.0671068936176
3756.6438,0.7673322830574911,599.6631177147924
3757.508,0.7680866774008367,784.1715390484279
3758.3745,0.7691759991788784,911.7998416901731
3759.239,0.7701313182963201,666.803236372913
3760.106,0.7702903335380374,898.5310289446807
3760.971,0.7691482927981778,796.1422857383271
3761.8362,0.7665827189735746,679.1335230897622
3762.7036,0.7629321478908618,762.4589673801336
3763.5693,0.759039391390201,579.5676110597311
3764.437,0.7559943593562822,732.4357473924849
3765.3032,0.7546887712276177,769.2896774538495
3766.1714,0.7552192892362449,674.7961935447381
3767.0378,0.7567667378014586,769.991029969923
3767.9043,0.7580881590251253,541.8853777680914
3768.7732,0.7583355116105033,579.2399849799424
3769.6401,0.7576156434778143,819.5680733680759
3770.5095,0.7568608648448827,860.6970471279773
3771.377,0.7570616665959857,634.3824795013879
3772.2466,0.7584108595852525,606.5260606005905
3773.1145,0.7600532280462922,553.4000999980092
3773.9824,0.7607133814745332,474.15828711910603
3774.8528,0.7596741678267072,711.4499617898962
3775.721,0.7573290531491784,809.5243593496574
3776.5918,0.7547852691259997,876.986330476188
3777.4604,0.7530083227166635,777.7048756563045
3778.3315,0.7521775686661896,799.1312398029722
3779.201,0.7518790787109857,743.6050485923288
3780.0703,0.7516892935654299,711.2657137697654
3780.942,0.7515346260757731,766.3900789556408
3781.8118,0.7514738123970045,642.742040161083
3782.6838,0.7513197743977501,506.6896953032285
3783.554,0.750692431084784,736.1607003656296
3784.4265,0.7494668763412938,905.7055561093094
3785.297,0.7480501448198279,761.0841516750495
3786.168,0.7470392379172671,678.9943867835826
3787.041,0.7466153318735967,534.6599085382303
3787.912,0.7462507256263827,558.2008796122154
3788.7856,0.745020872549749,758.4934426475488
3789.6572,0.742280871151365,755.10062914499
3790.531,0.7381120365878866,760.7537178105787
3791.403,0.7333432618304285,598.7129478473042
3792.2754,0.7290026355587077,809.812580224907
3793.15,0.7257260318863124,740.5757800139637
3794.0225,0.7234416646488132,810.8519873182994
3794.8972,0.7215255023648833,859.0493856299781
3795.7703,0.7194369286784342,800.331775906059
3796.6455,0.7171754776517372,879.2186187707131
3797.519,0.7153701442511682,957.7931626338003
3798.3926,0.7148987263661449,789.3660630642228
3799.2686,0.7164626645818176,925.1186920693802
3800.1426,0.7202210874324048,873.2505035980673
3801.0188,0.7256774330584784,637.1203775325439
3801.8933,0.7317086067309592,843.5636496914349
3802.77,0.7370082838741616,626.9651973583673
3803.6448,0.740523170938971,872.5047316870414
3804.522,0.7420376686343532,677.0362471839285
3805.3972,0.7422855550687832,663.0999543732387
3806.2727,0.7426291142152868,940.4092260643762
3807.1504,0.7442509890472118,870.553667823547
3808.0261,0.74741684042699,727.5386553426847
3808.9043,0.7514304037946365,548.9677128168802
3809.7805,0.755196017562947,838.104713953188
3810.659,0.7580337412279812,934.6499504696894
3811.5356,0.7598960085684785,783.7851259300567
3812.4126,0.7611922547503965,836.3721538894208
3813.2917,0.7623887088907028,588.0150360439548
3814.169,0.763715595144332,969.8343588593549
3815.0483,0.7650129181921966,744.6440006976673
3815.926,0.7657375327516516,562.7305456432002
3816.806,0.7653281713910804,598.3019961349812
3817.684,0.76366922696395,669.864086502437
3818.5623,0.7612227618105969,744.4896528958258
3819.4429,0.7586421456589055,695.6649784137924
3820.3215,0.756317316983189,671.550227090809
3821.2024,0.7542333443038168,653.0487593266372
3822.0815,0.7522594444070684,784.808886226708
3822.963,0.7502599780368682,693.3929819383859
3823.8423,0.748033101831654,836.9897399371898
3824.722,0.7452302988036222,587.1138622089434
3825.604,0.7415810484800933,809.4252248159158
3826.4841,0.7371622380216941,823.4338507514746
3827.3665,0.7322313407457754,607.6179120981222
3828.2468,0.726937358509101,708.014012131234
3829.1296,0.7210235343186591,831.3718682472452
3830.0105,0.7141415402860392,744.416208603739
3830.8916,0.7061268585993973,906.8976548502875
3831.7751,0.6971793326467274,851.4266377433637
3832.6565,0.6878157083697243,1077.2667916882301
3833.5403,0.6785908195221463,874.6377931138181
3834.4224,0.6703354181103582,734.1479034741234
3835.3064,0.6639810107467576,1173.685738813237
3836.1887,0.6603862878554769,801.2972295379698
3837.0713,0.6598195595343095,912.5077596943978
3837.956,0.6619318264026687,780.5086217011382
3838.839,0.6660778928450237,719.7435034960013
3839.7244,0.6718522106072602,718.5752744835721
3840.6077,0.6791867790047555,1010.7154397957693
3841.4932,0.6881804564113333,872.2153620835471
3842.377,0.6985450614911459,884.0090993478811
3843.261,0.7096114583259666,625.9459432535397
3844.1472,0.7205895673849665,670.6685608086605
3845.0315,0.7309520792769099,632.6424309030883
3845.9182,0.7407780713701084,788.2139732215458
3846.803,0.7502557814480076,849.2137360866078
3847.69,0.7594436225360557,652.633688195809
3848.5752,0.7679723634340634,597.3558088706927
3849.4604,0.7754439014701557,759.2929057618281
3850.3481,0.7816560563547945,686.2046715138638
3851.234,0.7866409216902456,622.689230386193
3852.122,0.7907207492729694,551.973705135639
3853.0083,0.7942814049462278,765.7599457615024
3853.8967,0.7975805828583931,703.089330921905
3854.7832,0.8003942071166052,709.9772500813131
3855.6702,0.8021658053895722,622.2497798301729
3856.559,0.802484203492194,626.5975117433021
3857.4463,0.8015215089216007,620.1638928457436
3858.336,0.7999105310464236,648.4263100890503
3859.2234,0.7982683007755397,713.9991637334293
3860.1135,0.7968378648158767,615.3277017617477
3861.0015,0.7955822921189334,791.7217262040831
3861.8896,0.7944009690393763,732.5498183590843
3862.7803,0.7932830012500245,590.7764369502737
3863.6687,0.7922748666355385,681.3207415958755
3864.5598,0.7913409115457,670.8506621338886
3865.4487,0.7902876983885535,837.518984527132
3866.34,0.788705645192717,562.8317508778316
3867.2297,0.7860725415858493,632.7780169127341
3868.1213,0.7819751516804501,600.9663824278812
3869.0112,0.7764785157401596,575.6312292218712
3869.9014,0.7701459763721166,910.4225579815991
3870.7937,0.7637218543982186,627.782102519251
3871.684,0.757718385381593,611.4333359925479
3872.577,0.7521640548435374,743.3532142312321
3873.4678,0.7469583741863655,832.1681395859657
3874.361,0.7420448117889742,698.4759951608487
3875.2524,0.7375257035981979,648.5856492499714
3876.1438,0.7333191362219186,1043.817844775014
3877.0376,0.7289040435516888,819.0756750376104
3877.9297,0.723306269863429,733.541075116646
3878.8237,0.7153549837408992,793.270525302096
3879.716,0.7043526336422326,714.2709696965395
3880.6108,0.6903364902323597,774.9683834238153
3881.5037,0.674244840438618,729.3909819736216
3882.3965,0.6572890604473745,940.1743004133551
3883.2917,0.6405842982530238,996.7312645642353
3884.185,0.625048795000451,1061.260834430938
3885.0808,0.6110917901485431,1379.5480708233843
3885.9746,0.5990433464350121,1069.2136710986
3886.8706,0.5890870148641733,1244.421103787084
3887.765,0.5816231894798335,1047.4825879720854
3888.6592,0.577072143643787,1409.5816149719406
3889.556,0.5757847875138085,1215.2736096650146
3890.4507,0.5778110386538182,1102.636234417381
3891.348,0.5827360661042977,1235.0497153912395
3892.243,0.5896736348108239,1091.422718714088
3893.1406,0.5977109316264471,946.1950919298343
3894.0361,0.6062965913028505,1070.4740801720443
3894.932,0.6156212642742905,1267.2272774675184
3895.83,0.6262205981681257,1290.190448064326
3896.7263,0.6382996032435986,1038.4219797606174
3897.625,0.6516508467210858,724.1982235302701
3898.5215,0.6656056883167566,1020.5064725916617
3899.4207,0.6796211321238723,948.1795821647642
3900.3176,0.693151644746758,864.1341108133063
3901.2148,0.705952839477514,675.822526273967
3902.1145,0.7179624767687359,809.3266514354335
3903.0122,0.7291982802292837,930.4535810365459
3903.912,0.7398995080142821,661.1101500865982
3904.8103,0.7502749848617661,730.3238671165934
3905.7107,0.7606548522616285,867.4318568056376
3906.6094,0.771188018078896,635.9717903999497
3907.508,0.7818117279903236,774.8432909493193
3908.409,0.7921040750983596,620.672457183176
3909.308,0.8013748785702256,717.8638021426315
3910.2097,0.8091825490155303,691.4088591203736
3911.1091,0.8154459106553525,592.0338760019824
3912.011,0.820568913532694,717.8201773379583
3912.9111,0.8250566898368736,613.4940850858162
3913.8113,0.8293846188536697,604.2348467226076
3914.7136,0.8338514349624611,576.8556239107728
3915.6143,0.8384582649923503,658.012161818838
3916.517,0.8429356847574294,513.9101288562035
3917.4182,0.8468472890687981,673.1841443924162
3918.3215,0.8500624699817592,543.5499077370677
3919.223,0.852954259141849,522.5284934649036
3920.1245,0.8562125659857388,722.3380216031967
3921.0286,0.8601915070757827,551.822710972655
3921.9307,0.8644569609390789,533.2915533347084
3922.835,0.868119767091376,481.404418207895
3923.7373,0.8705008557295377,537.3257117815177
3924.642,0.8716999322650884,574.7145223209473
3925.5452,0.8724051132435714,568.2831720893454
3926.448,0.8733254952659139,451.6497767323455
3927.3535,0.8746570245502183,587.3431164811491
3928.257,0.8759387778418308,478.05864374933327
3929.1628,0.8763528965426638,582.455532867021
3930.0667,0.8752180529395898,467.20968773272034
3930.9731,0.8724638329692025,590.212861369943
3931.8774,0.8688085906357549,551.6267669561502
3932.782,0.8653884898209849,520.6772705666184
3933.6887,0.8631385160981172,735.8949224521226
3934.5938,0.8622762694896017,538.4275677971962
3935.501,0.862218683783608,470.2841894409127
3936.4062,0.8620047244716765,527.6153848580326
3937.3142,0.8608094540409164,545.522530318499
