wavl,flux,ivar
3566.9744,3.4299358123571237,91.47182761945503
3567.795,3.4046950016750306,92.62287870976795
3568.6177,3.3858305734218637,103.44705448298335
3569.4385,3.3736761454650765,84.52189430600977
3570.2617,3.368174569400757,79.39504087473283
3571.083,3.3700961074838567,90.7512237310086
3571.9065,3.379800778844468,87.70990949529987
3572.7283,3.3952241325896924,90.26129292203588
3573.55,3.4116574083212394,77.85760881044511
3574.374,3.4240032235964084,79.35189862613652
3575.1963,3.429774016996563,84.83895660594546
3576.0208,3.430454387598477,86.59307322538643
3576.8435,3.4297582194155023,79.90696794214195
3577.6682,3.430971814000675,82.67430713875474
3578.4915,3.4353720789954765,83.0206323439173
3579.3145,3.4424572248517054,79.29501886702687
3580.14,3.4509666379146764,77.42783548945394
3580.9636,3.459423573657651,75.87281724711369
3581.7893,3.466453381376411,84.11713374737916
3582.6133,3.4707375045533273,80.06600917884262
3583.4395,3.471175211449814,81.27757275343178
3584.264,3.466578954394851,89.82115375813487
3585.0884,3.4554786094273453,69.70292291310443
3585.915,3.436628543581084,89.54746555587471
3586.74,3.410719530004331,80.23618499011833
3587.5671,3.381204233003621,86.56953086852901
3588.3923,3.3540692872938305,96.66013750922006
3589.22,3.3347686633429534,96.54595195650913
3590.0457,3.326048703446343,85.85986743304004
3590.8716,3.326521867562085,88.03190776781841
3591.6995,3.332013167962166,80.15860921170018
3592.526,3.3377674160961863,88.79793334677254
3593.3542,3.340730554293471,89.85029913626276
3594.181,3.3403907760498917,87.43969547542083
3595.0098,3.3380897450108504,107.86492575267694
3595.8367,3.3354374408054803,82.46027882855736
3596.6638,3.3332255737546888,86.12101054660242
3597.4934,3.3316103548422698,90.57817513512231
3598.3208,3.330884511702576,93.38520628183154
3599.1506,3.3317229461731754,90.6925847575869
3599.9788,3.3346436606505283,81.71839633580818
3600.8088,3.339301347399532,84.66807221903562
3601.6372,3.344342800517034,85.21754073711118
3602.4678,3.348150967379585,96.12470893216424
3603.2964,3.349637454316458,78.66956399108022
3604.1252,3.34861036541424,93.3237493401094
3604.9565,3.3452010723499024,84.8709204203668
3605.786,3.3391348350099004,84.12726623030552
3606.6172,3.329451609555816,91.89098747327697
3607.447,3.315322560014586,86.27247270317291
3608.2788,3.296941706921671,76.80603787381759
3609.109,3.27627197474323,94.18223977365561
3609.9392,3.256313306712811,88.79356528021569
3610.7717,3.240152438202963,98.4207795657761
3611.6023,3.2300821996182845,94.54497179896595
3612.435,3.2268479916850605,101.58156107577587
3613.266,3.229744633522532,102.19985085072695
3614.0994,3.2367963891059963,98.12496662371008
3614.9307,3.2453875870834867,87.98493798261707
3615.7625,3.253266223312951,95.28066895409351
3616.5962,3.2590932788709606,83.84731395398362
3617.4282,3.262463419898285,94.52554388751773
3618.2625,3.263722165281654,94.58085247559879
3619.0947,3.2637482584256876,87.67099597029642
3619.9292,3.2638728093888543,98.28675585437398
3620.762,3.2654107231922653,100.25578836141592
3621.595,3.268905466665028,95.67347817992783
3622.4302,3.273697853478622,86.95941757342841
3623.2634,3.278210966008969,99.46972956826598
3624.0989,3.280867020450562,87.41675519564947
3624.9326,3.2806923602837847,90.8091207011664
3625.7686,3.2776254438771315,92.71215926611232
3626.6028,3.272564884594114,86.19829343101507
3627.437,3.26720207997001,87.19040125823109
3628.2734,3.2634589067487,89.04625090046183
3629.1082,3.26252816916504,84.1667852282898
3629.945,3.2640900524290073,97.56087357902183
3630.78,3.2665721225159317,81.04867166203381
3631.6174,3.2682564156708325,92.90157941391817
3632.453,3.268267059852135,93.04904771159713
3633.2883,3.2668191080651017,87.55408888148882
3634.1262,3.2647221049707955,94.71821864486166
3634.9622,3.262931658116328,92.88089518651712
3635.8005,3.262417564314824,96.78254450941964
3636.637,3.2642363114834994,93.27233810218378
3637.4756,3.2692495694796104,94.92599086804441
3638.3123,3.277433131914344,86.27475454163017
3639.1492,3.28749057697249,94.855382822052
3639.9885,3.297149047105476,95.16826680005823
3640.826,3.3041791174298085,84.39882323006971
3641.6653,3.307758505268979,87.17714624034616
3642.5032,3.3086952614315623,88.20338951751361
3643.343,3.308717477624978,92.76619237442837
3644.1812,3.309242179195121,92.22467722402345
3645.0195,3.3107582007872414,100.60120300544895
3645.86,3.3130085518869086,91.4804963844142
3646.699,3.3154303275816646,80.10844582630412
3647.5398,3.3175443274161274,93.91116056173237
3648.379,3.319203140754176,88.44987172817117
3649.2202,3.320875386342516,91.09116150243739
3650.0596,3.3235720752610702,95.21378581574356
3650.8994,3.3283735041329425,82.71899484570301
3651.7412,3.3357054028036544,85.26878017934949
3652.5813,3.3448097768220393,89.93444510131738
3653.4236,3.353936525871195,88.84761867370952
3654.2642,3.3607428890231112,90.11543393237447
3655.1067,3.3632546306442115,90.06826962284575
3655.9475,3.3606477347501267,83.02662969010291
3656.7886,3.3539135769925394,90.58230641312727
3657.6318,3.3456263544224436,91.63664968622588
3658.4734,3.3388030638555906,84.83943750702895
3659.317,3.335114895429223,87.99382237281311
3660.1587,3.3342125968873115,82.73677482896456
3661.003,3.334431166220677,97.40837058187043
3661.845,3.334323322077326,96.2049957626098
3662.6875,3.333477001947236,89.08676814133824
3663.532,3.3322265254319268,91.62583819630437
3664.3748,3.3310454153456037,92.47114463558317
3665.2197,3.3303188833566697,100.19036108712656
3666.063,3.330420785586352,87.14410345560825
3666.9084,3.3314887111597398,87.97298342021266
3667.752,3.332944897776536,93.56513659740448
3668.5977,3.3334087390945584,81.52045838487365
3669.4417,3.331348411386585,90.73534112667392
3670.286,3.3261142108900597,87.95668083591649
3671.132,3.3185004588996723,93.34202575359994
3671.9768,3.310553806274892,92.12775251483332
3672.8235,3.3045417363475407,90.21468989644302
3673.6685,3.3019997737913194,99.28335260465836
3674.5156,3.3029840865086353,85.76673251147025
3675.3608,3.306144494425836,80.09289420896685
3676.2063,3.3093809510165286,91.68617675768989
3677.0542,3.3107395204656425,86.79001731598599
3677.9,3.3091054210112927,84.414673071648
3678.748,3.304463444963807,92.84748252931468
3679.5945,3.2977708377638875,93.5072409991172
3680.4429,3.2905192330701873,89.17559453381448
3681.2896,3.284373614127062,101.58595593514472
3682.1365,3.2804986041605657,95.82473673447414
3682.9856,3.2790923710282027,96.41282336051856
3683.8328,3.2792685661008605,93.13882006252149
3684.6824,3.2796352556773933,88.89110212486662
3685.53,3.2792327482299686,84.81623937233613
3686.38,3.2779661308592734,97.22525070803465
3687.2278,3.2761865641702594,98.24919190194589
3688.0762,3.2739789058982267,93.58591772372087
3688.9265,3.2710494271556754,98.91691335306882
3689.7751,3.2672436129066074,102.4142945504447
3690.626,3.262861454867724,99.17513186003802
3691.475,3.258423607258658,92.88984620864278
3692.3264,3.2540074844608906,92.30805456435154
3693.1758,3.2492572664672883,100.257187419874
3694.0254,3.243934542186556,93.13534375550587
3694.8772,3.23858164550919,93.82247731809038
3695.7273,3.2344756866167943,92.66564906153762
3696.5793,3.232781598057754,94.7101101330001
3697.43,3.2338323276112173,105.82508906330948
3698.2825,3.2369036084400427,88.43798713432297
3699.1333,3.2406087604368454,103.68200291685476
3699.9841,3.243547788069187,87.14877460666499
3700.8374,3.2447687704664414,91.54898891229817
3701.6887,3.2440408642763114,88.93225825167298
3702.5425,3.2418246718235877,98.22415361713497
3703.3943,3.238773524272254,88.30208260123865
3704.2483,3.235019162642024,97.31465341964888
3705.1003,3.230074575814337,84.94508931743275
3705.9526,3.223359886064309,103.53357803122438
3706.8074,3.214918393510061,99.86694285033674
3707.66,3.2056598129233715,90.70652916250786
3708.515,3.1968306196898633,98.52882236666895
3709.3682,3.1897216186382957,99.36409546183573
3710.2234,3.1851248430456103,93.0618357978477
3711.0771,3.183158591615061,96.12290430686762
3711.9307,3.1830832713009163,100.24270073050567
3712.7866,3.1836012080987213,96.2626253711294
3713.6409,3.1834098702573,107.11428036573413
3714.4973,3.1817670441611847,95.22989705480181
3715.3518,3.1787275979641567,108.89218701607122
3716.2085,3.1749658215030307,92.169102985766
3717.0635,3.1715085766732094,87.63016788067485
3717.9185,3.1693122219476946,99.3223581558773
3718.776,3.1688751394252392,100.66476342605816
3719.6313,3.1698702271099948,85.76350547247019
3720.489,3.1711695418555115,97.65986677113224
3721.345,3.171442388633216,92.86377791053599
3722.2031,3.1700016542310783,97.49731420781906
3723.0593,3.1671764665397903,107.37228990466289
3723.9158,3.1638214651028216,98.53096286178197
3724.7747,3.1604153401345907,94.4133890291124
3725.6316,3.156615226315376,92.6079668274115
3726.4905,3.1516281114564877,94.39165571529723
3727.348,3.1452424140898185,93.55456228453131
3728.2073,3.1383309625614806,104.15988237249859
3729.065,3.1326266416008557,94.49010406340595
3729.9229,3.1296440820535465,100.51446065190943
3730.783,3.1297942292525853,104.05840227823899
3731.6414,3.1320090416586774,101.58379931080204
3732.5017,3.134230522741446,100.44586819872221
3733.3604,3.1344906923859224,98.39791034014692
3734.2214,3.131980037018233,97.17273138343337
3735.0803,3.1273482387013303,106.24409023844697
3735.9417,3.1220407815974505,101.73157853402243
3736.8013,3.117463899008426,103.33102059356571
3737.661,3.114384834436375,107.25228174143462
3738.5227,3.1129514414029567,96.04970326983349
3739.3828,3.1127837076388403,103.97721071529304
3740.245,3.1130340532542,102.52471815433483
3741.1055,3.112722648039011,103.8968458292607
3741.9683,3.1113076320607043,103.9286966861412
3742.829,3.108998811189944,108.66997044462761
3743.69,3.1063715953962276,114.89300321799321
3744.5532,3.1037235284392035,90.71489975042714
3745.4148,3.100903502695078,115.83128483545222
3746.2786,3.0976708598951386,106.52778036741438
3747.1404,3.0941987119514693,105.26552624694317
3748.0044,3.090968772582989,103.64568186510914
3748.8667,3.08840213951735,104.13281779614242
3749.729,3.086559661153781,103.52755255625439
3750.5938,3.0853995826844756,102.72150206564335
3751.4565,3.0850963612831217,107.3635776079859
3752.3215,3.0858318670068474,101.3951973040838
3753.1848,3.087200277602926,101.71877535120207
3754.0503,3.0880273488060577,104.58302719545236
3754.9138,3.0870548960628525,98.76171516473136
3755.7776,3.08394762268425,92.65250995436655
3756.6438,3.0795867023648325,106.95550798503719
3757.508,3.075525151574409,106.96196713691889
3758.3745,3.0729885966721042,94.22370996746353
3759.239,3.0723644130745837,106.92041712215702
3760.106,3.073167122189111,97.29384069523277
3760.971,3.0744714359467715,100.93106334616706
3761.8362,3.075419260120788,99.31965532264154
3762.7036,3.075547977148705,102.64655073610407
3763.5693,3.0748883412783723,106.31669680728771
3764.437,3.0738453021808723,100.2798457381
3765.3032,3.0729207097001643,97.29058637996353
3766.1714,3.072378715845179,112.25803526258854
3767.0378,3.072103090875686,102.1268949154473
3767.9043,3.0717153088981775,108.07743042374172
3768.7732,3.070884189592965,105.62227004419341
3769.6401,3.069623198295321,97.65787711481063
3770.5095,3.0683653146076217,101.29460323791618
3771.377,3.0677354345849466,109.02462640952331
3772.2466,3.0679855347461986,108.13022459713177
3773.1145,3.0685678340255156,102.14396879581369
3773.9824,3.068309249598778,104.89104747960465
3774.8528,3.066185560822311,104.51069737008595
3775.721,3.062111932506556,105.09592879722096
3776.5918,3.0570154082099554,102.60412926274961
3777.4604,3.05238478037101,121.12128892777359
3778.3315,3.049500110800003,111.9060195515427
3779.201,3.0491597305017066,114.6821602044153
3780.0703,3.0515869316444877,100.2841785879029
3780.942,3.056455978676866,109.8290659503341
3781.8118,3.062651761889804,101.31893173086638
3782.6838,3.068293226368017,110.97314841126399
3783.554,3.0711342783694198,100.76147154047251
3784.4265,3.069663891539332,99.49397024109774
3785.297,3.0639763354941887,103.80402611448373
3786.168,3.055836149870297,102.73656872153597
3787.041,3.0477967100086785,109.00681648008633
3787.912,3.042070780912369,111.52292632390899
3788.7856,3.0395866217748546,109.61234906247584
3789.6572,3.0399312729554024,107.3121118012132
3790.531,3.0416720542163516,111.05750640908367
3791.403,3.0430424220532095,104.87010047690663
3792.2754,3.0426758387676527,104.79541848492202
3793.15,3.0400715329947943,100.76664039747774
3794.0225,3.0357044473982744,107.76487941701667
3794.8972,3.030639909056495,109.06407647844374
3795.7703,3.0260483222395163,107.68517754884238
3796.6455,3.0226342297200914,106.0609879063901
3797.519,3.020506213400873,105.555566489686
3798.3926,3.0192104485216777,109.10205112586236
3799.2686,3.017990222262114,110.19470630158246
3800.1426,3.016034313604853,122.33918512451326
3801.0188,3.012709895028993,97.20983218598298
3801.8933,3.0078906415774775,121.37602654267357
3802.77,3.0021353580620973,112.24071969212328
3803.6448,2.9967640882045243,114.0959580271524
3804.522,2.9932724550482224,108.55341137885628
3805.3972,2.992487314101371,126.58970288132423
3806.2727,2.9937343188344174,111.05031476991041
3807.1504,2.9951045561507663,104.2610592687371
3808.0261,2.9946623253738425,104.02045758110799
3808.9043,2.99167539377222,111.34817420433893
3809.7805,2.986793817810619,114.46086960963832
3810.659,2.981218279063765,115.32851666536298
3811.5356,2.9760314309248495,110.53284729129489
3812.4126,2.9719812200135207,108.05927224460316
3813.2917,2.969672554083445,114.08849999102745
3814.169,2.9694625596434197,109.89169503101326
3815.0483,2.971118986602932,99.51719142078234
3815.926,2.973735044633616,116.24857316730484
3816.806,2.9760416062383825,117.04562912400827
3817.684,2.9768513727690604,114.01536041499494
3818.5623,2.9755719337782516,105.57781750566586
3819.4429,2.9725052630288835,100.41263445935114
3820.3215,2.9687366645901916,117.48124768325407
3821.2024,2.96525849167092,114.51984465509439
3822.0815,2.9621523478728946,106.87759209837894
3822.963,2.9585743301793404,104.40813407460298
3823.8423,2.953841713246182,112.41755038901319
3824.722,2.9482677150547834,109.6856500234952
3825.604,2.9430159211480067,109.23088271073195
3826.4841,2.93920196286025,117.39624677080289
3827.3665,2.9370453979222497,118.6777053205581
3828.2468,2.935909104048295,132.7928962589793
3829.1296,2.934741465433915,112.98326464104835
3830.0105,2.9326332649067655,123.82551655996663
3830.8916,2.9291078113373037,107.56846584047449
3831.7751,2.9242507507077398,112.24441833045863
3832.6565,2.9187442522506233,141.4196359817393
3833.5403,2.913512945274693,111.21982834624954
3834.4224,2.909377014563693,118.05018818403539
3835.3064,2.9066586294971275,116.16393289155552
3836.1887,2.90534179412889,119.77734323020249
3837.0713,2.9052762003440153,120.01692914536527
3837.956,2.9062122947032063,104.93536914740076
3838.839,2.9076085317497684,114.61684486023381
3839.7244,2.908757456818861,124.4830594542824
3840.6077,2.909300863577279,109.86365331844922
3841.4932,2.909688383921134,118.94884617174537
3842.377,2.910958645364086,119.73280019483907
3843.261,2.913998258267889,119.33489786988729
3844.1472,2.918886672857327,118.1606008134026
3845.0315,2.9247156835587518,104.20934254949336
3845.9182,2.9300352017896594,116.2729442994085
3846.803,2.933317656845158,116.86262127393992
3847.69,2.9335639078851865,113.85362581748127
3848.5752,2.9305495945975775,113.90744000492433
3849.4604,2.9248340552787537,106.86198861375493
3850.3481,2.9174837814324217,111.99488892727773
3851.234,2.909863636946835,117.83275316297298
3852.122,2.9032439667873056,121.4044367941849
3853.0083,2.8986431920269142,120.13322130500144
3853.8967,2.896351671111066,115.9354891526466
3854.7832,2.895788401610794,126.32394715626677
3855.6702,2.895662104566073,118.58014031128216
3856.559,2.894688343174201,118.7652350911111
3857.4463,2.892328970136312,117.93708729491767
3858.336,2.8889712935090923,126.40547359740766
3859.2234,2.8855305707504573,120.38313707152125
3860.1135,2.882749968831967,125.50945639068631
3861.0015,2.880910349034866,118.22568951125203
3861.8896,2.879823834148959,121.08166055919084
3862.7803,2.879161009057786,115.5706523875846
3863.6687,2.8787513013124344,124.46677873603493
3864.5598,2.878676570017615,121.74709447559262
3865.4487,2.8791078556491017,119.59984653934586
3866.34,2.8800194269570727,127.17678732683044
3867.2297,2.881034156371246,113.39053596209082
3868.1213,2.881520442973914,121.60877260645809
3869.0112,2.880816661258937,114.13249600503319
3869.9014,2.8785426368320937,123.29844925767154
3870.7937,2.8748675062112032,124.2668737047042
3871.684,2.8706422993873697,111.44542320561871
3872.577,2.867082843942494,130.58198795732645
3873.4678,2.865274504281735,118.05816122573931
3874.361,2.865490752826133,109.83639097120407
3875.2524,2.8668978077007043,124.93060079355006
3876.1438,2.8678223343928826,118.23413927741153
3877.0376,2.8666127389045735,113.99049448796885
3877.9297,2.86264652883793,112.19569509691898
3878.8237,2.8567571389140074,120.35239312650293
3879.716,2.8508590433623175,117.93369897516581
3880.6108,2.8468055922991624,120.40343792334426
3881.5037,2.8454034637153147,114.99710933885822
3882.3965,2.8458738793614655,123.63095719745951
3883.2917,2.846391331990327,120.4543295105765
3884.185,2.8453063009153805,119.6040279860089
3885.0808,2.8423193061069054,120.76600060216089
3885.9746,2.8387024572925332,129.2383918204904
3886.8706,2.8362798920887213,121.31443610169467
3887.765,2.836109772022782,122.35628728514222
3888.6592,2.8377853545178207,122.97759276734291
3889.556,2.839996915717263,119.81237025818729
3890.4507,2.84164983433568,120.52093825947519
3891.348,2.842641883669481,118.97233934160332
3892.243,2.8436572742911768,120.09150606718325
3893.1406,2.845490506847918,123.62409940672342
3894.0361,2.8484614868365266,120.22344662909236
3894.932,2.8523285170558226,128.3245893257616
3895.83,2.8564565580904797,123.71314679141749
3896.7263,2.86003053906475,117.94028875622391
3897.625,2.862366863451211,122.42417451422106
3898.5215,2.863125439626475,126.50509248255338
3899.4207,2.8626626185692534,114.3250213927079
3900.3176,2.8621228677057364,127.604136852713
3901.2148,2.862998921657926,122.05501197901486
3902.1145,2.866226521374533,117.97893730816403
3903.0122,2.8714625569170513,120.56624175073054
3903.912,2.8774230956932625,117.55881961209835
3904.8103,2.8828629562194967,111.68168874774715
3905.7107,2.887494852308443,116.81147470496319
3906.6094,2.891715322935839,117.93012130383536
3907.508,2.8958074372424494,114.63597257966224
3908.409,2.8993630277415106,121.14875591814265
3909.308,2.9016045245249984,118.129070217706
3910.2097,2.902258995299769,118.41802568818521
3911.1091,2.9019458622695526,117.26849559273157
3912.011,2.901776966484275,112.27170975180339
3912.9111,2.90248797514468,115.9321479070845
3913.8113,2.9039333909733474,119.42728434741474
3914.7136,2.905388244486591,124.32121130159543
3915.6143,2.9062982417063923,114.16320590102268
3916.517,2.9067891003187967,108.60587124955916
3917.4182,2.9073997336220927,117.93821340126999
3918.3215,2.908374503888088,117.36181593578056
3919.223,2.9092151379314783,114.31710590824927
3920.1245,2.909043140378727,111.81434462122348
3921.0286,2.907396308471086,112.16883514027909
3921.9307,2.9046995644762026,120.98656594757651
3922.835,2.901890686179293,112.99456880043459
3923.7373,2.8997495253956047,114.8684815026777
3924.642,2.8984622250722,113.23669073608899
3925.5452,2.897739019745653,113.51756513944721
3926.448,2.8970191650545734,116.6755474155901
3927.3535,2.8956623794689333,120.58369535401317
3928.257,2.893171002280672,115.66265549519645
3929.1628,2.8893892370100365,119.37746267361302
3930.0667,2.884578072531156,122.15068226211571
3930.9731,2.879080121712629,118.33799264197062
3931.8774,2.87312076999587,112.88671255281407
3932.782,2.866714465187216,119.64692348454298
3933.6887,2.8599655426960973,124.86132905367747
3934.5938,2.853248902356549,117.7088738167337
3935.501,2.8469069052432303,123.08487166865913
3936.4062,2.841074398903423,117.18669805388846
