wavl,flux,ivar
3566.9744,11.366688548984447,17.999781802015956
3567.795,11.349472654164153,13.516417283616615
3568.6177,11.352109542524163,15.163929614171181
3569.4385,11.367684053165737,13.628263433201752
3570.2617,11.386559798730588,14.239181559162414
3571.083,11.398077827826661,12.541295098742632
3571.9065,11.392786254003354,14.522513134615844
3572.7283,11.365065371380783,10.793655230413789
3573.55,11.315915912156145,10.185623195319609
3574.374,11.25398200785848,10.180633586169309
3575.1963,11.19464536992056,11.96826657876164
3576.0208,11.154166571084344,12.78588703242155
3576.8435,11.14390819806653,14.567918700734527
3577.6682,11.164493154359706,15.62726250877966
3578.4915,11.205613037387073,14.67891718607282
3579.3145,11.251180748954367,12.448228762776205
3580.14,11.287083314456925,10.38579825391168
3580.9636,11.306559946771351,11.360756307728744
3581.7893,11.311381915055522,13.446180366691852
3582.6133,11.307365237253906,13.494386648399939
3583.4395,11.299568916276488,15.560826136751206
3584.264,11.290202335753449,13.158822453694093
3585.0884,11.279756815812917,13.812379904295762
3585.915,11.268962369258858,14.544673642365986
3586.74,11.258769283967546,15.028055196493588
3587.5671,11.248442584333743,14.263272100710985
3588.3923,11.235334199328362,13.20931444359201
3589.22,11.216805863103557,13.756885960268377
3590.0457,11.193068735970815,15.78917569555183
3590.8716,11.166939311950683,14.579490483163584
3591.6995,11.141801480601773,12.56097535221143
3592.526,11.120231597562285,13.039941989048868
3593.3542,11.104328317893877,14.333688144791958
3594.181,11.096959922358195,13.837702737436679
3595.0098,11.099977285810269,14.486818783525678
3595.8367,11.111245991103804,14.963215168822803
3596.6638,11.123927882372074,13.704901536218486
3597.4934,11.1298430348607,14.561722571759226
3598.3208,11.124323962747587,15.116117244971703
3599.1506,11.108752099746356,15.283134646151723
3599.9788,11.088940037281024,13.782827383779424
3600.8088,11.070114140880076,14.076108928317536
3601.6372,11.05265422827789,13.542087167109345
3602.4678,11.031365368241312,14.462730300000612
3603.2964,11.00080355330828,14.917318209801708
3604.1252,10.961269956871302,13.844127235283075
3604.9565,10.920722266105011,12.21414943977456
3605.786,10.890506178957873,16.881661936947392
3606.6172,10.87746571690717,14.171646399345233
3607.447,10.88055939304678,15.597226602049762
3608.2788,10.892239496274149,14.198212924822727
3609.109,10.903260744906577,13.599106277408094
3609.9392,10.906944065304282,13.321750928950408
3610.7717,10.900638613348937,14.898102847919631
3611.6023,10.885376889632827,15.591444976674378
3612.435,10.86434230596981,17.366722729151157
3613.266,10.84162425735194,13.331056405162386
3614.0994,10.82063096020498,16.848586692500376
3614.9307,10.803714065618113,14.114078863493825
3615.7625,10.791434692891272,14.083158261928679
3616.5962,10.782767399295338,15.7773674921831
3617.4282,10.775670821635355,13.023291328870876
3618.2625,10.768309101991667,18.517149404930407
3619.0947,10.760674969519025,13.594388175605474
3619.9292,10.754814479146319,13.778942418106082
3620.762,10.753557494066404,18.349102021021462
3621.595,10.758053763145302,13.885724459342747
3622.4302,10.766305400335108,14.120038031460155
3623.2634,10.773341668863466,13.01305409100495
3624.0989,10.773029721139482,16.02174131999564
3624.9326,10.760154427199149,14.12998626078394
3625.7686,10.732602269480955,13.914751933919652
3626.6028,10.693387289270975,13.187194646962789
3627.437,10.650249544367732,15.366413791712777
3628.2734,10.613059077109158,15.69633851416743
3629.1082,10.589621398624894,15.57862461464708
3629.945,10.581193637034076,15.068609451790245
3630.78,10.582281428933875,15.88884887506132
3631.6174,10.584473857737006,16.096069876375278
3632.453,10.583162872900298,13.317165485742645
3633.2883,10.581455665938988,18.605951817072064
3634.1262,10.58706898401827,17.09222783906767
3634.9622,10.604183249229166,16.485058214413513
3635.8005,10.627885153442442,14.511392152811252
3636.637,10.646298713805667,17.995590013593837
3637.4756,10.649744750394449,13.357917070599907
3638.3123,10.637940618809116,15.896614534919655
3639.1492,10.62000930400614,14.845685084355468
3639.9885,10.607400234403816,15.325624745082312
3640.826,10.60613016858443,14.680978786107294
3641.6653,10.613144365216275,13.615024945802507
3642.5032,10.618671863828052,14.59717655054628
3643.343,10.612136883658673,15.122597127560308
3644.1812,10.588469384419376,12.338692987856637
3645.0195,10.55134014576562,15.475906321788587
3645.86,10.51113426454157,17.803690125771112
3646.699,10.478891881828783,13.93050468739797
3647.5398,10.45903705268997,15.01238984552278
3648.379,10.447883536445966,15.209043019961578
3649.2202,10.437182497207845,15.810813347170695
3650.0596,10.420972042678702,14.839324885207944
3650.8994,10.399459110093158,16.5862659670979
3651.7412,10.378039029242716,18.89932989114945
3652.5813,10.363118134820727,14.304439332911972
3653.4236,10.358523801563086,15.576517719013754
3654.2642,10.36538087557546,15.67458096061356
3655.1067,10.38255229328143,15.14615222509476
3655.9475,10.405978167595997,16.466491362721396
3656.7886,10.429095065370163,14.916534420272907
3657.6318,10.445963795657356,13.759882322312933
3658.4734,10.455079490100172,16.738014439834515
3659.317,10.459383614682748,16.48026106907238
3660.1587,10.461317729698097,13.078398951709127
3661.003,10.458936360474194,16.584105277441154
3661.845,10.447143330947993,15.472568508176883
3662.6875,10.422655375331287,13.724391856216611
3663.532,10.387657601881132,14.104915433633579
3664.3748,10.349656432009054,16.521253852496212
3665.2197,10.317578903155965,14.088606147223379
3666.063,10.298951870466595,17.107331736603925
3666.9084,10.29720873909588,14.748974870382744
3667.752,10.310916725955138,14.548821151419302
3668.5977,10.33379752607163,16.04225812120024
3669.4417,10.356260019078915,14.95479671840411
3670.286,10.368919102289945,16.020213318195246
3671.132,10.365652713525856,15.273409848386821
3671.9768,10.34549120201656,15.375967319456286
3672.8235,10.312169250261197,16.126127500770128
3673.6685,10.272815334425054,16.985829835512014
3674.5156,10.235652622182904,16.58251971485925
3675.3608,10.208784950750239,17.4439602593039
3676.2063,10.197188895122267,15.790404821098965
3677.0542,10.200962351565368,11.72960539287598
3677.9,10.214868339120372,15.931768439004927
3678.748,10.230703383995209,17.31930604235708
3679.5945,10.240383281243492,13.718859583634337
3680.4429,10.238511028676527,17.204675448008327
3681.2896,10.223134076906915,16.22559622639259
3682.1365,10.196232848665764,17.962478891780474
3682.9856,10.164193649829528,14.677379888575377
3683.8328,10.137072235379364,14.155582157465519
3684.6824,10.123652115229396,20.771331931429952
3685.53,10.126416225131056,13.91328579776184
3686.38,10.139925463113398,17.947201985989192
3687.2278,10.155394645658522,22.532702212864756
3688.0762,10.167110406485255,16.268963788869055
3688.9265,10.174776766929165,15.537204669610333
3689.7751,10.181061135603043,16.79493806673505
3690.626,10.18746976006439,15.874670777829971
3691.475,10.192165064145318,17.481942410235778
3692.3264,10.191674923708279,17.6128609402927
3693.1758,10.184104818393937,16.654985730434046
3694.0254,10.170540932701934,17.062881000795432
3694.8772,10.153332674253829,15.640012043001487
3695.7273,10.133996569748335,16.353645593985956
3696.5793,10.11280244915066,14.880391358074942
3697.43,10.090445912200432,16.250607590932546
3698.2825,10.067825019722315,14.895853925879557
3699.1333,10.044978576365352,16.278748225107744
3699.9841,10.02039186913623,15.75296235983464
3700.8374,9.99289409582573,16.266221232480014
3701.6887,9.963436916749032,15.329115666771429
3702.5425,9.933668708915985,17.70471999143037
3703.3943,9.904933692328697,17.34806888801192
3704.2483,9.878398164405125,14.94931713018245
3705.1003,9.85757668047566,17.292617373816466
3705.9526,9.846928435076222,17.072056648968502
3706.8074,9.847590777331506,17.41923007483491
3707.66,9.854145482068713,17.350052819968948
3708.515,9.85767119018763,17.88020871497403
3709.3682,9.852603308767028,18.197795144572748
3710.2234,9.840743511316893,18.241563571284573
3711.0771,9.828826227266477,15.593452298536244
3711.9307,9.822399791051271,19.685595558126515
3712.7866,9.82186748182254,16.32186441515978
3713.6409,9.82306238758679,16.049083418352648
3714.4973,9.82100491633981,18.991539393134858
3715.3518,9.81338187156885,18.864884830229432
3716.2085,9.801000967881846,16.270142730387484
3717.0635,9.78590086894679,18.311516173915766
3717.9185,9.769187134213512,16.585987628291953
3718.776,9.751003660211694,16.857774015683734
3719.6313,9.731907049468541,17.82530871686358
3720.489,9.712967086172936,17.683197284517334
3721.345,9.695036782369728,18.53159034111867
3722.2031,9.677332599684165,17.336170542360524
3723.0593,9.658639441860966,19.226841516617377
3723.9158,9.63936149249211,20.724507489506394
3724.7747,9.622513534736722,17.152491928145853
3725.6316,9.611359151258421,22.53111050977829
3726.4905,9.605684632070824,18.127764350818904
3727.348,9.60171724860645,19.483915240336916
3728.2073,9.595315975759751,18.426432537967692
3729.065,9.585259367291588,15.870226162675456
3729.9229,9.573104006352573,18.08042695289839
3730.783,9.560841178835645,17.61059716137
3731.6414,9.549244803104958,17.903951461099677
3732.5017,9.53795106225842,20.26808844437167
3733.3604,9.526944864266103,19.636130471578262
3734.2214,9.516936242798248,17.975366258778074
3735.0803,9.50885392546705,19.17946164838714
3735.9417,9.502483629195911,19.437006576239423
3736.8013,9.496250292844058,16.805364530013918
3737.661,9.487946762615241,18.455762101799273
3738.5227,9.476203345053886,19.177593205708796
3739.3828,9.461481574332469,17.658216771935148
3740.245,9.445528433978003,19.225742057641945
3741.1055,9.430305396332383,20.720004471930885
3741.9683,9.416494693722912,18.833127961787106
3742.829,9.40396621123518,16.24155881960468
3743.69,9.393030568310685,19.244629072890483
3744.5532,9.385402025643788,25.827932294615835
3745.4148,9.382659567461877,18.288318018778856
3746.2786,9.383381798706314,20.367872147077065
3747.1404,9.382618486934646,18.034091928062107
3748.0044,9.374777421484252,20.826257773702313
3748.8667,9.357879413859719,20.307618906516108
3749.729,9.335311990609293,17.560550143831183
3750.5938,9.313628449752496,18.369296760072032
3751.4565,9.298309868750342,23.21440955500895
3752.3215,9.290541988466432,16.97813087403358
3753.1848,9.28860737990183,20.10347644909547
3754.0503,9.290940600259985,19.658643612540654
3754.9138,9.297574693236461,22.11816125322723
3755.7776,9.308389135997674,22.521481743035157
3756.6438,9.320765734935136,20.049255276943327
3757.508,9.329671400422965,19.009967476440067
3758.3745,9.330888412590665,18.651438171726163
3759.239,9.323953046680773,22.332228415084778
3760.106,9.312326839661946,16.51172897561522
3760.971,9.300570727051218,17.943544914122388
3761.8362,9.290679951290842,19.5286627927193
3762.7036,9.280832458623964,17.49714633254179
3763.5693,9.266829875692727,20.88296786549738
3764.437,9.244564470448912,18.413992219076082
3765.3032,9.212276684138583,20.10309932341828
3766.1714,9.170661390913327,20.37748209135265
3767.0378,9.12271370314007,20.97944081886964
3767.9043,9.07223289739331,19.370996399998596
3768.7732,9.023551788088554,21.105628203385265
3769.6401,8.982065563475853,21.768585109305874
3770.5095,8.953379693160652,21.350582429991313
3771.377,8.943249927207793,19.70362919626117
3772.2466,8.955541556032644,21.617882855816546
3773.1145,8.990959120524497,20.372112789053457
3773.9824,9.046131627853018,20.640301460647763
3774.8528,9.113586401810416,20.28862812908248
3775.721,9.18240132696135,19.13116970105016
3776.5918,9.242953855720865,20.093067620988965
3777.4604,9.28934619555487,16.60492069103617
3778.3315,9.321608151707986,18.841974407630175
3779.201,9.341613452813496,19.05507949793867
3780.0703,9.349856667453544,16.413899942397514
3780.942,9.344663248248384,17.243435818599167
3781.8118,9.325448698867774,17.74947055201033
3782.6838,9.295143926064528,17.84691135103807
3783.554,9.259534495651513,21.771836147947354
3784.4265,9.223754691438486,19.363633610779022
3785.297,9.191194981169698,20.278848016812482
3786.168,9.163024564395164,19.174839063888715
3787.041,9.138982392592483,22.169366652219555
3787.912,9.117558099186134,20.057220260483014
3788.7856,9.095943620315856,22.047208862818085
3789.6572,9.07145235359886,22.674062759728223
3790.531,9.042093055735862,21.994562293334777
3791.403,9.007505098621689,21.368706462568365
3792.2754,8.968073417465533,20.114415495988546
3793.15,8.923781714223232,21.568200836492924
3794.0225,8.873334760716094,19.780528132221175
3794.8972,8.813858572171256,20.659387227098577
3795.7703,8.744654972953139,19.559237212721058
3796.6455,8.669336246659817,22.168391899603385
3797.519,8.59780700911202,21.498459365428754
3798.3926,8.542559601865168,24.8692667910761
3799.2686,8.515066001852146,23.394544504206436
3800.1426,8.522212542288885,25.287430946396952
3801.0188,8.563753849610624,24.638652334215767
3801.8933,8.631624613436532,25.422093903132048
3802.77,8.712050706380786,21.47989251942672
3803.6448,8.78878707583282,22.055498168554674
3804.522,8.850920310958896,18.015253949099073
3805.3972,8.896361530191305,21.01658665694861
3806.2727,8.93213783156759,22.25529770588786
3807.1504,8.967054025825837,18.971521159166574
3808.0261,9.004315417702227,24.593561853957958
3808.9043,9.04057544168349,19.5506485536931
3809.7805,9.07000303281469,19.383518875854897
3810.659,9.090373690535065,21.019629947121004
3811.5356,9.10316486785404,21.232276539886676
3812.4126,9.11039888028651,26.92824212059132
3813.2917,9.111937136638776,18.33891961167518
3814.169,9.107087862103755,18.455767038182326
3815.0483,9.097686416711479,18.400207605612252
3815.926,9.08835793756716,21.35626733039808
3816.806,9.082920148422556,20.46572234315436
3817.684,9.080781779616482,21.83790185076406
3818.5623,9.076268819817475,18.725526964731177
3819.4429,9.061565096370831,19.47188933528265
3820.3215,9.031339040755794,23.34379036167645
3821.2024,8.985769193235955,20.449936539158344
3822.0815,8.93110786889406,23.37205472962242
3822.963,8.87521981915943,22.496519154962687
3823.8423,8.823419172627847,22.662913353509207
3824.722,8.774811370166463,24.823358087842454
3825.604,8.724281673644567,23.14457231199125
3826.4841,8.667340084518564,22.91682514528083
3827.3665,8.602799255106145,20.525977856345456
3828.2468,8.533464701368086,21.20687693769529
3829.1296,8.461146900584847,24.217121977093004
3830.0105,8.384617849095326,23.92710080251941
3830.8916,8.298560477759152,19.36451203665057
3831.7751,8.19744194146591,21.908374066233737
3832.6565,8.080318813544823,24.869701191482864
3833.5403,7.951166118531967,26.704471998632247
3834.4224,7.821758989568896,27.6413932612406
3835.3064,7.708375542063183,25.627157287457745
3836.1887,7.6303390331782746,32.72850336224318
3837.0713,7.602144000545284,29.562758183751487
3837.956,7.628666258220289,33.819827800924784
3838.839,7.70291321374216,26.040676373120554
3839.7244,7.810244023298993,28.265959212752744
3840.6077,7.932803102362419,27.753735073094003
3841.4932,8.055923699468568,21.423362312273905
3842.377,8.168993863021008,23.741694371494344
3843.261,8.268941124399554,25.03395814015773
3844.1472,8.358373245600253,25.832596802776244
3845.0315,8.441094399879526,23.608219006933503
3845.9182,8.519010592349405,23.868357267482793
3846.803,8.589400787754407,23.59117128242233
3847.69,8.649810500311501,19.612214722900823
3848.5752,8.700979701949015,20.3445134882162
3849.4604,8.748145657330072,22.035398645339686
3850.3481,8.796427565149793,21.399852468678326
3851.234,8.846018792131485,20.931140451305602
3852.122,8.892929711110813,20.340768588660467
3853.0083,8.932065868289543,22.83127489845045
3853.8967,8.96186154085354,22.007749745754737
3854.7832,8.98373546292985,19.639452206873212
3855.6702,9.00019574337944,20.45839117005937
3856.559,9.012547450426727,20.61455701706178
3857.4463,9.020716232171987,19.550346359182875
3858.336,9.024236810363469,19.249357329909255
3859.2234,9.023098226296419,20.13851454162465
3860.1135,9.018678876842372,21.467232423269895
3861.0015,9.013930250059627,19.998515573532263
3861.8896,9.01205484671787,21.859837269042266
3862.7803,9.014508753964298,19.745764478180554
3863.6687,9.019837457903101,19.59113025877674
3864.5598,9.024292462464231,21.17681532232116
3865.4487,9.023103486754483,20.203419903982603
3866.34,9.011774596993488,20.007198602669657
3867.2297,8.987446694615551,18.524211010500668
3868.1213,8.950110372195107,21.22214698392344
3869.0112,8.903737245270898,21.34040215016792
3869.9014,8.854949913209742,20.504171963880857
3870.7937,8.8106155862162,22.022610095150412
3871.684,8.774398845348157,22.105237521265437
3872.577,8.743055679847759,23.267538462770993
3873.4678,8.70777447554021,22.271467228103074
3874.361,8.658616415531348,21.822225412604723
3875.2524,8.591552162812869,24.39266025582888
3876.1438,8.5096997120032,26.82035596122037
3877.0376,8.419658743297791,23.0018615746115
3877.9297,8.326508449136302,25.477696854951027
3878.8237,8.229428932088352,22.12039919724274
3879.716,8.124980622466975,21.831197368500373
3880.6108,8.009285069964228,23.669231958288925
3881.5037,7.8823093706432665,24.18090470148405
3882.3965,7.745135610480174,26.047950918378337
3883.2917,7.598041377943041,30.97067609061856
3884.185,7.440285981550027,30.073595556649046
3885.0808,7.268378500920438,29.680997068168736
3885.9746,7.08202662307904,29.741356145093647
3886.8706,6.884350786100983,28.683190963637266
3887.765,6.688442546526453,41.04963570469028
3888.6592,6.51539566359298,38.84213663479978
3889.556,6.391894616986655,42.290923870072454
3890.4507,6.341784591050417,53.77787087105811
3891.348,6.373718025860077,44.164299829212354
3892.243,6.477682118081529,40.88094939242571
3893.1406,6.6313290166134,38.27949837583328
3894.0361,6.809043217685414,37.16508723988197
3894.932,6.992735897253767,34.36558367261203
3895.83,7.172048677864004,35.798042190897185
3896.7263,7.3402873563741275,29.421036479052738
3897.625,7.495208107489802,34.34609501334332
3898.5215,7.635492907904489,27.1412157647611
3899.4207,7.764282534932485,28.941714147075015
3900.3176,7.885373866512239,25.20744831804861
3901.2148,8.003500635887981,27.738661872542835
3902.1145,8.120536162351799,26.000968885302115
3903.0122,8.233467669104389,24.188625522537
3903.912,8.337667398216103,21.998119587423776
3904.8103,8.427845549064418,22.066922779534668
3905.7107,8.502286250612853,21.072252632538852
3906.6094,8.561896991361023,22.720379385263517
3907.508,8.610569774311632,21.50781402610832
3908.409,8.653269921416356,23.66179401518589
3909.308,8.694429094698535,25.63895245058462
3910.2097,8.737448808353873,21.62862762254888
3911.1091,8.783153196767236,24.096433217436672
3912.011,8.83052845815943,21.49173110025041
3912.9111,8.876576261983553,20.61991305939026
3913.8113,8.918918160394643,21.414413656302877
3914.7136,8.95761110131503,21.06435327950876
3915.6143,8.995490233190178,22.15129446207923
3916.517,9.036816791187373,20.48021868923889
3917.4182,9.083421900047597,18.821111632306028
3918.3215,9.133708560566173,19.73142925779536
3919.223,9.182782021630471,20.067818780011418
3920.1245,9.225713685732691,19.015988025543788
3921.0286,9.259226692777194,20.557389653214198
3921.9307,9.282257467737777,19.451657417895717
3922.835,9.295979152047858,18.637965479903446
3923.7373,9.302256388228502,18.097613453890332
3924.642,9.302872391458171,18.018324149088777
3925.5452,9.29894785267514,18.812138063514734
3926.448,9.291394708610687,19.55120627538712
3927.3535,9.281705682516355,16.848354807489727
3928.257,9.272254113915533,18.704344547601092
3929.1628,9.264593401889726,19.154049823503367
3930.0667,9.256866594533438,20.853467537068134
3930.9731,9.242143466130853,18.0327910608449
3931.8774,9.211368262207074,15.348237169938695
3932.782,9.160432073042683,20.48211358488285
3933.6887,9.09739521462008,18.642308662065595
3934.5938,9.04248961570024,22.03269724916327
3935.501,9.015651894795583,21.631016738225227
3936.4062,9.022730758144275,18.419242985521038
