wavl,flux,ivar
3566.9744,8.279499743817958,8.070236048517817
3567.795,8.263441787180016,8.697622687063628
3568.6177,8.2441315569548,9.338646671803822
3569.4385,8.222705850661272,8.56721571334257
3570.2617,8.200207720737284,8.632954362914557
3571.083,8.17837449691431,9.084747623728644
3571.9065,8.158607204156688,10.155068321436316
3572.7283,8.141221936924417,8.46065373538126
3573.55,8.124813659103435,8.777217899049615
3574.374,8.10781988072338,8.411560068908631
3575.1963,8.090670725260857,9.212545921214177
3576.0208,8.07605221886062,8.454684279969596
3576.8435,8.067585639046007,8.905018037570983
3577.6682,8.067253747791916,8.438056301841693
3578.4915,8.074250804109166,10.314681704544979
3579.3145,8.085043935932894,7.900026166333735
3580.14,8.09433390450617,8.657044233203793
3580.9636,8.096380008189168,9.137215453893917
3581.7893,8.087296663643073,8.49643778837334
3582.6133,8.067271936761422,9.540203685193548
3583.4395,8.040945655500584,8.865597864848231
3584.264,8.015435870238814,9.035957769548922
3585.0884,7.995936637322454,9.194623407463556
3585.915,7.9829812856733895,9.494460287485815
3586.74,7.9726187401794855,9.130648243847524
3587.5671,7.959229260502299,8.749458502772034
3588.3923,7.939847242288568,9.057181571807712
3589.22,7.916241828227332,8.73802425455638
3590.0457,7.894067168256855,9.990135304285229
3590.8716,7.878234478953082,9.979161620481388
3591.6995,7.869295770027347,10.60014949546824
3592.526,7.863083836407226,8.354256146442943
3593.3542,7.8537303846781015,8.48033751615511
3594.181,7.8375079658434865,9.81850731413833
3595.0098,7.814010293783489,9.678346390427832
3595.8367,7.785416029278652,9.888849533623226
3596.6638,7.754509246704778,9.927078555328393
3597.4934,7.724265592861798,9.181192245120645
3598.3208,7.698416503084025,10.16948967601364
3599.1506,7.6807697691466394,10.273715726221038
3599.9788,7.674361668686633,9.752654882541536
3600.8088,7.679073092858724,10.26722884544921
3601.6372,7.690855791634359,11.420494744606547
3602.4678,7.703385081378384,9.410397772105098
3603.2964,7.711323739054983,9.861539561006692
3604.1252,7.713148367742591,9.469754005959413
3604.9565,7.710725825249637,11.03300349395196
3605.786,7.706841149621945,10.333477434918606
3606.6172,7.7027686892978,9.63350232530956
3607.447,7.697826213466988,10.347987556268093
3608.2788,7.690339415855317,10.415285991672926
3609.109,7.679031596452567,9.098594646825642
3609.9392,7.663621804790717,10.509068728526332
3610.7717,7.644888104880512,9.997030364656199
3611.6023,7.6245173314496,10.098713840772657
3612.435,7.6043417612912085,11.507859433099112
3613.266,7.586321502789191,10.933374502543755
3614.0994,7.571790708225312,10.293007236349599
3614.9307,7.561324754503222,9.98044643492973
3615.7625,7.554005453478606,9.996773163176924
3616.5962,7.54745673997378,10.974480646100925
3617.4282,7.538610376130797,8.97564707735488
3618.2625,7.525298823064564,9.782127896778636
3619.0947,7.5081003605875125,10.75484970910251
3619.9292,7.490150052158227,11.208306243827387
3620.762,7.4753941477244465,9.375448018963885
3621.595,7.4654656224880656,11.046860377569361
3622.4302,7.458464442779619,9.900747053559458
3623.2634,7.450138069878487,9.801413750196918
3624.0989,7.436476137763396,11.214803530161621
3624.9326,7.416241010691008,10.877572904911943
3625.7686,7.391568681851645,10.959635052546938
3626.6028,7.367681308812842,11.218708087038896
3627.437,7.350350550970779,11.27566572178102
3628.2734,7.3428624818829675,11.488005197539524
3629.1082,7.343571281969561,9.901582696985379
3629.945,7.346343766878099,11.232021888270694
3630.78,7.344177082090626,10.726080090921494
3631.6174,7.3332088775589055,10.47175554882285
3632.453,7.314528717502297,10.469507571284185
3633.2883,7.292623910266859,11.772845072140516
3634.1262,7.272196873982013,10.685958484461159
3634.9622,7.255677539299155,11.493260543872408
3635.8005,7.242355578853641,10.450449620182141
3636.637,7.230170877929389,11.310717917557584
3637.4756,7.216929165467415,11.738426332178474
3638.3123,7.200960680587108,12.439311616936354
3639.1492,7.180967657134681,10.267675295485665
3639.9885,7.157022175631619,11.97828855817708
3640.826,7.13190770326274,11.349614293264864
3641.6653,7.110182545936844,12.273773850273361
3642.5032,7.09628174561705,10.605378480814075
3643.343,7.091912865569363,9.846481060051211
3644.1812,7.095590918753639,12.78380383223705
3645.0195,7.103261697495894,11.321076479145509
3645.86,7.1096097354602765,11.085158717192764
3646.699,7.109565334146051,11.785954825131531
3647.5398,7.10025822228322,11.249884024862508
3648.379,7.082311030837226,10.93195481245959
3649.2202,7.05916080130244,12.769260486002308
3650.0596,7.035265769895055,12.067461293574752
3650.8994,7.013780893074586,11.592626628921744
3651.7412,6.996376994643808,10.702410124597128
3652.5813,6.984022031470181,12.699641763255313
3653.4236,6.977247427183142,11.411564956587931
3654.2642,6.976074273386967,10.661259649718223
3655.1067,6.979312695746099,11.747580543585894
3655.9475,6.984429443281401,12.17284768723941
3656.7886,6.98823994560605,11.16214761851833
3657.6318,6.988298547901006,11.07857489417934
3658.4734,6.984121642850885,12.955235155506665
3659.317,6.97690883667446,12.205780595858762
3660.1587,6.967971458370796,11.756033988417888
3661.003,6.957399625867194,11.216542902826248
3661.845,6.944850766803432,12.327707899966425
3662.6875,6.930963563279849,12.416027373722063
3663.532,6.9179145543675205,12.210308287659414
3664.3748,6.907967695705105,11.939983519384215
3665.2197,6.901401710684416,11.682968381804198
3666.063,6.896475681569439,11.89441253760176
3666.9084,6.890824532164645,13.417903468468662
3667.752,6.883147563819306,12.755286425962701
3668.5977,6.873459458200059,13.171935528152046
3669.4417,6.862760065128741,11.982045553171549
3670.286,6.852422993241879,11.967538897016977
3671.132,6.843893049886881,12.429844400301654
3671.9768,6.83794655149136,12.91347159826915
3672.8235,6.833599219357404,13.553464761345618
3673.6685,6.828200550568774,11.221520613543236
3674.5156,6.818892990310295,11.070402327901814
3675.3608,6.804696965010116,12.897323141125351
3676.2063,6.786895927282867,13.225171778580089
3677.0542,6.767858804870431,13.060157464848382
3677.9,6.74966602995527,12.064473622680458
3678.748,6.733105261752275,12.798362328467896
3679.5945,6.718237428341991,12.871027973355188
3680.4429,6.704451928150466,12.758303524480347
3681.2896,6.691261175991055,13.481699286268967
3682.1365,6.678836538348792,13.667760362324781
3682.9856,6.668423001159445,12.975267871010574
3683.8328,6.6614192272185395,12.88414888529001
3684.6824,6.657415297792805,14.06693207432711
3685.53,6.653569414023715,13.544855846265117
3686.38,6.646038034902518,13.413542783000551
3687.2278,6.63297409674968,13.308761608766476
3688.0762,6.6160891233679955,13.446100722906902
3688.9265,6.5996796253460355,13.80957286082447
3689.7751,6.588003817587122,13.194045076558362
3690.626,6.582947024086579,12.752834215498197
3691.475,6.583913993034558,12.622748915706044
3692.3264,6.5885672643197815,15.37374943154745
3693.1758,6.593705108735276,12.326594566221123
3694.0254,6.595981301903942,13.203442702290873
3694.8772,6.592613145488695,13.091497642313026
3695.7273,6.582412512438203,13.21056688706586
3696.5793,6.566525325033439,13.79721014727667
3697.43,6.548566506609694,13.428309957549672
3698.2825,6.533034196699162,13.687256462037265
3699.1333,6.523246835951737,14.58389049937873
3699.9841,6.519183530753184,13.474810056390456
3700.8374,6.517397501380872,12.165328964794849
3701.6887,6.5127102675406325,13.902616727744148
3702.5425,6.500991984454231,13.593981264168729
3703.3943,6.48171792268521,13.849083036222039
3704.2483,6.45814543442788,14.251644148032677
3705.1003,6.435567554032673,15.64237381147772
3705.9526,6.417782758982015,14.396587312432517
3706.8074,6.405532625692568,13.911880808244275
3707.66,6.39726801264672,13.7848251939633
3708.515,6.390962801208917,15.84508317950917
3709.3682,6.385584356036019,14.43448059049346
3710.2234,6.380690638387074,12.944776896194446
3711.0771,6.375615772689814,14.061768233081619
3711.9307,6.369082399348302,14.953435892710113
3712.7866,6.359836655017444,14.43907325436715
3713.6409,6.347676139546713,12.558538542860877
3714.4973,6.333592775899079,12.50071923406136
3715.3518,6.319341650585037,16.07126604521722
3716.2085,6.306204898790999,15.931717063367426
3717.0635,6.294867588990522,13.624318616627631
3717.9185,6.28549891444812,15.46701848031999
3718.776,6.278037140019797,15.335167475665715
3719.6313,6.2719414242803655,15.008880333074272
3720.489,6.265962029968413,14.93230777597481
3721.345,6.25897813390871,14.548761142469656
3722.2031,6.250776892396825,14.79853141386034
3723.0593,6.242127842312692,16.063998127153724
3723.9158,6.233525185434202,15.2148618290286
3724.7747,6.224294177162146,15.804025229077338
3725.6316,6.213051909176272,14.87784464777614
3726.4905,6.199034028534485,13.682286543324416
3727.348,6.1835151195325775,17.961751679941365
3728.2073,6.169300799498058,15.259682464143781
3729.065,6.1591940468682616,15.32064846269662
3729.9229,6.153948931177781,16.28901547386473
3730.783,6.152085602002916,15.401969542739039
3731.6414,6.15129053718566,14.27603803684361
3732.5017,6.1500700110317235,16.040152220173493
3733.3604,6.148089846875696,15.737556402151283
3734.2214,6.145130544202575,15.18470519052737
3735.0803,6.140231452517688,15.770719057159459
3735.9417,6.1318746795488295,15.444181509258495
3736.8013,6.119144008310527,16.133477752339665
3737.661,6.102345984230331,16.648514602896064
3738.5227,6.082864812937812,16.323681969557885
3739.3828,6.062617354624714,15.80005466647827
3740.245,6.04301790495329,16.30819554157384
3741.1055,6.0248145157877735,15.55050026157903
3741.9683,6.007422826942674,15.953761893714974
3742.829,5.989523662721028,15.784417110134438
3743.69,5.969751386613331,15.767522329678442
3744.5532,5.948074703144719,18.63032366296805
3745.4148,5.926529697506624,16.691686742764336
3746.2786,5.9080963147704795,18.329475647687396
3747.1404,5.895513266984138,16.88700249518993
3748.0044,5.889775653082375,16.358455016157933
3748.8667,5.890212700748368,15.449621568927252
3749.729,5.89483021635775,16.64624959134401
3750.5938,5.900757845627383,18.411836257244797
3751.4565,5.904524419887901,16.535608386610107
3752.3215,5.903242275450896,16.669688853274387
3753.1848,5.896173358547474,16.616698418786616
3754.0503,5.885266958974324,17.621848031961342
3754.9138,5.873750195827108,15.410349143252779
3755.7776,5.863608370669573,18.301359623172576
3756.6438,5.854726311271451,16.855401172190337
3757.508,5.845953193771173,16.95007449693777
3758.3745,5.836341185614752,16.08577228997575
3759.239,5.825733808939014,16.269513625570365
3760.106,5.814317531229796,18.299193124993202
3760.971,5.802781573269028,17.993428328592497
3761.8362,5.7921380974089,16.16394557664883
3762.7036,5.783276405036142,17.37741571978732
3763.5693,5.776188678321389,16.633076071676953
3764.437,5.769770229556255,17.93917926503163
3765.3032,5.762871172460245,17.707131158912283
3766.1714,5.7550221690854,16.226466349740665
3767.0378,5.746377302971621,16.96500059147399
3767.9043,5.736864417870399,18.90374574155369
3768.7732,5.725986401095684,17.77836438196635
3769.6401,5.713429980300354,17.959830284237363
3770.5095,5.699431060142516,17.3460745128258
3771.377,5.685194933974403,17.935445454766043
3772.2466,5.672464887694577,18.90186904539721
3773.1145,5.66325324610253,17.55324260036126
3773.9824,5.658604608373836,20.544994695939554
3774.8528,5.657680238024777,19.099779705165112
3775.721,5.657806381774337,19.115710688127198
3776.5918,5.656009445663033,15.958006125517596
3777.4604,5.6508849483412025,20.7399821281496
3778.3315,5.643077802162984,18.06338816701691
3779.201,5.6344655355714375,16.273367682133312
3780.0703,5.6269120889111806,19.285570867463996
3780.942,5.621829531055549,18.02823778167497
3781.8118,5.619993894155814,17.490742672624524
3782.6838,5.620992341952491,17.88809642392914
3783.554,5.622930050158176,19.29124520868029
3784.4265,5.623130649954888,18.72738372300246
3785.297,5.6198072552851395,16.64357369821643
3786.168,5.613386090090733,17.000873268728174
3787.041,5.606078274793621,18.593006721463365
3787.912,5.600057987206855,18.761301120430176
3788.7856,5.595695287560035,17.278205551941856
3789.6572,5.591706904783401,17.889497654737262
3790.531,5.586379488229763,17.457800850977904
3791.403,5.578720234612095,18.7669303286012
3792.2754,5.568344874637683,20.00553019500289
3793.15,5.554975228998853,19.748994578216944
3794.0225,5.5385733968207855,17.690533249670825
3794.8972,5.519782115651409,18.1589322601289
3795.7703,5.500702323291374,20.348977579699884
3796.6455,5.484032282278385,19.821104981508043
3797.519,5.472047730744432,19.210117800232933
3798.3926,5.4652570462748615,17.697814157253614
3799.2686,5.46248687980836,19.2771406446014
3800.1426,5.461638333803065,19.61950275561679
3801.0188,5.46061648515353,20.380658226164933
3801.8933,5.458019234154175,19.142443460525467
3802.77,5.453181991579848,19.485862762094932
3803.6448,5.445852405003594,19.278657870673133
3804.522,5.435756663663521,19.752124534796735
3805.3972,5.422960112624975,18.025792644986492
3806.2727,5.408265989227502,20.032416598827748
3807.1504,5.393362001863388,20.44259652438174
3808.0261,5.380138843703726,22.10708552581968
3808.9043,5.369438142687524,19.647065667264364
3809.7805,5.361054459168201,20.14858250543476
3810.659,5.3541189849998245,20.01844344056386
3811.5356,5.347984690472276,19.871224694712005
3812.4126,5.342449551504685,20.641987005498322
3813.2917,5.33784896113835,19.696474668107157
3814.169,5.334843885704824,19.742200673545543
3815.0483,5.333725203730105,20.490148235591708
3815.926,5.333758432733151,18.947374280229628
3816.806,5.333085178213397,21.05800503182491
3817.684,5.3295418395797345,19.48579281255845
3818.5623,5.321710240942137,20.201164881718103
3819.4429,5.309486859859548,21.908710989493517
3820.3215,5.294220465780585,20.993798011987348
3821.2024,5.278050527253941,23.25533322139509
3822.0815,5.2634506814213715,21.10381743732721
3822.963,5.252140893277524,20.588517090140996
3823.8423,5.244691824923077,22.990948523733614
3824.722,5.24013843321591,21.399795240240447
3825.604,5.236436132482817,21.09732566758494
3826.4841,5.231253585408264,20.890871680174033
3827.3665,5.222913716805886,20.480793992561956
3828.2468,5.211290710223181,21.740754842208474
3829.1296,5.19765529356663,21.612902603162407
3830.0105,5.184039693851969,21.258389829052245
3830.8916,5.171950466798418,21.819984287043727
3831.7751,5.162012802900864,21.756684950232327
3832.6565,5.154282969153081,22.894256771721547
3833.5403,5.148562413357673,21.5505706460059
3834.4224,5.144796663548793,22.22506456004232
3835.3064,5.142876292384217,21.237594384032473
3836.1887,5.142483095013183,21.05707578256022
3837.0713,5.142882545994821,20.860320327051713
3837.956,5.1429536858588705,22.125443672258722
3838.839,5.141443455128651,22.091291000181453
3839.7244,5.137369055368426,23.429519843630587
3840.6077,5.130368840986412,21.006603981203945
3841.4932,5.1206726718834,22.51349608123291
3842.377,5.109109717249267,24.752249548813133
3843.261,5.096874671104292,22.58091076536995
3844.1472,5.085535880162619,24.609685627844712
3845.0315,5.076908917157127,21.36610086175284
3845.9182,5.072296916109894,23.963336389157348
3846.803,5.071813223518661,21.46753973565739
3847.69,5.073848823297144,20.53017165512214
3848.5752,5.0756916051035,21.54717820913085
3849.4604,5.075010684239712,20.69781291857943
3850.3481,5.07107468347759,24.06059788538649
3851.234,5.064825339817637,24.79652108712528
3852.122,5.057727740436345,23.837330609097652
3853.0083,5.050792972809629,22.23482966856134
3853.8967,5.044164441733909,21.81240408639043
3854.7832,5.0376410095458,22.784867885153425
3855.6702,5.031053265658091,21.43657087497558
3856.559,5.024564108420723,22.236050092072478
3857.4463,5.018695063667029,22.77405546114512
3858.336,5.014006536072213,22.41079527879287
3859.2234,5.010759079593432,24.700104218239012
3860.1135,5.008452127842446,23.44419216647071
3861.0015,5.005975648577389,25.615222780058513
3861.8896,5.002002221607071,23.242843297607386
3862.7803,4.995358029128788,22.77955595730827
3863.6687,4.985307532208988,25.004538291841392
3864.5598,4.971774221453879,25.226672480201337
3865.4487,4.955922769519754,25.673401455452993
3866.34,4.93959844225914,23.766749954225638
3867.2297,4.924636236463047,23.641888690744665
3868.1213,4.911727740152531,27.486112652508258
3869.0112,4.900694815340134,23.35662569890576
3869.9014,4.890924330520768,24.615994748984736
3870.7937,4.881969048302412,23.74826637873131
3871.684,4.873672351470466,25.849508769157346
3872.577,4.865898237368498,24.032531561490668
3873.4678,4.85868611715582,24.293865157704413
3874.361,4.852239479186452,26.371469382790195
3875.2524,4.847051593285574,26.093852562175865
3876.1438,4.843389063313609,24.841521626155263
3877.0376,4.840849524225036,25.160131928717334
3877.9297,4.838364707649938,24.847883189184625
3878.8237,4.834776791052346,22.95558800942885
3879.716,4.8294976058169,23.894056475542342
3880.6108,4.822410143694281,24.16665294254472
3881.5037,4.81351977941369,26.228773767976616
3882.3965,4.802699127043983,24.920231482779787
3883.2917,4.790105825512579,25.38710290926697
3884.185,4.776722210066275,26.432765798659723
3885.0808,4.764003959513962,28.572847990808334
3885.9746,4.753460795269285,25.81958409140552
3886.8706,4.745730549418093,29.964545194087847
3887.765,4.740503520990437,24.398267266061687
3888.6592,4.736607121821968,23.7657036732199
3889.556,4.732563770228842,24.103226370020366
3890.4507,4.727194060432126,26.306302102440025
3891.348,4.7200517135443265,25.02044232695176
3892.243,4.71173710889571,26.435772347981548
3893.1406,4.703432142668743,25.772580576218317
3894.0361,4.6964169715588,26.599222673876262
3894.932,4.69146635817259,24.869706052033205
3895.83,4.68891743523062,25.22163022834699
3896.7263,4.68874988093725,27.444185836444326
3897.625,4.690534171634468,26.814520092496352
3898.5215,4.693533805012604,25.509510665578286
3899.4207,4.697055769976284,27.160321110494483
3900.3176,4.7005879592323785,27.24532556213017
3901.2148,4.703681940513052,26.34579873911408
3902.1145,4.70567209965593,24.333663013997004
3903.0122,4.705796600534525,26.481814919490102
3903.912,4.703741926339061,24.511523705923015
3904.8103,4.700145478891767,27.062704325278013
3905.7107,4.696538658048866,24.229719478869345
3906.6094,4.694627349501715,27.461750335769633
3907.508,4.695230096088544,26.36300174560242
3908.409,4.697988139136612,27.02315544393768
3909.308,4.701934776173012,26.104255281076135
3910.2097,4.706261016034164,26.25961998145157
3911.1091,4.710245905267791,26.61287315233416
3912.011,4.712918171771887,25.122983150372633
3912.9111,4.713074055556566,25.97689761676066
3913.8113,4.710070850862191,27.745780890357537
3914.7136,4.704367077744929,25.738757412061414
3915.6143,4.6973715185448315,25.961476423866905
3916.517,4.6905408465528176,25.913446953643344
3917.4182,4.684799920249996,27.445548593775946
3918.3215,4.680324465746062,26.25768821937955
3919.223,4.676941229245565,25.1773710834709
3920.1245,4.674282734813329,27.1179375716771
3921.0286,4.671761767977171,28.270958426926754
3921.9307,4.668459651355626,24.425147666374933
3922.835,4.663247153644056,25.86236755628425
3923.7373,4.655376171301392,26.539153769810195
3924.642,4.644937965977265,26.770599533767758
3925.5452,4.633178897131753,28.523165850438346
3926.448,4.621871764223817,28.171985396766427
3927.3535,4.612437851517293,28.131627158189932
3928.257,4.605249814311953,30.24723569205783
3929.1628,4.599258197660972,28.23599075375137
3930.0667,4.592541747610315,29.032013972577246
3930.9731,4.583017598551628,28.95718102283705
3931.8774,4.5697962950903985,28.748255243665938
3932.782,4.554114348796479,33.38845604288219
3933.6887,4.539326345247786,27.520469488224432
3934.5938,4.52911417883001,28.76020474778617
3935.501,4.5247060661003875,27.417066653670208
3936.4062,4.524131639091182,29.41684674884399
3937.3142,4.523809503933311,25.745909127576642
3938.22,4.521170632043529,27.90108838847062
3939.128,4.515747104685016,28.93362391619733
