wavl,flux,ivar
3566.9744,3.175267583599983,30.828961220025086
3567.795,3.1746166240993405,20.444879706995273
3568.6177,3.1681244481654307,18.028321789213912
3569.4385,3.154291700152276,20.071184214445374
3570.2617,3.134210643315717,32.7674020853274
3571.083,3.1116599212909954,17.802732006313498
3571.9065,3.091066701645207,15.712048517497324
3572.7283,3.07514614633192,29.34833275157693
3573.55,3.0626054695332927,19.62095227169267
3574.374,3.04961269811807,26.10481570819779
3575.1963,3.0341678876039815,24.055664219961226
3576.0208,3.019300227272079,35.22972205630127
3576.8435,3.0121786976316667,58.5667862239161
3577.6682,3.0188356033539563,34.07030349500622
3578.4915,3.0397085533276735,21.120853215922107
3579.3145,3.0691134429332414,16.062612305127438
3580.14,3.098166276429403,20.51504265754323
3580.9636,3.1176319135021395,20.259001790300363
3581.7893,3.1205710588435505,20.531818237227384
3582.6133,3.104104317253149,27.022131886038462
3583.4395,3.071501384538521,24.141875739251965
3584.264,3.0324740158836834,38.99050924890949
3585.0884,2.999085031498849,24.53515115780363
3585.915,2.9805482319175556,36.372572245098894
3586.74,2.9796812770391874,31.25530366123186
3587.5671,2.9924268651771513,30.52479863081822
3588.3923,3.0103314344497467,30.908698469392604
3589.22,3.024393136775872,23.2070922783999
3590.0457,3.02858454110901,21.77670024248202
3590.8716,3.0226155804458306,26.969239247018436
3591.6995,3.0114517269841934,47.11992774947904
3592.526,3.002109432400254,41.89894278769434
3593.3542,2.998730660449315,32.0553727066302
3594.181,2.9997429254130425,38.14005808424132
3595.0098,2.999313900429474,22.884814725019222
3595.8367,2.992786479327997,21.531673663043808
3596.6638,2.9815784900677342,58.449428031903714
3597.4934,2.973018274349565,38.60438078540314
3598.3208,2.974949966581856,40.84292986002407
3599.1506,2.989475301181786,28.235264701047754
3599.9788,3.011327817145887,29.581865428068458
3600.8088,3.0316827570940204,25.604668236233575
3601.6372,3.042501650089618,48.71662046613179
3602.4678,3.039018980442391,28.38986094088977
3603.2964,3.020034342408991,26.268973513676034
3604.1252,2.988712356839083,27.796624466331608
3604.9565,2.9533038523609694,60.58552364436316
3605.786,2.9260470208244236,38.95107664678942
3606.6172,2.917956689555372,70.78774707512176
3607.447,2.933586011603775,51.83570304503305
3608.2788,2.967760021623321,31.157221091578833
3609.109,3.007249922156871,27.60217716342952
3609.9392,3.0374808735113135,26.9178969758519
3610.7717,3.0487311250179396,21.29846456116313
3611.6023,3.038783583831609,30.356708243305636
3612.435,3.0114221499087983,35.793318089970555
3613.266,2.9736437113197693,34.26000577492759
3614.0994,2.9331543826371727,25.73345215950711
3614.9307,2.8974447965079797,30.982898383395067
3615.7625,2.871436709110236,24.305393905833085
3616.5962,2.8569300817690446,31.227516566900587
3617.4282,2.8530523213442542,67.16977336626871
3618.2625,2.8575747794094033,28.619618883680335
3619.0947,2.8682139485451774,29.772145386455676
3619.9292,2.882970316356209,31.758643636257528
3620.762,2.899299457435764,41.83010444174727
3621.595,2.9135856093217827,37.237532536046906
3622.4302,2.921492828630544,39.65059481168305
3623.2634,2.9200742372205117,28.656961685532693
3624.0989,2.910120992216621,54.62466117524197
3624.9326,2.896174857116464,31.90790550186317
3625.7686,2.8834900061163258,33.65240616494866
3626.6028,2.8746442504513556,48.692449214317634
3627.437,2.867970127701227,40.20015452416854
3628.2734,2.859310028616822,26.591840391963856
3629.1082,2.845068991912718,35.37364080777767
3629.945,2.8242776568649366,32.17471660998035
3630.78,2.799291297973389,32.86347462173324
3631.6174,2.7741283946981135,34.95516525418557
3632.453,2.7530809023834766,28.4882319700195
3633.2883,2.7392381371906027,21.52429244928926
3634.1262,2.7349036593451643,35.18693756453401
3634.9622,2.7415920312042443,45.90704294351832
3635.8005,2.758976526955065,38.86775063008261
3636.637,2.7838068781971894,45.101440631765946
3637.4756,2.811158954986373,20.666966108891614
3638.3123,2.8365590673215992,26.49750124475107
3639.1492,2.8583637786390357,30.15456518957444
3639.9885,2.8771395541803484,27.304894652748896
3640.826,2.8934748682777247,32.26488874655859
3641.6653,2.9067070027886475,21.874212671256526
3642.5032,2.9150246680703966,25.241433054183396
3643.343,2.9173941925527447,27.491236835207324
3644.1812,2.914371947136815,35.46117940827907
3645.0195,2.907261604471511,31.500987093980235
3645.86,2.896434693576131,39.12859849252325
3646.699,2.8809803399690814,56.96862384062215
3647.5398,2.8597185374854854,33.30138680651831
3648.379,2.833233429985925,25.4589628122772
3649.2202,2.8042997328444406,37.274437307715715
3650.0596,2.7776052117188197,29.144848354152284
3650.8994,2.7574911469142664,37.07337342972192
3651.7412,2.746560504138628,61.678973904372484
3652.5813,2.7448756652908837,48.79025982351474
3653.4236,2.750151929137161,19.99143343514058
3654.2642,2.7587501084264003,46.85013800471904
3655.1067,2.7671182040466746,19.558863612147107
3655.9475,2.773320663144549,24.98689651963787
3656.7886,2.7780176110096773,43.4133844134757
3657.6318,2.783263787843428,29.93903038858208
3658.4734,2.7899579141557327,39.83625437984686
3659.317,2.796406738238332,36.94305500336997
3660.1587,2.7991703580506395,38.76981381404646
3661.003,2.795426776530907,42.117623545657445
3661.845,2.7845340663565854,37.90216388664631
3662.6875,2.768116892996932,39.02032904337408
3663.532,2.74930502817982,20.542189220937043
3664.3748,2.731692128295125,71.89798763875723
3665.2197,2.717716554985874,40.90598993897295
3666.063,2.70828149942359,114.68771963491835
3666.9084,2.703207758928386,41.75025045374113
3667.752,2.7028186835911256,31.79992831599335
3668.5977,2.7083867673541744,205.3812619327336
3669.4417,2.721249287924821,26.848128796151343
3670.286,2.7416631217169947,52.16930184877785
3671.132,2.7683541982832476,28.499013023000238
3671.9768,2.7982196127971135,32.58745287255847
3672.8235,2.8264875658249435,27.223230632396174
3673.6685,2.8465601218760725,29.88817301010402
3674.5156,2.8523694676689932,43.653563849111066
3675.3608,2.8413389511539475,24.887840595953293
3676.2063,2.8167670038326613,32.52618283345561
3677.0542,2.7866240985300395,30.063241454748358
3677.9,2.7599523535528117,32.88217950049887
3678.748,2.7422861737360784,36.16938261884783
3679.5945,2.7348744315760984,32.94899180169046
3680.4429,2.7357897636473893,42.86065928054359
3681.2896,2.7422616391636043,43.61101969862045
3682.1365,2.7518140080023357,32.43031068742941
3682.9856,2.7622769401793206,34.656619397728186
3683.8328,2.7711757824178824,37.75142818398082
3684.6824,2.775786112769124,51.37359750499354
3685.53,2.77403774705151,34.94789875899116
3686.38,2.766535882292276,38.439945235287105
3687.2278,2.757508395337929,60.35352443432963
3688.0762,2.7527226794672814,31.166832688577127
3688.9265,2.755555182342377,25.423456966700243
3689.7751,2.764222058789305,27.920025037735034
3690.626,2.7728037198883237,31.41513320698665
3691.475,2.7747652648929946,27.25849695710931
3692.3264,2.7665972191830863,51.851350295397474
3693.1758,2.7493470769787494,31.318573692211093
3694.0254,2.727402885946613,42.61124450479488
3694.8772,2.705472073922312,30.816681051130647
3695.7273,2.6859382774111547,26.494397089777358
3696.5793,2.6682178919342174,49.78667253619945
3697.43,2.6514327130221114,23.23983738240895
3698.2825,2.6364726210360145,75.57497333406909
3699.1333,2.626175847921468,32.18755392887195
3699.9841,2.622863713804797,39.040674862530025
3700.8374,2.626481541254445,62.194057680790095
3701.6887,2.634558287193056,30.90112576604961
3702.5425,2.6442302710210885,31.076747507239045
3703.3943,2.6541521161081474,46.146331546928415
3704.2483,2.6648910648168718,27.321824424913846
3705.1003,2.676821828560626,40.31716206800978
3705.9526,2.688219235859741,47.80103082207331
3706.8074,2.6952320565782184,29.39226414038024
3707.66,2.694352683660813,29.309970687030003
3708.515,2.6853673023841704,43.554116359492674
3709.3682,2.6721067407896397,41.14853357782846
3710.2234,2.6601407849228953,43.72175140748519
3711.0771,2.6532574757938807,38.11793917059405
3711.9307,2.650881365839461,44.59227161888893
3712.7866,2.649131446892125,23.253011783029837
3713.6409,2.644533097566193,31.9388215722841
3714.4973,2.637313799292645,20.657932610159165
3715.3518,2.6315655083253,46.24321323322375
3716.2085,2.632116419319828,65.26334754174148
3717.0635,2.6411917506942637,23.70280153086427
3717.9185,2.657020876879777,53.41844435018569
3718.776,2.674762696073762,32.22816436963744
3719.6313,2.6881349949134132,37.91456582676172
3720.489,2.6916543534119617,39.64007485108201
3721.345,2.682473358988711,29.046118850188734
3722.2031,2.6621946295627485,26.08105957496675
3723.0593,2.637078019264815,33.238946187111175
3723.9158,2.6148780514243755,52.818745798524716
3724.7747,2.6004258678242342,29.0070420587263
3725.6316,2.5927157491091886,37.446178171735795
3726.4905,2.5858540619262387,26.276976334497032
3727.348,2.5741022167546705,38.36571293893564
3728.2073,2.556650779192019,64.62522698560869
3729.065,2.5388837463094553,49.17268921436895
3729.9229,2.528218237946826,41.03028387443633
3730.783,2.5285910554099655,45.74894619897862
3731.6414,2.537598934452824,30.301262663676237
3732.5017,2.548475571539347,36.001615306680584
3733.3604,2.5544731007595054,61.50878395799831
3734.2214,2.552558045080614,43.948599941976646
3735.0803,2.54438678871052,55.82985732203827
3735.9417,2.5351598283803174,34.42402765835158
3736.8013,2.531403601541932,40.1273791130971
3737.661,2.5379176987922105,38.83931854546123
3738.5227,2.555203383453576,29.601681460777932
3739.3828,2.57799138590121,28.021119428546058
3740.245,2.5970280155943986,28.09994109150627
3741.1055,2.602860610423499,39.151931135633106
3741.9683,2.590611675540674,41.97199134704411
3742.829,2.5621314463772955,30.554842307982096
3743.69,2.5247662252311307,43.57626715414579
3744.5532,2.487986098311817,33.72668841464339
3745.4148,2.46005299104742,32.53381400489534
3746.2786,2.4447989618660277,30.00930278020551
3747.1404,2.441399086178741,43.825472139183994
3748.0044,2.4453611328672062,70.24034942698808
3748.8667,2.4510187343063383,27.171846893664096
3749.729,2.453963707932837,38.463012185007535
3750.5938,2.4528449844847073,36.28050868885904
3751.4565,2.450053751508683,51.37818768225684
3752.3215,2.450274116587652,45.064498888657624
3753.1848,2.456955713232209,78.70292537849289
3754.0503,2.4690779277567363,59.981027477223805
3754.9138,2.48115691728131,40.67310545997404
3755.7776,2.4871877421535187,56.77999403340857
3756.6438,2.484457479262954,41.30739814472807
3757.508,2.474454849399634,70.8743931761124
3758.3745,2.4606541559022084,54.26040879257462
3759.239,2.446321123895557,46.718140874142605
3760.106,2.4336269402316595,31.839178654073507
3760.971,2.424463406014996,71.19878477397016
3761.8362,2.4204884483391913,36.779957580631695
3762.7036,2.42261520673056,46.85947096101874
3763.5693,2.4298360012231837,62.23637085613494
3764.437,2.4386300157038807,40.10030386474123
3765.3032,2.4434471385570977,64.51885489435121
3766.1714,2.4388926863100084,38.99512561152177
3767.0378,2.422814217643092,60.061915524085784
3767.9043,2.3986538047231867,34.41271920428524
3768.7732,2.374776421028845,66.42409559722378
3769.6401,2.360558015226434,62.030070671609046
3770.5095,2.3608503838152277,53.61715708029108
3771.377,2.3740284868471107,50.53143342980479
3772.2466,2.394201023707704,33.000385005701716
3773.1145,2.4152663479555203,96.65119150679018
3773.9824,2.433975852848913,49.856456165552686
3774.8528,2.4498097587289984,57.48733339792311
3775.721,2.4630348460702196,52.72276529920996
3776.5918,2.4730546304607817,57.09340523493511
3777.4604,2.4774886003973298,41.66340545048574
3778.3315,2.473656178363744,39.233033322237986
3779.201,2.4608703926413305,73.12399256611404
3780.0703,2.441767375246774,64.42667314343845
3780.942,2.421090471998426,54.5151428484992
3781.8118,2.4031998844153915,42.92517374325808
3782.6838,2.3899600630851854,45.280272421225355
3783.554,2.3813237029613976,56.09129784858896
3784.4265,2.376502394551567,74.99797440627468
3785.297,2.37521260125439,35.10703234665154
3786.168,2.377663584212141,43.169891740905705
3787.041,2.3838476161827997,34.11453685758775
3787.912,2.3923585377174614,47.97627021094061
3788.7856,2.400253866866684,44.10627630423728
3789.6572,2.4043534036029994,41.576804274450446
3790.531,2.4035216916479714,60.91852344537429
3791.403,2.399182322859954,57.36308852723298
3792.2754,2.3933892723295482,37.599234280498855
3793.15,2.3862053275000124,42.8302061713187
3794.0225,2.3751804817308226,56.01497615073717
3794.8972,2.3571053328968565,45.71361527305296
3795.7703,2.330662645689809,53.520634751740936
3796.6455,2.297164968302238,44.26675896583424
3797.519,2.2607687513192474,31.37831506506859
3798.3926,2.227302396911017,64.08274345095067
3799.2686,2.2033562092663144,72.17093444755646
3800.1426,2.194437042835795,73.16956404659807
3801.0188,2.2022633705877763,78.25715441740587
3801.8933,2.2238439864770903,53.234506486307936
3802.77,2.2527981455804316,38.47737495246642
3803.6448,2.281982283470437,34.2112576548662
3804.522,2.306968696302933,44.48125095840924
3805.3972,2.3268216841371974,43.44273273809482
3806.2727,2.3433587624529086,89.92606451456956
3807.1504,2.3580638666728317,33.777589273787555
3808.0261,2.3698749152297087,110.53641052192258
3808.9043,2.3761944893866693,44.716604477823196
3809.7805,2.375977070783071,62.65150915609963
3810.659,2.372268513996415,49.831257756401996
3811.5356,2.3709189641326294,56.53276226881534
3812.4126,2.37670646431181,50.57678646401595
3813.2917,2.390607236969516,38.22545116008532
3814.169,2.40980565387625,45.426962232499626
3815.0483,2.429856895067018,33.138983611272316
3815.926,2.446011117394553,36.37154124208127
3816.806,2.4544180897862535,49.23933864660395
3817.684,2.452694404452644,37.82171947521967
3818.5623,2.4409441426300926,53.89878478928205
3819.4429,2.4217257717095952,48.05942426959437
3820.3215,2.399210551026665,44.32313051096813
3821.2024,2.3771189421444765,44.3531992467063
3822.0815,2.3579012551282164,40.11171415324802
3822.963,2.3421122240634458,46.14661012973687
3823.8423,2.32901966172499,48.1344105649634
3824.722,2.316736771731638,36.06869492584366
3825.604,2.302931754198883,68.1690767747773
3826.4841,2.2857657554420516,57.204931339942554
3827.3665,2.264428878511185,39.7651232331565
3828.2468,2.2397095610974374,46.940997822911456
3829.1296,2.213015034580901,52.122766565650736
3830.0105,2.1858066906289064,27.079588581997598
3830.8916,2.158437126645251,53.41371605817083
3831.7751,2.13050707330544,55.93334572533777
3832.6565,2.1019881401956355,52.7414148813966
3833.5403,2.0736775881338523,55.82611279689303
3834.4224,2.0479681905405354,72.0190993945015
3835.3064,2.0273176047446912,77.832518509449
3836.1887,2.0130490864522526,59.34375158914991
3837.0713,2.004375077285127,104.09284904279048
3837.956,1.9998962054283052,79.15847708035615
3838.839,1.999856757133486,68.27719486699635
3839.7244,2.0069211960303295,61.72752010820304
3840.6077,2.0241587193214676,70.76285352048096
3841.4932,2.052010641955862,55.22000910391852
3842.377,2.086660218750004,51.40240909749841
3843.261,2.122185881758427,69.91699906374409
3844.1472,2.1534350024301623,47.09833662075443
3845.0315,2.1777299233111678,62.0956903119727
3845.9182,2.195561789446172,73.11224224587627
3846.803,2.20937654510277,101.76255661208403
3847.69,2.222787806123816,45.63285749049428
3848.5752,2.238861350568281,51.09861049592496
3849.4604,2.259113103059846,52.36342811094745
3850.3481,2.2831012315755443,52.29081652094386
3851.234,2.30883043271247,56.63973324862535
3852.122,2.3342796522508293,62.37197170563229
3853.0083,2.357645924870893,50.82353506189104
3853.8967,2.3778484079013302,34.34283289819104
3854.7832,2.393883982772171,59.077748940185124
3855.6702,2.4053687983366467,56.851941552752734
3856.559,2.412908583700566,49.544260103754716
3857.4463,2.4182739386160024,41.29475989099199
3858.336,2.423505859243604,34.35735536526633
3859.2234,2.4291653766301398,40.34256559891232
3860.1135,2.433794783897733,39.13683607780859
3861.0015,2.4350361227609727,46.380702532039116
3861.8896,2.4316278822827337,39.48468362159034
3862.7803,2.4239650621214643,45.03898034499439
3863.6687,2.4132823217824884,42.033058130553634
3864.5598,2.400433655905839,47.644679117636606
3865.4487,2.386092643017711,59.91846938782907
3866.34,2.3711263433344283,39.235240286773276
3867.2297,2.3571051359139807,40.32745493940638
3868.1213,2.3454496037449863,49.48438696499899
3869.0112,2.3367935253559327,54.023731152147604
3869.9014,2.330426795691442,94.20302876667108
3870.7937,2.324774872469245,44.248001908757274
3871.684,2.3183072982483623,45.008417330459125
3872.577,2.3102032316096666,55.61594984196221
3873.4678,2.300458617259988,61.338510046523616
3874.361,2.2887687782640063,53.32302499518541
3875.2524,2.273722952524265,44.18462767547582
3876.1438,2.2529232663680387,42.41428626212669
3877.0376,2.2247838928697496,59.29503640257777
3877.9297,2.190353636535424,77.8187199418906
3878.8237,2.15225358432954,138.3443639029197
3879.716,2.112922950356922,72.34873448222959
3880.6108,2.0726236732058383,53.34411712648175
3881.5037,2.03122902512194,54.41387771843889
3882.3965,1.9893586101109415,85.33145420667634
3883.2917,1.948545512588689,78.06886934491857
3884.185,1.9096125604856955,81.07518928111863
3885.0808,1.8706504248256426,51.82678675153497
3885.9746,1.8288987867367144,67.75547529918883
3886.8706,1.7826835062350765,82.76203976578527
3887.765,1.7344014603843263,92.18835487840494
3888.6592,1.6898723487610712,89.85217694867401
3889.556,1.6562925526926897,114.26067885869725
3890.4507,1.6390815598479822,102.4697173032707
3891.348,1.6391486879804449,93.124736270554
3892.243,1.6537158515419468,94.6838027859646
3893.1406,1.6789824138816407,56.90184606612937
3894.0361,1.7121934564215722,108.59545854777468
3894.932,1.7519828378012754,128.21904957977057
3895.83,1.796393734414093,60.335189530230835
3896.7263,1.8414887343533126,66.2071035247014
3897.625,1.8833960098917715,76.82569974960177
3898.5215,1.9197215214151522,102.201853459215
3899.4207,1.951474511093516,76.53497898400039
3900.3176,1.9816249402535875,42.71275802957294
3901.2148,2.0141136944436426,71.69276126377655
3902.1145,2.051851901619648,55.20642762798944
3903.0122,2.09521100888544,51.13665907802366
3903.912,2.1426532829676432,51.43928085057072
3904.8103,2.1910227053901816,49.30686650374771
3905.7107,2.2374451708591754,65.08826875208733
3906.6094,2.278969523979981,49.92098200351166
3907.508,2.3136005215588598,43.764467580254355
3908.409,2.3406068945823066,44.76142631724828
3909.308,2.3605795010950485,54.91630692001311
3910.2097,2.3749475917980933,37.85397262443623
3911.1091,2.3846546991965742,44.232651110751426
3912.011,2.390857701029623,37.92179881139079
3912.9111,2.3959549181057413,46.32927259777287
3913.8113,2.403631887207495,40.06836459787628
3914.7136,2.416645096001132,49.27402761241758
3915.6143,2.4344571112188524,53.49012097612318
3916.517,2.45372610767433,51.13355472801436
3917.4182,2.470740024654118,32.57969804524344
3918.3215,2.4841565266912133,62.92109103222622
3919.223,2.494804960377846,46.55933847407851
3920.1245,2.504273895154375,41.63013754775502
3921.0286,2.5134619589983744,31.94962353554906
3921.9307,2.5223879035406,35.767222348365095
3922.835,2.530702334995121,43.25790138393047
3923.7373,2.5376274572811877,45.85901992140718
3924.642,2.542260944724923,48.65258495527532
3925.5452,2.5442812228193796,39.62001871128208
3926.448,2.5450695061091855,32.73263505591207
3927.3535,2.5475548590035233,39.32939331507595
3928.257,2.5543891229535225,51.93824206802373
3929.1628,2.5657816335795554,43.08056800552502
3930.0667,2.57862149211341,30.47715128666216
3930.9731,2.587922849003897,40.370132271850615
3931.8774,2.5888675724168717,34.272909086173556
3932.782,2.5789547347306025,33.8529546814051
3933.6887,2.558758574549087,40.54396480527216
3934.5938,2.5317817146283046,42.02816023232455
3935.501,2.5027226378788234,43.09050411090886
3936.4062,2.476390741952647,38.73288179015287
3937.3142,2.4563161947013588,42.62844265308743
