wavl,flux,ivar
3566.9744,1.1416231328206154,224.00647293213927
3567.795,1.138146501296389,209.49197809265786
3568.6177,1.1316279844757267,276.2412404363667
3569.4385,1.1249577869863048,248.12382090895025
3570.2617,1.1199025692955926,245.81715684399953
3571.083,1.1164454566321806,218.27105780078026
3571.9065,1.1132776856159896,225.48992348374037
3572.7283,1.1089815568482482,277.74231617067323
3573.55,1.1027900511999928,234.1006082465458
3574.374,1.0949198051019602,265.0003257658981
3575.1963,1.0865968386823224,250.89203963059907
3576.0208,1.0795592463404489,293.78032985235325
3576.8435,1.0755677200980907,368.9164551724428
3577.6682,1.0755750194920195,297.22705819516233
3578.4915,1.0792848293223514,253.99139954199924
3579.3145,1.0851003116726676,263.5520315649063
3580.14,1.0907005313259723,246.10876039570874
3580.9636,1.0939215000429543,269.64623941281843
3581.7893,1.093776206441795,222.2517746565153
3582.6133,1.0907841308864548,263.36738288210034
3583.4395,1.0865577711585257,306.47553071755976
3584.264,1.0829067670255266,229.27510657838423
3585.0884,1.0809125983950834,208.78701731266963
3585.915,1.0806208220757743,264.0474348617656
3586.74,1.081250370077039,268.04438067201846
3587.5671,1.0817474018848734,266.50738657594894
3588.3923,1.0813552797862551,281.12375194876796
3589.22,1.0798642166823653,251.0244539080166
3590.0457,1.0774234252357449,267.9954728160753
3590.8716,1.0741552463636435,265.2590653741173
3591.6995,1.0700789441396086,259.8838953414567
3592.526,1.0654318890883767,330.98771574587687
3593.3542,1.0608835332588633,268.83645571396147
3594.181,1.0575028728835425,247.31421706095043
3595.0098,1.056237495061433,271.6382344034919
3595.8367,1.0574316751354487,269.1485550209662
3596.6638,1.0604240310561586,298.31707394700084
3597.4934,1.0635704184204504,255.88821178356858
3598.3208,1.0647653569614905,242.30723310109911
3599.1506,1.0625333025699366,250.8651690545672
3599.9788,1.0569559683943244,273.60442004715185
3600.8088,1.049759280799002,278.1192938260537
3601.6372,1.0435258794229683,264.5051065302648
3602.4678,1.0403361092768326,277.8012744119369
3603.2964,1.0410051366994848,257.2283635286772
3604.1252,1.0449202517889917,308.58178459506047
3604.9565,1.0505864146809938,324.7549185652743
3605.786,1.0562680806100113,264.7803366607947
3606.6172,1.060721216826388,297.0107442754758
3607.447,1.0633483199514726,269.68098299323395
3608.2788,1.06405349098519,236.2470042168498
3609.109,1.062831941573363,281.90283514746153
3609.9392,1.0597544596495208,233.4841437191862
3610.7717,1.0552716155278405,246.4907579537047
3611.6023,1.0503840528958832,276.19924001175536
3612.435,1.0460846073793013,325.2007545678852
3613.266,1.0427956897610409,288.23914319482964
3614.0994,1.0402266664898003,301.9851177033673
3614.9307,1.0380199085856157,260.0584027538946
3615.7625,1.0362028297981456,279.13959306662866
3616.5962,1.035058124775393,250.6329327672576
3617.4282,1.0345850746831244,266.9696042257613
3618.2625,1.0343014675126496,267.802512720088
3619.0947,1.0336763067840524,246.75277820085748
3619.9292,1.03262421532173,318.62089767186814
3620.762,1.0315330667149083,278.62498709155255
3621.595,1.030827255732677,259.2304936989673
3622.4302,1.0306015647877345,311.07197942064414
3623.2634,1.03054799089082,278.8540008733784
3624.0989,1.03010367821539,299.93833805680106
3624.9326,1.0287495031594034,285.3863616524851
3625.7686,1.0264010181978191,281.47737445912867
3626.6028,1.0236960197717506,332.1355118426489
3627.437,1.021697713762644,277.1114993266233
3628.2734,1.0211746050258086,295.6981252826613
3629.1082,1.022018098565451,291.19932602005923
3629.945,1.0233711613343064,281.5392452113528
3630.78,1.0243046611831008,368.4809809525199
3631.6174,1.0244176375903553,257.82780614544305
3632.453,1.0239212115703993,311.0886518354234
3633.2883,1.0233831088016756,251.83172891404647
3634.1262,1.0233499016942493,373.36553253548067
3634.9622,1.0239765138073715,284.1934926281955
3635.8005,1.0248081914293166,255.28146161442584
3636.637,1.0249605838855003,311.8380905944238
3637.4756,1.0237748361575494,285.73905967586705
3638.3123,1.0215160214080634,273.9963859656609
3639.1492,1.0194411166892317,358.73621704243646
3639.9885,1.0190111951170393,402.85269920827994
3640.826,1.0207336417284276,275.32589569900546
3641.6653,1.0236523720505457,268.1518636666727
3642.5032,1.0259872601809858,294.2212441188131
3643.343,1.026432069877182,294.44232391617084
3644.1812,1.0249119691860131,385.9488168317621
3645.0195,1.022344606878755,377.8401593557479
3645.86,1.0197626325714864,262.78861393336115
3646.699,1.0176848913647354,274.1426303280392
3647.5398,1.0160642217636071,322.42313404669227
3648.379,1.0147368955998373,358.4117942349634
3649.2202,1.013721688350938,336.5532831727087
3650.0596,1.013206884711112,245.71937739253875
3650.8994,1.0132409946680745,277.2306144687975
3651.7412,1.013523514672971,324.34222617644645
3652.5813,1.0134998227794436,280.0830128344722
3653.4236,1.0127652400527507,269.90763199301665
3654.2642,1.0114318002171208,271.35071953336166
3655.1067,1.010058641778161,249.18890160171335
3655.9475,1.0091774564517793,240.7842436547284
3656.7886,1.0087936291402622,308.6903440713934
3657.6318,1.0084290332877264,332.2775110227787
3658.4734,1.0076663406074953,299.11490444043284
3659.317,1.0066354798583763,333.2925385781007
3660.1587,1.005848932423528,287.38364200403305
3661.003,1.0052931832570287,320.49534681148816
3661.845,1.0034297866349864,272.49020978365996
3662.6875,0.9968650102286876,302.814592167284
3663.532,0.981363282403576,250.2612935949777
3664.3748,0.954704419317066,306.9935223734146
3665.2197,0.9198837593931489,270.5333521098506
3666.063,0.8870392329926426,300.5677346998124
3666.9084,0.869220704055175,276.2023223600024
3667.752,0.8748924444150443,315.90982567218254
3668.5977,0.9016271344780942,323.2988996253293
3669.4417,0.9377199003340159,305.1863972477489
3670.286,0.9703874693142505,357.5994942455028
3671.132,0.9924678941947829,257.365353042764
3671.9768,1.0034321383662468,319.89072911959147
3672.8235,1.006488482120083,285.2456690074334
3673.6685,1.005089559063586,288.2655943941053
3674.5156,1.0016933914040909,295.52149520344824
3675.3608,0.9978379870139102,280.71162153742785
3676.2063,0.9943681031014154,338.5776479159758
3677.0542,0.9915797413536389,303.1309332524393
3677.9,0.9894046709825991,256.90611147731096
3678.748,0.9876203973731611,322.5715658475517
3679.5945,0.9860448853037206,291.00352601154145
3680.4429,0.9844259521667398,356.3004975806399
3681.2896,0.9823766701480967,365.000152193042
3682.1365,0.9795213499231603,309.9283549936057
3682.9856,0.9759503988205581,345.62253580835824
3683.8328,0.9725588245255476,345.23931712765665
3684.6824,0.9706460403756155,356.24610193982295
3685.53,0.9710621204291165,341.1117346624183
3686.38,0.9734666778116847,293.5559455979361
3687.2278,0.9765184422931165,302.431156710895
3688.0762,0.9788775417731279,338.8503199773584
3688.9265,0.9801162190068637,268.9574119646191
3689.7751,0.9808814109424486,273.1322444061414
3690.626,0.9822441833524728,356.44511513922714
3691.475,0.9847973351475854,353.7839396533275
3692.3264,0.9883059020304794,350.25946925918794
3693.1758,0.9919430024261953,260.8215843768337
3694.0254,0.9948660178476062,293.2812800973987
3694.8772,0.9964853473703909,347.59178149216865
3695.7273,0.9965125873928712,281.47902446636374
3696.5793,0.9950308225814218,274.80356367867284
3697.43,0.9926078625151632,307.12907984676934
3698.2825,0.9902055745956087,323.936893919562
3699.1333,0.9887487833527805,340.8940399513589
3699.9841,0.988493028342615,400.68254381574127
3700.8374,0.9888345072885735,307.08882682058226
3701.6887,0.9886760622082175,248.42216353210867
3702.5425,0.9870846066970457,284.1891716727912
3703.3943,0.9837545334646728,260.403619518931
3704.2483,0.9790066422029264,350.8994800022714
3705.1003,0.9736019070598682,290.61147811022613
3705.9526,0.9683960088912414,307.2464334195499
3706.8074,0.964202134637061,343.72150937972765
3707.66,0.9616798035003035,388.170691875596
3708.515,0.961093679358627,392.5598756978716
3709.3682,0.962243321166939,327.96449312616573
3710.2234,0.9644882027006715,286.2308421272109
3711.0771,0.9669161867384791,293.67060648869386
3711.9307,0.9685790054460435,359.93342376408685
3712.7866,0.9686948842053968,335.0893024597347
3713.6409,0.9668818297696317,395.70744150109033
3714.4973,0.9633203977435982,336.01647984673116
3715.3518,0.9587792142141037,332.2560423336474
3716.2085,0.9543656954342202,317.78855699556436
3717.0635,0.9512934690424888,366.99498270063464
3717.9185,0.9504445846151691,338.2799770880294
3718.776,0.9520659502905482,330.23739183461646
3719.6313,0.955525972143938,323.01335915418554
3720.489,0.9594664399962787,294.94019858680565
3721.345,0.9622660803525579,324.965288201743
3722.2031,0.9627894524881251,297.5048214401114
3723.0593,0.960814074812696,322.2954666555496
3723.9158,0.9570390409977233,338.4326805323807
3724.7747,0.9526745887487511,309.28990113847345
3725.6316,0.9489904749020347,333.192364405338
3726.4905,0.9468554661440027,306.3972529803162
3727.348,0.9466063409403226,319.9235497066259
3728.2073,0.9479656506397276,329.3568904961226
3729.065,0.9501010100398364,359.2092739593123
3729.9229,0.9518749179439571,324.65800813632615
3730.783,0.9522965524712417,345.37514367563733
3731.6414,0.950991008162019,304.8760393002302
3732.5017,0.9482949766178694,364.16365850120405
3733.3604,0.9449036553532794,298.2456220454157
3734.2214,0.941362133138772,327.9219896429945
3735.0803,0.937971329857293,331.2210861065814
3735.9417,0.9348491149964562,329.40296755936953
3736.8013,0.9320925447984537,384.60820645735697
3737.661,0.9296569793696065,392.85959561186706
3738.5227,0.9273871612951095,369.155705146724
3739.3828,0.9252697883273521,290.0605075112628
3740.245,0.9235948212298709,380.67781542717637
3741.1055,0.9227576716945579,354.58863588766366
3741.9683,0.9226975770181495,308.6332042154411
3742.829,0.9227217471057022,327.1552588950899
3743.69,0.9220025400660657,271.72731711448495
3744.5532,0.9203182898134076,372.34388030999094
3745.4148,0.918323611212207,392.1724096645912
3746.2786,0.9170537679011121,336.50559182086624
3747.1404,0.9172006347419863,314.1595970848225
3748.0044,0.9186784096303007,365.4530924264053
3748.8667,0.9208025371450853,305.51588455546886
3749.729,0.9228361479712487,358.93570254132504
3750.5938,0.9243654397134125,367.63653153332353
3751.4565,0.9252515678186497,323.60110026046783
3752.3215,0.9253988679714761,354.6061520833025
3753.1848,0.9246510623673985,447.4560077977466
3754.0503,0.9230077058536702,292.76834156793626
3754.9138,0.9208995611238647,335.397003089585
3755.7776,0.9191207904771634,397.319882422475
3756.6438,0.918435414363962,416.94502776907314
3757.508,0.9191248475541711,349.13712720629144
3758.3745,0.9208580976698604,380.8758966444321
3759.239,0.9229342669467182,334.58471445066124
3760.106,0.9246583672912043,369.6781847527714
3760.971,0.9255127972134939,361.86328880779917
3761.8362,0.9252477021740013,363.4480115285067
3762.7036,0.9238805316432283,303.8518095158226
3763.5693,0.9217290623882901,365.7760881640813
3764.437,0.9192806321543486,430.97691654477705
3765.3032,0.9169455041240435,371.71682807785083
3766.1714,0.9147613398674739,403.4520570604567
3767.0378,0.9124696892889911,390.62243221482686
3767.9043,0.9098093615194194,367.8189109507925
3768.7732,0.9067773569749282,450.57794900601056
3769.6401,0.9035929455634245,382.80358791990136
3770.5095,0.9004303735834498,375.8599715718911
3771.377,0.8974253987543598,418.5367484651737
3772.2466,0.8947497181308549,359.07117138100074
3773.1145,0.8927874420924029,411.4661306153696
3773.9824,0.8920237601597565,532.0105485478094
3774.8528,0.8928109998704661,350.03854564255965
3775.721,0.8950371377577084,356.30656735538224
3776.5918,0.8980464456118618,325.3745286876239
3777.4604,0.9009039784978506,338.53106201262966
3778.3315,0.9030178266640773,470.6060562461704
3779.201,0.9044449792139116,372.5799865124908
3780.0703,0.9057319638145389,380.4194229602217
3780.942,0.9072818485891087,396.6541837623804
3781.8118,0.9088419186215047,360.6908598533756
3782.6838,0.9095806644247887,315.51041214421025
3783.554,0.908634500337633,339.3823289577373
3784.4265,0.9057121185459448,376.8861921155379
3785.297,0.901313094614919,399.0258747718667
3786.168,0.896444739117126,350.74587606374394
3787.041,0.8922319090073128,373.8235209655163
3787.912,0.8895943204555243,378.3028577520911
3788.7856,0.8889365142869101,354.469829047241
3789.6572,0.8900818829058107,405.2146243706166
3790.531,0.8923712073415515,366.15770703341
3791.403,0.894976069542099,396.60854476536855
3792.2754,0.8972322651238769,322.80301729631043
3793.15,0.8986928000532235,440.487817232582
3794.0225,0.8990534757504997,337.3514185379448
3794.8972,0.8982258058743401,331.37626125567226
3795.7703,0.8965065759315441,373.6771691876121
3796.6455,0.894555097160531,346.7432522130339
3797.519,0.8930538589437287,360.9224503198293
3798.3926,0.8922311109498917,399.1255203727429
3799.2686,0.8917393080449232,399.30547480046073
3800.1426,0.8909069750316554,390.3260287839063
3801.0188,0.8891265474391908,372.96513143679925
3801.8933,0.8861618011460696,390.94480432569014
3802.77,0.8822122544074442,363.04073071503194
3803.6448,0.877927423707509,381.11495786725925
3804.522,0.8741955970712618,349.4291369981552
3805.3972,0.8719460287483094,471.34401916934365
3806.2727,0.8717069023104674,478.72578233001127
3807.1504,0.8733664864416112,415.57345167649925
3808.0261,0.8761626105819466,354.2858924745337
3808.9043,0.8790693717118371,361.70853223632116
3809.7805,0.8812121890048521,357.14291673171806
3810.659,0.882205818940084,409.84156973753494
3811.5356,0.8821272895997396,414.75934208445244
3812.4126,0.8813693353001942,524.7574299038357
3813.2917,0.8804368271703991,365.0503092862682
3814.169,0.879779853674137,410.72307793783614
3815.0483,0.8795791040672317,373.8202144728954
3815.926,0.8796209407452915,357.28779252439415
3816.806,0.8793831882488191,325.41974862362156
3817.684,0.8783390085278315,365.7262083691062
3818.5623,0.8762207198881389,427.8581172581628
3819.4429,0.8730790416382562,464.89648730042285
3820.3215,0.8692798181251314,393.10373047760663
3821.2024,0.8654258967679028,378.77366777023553
3822.0815,0.8623578421441354,385.55542077975485
3822.963,0.8608717285659028,361.94356424888525
3823.8423,0.8614392381101168,414.7779566299598
3824.722,0.8639368745253073,492.10198145534497
3825.604,0.8676496967912434,413.739038721267
3826.4841,0.8714114968674588,346.3381059145501
3827.3665,0.8740203707548977,376.5311633660647
3828.2468,0.8746048814322394,420.99741914306156
3829.1296,0.8729833965059498,395.46056869006236
3830.0105,0.8696932776777658,402.0134505310069
3830.8916,0.8657143995816742,351.22596386129396
3831.7751,0.8620776313046509,382.5485914509603
3832.6565,0.8595347038865758,388.1199028849445
3833.5403,0.8582650616083136,390.9282354748486
3834.4224,0.8579092388811366,437.1628078266677
3835.3064,0.8577905711548688,362.7885370336182
3836.1887,0.8573535020233036,448.7302597444295
3837.0713,0.8564713576990953,386.49947538524924
3837.956,0.8554058356384409,514.425546347294
3838.839,0.8545052953018951,483.9447196524852
3839.7244,0.8539376532845486,386.4184640088023
3840.6077,0.8537388168179201,441.0848057003689
3841.4932,0.8539992636376873,344.2010864404046
3842.377,0.8549069048722588,462.8707943510605
3843.261,0.856486353248817,421.39704603193286
3844.1472,0.8582673043679676,448.932331516611
3845.0315,0.8592764369286863,384.2886689037841
3845.9182,0.8585641672746807,354.7994346198458
3846.803,0.8558279988976999,316.3893353814826
3847.69,0.8516342486949807,452.311436794427
3848.5752,0.8471938611246563,420.18904192977107
3849.4604,0.8438929912152161,438.8838090187573
3850.3481,0.843103353406197,435.80712245286435
3851.234,0.8461116678986395,488.5275674797099
3852.122,0.8539797900535961,390.89130137085164
3853.0083,0.8670151414999047,369.0603088620224
3853.8967,0.8840764943682841,385.33484244624685
3854.7832,0.9015720198787174,363.9468528657904
3855.6702,0.9141809837763614,432.8471209637845
3856.559,0.9170977670451183,47.70873660105349
3857.4463,0.9091879872212422,404.8798909373332
3858.336,0.8939767608849563,457.47072597553233
3859.2234,0.8774815407999977,463.4052160353664
3860.1135,0.8643358232628948,485.6486727639696
3861.0015,0.8561609270924707,439.9834275741356
3861.8896,0.8519318671057627,472.82278715057674
3862.7803,0.8499019273387738,517.2805125039284
3863.6687,0.8488200646087578,423.1900872810496
3864.5598,0.8481353942558403,409.99685211329506
3865.4487,0.8476752768811009,422.8349119205946
3866.34,0.8472582311541738,470.51531992894854
3867.2297,0.8465979766852343,388.36566190448406
3868.1213,0.8454332038105138,386.7093628793562
3869.0112,0.8437496744684541,445.19976648864605
3869.9014,0.8418403480450296,408.47444878997305
3870.7937,0.8401832284359749,423.7700761369185
3871.684,0.839228202121307,444.96819748673755
3872.577,0.8392001229394678,418.5796629014803
3873.4678,0.8400490166322885,372.04055050690425
3874.361,0.8414599074800901,389.24864586793774
3875.2524,0.8429079872050533,460.0986644027222
3876.1438,0.8438318103382448,420.38294085544874
3877.0376,0.8438564573477689,415.9231499920647
3877.9297,0.8430187116928006,434.0113627372886
3878.8237,0.8417896872479631,463.5189865217502
3879.716,0.8408106803879613,481.77096116248936
3880.6108,0.8404548719180287,417.6272646526241
3881.5037,0.8405922278294677,335.97979724129266
3882.3965,0.8407148191101811,395.1837707839437
3883.2917,0.8403330361646989,426.9830722862724
3884.185,0.8393070414943862,391.19113244404366
3885.0808,0.8378707051973489,461.6603710616451
3885.9746,0.8364036178105497,449.50736836067676
3886.8706,0.8350966995995174,431.7600003670309
3887.765,0.8338440545686577,433.7224674205361
3888.6592,0.832349154091703,465.87048684890453
3889.556,0.8303885226970654,448.08205158040766
3890.4507,0.8280260079414591,411.7352025545647
3891.348,0.8256154308319772,416.0893142040651
3892.243,0.8237371736203483,455.09960975715535
3893.1406,0.8229510814778359,549.0251091765958
3894.0361,0.8235860594293629,478.5259184875104
3894.932,0.82553606810721,486.9099400276116
3895.83,0.8282573039504717,490.26119577548087
3896.7263,0.8309148764409878,409.91671329994915
3897.625,0.8327584555549296,442.9722964383723
3898.5215,0.8333964206394656,421.8490472381486
3899.4207,0.8329503341033211,433.4218459203004
3900.3176,0.8319251009029605,395.0215477001017
3901.2148,0.8309815983519144,459.304043122547
3902.1145,0.8307140114535603,472.75719829866296
3903.0122,0.8314327520426013,435.4419495029745
3903.912,0.8330111826896521,512.7986487842411
3904.8103,0.8349543423820129,500.86700725625707
3905.7107,0.8367841699963746,393.22593147163116
3906.6094,0.8383849201565982,478.6665253373582
3907.508,0.8400324450884302,468.1726385751269
3908.409,0.8419700909891854,453.9417871024101
3909.308,0.8440044680390576,443.22573837538727
3910.2097,0.8456405056329467,367.94489383060056
3911.1091,0.8465679660544245,398.5556276272117
3912.011,0.8470269818105823,463.5071511859806
3912.9111,0.8475502255459638,460.4768383882846
3913.8113,0.8484471964508762,359.6285014316885
3914.7136,0.8495442725347624,392.6970585926555
3915.6143,0.8503603388008786,379.061398638679
3916.517,0.8504875494182702,434.76258009341984
3917.4182,0.8498224178194823,466.25934602862776
3918.3215,0.848590680996209,421.4609451673971
3919.223,0.8472120579345772,361.37729203347703
3920.1245,0.846045936190333,417.7700832437347
3921.0286,0.8451722578390499,392.3441941511833
3921.9307,0.8443235572951097,418.908081929091
3922.835,0.8430446343733978,386.63770601639516
3923.7373,0.8410270316540966,442.16519093583827
3924.642,0.8382704392472913,383.6348235318055
3925.5452,0.8350368588547361,424.9167511953089
3926.448,0.8315894085424793,420.4284523400795
3927.3535,0.8280896572774312,480.7902913410801
3928.257,0.8247104005513343,489.85193113458024
3929.1628,0.8216819394256496,484.56271056375874
3930.0667,0.8193247590394561,480.47160245380144
3930.9731,0.8178174178194407,422.6157411150103
3931.8774,0.8170506424682784,463.35273932125847
3932.782,0.8165900321454431,433.257695697904
