wavl,flux,ivar
3566.9744,2.2763093830198833,173.77534406632532
3567.795,2.3099340114694313,158.55808333359468
3568.6177,2.3397336313399406,212.51961564046232
3569.4385,2.3577653877622287,193.35048895966756
3570.2617,2.36277517208147,126.5253942278542
3571.083,2.357879720545061,164.8282971464085
3571.9065,2.3477901116858426,169.92169308657017
3572.7283,2.3366478353631495,165.371121192807
3573.55,2.3269225400210733,192.2642537480952
3574.374,2.319571244884237,159.62442650286695
3575.1963,2.3146389402802683,159.03546407673272
3576.0208,2.311530298768596,155.0050129517206
3576.8435,2.3092749333368183,219.91207084746827
3577.6682,2.3068201526763823,161.4733487086369
3578.4915,2.303776819382467,183.91507001848214
3579.3145,2.300891792204998,216.07699373636154
3580.14,2.2997476347373778,168.25843886748905
3580.9636,2.3016706556539703,218.39280836651324
3581.7893,2.306585766487957,210.14778590416682
3582.6133,2.3127056689393553,202.45795118526252
3583.4395,2.3174879568718865,189.55379932804328
3584.264,2.319046501684936,171.38337696830695
3585.0884,2.317250872112425,158.3729996322355
3585.915,2.3134101129090814,244.6345592800132
3586.74,2.3091066832051172,206.8841613750539
3587.5671,2.3050439832350107,181.44526471855727
3588.3923,2.301013359929554,192.84357612457407
3589.22,2.296454646375945,243.1094536430879
3590.0457,2.2910948391514876,165.05673159991005
3590.8716,2.2849196355021792,222.95619434321446
3591.6995,2.2781119873981437,201.5292413886023
3592.526,2.2712088241420347,152.93857417068205
3593.3542,2.2650615331650616,165.08302299494417
3594.181,2.2605182806986797,204.77870538611796
3595.0098,2.257648149335864,187.2940691484774
3595.8367,2.255679327862759,189.64914736578532
3596.6638,2.25359086168691,196.17101377420633
3597.4934,2.2508633372882185,191.8220912435248
3598.3208,2.247530274903327,189.07486899501706
3599.1506,2.2435914558099355,154.5588688908767
3599.9788,2.238769518028404,211.1031912903403
3600.8088,2.232717475038938,182.7226843167395
3601.6372,2.225646109965407,233.17009660131853
3602.4678,2.2184337339024762,230.7260961708841
3603.2964,2.212398302805416,230.40332471807378
3604.1252,2.2084470397331235,201.6939269604508
3604.9565,2.206534919133409,167.50957195670256
3605.786,2.2056234493962394,180.84875390325715
3606.6172,2.2043001605917163,218.16253331764173
3607.447,2.2017742332360735,242.3523638352154
3608.2788,2.1985070388005,185.7632567278893
3609.109,2.196097677032605,191.69667842486902
3609.9392,2.196187495038047,157.55511285669274
3610.7717,2.199199513670263,238.83419314984025
3611.6023,2.20381068315786,163.72845663097817
3612.435,2.207868718467288,194.72837470550917
3613.266,2.20976735533814,196.20648983510125
3614.0994,2.209256720012683,178.90441914334883
3614.9307,2.207038574180759,221.49300581762512
3615.7625,2.2039293182496533,220.23094126499137
3616.5962,2.2003327644491946,192.89823971400173
3617.4282,2.1962122720943626,181.90266061557267
3618.2625,2.191215703204843,196.31740549536366
3619.0947,2.1850478847478336,171.02317864995166
3619.9292,2.1776840222201117,200.80832740714865
3620.762,2.1696027761531917,160.24844932635185
3621.595,2.161423775829827,189.87491756237478
3622.4302,2.1536005148632897,220.554570522401
3623.2634,2.146450070013545,209.87086388473583
3624.0989,2.1403201000475076,177.0758022587877
3624.9326,2.135815553382047,221.98109322988168
3625.7686,2.1332711426720685,229.10883332498514
3626.6028,2.132374943600518,189.1394767286641
3627.437,2.1322034553599365,197.24922280866662
3628.2734,2.131703395006004,196.00910995673968
3629.1082,2.129924071802427,224.09341104096507
3629.945,2.1259901916236603,213.13260667524642
3630.78,2.1193747834980594,196.22374776919938
3631.6174,2.1103142761630855,220.31036237783545
3632.453,2.100076303779949,249.91250626691235
3633.2883,2.090207668247199,216.13027385176306
3634.1262,2.0817928620102757,240.21769680321822
3634.9622,2.075226361281818,178.0515369213972
3635.8005,2.0702703650668086,205.33506759475156
3636.637,2.0664246918513545,203.2109525102232
3637.4756,2.0628977475702213,207.4281481369414
3638.3123,2.0588568340703866,239.84873220874704
3639.1492,2.0537443887642124,221.24619999173655
3639.9885,2.0476991331484347,217.6366436872515
3640.826,2.041681321844159,222.62418356398908
3641.6653,2.0368690415520567,237.51111580205657
3642.5032,2.0339137716768767,236.09820900468603
3643.343,2.03235911572635,219.32958571317673
3644.1812,2.031051684766507,218.33754991537262
3645.0195,2.029000672899284,221.78628390747392
3645.86,2.0259116795046292,216.50890832800272
3646.699,2.0220248538327126,251.80005710610203
3647.5398,2.0176971770507555,278.7210126915807
3648.379,2.0134872490884774,267.28635244238666
3649.2202,2.0102363481684495,283.6737914247786
3650.0596,2.008791967771157,242.13076939367718
3650.8994,2.0091484857151163,207.4408114526107
3651.7412,2.0100430365863104,254.65739202178693
3652.5813,2.0095131677601494,216.68585576515895
3653.4236,2.006226795908512,234.09292227240553
3654.2642,2.000532206392804,247.55680483361576
3655.1067,1.9942509132952573,233.3623417748614
3655.9475,1.9895400161880907,239.71704057598163
3656.7886,1.9874993051245575,228.9495971518292
3657.6318,1.9877348545087428,273.79668828538166
3658.4734,1.9887786599846713,229.86316314738974
3659.317,1.9890514824640861,239.20320921266256
3660.1587,1.9877456727470355,233.8499435486893
3661.003,1.9851380066249367,281.0123799300608
3661.845,1.98225320772028,290.1767534643362
3662.6875,1.9801619618820767,217.38349905263212
3663.532,1.9795504060477442,244.54290703351188
3664.3748,1.9805449166942384,220.37437297021884
3665.2197,1.9826949263524387,223.83649793661536
3666.063,1.9850969682940158,283.85220229875
3666.9084,1.9868041362696847,261.2897488166864
3667.752,1.987258008800275,216.63830736909114
3668.5977,1.9865322331484816,232.56997062971857
3669.4417,1.9851416066968466,227.27593776147236
3670.286,1.9836693250257973,243.6395843686057
3671.132,1.9825450248139558,210.46680207437652
3671.9768,1.9820284122962921,288.4259786519463
3672.8235,1.9821391333664624,257.03516001772533
3673.6685,1.982488391445839,250.97201476342352
3674.5156,1.9822441331969696,274.0117124263491
3675.3608,1.9804368932269516,262.5255540892242
3676.2063,1.976380915674447,261.72920394646
3677.0542,1.969923947515605,257.7502440804379
3677.9,1.961684013507534,298.92281133577484
3678.748,1.9530120044398451,255.59993601378335
3679.5945,1.9458898089128158,313.27495408004756
3680.4429,1.9418958255136771,232.8762701814303
3681.2896,1.9411957985431718,272.010955124355
3682.1365,1.9420193063504165,225.10997842991458
3682.9856,1.9415284220225564,231.93269139782473
3683.8328,1.937560084441666,258.25288681047334
3684.6824,1.9300164708780085,298.24408849428494
3685.53,1.9209253360858518,240.24477224693717
3686.38,1.9129712903834866,296.5081863923653
3687.2278,1.908269540657356,273.73048147898896
3688.0762,1.9077749379345972,290.20129362290027
3688.9265,1.9115091246302722,236.86772742824638
3689.7751,1.9183467219274435,371.29627974856754
3690.626,1.9258086233995688,248.42033059489358
3691.475,1.9305611902964435,261.6777184710234
3692.3264,1.9302882015696226,212.40105245059158
3693.1758,1.9253269090274292,250.29313166132266
3694.0254,1.9186999593104823,266.79153211595315
3694.8772,1.9142152409580062,331.1470643757702
3695.7273,1.9141048511334076,272.30884272899067
3696.5793,1.9178119670724667,285.6507418632722
3697.43,1.9227397761672782,281.94307038278413
3698.2825,1.9260932816120893,266.62153237704916
3699.1333,1.9263174679374573,261.3082350204107
3699.9841,1.9234717788020084,201.3734934248758
3700.8374,1.9184356330286267,262.25071746387175
3701.6887,1.9119945873487039,278.2316790515654
3702.5425,1.9044102063386459,213.7457836045953
3703.3943,1.896039435975307,234.11273374345865
3704.2483,1.8877356570034116,288.52564586876554
3705.1003,1.8808063724212667,268.4697976339506
3705.9526,1.8760791248204274,284.4641159555692
3706.8074,1.8734846218345462,299.5399739599379
3707.66,1.8723307799976041,256.55690089422166
3708.515,1.8719107419535574,260.1581065339321
3709.3682,1.8718594794932286,271.54343350910864
3710.2234,1.8719344688762343,293.3285664990198
3711.0771,1.871683064775296,235.0139639929141
3711.9307,1.8704267707670248,284.6194795492447
3712.7866,1.8675562552773544,309.13423548106033
3713.6409,1.862868214785217,262.0879131035434
3714.4973,1.8566410733432832,244.66664239883346
3715.3518,1.8497700836971012,307.4203635063803
3716.2085,1.8436003545281683,254.28493775744556
3717.0635,1.8396390870048684,269.1686511101689
3717.9185,1.8387069254332489,293.75045265360933
3718.776,1.8404418129331015,273.4565751109121
3719.6313,1.8434109313739484,315.3882420504895
3720.489,1.84587056019507,307.81487698445954
3721.345,1.8464058264679626,262.8307444164971
3722.2031,1.844271246396829,272.55930107647737
3723.0593,1.8395451223775465,286.48615311117584
3723.9158,1.833211865714392,268.4829158781719
3724.7747,1.8269121162092326,307.97746576791724
3725.6316,1.822227275255118,293.092326027416
3726.4905,1.8197061851631924,316.2465636468409
3727.348,1.818696355486627,268.2563266508404
3728.2073,1.817870300254647,282.57869689384876
3729.065,1.8161356694307351,294.3937493314209
3729.9229,1.8130302342361184,282.6512047140416
3730.783,1.8084107327596266,328.95891885230196
3731.6414,1.8020192634336865,324.14799636862097
3732.5017,1.7934386716306052,280.5757321508865
3733.3604,1.7828087361727092,286.15569900391034
3734.2214,1.7712129634537208,283.3306043258361
3735.0803,1.7607293343099801,353.07820534160766
3735.9417,1.7533823008424203,318.86579638773446
3736.8013,1.7503751499609088,340.0274898366019
3737.661,1.7514162123266692,400.98594380894434
3738.5227,1.7549877714825948,284.40282055500455
3739.3828,1.7590421754687122,332.0925084108715
3740.245,1.7619213051549716,315.7746691252288
3741.1055,1.7627076409980078,280.74508638745175
3741.9683,1.7611090542485337,298.3688563826042
3742.829,1.757215051312351,283.7610409107417
3743.69,1.7516158429497015,350.7359933058899
3744.5532,1.7456025826955917,336.54432872510733
3745.4148,1.740893442819412,263.09967344486597
3746.2786,1.7386474388591995,409.31496383948456
3747.1404,1.7388253017976907,353.0627909637952
3748.0044,1.7402262726254503,304.58754044672725
3748.8667,1.7412325143441256,407.824770589112
3749.729,1.7406621218406246,350.76847330592767
3750.5938,1.7382736197485555,265.5730700642029
3751.4565,1.7348642976121145,412.14452176906855
3752.3215,1.73182771116911,270.6143124059977
3753.1848,1.7305205712614573,339.91552393940816
3754.0503,1.7316402703860065,268.16965466893686
3754.9138,1.7350452276333268,296.0379200828922
3755.7776,1.7398951980777928,316.21704171019826
3756.6438,1.7449045166676425,310.5151036423626
3757.508,1.7486317520908872,358.29614277831814
3758.3745,1.7500364441823268,295.557434358432
3759.239,1.7488266442355334,317.9217566833595
3760.106,1.7454881174932155,307.6246877429991
3760.971,1.7408542668898042,361.8772035058816
3761.8362,1.7355362105048606,287.3270734927714
3762.7036,1.7297816014385887,372.14426302987926
3763.5693,1.7237542508273704,330.8305821833316
3764.437,1.7176813419306571,348.12796184202955
3765.3032,1.711863129127942,323.4629146857916
3766.1714,1.7062887967016707,307.05851250630946
3767.0378,1.7006406819236948,324.0693160324055
3767.9043,1.6944579043980814,343.05789307183943
3768.7732,1.6874692443925947,325.40692199454827
3769.6401,1.6797979207800369,287.47865724316955
3770.5095,1.6718835616267116,347.5363403508974
3771.377,1.664671271865688,360.14240731411314
3772.2466,1.6592925417160875,348.40057674268394
3773.1145,1.6566608083672896,325.54095514288775
3773.9824,1.6568074625566218,406.82382046366365
3774.8528,1.658851901526829,348.40188290989255
3775.721,1.6614461628654222,375.00163742889185
3776.5918,1.6634985620485858,355.4486647789132
3777.4604,1.6645810580353033,338.11183403612995
3778.3315,1.6650418624956589,376.83194354143484
3779.201,1.6657503831660716,387.92965200113093
3780.0703,1.6677199298925636,386.23581847842723
3780.942,1.6716266136997477,375.4140902668077
3781.8118,1.6772464704374221,393.78449322924257
3782.6838,1.6832569425667916,344.49115334745244
3783.554,1.6875709065363775,294.0579030489615
3784.4265,1.6884918548259646,330.8978696068875
3785.297,1.6855496948748383,309.2760321448083
3786.168,1.6795007274764175,390.84276810358625
3787.041,1.6715095878912294,358.5778169878806
3787.912,1.6626098873964554,379.97307063950217
3788.7856,1.6535558909514374,357.82584989165764
3789.6572,1.6452110605035304,365.93679711368947
3790.531,1.6382956010858805,342.129832009951
3791.403,1.6331917966307679,378.8999776802791
3792.2754,1.629633184395756,347.50235371089815
3793.15,1.626906099216268,352.2781557351343
3794.0225,1.624146443568262,346.67753589097504
3794.8972,1.6205592247824594,309.9338685676896
3795.7703,1.615740838603743,361.41709065864484
3796.6455,1.6098825952746487,376.76265171951826
3797.519,1.6039488994040123,354.72037318200563
3798.3926,1.5993035737007917,394.62281334041666
3799.2686,1.5971224477723052,326.6340536931801
3800.1426,1.5977719494400602,407.53845600274684
3801.0188,1.600606911266795,349.8128243999809
3801.8933,1.6043841293285792,376.0886857892941
3802.77,1.6079236236032233,329.94722493719485
3803.6448,1.6104030912205174,342.6351181529168
3804.522,1.6114797654537165,413.4616041318176
3805.3972,1.611313299468366,338.9209422013237
3806.2727,1.610663735478759,435.3921477804378
3807.1504,1.6106376651120615,438.84535854316294
3808.0261,1.612080728942748,358.5805238514228
3808.9043,1.6150471109611586,365.4426702273234
3809.7805,1.618766924837053,393.8082868765455
3810.659,1.6222557108320697,359.96613408404744
3811.5356,1.6249870141341907,409.13950032913016
3812.4126,1.627302013847347,379.9448689765495
3813.2917,1.6299597501848073,322.93126879619484
3814.169,1.633148810239512,374.2103594145631
3815.0483,1.6359574613974261,298.8359914746865
3815.926,1.6368916116057286,454.53492241526504
3816.806,1.635122870817832,374.517857292727
3817.684,1.6310506137964529,378.053914528552
3818.5623,1.6257015491895346,352.6512340793038
3819.4429,1.6197958153629568,374.9810550719542
3820.3215,1.6135282627035024,338.5794208440968
3821.2024,1.6068324229174828,391.5447094636054
3822.0815,1.5998394119345771,352.76700618663665
3822.963,1.5926886163353544,352.9467552930653
3823.8423,1.5854077653500647,387.21512118048696
3824.722,1.5777335707520048,382.8037081424284
3825.604,1.5692979747658742,409.30708690534476
3826.4841,1.5598416992697761,494.41041534828764
3827.3665,1.5491402095404838,427.62464036383244
3828.2468,1.5372650093410105,448.1832849124186
3829.1296,1.5244416821391304,431.8509667797467
3830.0105,1.5112168509375337,440.14388365726666
3830.8916,1.498088521727592,433.00971731935476
3831.7751,1.4855339503890743,368.7017877098166
3832.6565,1.4741049268638398,402.56121911639127
3833.5403,1.4640893558034371,488.63449780817547
3834.4224,1.4555610073959848,492.93276811236
3835.3064,1.448263038886012,408.66675854228737
3836.1887,1.4421852472467818,457.64983727833203
3837.0713,1.4378547738341672,512.9167275839719
3837.956,1.4363725216924976,384.75506149014626
3838.839,1.4389442321139383,528.564039827539
3839.7244,1.4463159314679472,457.19236448078937
3840.6077,1.4583235682335458,486.40868209575757
3841.4932,1.473896402704244,486.4192037722033
3842.377,1.491021893207106,448.56321760130356
3843.261,1.5075281600670796,437.4167136387799
3844.1472,1.5218423049692777,428.9914610584038
3845.0315,1.5336092904433416,389.56057803453774
3845.9182,1.5438890527510931,399.9753632443734
3846.803,1.5540593118424202,415.4067295860838
3847.69,1.5649564088248114,452.87588677681254
3848.5752,1.576168029846053,381.1682965150516
3849.4604,1.586517434469244,397.3321334398251
3850.3481,1.594783019581232,410.7550256743408
3851.234,1.600322398004428,345.64660974395184
3852.122,1.6034042553268895,358.9887032391186
3853.0083,1.6047997825405333,376.314115907034
3853.8967,1.6053978668050817,374.9548805866608
3854.7832,1.6058882554172391,353.4588674917026
3855.6702,1.6066813857126805,405.0921551266257
3856.559,1.6078055298520748,376.4981620642038
3857.4463,1.608796503732972,408.30332268200874
3858.336,1.6088321604812363,378.2608509813882
3859.2234,1.6071512187592283,374.2684248910412
3860.1135,1.6035170265620111,352.4317763601963
3861.0015,1.598415505059138,365.1071166592956
3861.8896,1.5927223257461407,391.524962437843
3862.7803,1.5872167330051519,348.1845598458586
3863.6687,1.5822328764119864,382.16646881555914
3864.5598,1.5775563708197102,342.09314901704073
3865.4487,1.5728940154519553,378.2731385030045
3866.34,1.5681185663020556,357.2543243077441
3867.2297,1.5633304149602503,399.0663033088596
3868.1213,1.5583980020320216,400.049797639523
3869.0112,1.552769994706005,409.7427728594677
3869.9014,1.5456023963037089,390.3746011603345
3870.7937,1.5363667609691836,399.3525071289917
3871.684,1.5253972719551028,390.39631476859927
3872.577,1.513536079628531,431.81277458254146
3873.4678,1.5015443528404318,384.5376070478631
3874.361,1.4892608689148086,472.359833444124
3875.2524,1.4760703177744998,459.37856865253656
3876.1438,1.4614808229770215,457.5822953507514
3877.0376,1.4456517156526278,486.4876953287072
3877.9297,1.4293085984397618,547.4911015633074
3878.8237,1.4129978047582574,516.4112730521942
3879.716,1.3970701504024239,521.7775514556859
3880.6108,1.3813529036097703,486.6359076506003
3881.5037,1.365471845373436,553.1848913838479
3882.3965,1.3487297910403855,557.8974627057222
3883.2917,1.3305054732279846,572.3500968239567
3884.185,1.310744507837672,529.6317132739558
3885.0808,1.2897833975782333,670.5633233346155
3885.9746,1.2686468539550455,653.557866382992
3886.8706,1.248462825152292,589.3017107407537
3887.765,1.2306927378211316,754.6163260897446
3888.6592,1.2167139527022621,630.7963923284477
3889.556,1.2078102331774296,782.903303939009
3890.4507,1.2049489600199734,654.6308556143209
3891.348,1.2084204063336823,669.0347464696156
3892.243,1.2178459866158762,721.454645785751
3893.1406,1.232416086165346,614.1991721033813
3894.0361,1.2509022700585966,765.1773905120286
3894.932,1.2720275409177704,528.570244790901
3895.83,1.2944224272869167,557.3133892919557
3896.7263,1.3165118158271858,536.6662429776555
3897.625,1.3371322547613709,551.4539350286543
3898.5215,1.3555034881633976,520.3710829471935
3899.4207,1.371951973792714,475.7380209626215
3900.3176,1.3874088533337072,430.95008328722633
3901.2148,1.403169147387639,603.533683962418
3902.1145,1.4201010497477242,456.9281419436593
3903.0122,1.4382233248981255,464.7116416994119
3903.912,1.4571380804735097,445.24181920055804
3904.8103,1.4760309727731642,429.9050518463882
3905.7107,1.494266050401211,474.9229548166324
3906.6094,1.511246408473795,399.0206607847139
3907.508,1.5268207342341342,387.2572216039881
3908.409,1.5411981273840085,418.99636285718253
3909.308,1.554738697487023,413.408697290547
3910.2097,1.5679587945159559,395.324022928867
3911.1091,1.5810447514616983,395.87531353174603
3912.011,1.5939764164891208,369.83142632183075
3912.9111,1.606318325763863,337.31944783464945
3913.8113,1.617705434172643,349.758374951264
3914.7136,1.6280405282084554,345.1093613246017
3915.6143,1.6374239631176195,344.24680989326725
3916.517,1.6460280227585808,325.4768007237718
3917.4182,1.6537288015835432,378.6098460442853
3918.3215,1.6603631254899973,362.8172799202316
3919.223,1.665816992605614,326.48901988037386
3920.1245,1.670164589451822,318.9072849758455
3921.0286,1.6734638242437396,345.696535856408
3921.9307,1.6756612891388973,322.85846255409894
3922.835,1.6767115427831674,371.28099404704375
3923.7373,1.676645809572509,316.63968814958224
3924.642,1.675633906185882,308.05827996697064
3925.5452,1.6739553749649085,361.4247963442209
3926.448,1.671912048907193,363.56545172995044
3927.3535,1.6697102849082976,344.0569603065941
3928.257,1.6674013304280195,317.63613670318784
3929.1628,1.664893327581401,390.033331256929
3930.0667,1.6621686027522606,321.8901118704365
3930.9731,1.659310872104053,345.6052495691047
3931.8774,1.6563590604434972,364.62612116120965
3932.782,1.6529665696313114,311.08078459447626
3933.6887,1.6484575516527522,355.803416429573
