wavl,flux,ivar
3566.9744,24.0252190022893,5.9657982319977405
3567.795,23.971397878599344,5.613814193209362
3568.6177,23.931192430633107,6.149722802507141
3569.4385,23.898421115116385,5.749999480765499
3570.2617,23.86911137264819,5.279259957985095
3571.083,23.844519159012492,6.379548070657072
3571.9065,23.827786952726107,5.2085444978423485
3572.7283,23.81896000567546,4.5538105682816585
3573.55,23.814066195910506,5.293418183996592
3574.374,23.810978965576126,4.817592041507849
3575.1963,23.813155891627982,5.512615682594333
3576.0208,23.825594308857617,5.275640609274474
3576.8435,23.84816871495118,6.118127808536055
3577.6682,23.874958302923208,6.493923054716802
3578.4915,23.89865364174598,5.201393441048014
3579.3145,23.9149146003457,5.808071044886405
3580.14,23.922261118399305,5.458416969882843
3580.9636,23.92070743557702,4.871886659279211
3581.7893,23.91173027530822,5.574448734055613
3582.6133,23.898109542273087,5.547505809008139
3583.4395,23.88203505312522,5.150312319126408
3584.264,23.864052243208725,5.715735861814877
3585.0884,23.84456546872907,5.899473789653948
3585.915,23.826406229781334,5.182243487580928
3586.74,23.813435238023104,6.726934712908933
3587.5671,23.8051015796592,6.3380553521093095
3588.3923,23.794318880604003,5.620965660517459
3589.22,23.771364737625156,6.785910756529072
3590.0457,23.73033886494847,5.169428488642903
3590.8716,23.669772363109622,5.771313848631632
3591.6995,23.588272456385987,5.452168915868005
3592.526,23.48253336502833,6.282910973188247
3593.3542,23.35031691660051,5.587228061333542
3594.181,23.200204517403137,5.244556785672087
3595.0098,23.05232582186679,5.746580898995157
3595.8367,22.934456858918093,6.591941213253999
3596.6638,22.867575461758058,5.103280098312947
3597.4934,22.858537191533806,5.206890895468786
3598.3208,22.898674648794316,6.665214839685606
3599.1506,22.97114743641934,6.651200945572882
3599.9788,23.0624071626433,6.010996122105964
3600.8088,23.17304651868654,6.119955744708179
3601.6372,23.312347729842024,6.233517999537767
3602.4678,23.480216397870272,6.404872908757805
3603.2964,23.645681579882964,7.3056159419905535
3604.1252,23.7574093315024,4.767358105619025
3604.9565,23.776303722606297,5.932982377140346
3605.786,23.70490751952696,6.02371065832371
3606.6172,23.582541938837615,6.025909841368057
3607.447,23.45616864115983,5.488512078007678
3608.2788,23.354730767289638,6.041706473184628
3609.109,23.28738757312229,5.411798293158433
3609.9392,23.249203088231695,5.98737888330641
3610.7717,23.228414382324825,6.8658917213645925
3611.6023,23.21122705995798,5.38485213147383
3612.435,23.18777050777444,5.710170003441328
3613.266,23.15637462468319,6.287240397655466
3614.0994,23.119647907912128,5.846773563548071
3614.9307,23.07815354911172,4.943222004475626
3615.7625,23.028363408372414,6.096232019555016
3616.5962,22.968563218512063,6.542378784972634
3617.4282,22.904236032257998,6.7154288512492295
3618.2625,22.84568191866177,5.934547184640601
3619.0947,22.804234766599652,6.4675207227453155
3619.9292,22.787828654357746,6.2318694192746165
3620.762,22.799452217969414,6.064120833232968
3621.595,22.833773853942382,5.623266465953625
3622.4302,22.876255458345383,5.913135612231436
3623.2634,22.90648317420335,5.677743637823039
3624.0989,22.906268751340964,5.551105726833182
3624.9326,22.866404667210656,7.208964516335906
3625.7686,22.79137985084061,5.425383935504661
3626.6028,22.70107636158373,6.653953127694423
3627.437,22.623735309317432,5.815871315699988
3628.2734,22.58294731136931,6.228204036454641
3629.1082,22.58442702158046,6.803812025156196
3629.945,22.613740565163777,6.5784140975487055
3630.78,22.649821031704153,6.434469870987893
3631.6174,22.68266104229859,6.905316619043774
3632.453,22.717735778306917,6.187309255787988
3633.2883,22.764952888823423,6.864963365836695
3634.1262,22.822787287288726,5.855460008824971
3634.9622,22.874235374762883,5.937025666907869
3635.8005,22.89992149383235,5.162753009947776
3636.637,22.89243777681703,6.056290317130159
3637.4756,22.860519230811768,5.768806151182904
3638.3123,22.81927647790841,6.666901744947225
3639.1492,22.777907827271825,5.59260439209188
3639.9885,22.73723616509977,5.261699189484091
3640.826,22.696002406226906,6.196404236785807
3641.6653,22.65558549238405,5.787895971837852
3642.5032,22.62047771455144,6.800684705013713
3643.343,22.594786118227848,5.7497078735456135
3644.1812,22.58160793991759,5.658256756088182
3645.0195,22.582442154544324,6.7487079946378
3645.86,22.595740466705944,6.320367696502449
3646.699,22.61443452203289,5.722314921977162
3647.5398,22.62753402131365,6.342589655602777
3648.379,22.625873069154814,5.778917149377994
3649.2202,22.6077720390116,6.5782795706369575
3650.0596,22.578669531830435,6.8414225110850415
3650.8994,22.545365981840614,5.828094085269852
3651.7412,22.511825996956876,6.98490662982139
3652.5813,22.479812570677925,6.278182329069597
3653.4236,22.45100170050912,6.078918275656383
3654.2642,22.428559916800406,5.925896841503267
3655.1067,22.415923927962734,5.196758321820537
3655.9475,22.416684988849642,7.119097004384994
3656.7886,22.43456087778502,6.46001940940804
3657.6318,22.473538792531787,5.30112682884004
3658.4734,22.536131598295658,6.654539841888069
3659.317,22.621352180400695,6.057805853827526
3660.1587,22.720661573627194,6.277891296504814
3661.003,22.819532442821856,5.501484620959351
3661.845,22.901160054920297,6.4527327116238835
3662.6875,22.95670121508479,6.331213526285146
3663.532,22.98855120160437,6.187855404832276
3664.3748,23.0062756343018,5.762560636191879
3665.2197,23.016775886848887,6.388258793920723
3666.063,23.016937999742723,5.614483837177885
3666.9084,22.997228224248886,7.172017113687091
3667.752,22.95277943348061,5.7120825295620445
3668.5977,22.890842477425796,5.93441220855006
3669.4417,22.828687452626042,5.979159358342295
3670.286,22.781420463430027,6.181395582337953
3671.132,22.752015406765477,6.13309246318783
3671.9768,22.729425169691734,6.004188606404244
3672.8235,22.696005826765226,6.366327539222143
3673.6685,22.64026974687095,6.617418041057105
3674.5156,22.564390936037906,5.117239392301285
3675.3608,22.4836302153992,6.096299681284647
3676.2063,22.41453241434935,7.208956090872166
3677.0542,22.36371364479824,5.998160721483864
3677.9,22.324085214141157,6.823867196991015
3678.748,22.280976530314383,5.972094526984964
3679.5945,22.225680180486673,5.2217545680967765
3680.4429,22.162535180952247,6.846758732755715
3681.2896,22.1065492342757,6.545194489829753
3682.1365,22.07005059049954,8.083254508693393
3682.9856,22.05234982926238,6.214747318388058
3683.8328,22.040982484835308,6.612202730186306
3684.6824,22.024283969316013,6.3004520944137985
3685.53,22.00313406855674,6.759355096488543
3686.38,21.988838980810673,6.205099927343046
3687.2278,21.991463908274838,6.95563880071881
3688.0762,22.010721974609545,6.944988377216672
3688.9265,22.038035299921013,6.82876804548582
3689.7751,22.063763274902577,6.501545803022209
3690.626,22.082054600854182,7.675353385880769
3691.475,22.089849148998052,6.70575319875146
3692.3264,22.086082358611336,7.62064571113871
3693.1758,22.072967508556403,6.16754096556627
3694.0254,22.057649552474835,6.3081543318376845
3694.8772,22.05055875395425,6.555081876228509
3695.7273,22.06010360448294,6.790519299164196
3696.5793,22.086942821308508,6.665680374390008
3697.43,22.12208450566754,6.6247593833829725
3698.2825,22.151094439653434,6.985982239531676
3699.1333,22.16075778617261,5.783528654490748
3699.9841,22.14501797635274,6.9036229844000525
3700.8374,22.105019664421757,6.2592574768545415
3701.6887,22.045841740749015,6.531675720361363
3702.5425,21.9717315571237,6.606278664459774
3703.3943,21.88697094280258,7.004764747701814
3704.2483,21.797142770577498,6.959778471388245
3705.1003,21.712111624290372,6.4248128652823375
3705.9526,21.641662540320453,8.199352740752989
3706.8074,21.59136348890899,6.331198642365202
3707.66,21.56023485243792,7.441942100204919
3708.515,21.541740332382577,7.020389422683803
3709.3682,21.529071202493977,7.017288541287793
3710.2234,21.518580340388535,6.863005125410049
3711.0771,21.51062029146004,7.751343129651466
3711.9307,21.506364347891815,6.933977403461501
3712.7866,21.504228582284227,6.756615391719522
3713.6409,21.499196480730017,7.463614317041852
3714.4973,21.48548154888109,6.708499815174939
3715.3518,21.45988357713526,6.742975026707466
3716.2085,21.42269244326664,6.063867846786324
3717.0635,21.377466821785905,7.303116679778529
3717.9185,21.329013189163696,6.8296336659676244
3718.776,21.28223939225882,6.954749688176254
3719.6313,21.24263143938485,5.9454739067113955
3720.489,21.216769358383463,6.175896837113798
3721.345,21.212640893099223,7.54067096589983
3722.2031,21.234266374664024,8.031813486718386
3723.0593,21.274748301529133,7.226640470907728
3723.9158,21.31495562218393,7.259635154253134
3724.7747,21.331508606181995,7.085638874102277
3725.6316,21.31006022647593,7.104102252859332
3726.4905,21.25386865371181,6.936873351441489
3727.348,21.1807986956612,6.489196769389142
3728.2073,21.11089831053488,7.070680985977902
3729.065,21.05703098438447,6.703583839023154
3729.9229,21.02148959448466,7.4860203772558425
3730.783,21.000125096588416,7.985922226878884
3731.6414,20.985814976719677,8.216522716391907
3732.5017,20.969975578619962,7.921917034909891
3733.3604,20.945511415827163,7.459037048846816
3734.2214,20.910404434687823,7.946250793839674
3735.0803,20.870598033371476,6.651971258135411
3735.9417,20.838078102798413,6.7259751962411585
3736.8013,20.827346579201592,7.30724409277789
3737.661,20.848680559681686,8.482752020190924
3738.5227,20.902328715177315,6.569510179590029
3739.3828,20.974941870130046,6.253247637955611
3740.245,21.044143666624944,6.98510354841688
3741.1055,21.086013841588326,6.592889483121875
3741.9683,21.084518241829528,7.707269479301267
3742.829,21.035511047816303,6.473813927023204
3743.69,20.947642034541026,7.788242601373736
3744.5532,20.839210320536406,7.9299704691129325
3745.4148,20.73369985076314,7.6845826440575
3746.2786,20.650842897802306,7.9286437248922095
3747.1404,20.60295687232499,7.894925920518376
3748.0044,20.592468954816034,6.965418918045239
3748.8667,20.615497958445104,7.625331549548093
3749.729,20.664408621586585,8.052592591444903
3750.5938,20.72863564529457,7.145572820219941
3751.4565,20.79284761446578,7.189991339670395
3752.3215,20.83972850689585,7.01577945737845
3753.1848,20.855384646247586,6.601229381630453
3754.0503,20.83725169123924,8.082496855797745
3754.9138,20.79504281206961,7.995540058438625
3755.7776,20.74417574406413,7.479352326764278
3756.6438,20.69729186575866,7.998161778878009
3757.508,20.660009968951123,7.811837128389708
3758.3745,20.630152804973754,7.78304336369352
3759.239,20.60083111642409,7.182897323738719
3760.106,20.56304930218067,7.146390165028864
3760.971,20.51084475140139,8.664386343939203
3761.8362,20.445170968974356,7.557871046109156
3762.7036,20.374923630312914,7.330451153147553
3763.5693,20.311834725773295,8.158882070065005
3764.437,20.260396825807327,8.010642534002114
3765.3032,20.214910074007886,7.067453254988673
3766.1714,20.16449043452201,7.711880485049542
3767.0378,20.104128276733938,7.139521975881259
3767.9043,20.038221110118513,7.909998676795633
3768.7732,19.976006756665477,7.507132629064194
3769.6401,19.925167193609983,8.395823134907081
3770.5095,19.888696213847922,9.13995470133601
3771.377,19.868230091493416,7.410997188725742
3772.2466,19.865113790643022,7.8351762030227805
3773.1145,19.879797915261083,7.926214077713786
3773.9824,19.909775413363924,8.186651478336461
3774.8528,19.94953246641295,7.763542696551034
3775.721,19.992461319155677,7.597163581932652
3776.5918,20.035642786433883,8.29755066768113
3777.4604,20.081140836778665,8.372302843604139
3778.3315,20.134132259700863,7.90240203318155
3779.201,20.195471790657685,6.838979837688406
3780.0703,20.25887304019623,7.067267081578582
3780.942,20.313947578624905,7.28407001309417
3781.8118,20.352810341016973,7.310555564184825
3782.6838,20.374641379781835,7.516629490352901
3783.554,20.383031467877792,7.198978809616635
3784.4265,20.382281431638866,7.981418538504506
3785.297,20.374700099267468,8.207211792374991
3786.168,20.36007568391119,9.280756996837422
3787.041,20.336116077748454,8.439616978139833
3787.912,20.300322043642392,7.509143099492477
3788.7856,20.251185684426588,7.427960876432288
3789.6572,20.18837921091584,7.2874418254595374
3790.531,20.109252290130296,7.556062847470168
3791.403,20.009347454525503,7.872840477572544
3792.2754,19.88495879210387,6.895213907898793
3793.15,19.738963140543625,8.874420779002035
3794.0225,19.584103030430736,8.16315719561469
3794.8972,19.43650073065226,8.439634404650805
3795.7703,19.311099705558572,9.231958696351187
3796.6455,19.214340768415084,8.995302822961433
3797.519,19.14755233189585,9.594786351851344
3798.3926,19.110394540845892,8.348318317192515
3799.2686,19.105220810602948,9.118645934449408
3800.1426,19.135460257292966,8.585847159623146
3801.0188,19.201338407126794,8.178828925834997
3801.8933,19.296447492433508,8.041731734004873
3802.77,19.40992942208474,8.929506158979025
3803.6448,19.528649542391275,7.141389266096856
3804.522,19.642632178132082,8.696661370921397
3805.3972,19.74403081962742,8.989196337681907
3806.2727,19.82899185644761,9.352924758066802
3807.1504,19.89678178620121,7.274360470505389
3808.0261,19.949813831358416,8.433383292971174
3808.9043,19.993434408370625,8.014361003870015
3809.7805,20.031622169244656,8.022906889054003
3810.659,20.064802715735844,7.8279189029951635
3811.5356,20.088821625752587,7.210034947839808
3812.4126,20.098957716572745,8.413061244247015
3813.2917,20.09492533739484,7.5983245272321795
3814.169,20.08398969970153,7.776302571159577
3815.0483,20.077584477683082,8.419628410002549
3815.926,20.083154147426235,7.813456560652544
3816.806,20.097938551122827,7.513243624339157
3817.684,20.11051056863509,8.228943405113839
3818.5623,20.10818793673147,7.679080262171941
3819.4429,20.08260655783276,8.735081698731282
3820.3215,20.031051084771857,8.030633597473361
3821.2024,19.954394018945187,8.71891615079971
3822.0815,19.85714834331622,8.863260847170656
3822.963,19.745944083211167,8.213370634640265
3823.8423,19.62988763922686,8.717081380905084
3824.722,19.515826831719142,8.367497977812889
3825.604,19.406106062609705,8.805044971361415
3826.4841,19.298353796076846,8.344487781789622
3827.3665,19.185150907449597,9.151725946400758
3828.2468,19.05908594694095,7.978418795222611
3829.1296,18.91324981193553,9.183815563729981
3830.0105,18.745596292694188,8.73418161429134
3830.8916,18.557174479063725,9.262121240266307
3831.7751,18.35284509330065,10.430564150653856
3832.6565,18.143067891978855,8.860135403417857
3833.5403,17.940989810083245,10.040907962887253
3834.4224,17.76718186776672,10.322213238016625
3835.3064,17.643628170519786,11.147657958669361
3836.1887,17.589603967221336,10.644580439636355
3837.0713,17.611084773086866,12.166102322986593
3837.956,17.698614782496268,9.247693468993898
3838.839,17.831958703353457,10.553383893066558
3839.7244,17.993618822225198,9.44963777674776
3840.6077,18.174184337146187,10.535278695898349
3841.4932,18.371759329023966,9.068682242885988
3842.377,18.578670533312557,8.494738644103828
3843.261,18.7791140505945,9.107331505769714
3844.1472,18.953265989033422,8.534734809586203
3845.0315,19.08810127725268,8.767877431396048
3845.9182,19.18785293045561,7.560510269284541
3846.803,19.26815980748945,9.060993824422154
3847.69,19.34682875430471,8.027600704903303
3848.5752,19.43222985417387,8.402641298835944
3849.4604,19.523094595971465,7.287267492079488
3850.3481,19.61368203105741,8.57198695570029
3851.234,19.698795844529613,7.652134545368265
3852.122,19.77671283211716,8.702344139081504
3853.0083,19.84537020305923,7.8411312274916805
3853.8967,19.902369649823772,7.770936461455915
3854.7832,19.94514720830037,8.717257056492357
3855.6702,19.97452402476926,7.676984558819554
3856.559,19.99412071546002,7.644639844223527
3857.4463,20.00673369015431,8.053240521572187
3858.336,20.010711859004896,8.966018915683216
3859.2234,20.00095729269398,8.136972657256718
3860.1135,19.97551753612659,7.466492545086561
3861.0015,19.941039812028183,8.903577284855706
3861.8896,19.909573706437314,8.337145736612525
3862.7803,19.89016954712225,8.77148266283107
3863.6687,19.88321589704414,8.445826049343452
3864.5598,19.881892504370985,8.553348846817151
3865.4487,19.877688457654198,8.44368793784959
3866.34,19.86312560467758,8.284271081028256
3867.2297,19.83178954147584,9.048041029859084
3868.1213,19.77874130897328,8.08379704197607
3869.0112,19.7041213653769,8.1823939023932
3869.9014,19.61458291077091,7.92789664558077
3870.7937,19.521273903669393,9.957943559995092
3871.684,19.434949173075996,8.33188833217898
3872.577,19.359655023583805,8.539780199993599
3873.4678,19.293599194849,8.505735573615784
3874.361,19.230912951766783,8.0986780643515
3875.2524,19.167902229440383,9.603483635057756
3876.1438,19.105199629505407,8.569730257289555
3877.0376,19.046242623622252,8.653890087078898
3877.9297,18.988899191254593,8.770402595126507
3878.8237,18.914070931881596,10.365945126858161
3879.716,18.78758138562365,10.037757807895742
3880.6108,18.577047956919717,8.714801740404106
3881.5037,18.27784350782661,9.385492752979074
3882.3965,17.91475655468976,10.016110989843156
3883.2917,17.523450927141372,10.271680481013655
3884.185,17.13114095137017,11.146219833292202
3885.0808,16.743565182366034,9.956737276101522
3885.9746,16.363848478744153,11.354197985474693
3886.8706,15.998886769452618,14.138982940968615
3887.765,15.671567877506796,13.753407315377283
3888.6592,15.411250749680097,13.280035537005734
3889.556,15.247989525974148,14.545669160359461
3890.4507,15.203620475791947,15.657804572882624
3891.348,15.281833044440386,15.118448366618107
3892.243,15.466720964311202,13.448005042099789
3893.1406,15.729054627588463,13.80358329683814
3894.0361,16.031565069286312,12.730517878728984
3894.932,16.342503276137453,11.53927309184804
3895.83,16.640309285460425,10.504923593935652
3896.7263,16.914687468651906,11.05845206040976
3897.625,17.17061139530171,11.460133912191827
3898.5215,17.41723592058811,11.152423244946348
3899.4207,17.6653329854382,10.68710884551863
3900.3176,17.915895531137302,9.538611028653332
3901.2148,18.163825543705556,8.565465658901989
3902.1145,18.399124953307314,10.072198126835891
3903.0122,18.61035475163909,9.639158100107664
3903.912,18.792964611601597,8.874015585173899
3904.8103,18.947622732046884,7.986496887912978
3905.7107,19.082296699070838,9.201281780997894
3906.6094,19.205424924723623,9.139230092621505
3907.508,19.323419518938657,8.745865560414156
3908.409,19.437014807982735,8.33184669897559
3909.308,19.54067125824663,8.798813147122681
3910.2097,19.62752136652334,8.296766663453699
3911.1091,19.692536635735838,8.428950056798781
3912.011,19.73807980491071,7.207293539864604
3912.9111,19.77268373980246,8.119844231694918
3913.8113,19.808246507796003,8.820222540571969
3914.7136,19.854503400037977,8.205465945923628
3915.6143,19.914616769045207,7.596450796822103
3916.517,19.98466562140718,8.285535441323688
3917.4182,20.054516889183233,7.933494635812415
3918.3215,20.113146559013458,7.591713359404665
3919.223,20.152359754458477,7.3545781545749
3920.1245,20.17092735576991,8.184394349554928
3921.0286,20.173699321612002,8.437880640888016
3921.9307,20.168498787825552,8.084041862198777
3922.835,20.16245831692851,8.218070130160768
3923.7373,20.16039438274554,7.919844123019816
3924.642,20.1648276435406,7.945764468086685
3925.5452,20.175763418039807,8.274498332542628
3926.448,20.189865883276816,7.460977844746187
3927.3535,20.201218786431564,7.27160643502476
3928.257,20.2046208467555,7.764367348822824
3929.1628,20.19890195517429,7.233302152194127
3930.0667,20.18559532037074,9.748644121703673
3930.9731,20.163860441754615,7.530910800672783
3931.8774,20.128362684677956,8.270811315517294
3932.782,20.074118423157064,6.746184432901015
3933.6887,20.00596895793227,8.084114375563919
3934.5938,19.942343041828618,8.420597307054248
3935.501,19.904610661522245,8.81235078178267
3936.4062,19.902325458199797,8.155450141534269
3937.3142,19.92578023974804,8.034784265163369
3938.22,19.95393737876728,7.9276790201047795
