wavl,flux,ivar
3566.9744,15.1119778193016,5.949933843744113
3567.795,15.214914457762962,5.1329566665045725
3568.6177,15.251203698069572,5.385316255527133
3569.4385,15.22215603474402,5.599661044916056
3570.2617,15.149851017157376,5.337814196880721
3571.083,15.064034291855181,5.102128786429733
3571.9065,14.985949269225857,5.390237101718827
3572.7283,14.921969769150158,5.42923556566315
3573.55,14.865499559898758,6.3205089501974
3574.374,14.807872322644968,6.21457141820515
3575.1963,14.747269964991599,6.7490502042026055
3576.0208,14.688622364732137,6.391464841667468
3576.8435,14.639851980325595,5.466266596765296
3577.6682,14.605408358275373,5.734380843753281
3578.4915,14.58330473654346,7.2929821028385415
3579.3145,14.5629589933919,5.505243955230619
3580.14,14.528391148792156,6.8398762327639915
3580.9636,14.467358997755833,6.15037050761211
3581.7893,14.380548827778902,7.063057889786926
3582.6133,14.285898926129217,6.595621637657979
3583.4395,14.21088705901381,6.392111262766543
3584.264,14.182325121534682,6.365236877618815
3585.0884,14.214176289552782,6.316479793211527
3585.915,14.302593197817,6.317063325041487
3586.74,14.424888290149784,7.2777403820561775
3587.5671,14.5482572187077,6.562244789878132
3588.3923,14.640205588859097,6.222133927626631
3589.22,14.68225688508133,5.650985046060954
3590.0457,14.672248125513747,5.409135199876799
3590.8716,14.620066475825757,5.812416818694907
3591.6995,14.537970254549094,5.9494220294085265
3592.526,14.436621438542856,6.699013836213373
3593.3542,14.325248254648937,6.698614651424619
3594.181,14.21648339035147,5.926388230576482
3595.0098,14.123602398001971,6.065373424783041
3595.8367,14.056999363302163,6.64382233559982
3596.6638,14.017753261302063,7.612374864038283
3597.4934,13.998872575231522,6.110348073028036
3598.3208,13.989663513348223,5.396014310010715
3599.1506,13.980494754477531,6.422432952638716
3599.9788,13.966665891925546,7.427810605503286
3600.8088,13.949740493481153,6.314716416693
3601.6372,13.935936011255706,6.875093599139423
3602.4678,13.92974557199248,6.133088610589769
3603.2964,13.927859119666397,6.877155617997576
3604.1252,13.92016189925137,6.638134826293372
3604.9565,13.90012889132082,7.041731636343163
3605.786,13.875821823715246,6.980744668629935
3606.6172,13.868936767799335,7.514264005917533
3607.447,13.901213960492028,6.391646056636803
3608.2788,13.97805064435344,6.123807095050828
3609.109,14.081412542185916,6.24400348343715
3609.9392,14.178507271151556,6.569047096229036
3610.7717,14.237331452539479,5.217184529030985
3611.6023,14.241126110535726,6.310629388133657
3612.435,14.194746683668416,5.8691344443993785
3613.266,14.119076975191875,5.936511567542426
3614.0994,14.0385538768838,6.343112642767364
3614.9307,13.97116239669767,6.1018679431021985
3615.7625,13.921731843265173,6.527054947941825
3616.5962,13.884637217831614,7.978821547617791
3617.4282,13.850847807768783,6.507904767864074
3618.2625,13.814806939687973,6.7689366323696785
3619.0947,13.777618048366342,7.37933058259521
3619.9292,13.742947078122668,6.2901467388168
3620.762,13.71298683545212,6.108580555715705
3621.595,13.686638316459208,6.68053136942835
3622.4302,13.661581443368055,6.8701031937431685
3623.2634,13.635418726328348,7.485053524314449
3624.0989,13.604495243618889,7.1765230572176915
3624.9326,13.564987782898848,6.649492488018232
3625.7686,13.515537886084974,7.024658851378388
3626.6028,13.460737316351949,6.725766122637309
3627.437,13.408574087936477,6.432167307166156
3628.2734,13.364866117243135,6.868592994217097
3629.1082,13.328591557801914,7.058704580827728
3629.945,13.291788828777563,6.798679475721709
3630.78,13.246443654544251,6.820069893983846
3631.6174,13.189804250938595,7.353479780339249
3632.453,13.125922662189518,7.8872306342249
3633.2883,13.059940216398209,7.786168207407358
3634.1262,12.994248266457726,6.694208612907054
3634.9622,12.929991344209476,6.608964458061756
3635.8005,12.869774015745985,8.728567313309629
3636.637,12.819942898286495,6.327278893595986
3637.4756,12.784974888980829,8.122180964484974
3638.3123,12.76307698345785,8.087383393682089
3639.1492,12.745480294065748,9.012059477101273
3639.9885,12.722681844344503,7.712150828888745
3640.826,12.690741052358815,7.581439574632449
3641.6653,12.651726390798,8.074821748116952
3642.5032,12.610341578831918,8.382966798649452
3643.343,12.569410997149731,6.779231403317679
3644.1812,12.530040283460972,7.992540739085173
3645.0195,12.493086395925596,8.166499340115484
3645.86,12.461211352267377,7.702600338259714
3646.699,12.43858835489099,8.794226144555983
3647.5398,12.427958373756011,7.828928774065261
3648.379,12.42829966982843,7.99299380104965
3649.2202,12.433640442653015,8.310616101111366
3650.0596,12.434695456366908,6.9886998601466095
3650.8994,12.422440620819104,8.405846008326836
3651.7412,12.39186084820708,8.02869503212747
3652.5813,12.344868133081837,8.114083716887857
3653.4236,12.289406147139806,9.12251094504392
3654.2642,12.236663488888354,9.205960134460824
3655.1067,12.195462433931791,8.197709577373177
3655.9475,12.170427804663369,9.155937048786814
3656.7886,12.16166360715317,8.737464423978935
3657.6318,12.16679192697827,7.668997499332855
3658.4734,12.18198416154236,9.45234968361639
3659.317,12.203040323920215,8.76145069331007
3660.1587,12.226237984399864,8.250222444427349
3661.003,12.249040499398774,8.267929849113125
3661.845,12.268787489123811,9.225928630432001
3662.6875,12.282416463278585,8.766811063582137
3663.532,12.287313296934942,8.66689422767535
3664.3748,12.283598706199328,7.98244744246596
3665.2197,12.27495432753065,9.01837598018699
3666.063,12.26692193432987,8.141289552478975
3666.9084,12.264005388421847,8.59251568159064
3667.752,12.268038950229474,10.018716888041576
3668.5977,12.278099027145867,8.113777562836558
3669.4417,12.291032694623889,8.34400490360618
3670.286,12.30194780177277,8.663852362825383
3671.132,12.304889481545224,7.544193322506581
3671.9768,12.295212533589947,7.313569993934324
3672.8235,12.2729722785491,8.808281484376936
3673.6685,12.244699926074887,8.73060604297986
3674.5156,12.22040439511682,8.098489487096481
3675.3608,12.207863316889707,8.43973756850792
3676.2063,12.20692666806129,8.405402636850154
3677.0542,12.2097648284087,8.774102369622842
3677.9,12.206340031022554,7.59410829568756
3678.748,12.19135934737763,8.782346534473223
3679.5945,12.16747472193554,8.702568086124174
3680.4429,12.142717902964696,9.647455337600043
3681.2896,12.125698407743768,7.998843204234577
3682.1365,12.121101814989217,8.481994529532592
3682.9856,12.128846960410856,8.285951292016454
3683.8328,12.145307641066772,8.402637879450293
3684.6824,12.16529410854332,7.564159394107408
3685.53,12.182514828021432,10.018508848457303
3686.38,12.190407752205909,7.345657475144832
3687.2278,12.183937680445657,8.425031745028223
3688.0762,12.163200077832009,7.592327584362374
3688.9265,12.135060919889018,7.9850877292896865
3689.7751,12.11098494166829,9.511510359188796
3690.626,12.101005933901774,8.85416317550536
3691.475,12.109255405021825,8.640523530183868
3692.3264,12.132715547155643,8.21642852789508
3693.1758,12.163141513174601,9.251196286465415
3694.0254,12.190489280742973,9.826458656024982
3694.8772,12.205785460955349,8.958432425022707
3695.7273,12.204132095549959,8.097373841699506
3696.5793,12.18695272184331,9.096339365559535
3697.43,12.161199969335858,9.35074542661961
3698.2825,12.1352850854231,8.752784430864978
3699.1333,12.114946665356927,8.84506182462849
3699.9841,12.100652344065196,9.481586545600788
3700.8374,12.088509766993,8.828894757897324
3701.6887,12.07292398875594,8.38505216851489
3702.5425,12.049450420132438,9.324382736611849
3703.3943,12.017462873429238,8.111385772258714
3704.2483,11.979947417666397,9.86622212630676
3705.1003,11.942216573882945,8.764386104171889
3705.9526,11.908666192693916,9.761054366546462
3706.8074,11.88153770379913,9.49223331017324
3707.66,11.861216597643953,8.595929787956187
3708.515,11.846526234880864,9.216171732358452
3709.3682,11.83526735372165,9.167346245793365
3710.2234,11.823408379932674,9.013869909311468
3711.0771,11.805636595749743,8.646019301707021
3711.9307,11.77708457892675,8.489015844015366
3712.7866,11.735771417115554,9.773570852961042
3713.6409,11.684438166492345,10.592813873293297
3714.4973,11.62881766090533,8.373816899200362
3715.3518,11.57567160974584,8.130619253561687
3716.2085,11.529141003563671,10.277637092380669
3717.0635,11.491165165796753,11.226836992862786
3717.9185,11.461980108249069,9.805928522868607
3718.776,11.441553341672082,10.487933378100303
3719.6313,11.429210731562323,10.057693639512946
3720.489,11.42224363455897,10.421830338501733
3721.345,11.416323619845091,9.93313113317412
3722.2031,11.40678919018733,9.856597385735084
3723.0593,11.390102862934299,9.850364531518418
3723.9158,11.364084537489617,10.470789891898786
3724.7747,11.328288367451318,9.986217632983855
3725.6316,11.285489949795092,8.63664937902078
3726.4905,11.241549933806432,8.4288250353736
3727.348,11.20415537824652,10.278814258544855
3728.2073,11.178186656955942,9.21716034494489
3729.065,11.163242729449099,9.70641256060997
3729.9229,11.15371865605127,9.67497829906924
3730.783,11.142578765432457,10.506844801225352
3731.6414,11.125332288409572,11.284523671400123
3732.5017,11.101861628240078,9.485411741725882
3733.3604,11.076198360089702,10.707005531896371
3734.2214,11.053756516361679,11.746531841748984
3735.0803,11.038793396465687,10.25719344801591
3735.9417,11.031918894551012,11.071006489080151
3736.8013,11.030081825124883,10.414799326123717
3737.661,11.027597810044908,11.553754909301707
3738.5227,11.018502220078553,10.209652145033376
3739.3828,10.999746771590267,10.835684008497756
3740.245,10.9734600505721,10.511543133047835
3741.1055,10.946407896029742,12.095783683004917
3741.9683,10.9248784133486,10.541050047891328
3742.829,10.910335814195207,9.41666791248208
3743.69,10.898479386189003,10.825810820274356
3744.5532,10.883381706463682,10.527961399410726
3745.4148,10.862083816611106,10.29599842238196
3746.2786,10.83581899504708,10.518635465323909
3747.1404,10.808895879304712,10.596977826953925
3748.0044,10.78581402591804,10.32219380730827
3748.8667,10.769652425426605,10.468909298074124
3749.729,10.760168044528436,10.558438571767763
3750.5938,10.753781634988949,9.743034774640904
3751.4565,10.745659809035157,9.935975530112287
3752.3215,10.73322270925268,9.613128574438832
3753.1848,10.718670360249158,10.253457926629634
3754.0503,10.707461421415289,12.403020134456245
3754.9138,10.704298928170882,13.307283946531529
3755.7776,10.709340245540995,11.938941226585296
3756.6438,10.718298867087066,11.052521761432514
3757.508,10.725286056319133,11.746641669556572
3758.3745,10.726105689729044,11.684534477224082
3759.239,10.719488768664043,11.109480897851139
3760.106,10.706852437995858,11.279195500003107
3760.971,10.691399099990937,11.795153093939833
3761.8362,10.676175625051236,10.528637465496681
3762.7036,10.662070911483804,10.8648542601339
3763.5693,10.646941599847613,10.515422799809873
3764.437,10.626550943075422,10.87404227925955
3765.3032,10.597368271925964,11.115610072148279
3766.1714,10.558557328595727,11.882225922260092
3767.0378,10.51380454892276,11.969595466038383
3767.9043,10.470367274978784,11.833177572012135
3768.7732,10.436268914765135,11.475505580049937
3769.6401,10.416117491677982,10.940697593444046
3770.5095,10.40813305527016,11.980937436620973
3771.377,10.406580688272827,10.292338265831285
3772.2466,10.406184928635495,12.57222495123175
3773.1145,10.40536847531497,12.68609671771145
3773.9824,10.40575512655358,11.841720176730243
3774.8528,10.409607942300697,12.281890862960896
3775.721,10.41790824809661,11.663791205756274
3776.5918,10.430347100953826,10.616154505433313
3777.4604,10.445707072687892,11.023556432190432
3778.3315,10.462267445769227,10.152136411553737
3779.201,10.477517005291409,12.175938496098954
3780.0703,10.488952582244625,10.148015385464149
3780.942,10.494745050639953,11.704348927098657
3781.8118,10.494163223134763,10.39156563654176
3782.6838,10.487685024236129,11.631132434980275
3783.554,10.476952783532347,11.328817065878711
3784.4265,10.464292881213057,11.742926862303422
3785.297,10.45182890595429,11.699331275262184
3786.168,10.439815177364093,11.67735916719895
3787.041,10.426009663698768,12.882115572130985
3787.912,10.406677614695816,11.512327966811348
3788.7856,10.37846253620272,11.406863548836485
3789.6572,10.340662010997168,12.121790711929235
3790.531,10.295037369813596,12.533147879632375
3791.403,10.245588051308394,11.466652796785624
3792.2754,10.196436678653724,12.489073676971728
3793.15,10.15044722593105,15.626863588014812
3794.0225,10.107933205920661,11.597262928391512
3794.8972,10.065697981017726,12.522223510608981
3795.7703,10.020156368615307,13.460030998677215
3796.6455,9.970166526692797,11.62580799964227
3797.519,9.919836679318445,13.265870581667418
3798.3926,9.87628022783727,13.231812625741783
3799.2686,9.846273172887656,13.633590472591333
3800.1426,9.833562714447776,12.841599955474262
3801.0188,9.838154361273439,13.65405486335983
3801.8933,9.858222900187622,14.284488987796403
3802.77,9.891732787717022,11.781535573625119
3803.6448,9.93627532469258,14.143058678852052
3804.522,9.988650058313512,10.690152576159628
3805.3972,10.043011420807787,12.203358551359031
3806.2727,10.092450620034091,12.448063097584214
3807.1504,10.131507635026278,11.38546994806526
3808.0261,10.159240375257491,12.474712522163177
3808.9043,10.180240385705519,11.694321563148803
3809.7805,10.20053611297854,11.237605465129889
3810.659,10.223226692032956,12.400057255185873
3811.5356,10.246146601432494,11.968881020916953
3812.4126,10.265167193770827,13.266697390152732
3813.2917,10.279098776668663,11.618170338322003
3814.169,10.2914534902039,12.099321268141722
3815.0483,10.30668819516493,12.936392600596726
3815.926,10.323800097061103,11.288062809209405
3816.806,10.334797885718888,11.803675513500508
3817.684,10.329352016647722,12.19288000696462
3818.5623,10.302115311826608,13.062541424934397
3819.4429,10.255402776478306,12.056615505988105
3820.3215,10.196935369824942,12.584720851536831
3821.2024,10.134067262198949,12.712934123174357
3822.0815,10.071894562752147,11.994905859882927
3822.963,10.011639982048068,11.960101291147312
3823.8423,9.951879709862668,13.700196563390815
3824.722,9.888142760403023,13.466418771484967
3825.604,9.815422852166611,14.176621654890884
3826.4841,9.731966730190472,13.152153030303495
3827.3665,9.6397830082331,14.004263298160634
3828.2468,9.544814742882249,15.159522957405793
3829.1296,9.451578977927012,13.312009385981925
3830.0105,9.361914763194957,14.956320366389821
3830.8916,9.273135474466752,15.555874174381383
3831.7751,9.181331410336094,14.843905753794399
3832.6565,9.085517048094342,15.340235140036476
3833.5403,8.98814727723063,16.79670233687338
3834.4224,8.897289821724836,18.53139495614285
3835.3064,8.823356879566404,17.137412545378535
3836.1887,8.777398245525735,15.925017610707338
3837.0713,8.765748797204292,17.652927584214638
3837.956,8.787832028978034,19.444564645907157
3838.839,8.836496011190649,13.752711600604652
3839.7244,8.902863855111084,14.810858427027222
3840.6077,8.979790646435392,15.49896759924711
3841.4932,9.063773255069783,15.903382497536278
3842.377,9.151393862949053,15.495717874934064
3843.261,9.238883335688564,14.842252501544086
3844.1472,9.322376944227221,15.725135282860611
3845.0315,9.399489704671264,13.725626161255754
3845.9182,9.47165783083069,12.604590474240485
3846.803,9.54150192365986,14.06284185588898
3847.69,9.612210318772723,14.156455938497286
3848.5752,9.684890755704561,14.180251841136418
3849.4604,9.759515929241182,15.30312655866449
3850.3481,9.834723607188073,12.575842623158662
3851.234,9.907056617410944,13.17910660074996
3852.122,9.972425050994891,13.222158030596042
3853.0083,10.02592659715377,12.46588196264062
3853.8967,10.06492787686889,11.421737390192389
3854.7832,10.08918082242111,13.314424197131988
3855.6702,10.101166764851614,12.499795795374457
3856.559,10.10453309087393,13.350069453116884
3857.4463,10.103297716384327,11.714459601005355
3858.336,10.101203091556117,13.302126378349383
3859.2234,10.100867685131412,13.161430075991776
3860.1135,10.102938804417434,12.20968739837194
3861.0015,10.106042840085506,13.653912654183626
3861.8896,10.107805067506936,12.38548286820775
3862.7803,10.106081496616484,12.839734597303112
3863.6687,10.099472555769028,12.911298265091409
3864.5598,10.086692808617192,13.604711532942648
3865.4487,10.066013980258539,13.42701427120413
3866.34,10.03524716214032,14.21548992392556
3867.2297,9.99343286864356,13.829538945592432
3868.1213,9.941172182943681,12.0066292786069
3869.0112,9.880778649368272,14.045691029919874
3869.9014,9.81428442056689,14.806123670647823
3870.7937,9.743071176659468,13.507086084731428
3871.684,9.668642734602978,13.814394887527072
3872.577,9.59167088544599,14.396155997290071
3873.4678,9.513217732573578,13.628081509593803
3874.361,9.432837096379847,14.866512454763747
3875.2524,9.349825878433943,14.842347271005085
3876.1438,9.261704142959374,13.447808788958959
3877.0376,9.164957475210395,15.626246385516698
3877.9297,9.057132075185162,15.52035826525043
3878.8237,8.937273447796988,17.033870852194962
3879.716,8.808933760511358,16.95550227003399
3880.6108,8.676943115695178,13.365514783851648
3881.5037,8.546516485338335,17.02245999756374
3882.3965,8.418277665389091,18.38151770696436
3883.2917,8.28895712068149,18.509105557831305
3884.185,8.15496451127994,19.88331246383388
3885.0808,8.013420567552597,19.089078616003828
3885.9746,7.866738565336302,19.422980914491983
3886.8706,7.719787572083583,22.929278279595962
3887.765,7.5816078460218295,21.901436777842314
3888.6592,7.462721835488174,21.315558089486537
3889.556,7.375662266108312,25.12866412114016
3890.4507,7.333103975671611,26.185028209434563
3891.348,7.342009529442651,27.709125937210025
3892.243,7.400315663541467,23.261949291700894
3893.1406,7.496919443758901,23.336341580454235
3894.0361,7.6148336521123285,23.867326601433046
3894.932,7.7393346941898,20.644552001855086
3895.83,7.862516754126751,21.334975076422115
3896.7263,7.983485165152476,21.5489455646362
3897.625,8.10724940381067,19.244737229886386
3898.5215,8.237022865831564,20.540456360980265
3899.4207,8.373003386237187,20.39109239029188
3900.3176,8.509433216409908,18.667483543598586
3901.2148,8.640458514622182,14.95516952519658
3902.1145,8.763185545615482,16.009687153978426
3903.0122,8.878926971984678,16.06856615513611
3903.912,8.99362304308487,15.08392414636314
3904.8103,9.11167007371022,14.175717810088829
3905.7107,9.234668180528892,14.759034475978545
3906.6094,9.358955579288798,13.661335115236048
3907.508,9.479880307149392,14.502600437843018
3908.409,9.594124139187812,13.26587566380293
3909.308,9.700084973820008,14.380052766652838
3910.2097,9.798580698080583,13.329283428573229
3911.1091,9.889336792836446,11.562633877741133
3912.011,9.97247053204773,13.782263882484028
3912.9111,10.046970342630491,12.303287314814828
3913.8113,10.112307001743794,13.362721150994206
3914.7136,10.167986373656355,11.062910790788742
3915.6143,10.213852589138899,12.237241313475327
3916.517,10.251672262640582,12.500281798690459
3917.4182,10.28420220730986,13.072746541547335
3918.3215,10.314583496588327,12.351637838396156
3919.223,10.344193062497808,13.391629519888799
3920.1245,10.37244303985116,12.250290361434732
3921.0286,10.397024039735637,12.132997906175431
3921.9307,10.415163950269898,11.230662557190598
3922.835,10.426049893653834,12.378768513570229
3923.7373,10.432320272833415,11.840158847604673
3924.642,10.440172977433592,11.496855864179636
3925.5452,10.45599154634583,12.079018287102157
3926.448,10.481883606333058,11.718400710622458
3927.3535,10.513621247410006,12.992126218121523
3928.257,10.542659353847704,11.810113986573798
3929.1628,10.561686408918495,11.51166370989017
3930.0667,10.567794454566025,10.649032521315101
3930.9731,10.562849812530416,12.011501075405722
3931.8774,10.550885891866558,11.854420306379861
3932.782,10.535493799667753,11.630992387988735
3933.6887,10.51844099363557,12.057778052790306
3934.5938,10.49925822066907,12.533190861030091
3935.501,10.474810581325167,12.640282408902138
