wavl,flux,ivar
3566.9744,1.6523273812845922,313.4005352309187
3567.795,1.6492534838841901,298.4642880436885
3568.6177,1.6443308173114164,326.00147889118114
3569.4385,1.6384872599224851,330.86931555142036
3570.2617,1.6325923688677053,358.5602214130116
3571.083,1.627152677572683,308.2702140908623
3571.9065,1.6222869108347073,287.0969021268718
3572.7283,1.6181341373651679,287.34626103085714
3573.55,1.614818147201222,404.65463821151076
3574.374,1.6123305099969913,395.2166708322709
3575.1963,1.61064488368543,354.33012636204603
3576.0208,1.6101210274396776,362.70116150245224
3576.8435,1.6117048416176833,342.35299998718307
3577.6682,1.6163200130383908,336.41057312344486
3578.4915,1.6238302951398806,342.59277644430955
3579.3145,1.6326331879453235,331.4107811890337
3580.14,1.6402576187960498,322.8618827055152
3580.9636,1.6445179678680857,276.41641679827825
3581.7893,1.6446587843273772,327.57648694099714
3582.6133,1.6414641896554318,320.991518136139
3583.4395,1.636595374885363,323.33159329467264
3584.264,1.6316191934873,308.38735305154785
3585.0884,1.6272861213308323,349.10354625133715
3585.915,1.6236564309985693,289.88466437908517
3586.74,1.6206639392275195,278.1134135255524
3587.5671,1.6183571665131595,378.40221104714675
3588.3923,1.6167402071510286,273.4998648599148
3589.22,1.6154121948051652,321.334509009401
3590.0457,1.6136857737777046,345.5884587926721
3590.8716,1.6110017620201487,332.23026400288546
3591.6995,1.6073214658454131,290.74819259070154
3592.526,1.6031865736660194,332.4677636266385
3593.3542,1.5993254021049819,319.20295967460066
3594.181,1.5962410458556833,305.2380315125311
3595.0098,1.5938981843590727,296.0959912975894
3595.8367,1.5919490444988098,320.3024725934684
3596.6638,1.5900615330568608,335.7189661643249
3597.4934,1.5881077908225223,287.8149630112807
3598.3208,1.586065569947569,405.2186428086529
3599.1506,1.5838860471798333,274.32074025079635
3599.9788,1.5816453640313408,306.1142248383425
3600.8088,1.5795988204810683,360.0046085430068
3601.6372,1.5780701594886597,331.0979954728461
3602.4678,1.5771250489023372,326.4991313912957
3603.2964,1.5764370474313298,366.30787563944205
3604.1252,1.5753827807552918,321.9152538798153
3604.9565,1.5733840811940445,319.83977470217485
3605.786,1.5703001844904878,360.35036761897965
3606.6172,1.566520153213547,316.95932549006886
3607.447,1.5628032052749417,417.07482703388513
3608.2788,1.5599015724966707,312.6226633792437
3609.109,1.5584744993862398,348.8599883302768
3609.9392,1.559029055608984,367.43911490087373
3610.7717,1.5617886417561944,391.92689520341935
3611.6023,1.5663201453668747,320.61706884002433
3612.435,1.5715107229995964,361.8642475644328
3613.266,1.5759741310028743,320.85923499780904
3614.0994,1.5788672902724639,400.95232112241627
3614.9307,1.5801450025319352,338.18861504761736
3615.7625,1.5803176353530828,413.06062642074676
3616.5962,1.5798902068004268,403.98623964181877
3617.4282,1.5790893163643525,370.05925348746433
3618.2625,1.5778765310084597,315.77387266534686
3619.0947,1.576117372106241,373.2461900032071
3619.9292,1.573697704734484,328.413441113279
3620.762,1.570662679907148,382.0710511531861
3621.595,1.5672445334884508,312.61317794167775
3622.4302,1.563867156516485,413.5336431429603
3623.2634,1.5610440263525287,361.4659782383624
3624.0989,1.5591131491415078,441.3596067414514
3624.9326,1.5581635626887136,371.7233873201678
3625.7686,1.5580690152441592,380.52410282600766
3626.6028,1.5586317694276104,332.1830833550893
3627.437,1.5595173085525165,423.9908401257211
3628.2734,1.56008697349194,396.9984285537744
3629.1082,1.5594757211075214,312.73316181094276
3629.945,1.557062588923936,377.9848123592039
3630.78,1.5529559878416859,351.5732234051902
3631.6174,1.5479711949032027,415.34271293552104
3632.453,1.5433363781924945,329.5018206320949
3633.2883,1.5401840786990115,349.8844944427151
3634.1262,1.5392982750689115,363.0731179576726
3634.9622,1.5408514038196295,368.5412036998573
3635.8005,1.5441999175063523,385.8168644482216
3636.637,1.5479604464265337,299.52693994473645
3637.4756,1.5506184542846981,354.14760181837886
3638.3123,1.551210316023895,331.8869046272833
3639.1492,1.5497517273809807,340.6603430248989
3639.9885,1.5469801350233445,272.4292656204342
3640.826,1.5438746711929343,349.2400325066692
3641.6653,1.5411765102762682,342.54834511592384
3642.5032,1.539232102397346,427.8078821778437
3643.343,1.537935090430305,317.1738418083859
3644.1812,1.5369697619507119,435.4763398436397
3645.0195,1.5361702776863728,388.9107839701268
3645.86,1.5357624157442662,365.36614309805543
3646.699,1.5361207088479112,381.25181240077336
3647.5398,1.5371928022454322,453.59304632217004
3648.379,1.538196092083826,349.81652403646103
3649.2202,1.5380437924996586,327.2531222294703
3650.0596,1.536189377673731,379.9690380107882
3650.8994,1.5331605965308401,394.08298744433444
3651.7412,1.5302953860708324,308.93831640007886
3652.5813,1.528920767213842,307.0987898019697
3653.4236,1.5295007026007446,367.2335211689175
3654.2642,1.5313999224307995,381.28475062199084
3655.1067,1.5333440021509306,319.2607252463116
3655.9475,1.534283835468132,352.8089945781878
3656.7886,1.5341082857305208,322.90456948216905
3657.6318,1.5335262228708118,377.2658796430356
3658.4734,1.5332306436090224,399.3517275592799
3659.317,1.533098840624619,430.12560039010475
3660.1587,1.532358451016507,309.9041853588959
3661.003,1.530612567518631,323.71257967226916
3661.845,1.5286368694510066,353.9512823161874
3662.6875,1.5279005758906603,410.50996712929947
3663.532,1.5292980240753677,358.07084410411176
3664.3748,1.5323195081061798,303.17381074739484
3665.2197,1.5355317652587377,347.399273986892
3666.063,1.537664133751982,292.06481759792325
3666.9084,1.5383548308696637,380.8950325423381
3667.752,1.537997250454156,374.1288036165307
3668.5977,1.5372818506799808,337.960547428601
3669.4417,1.536848232598074,383.3855010277298
3670.286,1.5370696856435415,366.5942913582902
3671.132,1.5378733470594699,317.97656748929023
3671.9768,1.5386818685447825,361.2027858672677
3672.8235,1.5386919407113562,409.7175144037321
3673.6685,1.5373609657864495,361.809994225195
3674.5156,1.5347887617710414,369.5138128674715
3675.3608,1.531723801685711,371.9718688433443
3676.2063,1.5290347720365651,319.6982364397717
3677.0542,1.5270958144624862,334.37717879465674
3677.9,1.5255872874076457,411.3193008964208
3678.748,1.523927615926312,354.76526798323687
3679.5945,1.5219923549118026,351.58790525703273
3680.4429,1.520235806264664,347.03939078677513
3681.2896,1.5192170007567014,440.88426161420085
3682.1365,1.5190371856477798,361.5245807959915
3682.9856,1.5193717919051792,387.2778988538656
3683.8328,1.5198624717448594,395.1026417516824
3684.6824,1.5203357197452183,353.8181025280917
3685.53,1.5206452013897809,403.75719485838067
3686.38,1.5205741328506108,483.78011938813125
3687.2278,1.5200662994901488,375.12210845620166
3688.0762,1.5194987209370476,337.9644406564551
3688.9265,1.5195115566551674,356.0202715152496
3689.7751,1.5204563416072958,341.9382213631331
3690.626,1.5220886092216555,419.63372941704665
3691.475,1.5238486734219847,329.4731154156358
3692.3264,1.5254025963243019,351.6916546162264
3693.1758,1.5267259259759842,334.96022001748156
3694.0254,1.527808697685066,285.7054467284649
3694.8772,1.5283979890103363,321.2186212656102
3695.7273,1.52816317724019,406.51059400863903
3696.5793,1.5270718994801789,304.1286350353621
3697.43,1.5255636676649689,394.069218608179
3698.2825,1.524328743081829,376.0073930798803
3699.1333,1.5238840259958746,406.2551730733151
3699.9841,1.524202073696459,352.3683579283579
3700.8374,1.52473006199611,343.23378689990955
3701.6887,1.524744944273383,396.94867155127355
3702.5425,1.5237968240062263,352.55466951189453
3703.3943,1.5218494065252233,354.6724717382421
3704.2483,1.5190009775761681,390.8605538432697
3705.1003,1.5152242225624837,347.06433505140785
3705.9526,1.5104408167961214,361.7828208554038
3706.8074,1.5050029740929243,430.19667585525536
3707.66,1.4999441999869254,384.89853065392697
3708.515,1.496354942101025,415.65904982701096
3709.3682,1.4946019142184415,430.12961613343197
3710.2234,1.4939213917386374,351.28137301089527
3711.0771,1.4930664895942356,328.91607563985224
3711.9307,1.4912422859072654,470.2969545056976
3712.7866,1.488468300881216,412.26188210013544
3713.6409,1.485225092347126,471.24209342524307
3714.4973,1.4819486339971295,395.9728366596443
3715.3518,1.4791115745794337,419.8377118311726
3716.2085,1.477398974473326,385.9968793883197
3717.0635,1.4775490955572712,386.08104385026627
3717.9185,1.4796242401070345,312.61005570764803
3718.776,1.4825841124305477,390.9953468654346
3719.6313,1.4846738522582068,354.7111209489687
3720.489,1.4845429184941752,349.19437081764715
3721.345,1.4820164499013189,364.04545272896155
3722.2031,1.478017645548348,479.3030985445905
3723.0593,1.473884694793416,500.0273568837602
3723.9158,1.4705829529649515,372.1662681950295
3724.7747,1.468401198003272,414.1339244929209
3725.6316,1.4670262547941653,389.1943268816262
3726.4905,1.4658447731118591,430.95829863356624
3727.348,1.4644177300491998,352.73446408994994
3728.2073,1.4627715341331584,426.00155165988804
3729.065,1.4613733203523418,399.2322905825333
3729.9229,1.4606749330722926,429.1896321205595
3730.783,1.4606379591568563,403.46993287826825
3731.6414,1.4606284268223235,380.3306805043481
3732.5017,1.4598353678700153,485.62778353684763
3733.3604,1.4578620725117364,372.4876676361001
3734.2214,1.4549684931475033,391.7568369803321
3735.0803,1.4518950268534596,404.6388299489254
3735.9417,1.4493420581094665,372.68798516083024
3736.8013,1.4476451978736657,394.3796973807903
3737.661,1.446629198486179,445.23563528694376
3738.5227,1.4458090150061198,437.2784161478338
3739.3828,1.444684937153523,425.604947959785
3740.245,1.4429473414511946,421.0900709270781
3741.1055,1.440579769412723,421.1706253451126
3741.9683,1.437839114243293,359.5142879696894
3742.829,1.4352903717510541,414.56262070808316
3743.69,1.4336096400848553,360.1660822357123
3744.5532,1.4332575047850111,373.6520094416364
3745.4148,1.4341378532969997,415.7637626160703
3746.2786,1.4356273911858193,499.6193063826716
3747.1404,1.4370103195719413,498.49525069870185
3748.0044,1.437968542017916,380.2780063875248
3748.8667,1.438643688329319,378.26671430236615
3749.729,1.439354840416303,533.355857180941
3750.5938,1.4402635636859993,394.4184768427709
3751.4565,1.4413143490441267,427.8940735931285
3752.3215,1.442459420148324,367.3959114946908
3753.1848,1.4438266279720595,406.6269631641553
3754.0503,1.4456530056524752,459.28153998450045
3754.9138,1.447929348810148,345.52271447438426
3755.7776,1.4501867528433032,368.52858146877855
3756.6438,1.4516147598844562,387.506118292581
3757.508,1.4514951333648565,377.32244305988235
3758.3745,1.4495994141939894,400.520961454277
3759.239,1.4462136264736274,415.9815106025527
3760.106,1.4418364540849409,407.6147455192736
3760.971,1.4369888310604293,430.4393090489211
3761.8362,1.4320695087057553,467.1595806266208
3762.7036,1.4274108843146085,517.7535754892073
3763.5693,1.4232915353774447,431.923159743858
3764.437,1.4198143311933271,428.78381553971917
3765.3032,1.4170012595809949,421.9515246991174
3766.1714,1.4148825789055668,411.6286440460936
3767.0378,1.4136911588532841,392.569964916912
3767.9043,1.4137975684964426,444.8075219745074
3768.7732,1.415466102161862,507.7314238980053
3769.6401,1.4184924709024742,501.38277733908114
3770.5095,1.422112093277244,414.19378916883613
3771.377,1.4251662712789501,393.7906870677172
3772.2466,1.4266123891739513,401.61175883594586
3773.1145,1.4258985206486932,377.8199808685172
3773.9824,1.4231863462269712,402.6383508115098
3774.8528,1.4192275525266151,368.33834889651536
3775.721,1.4151312123070225,366.95005349548154
3776.5918,1.4119547129353356,443.0728737302475
3777.4604,1.4104802190687202,406.0093087121402
3778.3315,1.4109055283108891,492.1658520292204
3779.201,1.4127441021474731,480.79161308684377
3780.0703,1.4149447245772682,407.3092317258807
3780.942,1.416336294781735,359.88941180379845
3781.8118,1.4161668008872512,346.266053176434
3782.6838,1.4144080104624979,416.95048524275126
3783.554,1.4115789756550094,434.63786180145956
3784.4265,1.4082864292705375,391.491934146144
3785.297,1.4050296920352208,451.2418401434876
3786.168,1.4022263587936121,413.7960275477346
3787.041,1.4003465942627413,440.9330381201419
3787.912,1.3997522149246,364.31759183669953
3788.7856,1.4003753730841129,455.5273908845439
3789.6572,1.4016680238650485,447.59687492448035
3790.531,1.4028541879355945,451.4075774162706
3791.403,1.4032033761728724,434.0484085791374
3792.2754,1.4021968894662475,395.6738960925211
3793.15,1.3995695101529995,444.98097593943345
3794.0225,1.3953661224519303,426.9973772302238
3794.8972,1.3898387632396016,450.0059033604394
3795.7703,1.3834756133781962,443.4206446933512
3796.6455,1.3770207411426845,462.82766233765454
3797.519,1.371725686119197,459.2126016231516
3798.3926,1.369026124600416,529.496526469671
3799.2686,1.369892956777308,467.18102330345005
3800.1426,1.3740710023287024,457.48156120388677
3801.0188,1.38004601862767,358.83624256317205
3801.8933,1.385811410411227,426.77723420287595
3802.77,1.3901015149926903,438.6562975098788
3803.6448,1.3928747576065217,590.3894375487992
3804.522,1.3950166058230922,406.89535388172106
3805.3972,1.397460762575809,462.5899406432458
3806.2727,1.4007547783604004,397.98085975618136
3807.1504,1.405093930522851,466.19018492361016
3808.0261,1.4103940844464802,427.082523202608
3808.9043,1.4162220334718394,410.8013282456867
3809.7805,1.421538064912438,367.87600154313265
3810.659,1.42504718455887,345.52163582365074
3811.5356,1.425756573730966,434.963536934236
3812.4126,1.4236489634355851,388.69600057025866
3813.2917,1.4197749702304059,401.27648948928794
3814.169,1.4158324459639657,442.6446471582975
3815.0483,1.4132289619868625,404.5174236901015
3815.926,1.4123725126670292,398.6121558332463
3816.806,1.4124899529727801,440.6664812057199
3817.684,1.4122476868158547,397.0239529558217
3818.5623,1.4105988230687794,435.51100034305273
3819.4429,1.4072322970226134,418.39065484978363
3820.3215,1.4024750887982664,416.7465315436258
3821.2024,1.3968080356892367,447.56317989345365
3822.0815,1.3906690508436022,391.1066802055191
3822.963,1.3843428775392892,449.9296078173259
3823.8423,1.3781390091996764,453.59303811715415
3824.722,1.372246347804125,474.2676578925988
3825.604,1.3666335740076072,428.4329196800605
3826.4841,1.361006462987862,438.77870875998366
3827.3665,1.3548427992073406,428.95818607518686
3828.2468,1.3478080459513062,506.23885514958994
3829.1296,1.3398628471333076,432.0946882915857
3830.0105,1.3313488736835681,425.18890825492036
3830.8916,1.3226024730996855,466.8406768228658
3831.7751,1.3138546461309508,489.4123885553824
3832.6565,1.3053827220502163,485.7415304208983
3833.5403,1.2975192455148743,482.00431995499156
3834.4224,1.2908813064559042,591.4092003713201
3835.3064,1.286158250656101,478.86182129977277
3836.1887,1.2840530392439542,595.9466604701815
3837.0713,1.2849139595791235,461.4600227684617
3837.956,1.2884911590801693,501.16686514451266
3838.839,1.2938930308421162,541.5231050356558
3839.7244,1.3001184543817246,459.89607753070754
3840.6077,1.3066128700470874,539.0992968256563
3841.4932,1.3136873802925502,536.4503796952807
3842.377,1.3221039897530478,581.713775259775
3843.261,1.3324978316792142,444.31753908423104
3844.1472,1.3447953007286864,432.45127098544975
3845.0315,1.3580846388512464,486.7582590258714
3845.9182,1.371249005778957,463.558427063348
3846.803,1.38320757278615,386.2901059737756
3847.69,1.3934549295423178,476.6397814468725
3848.5752,1.4019170675295827,431.98902661796666
3849.4604,1.4090049071148996,455.9894798184388
3850.3481,1.4152943626916312,449.71439124818494
3851.234,1.4212624112783097,422.06981084057213
3852.122,1.4272799785983599,443.04644579631264
3853.0083,1.4333734135483722,459.8686770030216
3853.8967,1.439214954012786,416.2457471936412
3854.7832,1.444083825267781,404.3556574283775
3855.6702,1.447296646867307,442.0518950311051
3856.559,1.4484708468882737,432.2171722189776
3857.4463,1.447648445150308,398.695890664448
3858.336,1.4452705513070006,399.7201711862951
3859.2234,1.4421013888063663,429.49367092136714
3860.1135,1.4389490066145691,389.4288555015261
3861.0015,1.4363779440860716,445.398202675568
3861.8896,1.4344721045119002,422.5986869110629
3862.7803,1.4330381697537908,472.47674407676504
3863.6687,1.431916327949938,413.126753351833
3864.5598,1.4310594186158883,411.9023010434082
3865.4487,1.4303966487938933,392.79533561736173
3866.34,1.4296061725807276,428.53587547135567
3867.2297,1.4280774902883924,427.8746003397681
3868.1213,1.425043748477693,414.01045916631324
3869.0112,1.4199350641198347,385.7623993603656
3869.9014,1.4126890165031474,459.7930616079653
3870.7937,1.4038853371170588,407.93577599656317
3871.684,1.3945859943702414,470.2642313583369
3872.577,1.385670464653077,441.19760674310226
3873.4678,1.3775213811584441,448.30523144525193
3874.361,1.3696907088400652,403.9096706357112
3875.2524,1.3613051572313044,460.77460943364446
3876.1438,1.351407956571308,485.6846546631206
3877.0376,1.339437027841429,457.47118405682306
3877.9297,1.3255673486259507,495.1914426825558
3878.8237,1.3104867648872789,461.2626405142079
3879.716,1.295332247350095,492.9526748519224
3880.6108,1.280956116120569,590.2369714472934
3881.5037,1.2677113480607043,471.0021170486717
3882.3965,1.2550315081783634,482.5375394367875
3883.2917,1.2418305248449664,527.0677397639876
3884.185,1.2272538013474878,562.7950523652939
3885.0808,1.2110699377161345,614.100642514786
3885.9746,1.1942271690108028,580.4047198999374
3886.8706,1.1783391386965998,648.7941129683318
3887.765,1.1654168224355475,544.9682158374646
3888.6592,1.1569565174850955,607.1813440671498
3889.556,1.1536157059708678,615.6478499955568
3890.4507,1.1551640521583242,739.8201607552348
3891.348,1.1608255484243315,617.5267983787186
3892.243,1.1697848151943882,580.4728606922596
3893.1406,1.1816108766055573,711.1337779750318
3894.0361,1.1959922506625975,562.6976220224483
3894.932,1.2126331251136704,557.0601287577284
3895.83,1.2309262671819112,500.87154748105957
3896.7263,1.2497935375602145,548.2292869976017
3897.625,1.2682525129387268,527.7229855577292
3898.5215,1.285432483628133,566.5798220206049
3899.4207,1.3012495756915232,460.9064473071773
3900.3176,1.3160624987597775,521.4787578395498
3901.2148,1.3306691636877002,422.7390569020979
3902.1145,1.3456967180506556,449.65999534711796
3903.0122,1.361128434302383,484.8017537793812
3903.912,1.3764590913699128,455.0812162015462
3904.8103,1.3906446756827284,491.77458762122274
3905.7107,1.402885505442839,455.0474769743539
3906.6094,1.4129756460296283,444.9665700904142
3907.508,1.421722606351121,403.8254107133437
3908.409,1.4304711225206896,469.7834156968439
3909.308,1.4403218445265868,473.4326029565123
3910.2097,1.4517913732469918,380.09748449979145
3911.1091,1.4646469326391216,426.22474040312824
3912.011,1.4784168250277596,384.9255965952901
3912.9111,1.4923289232116392,372.38406155983745
3913.8113,1.5055975493545892,362.12552113939023
3914.7136,1.517459993969644,357.01182548473093
3915.6143,1.5273435233008086,353.2522481966703
3916.517,1.5352731141631029,346.7685580523186
3917.4182,1.5417111643480625,327.3809165570267
3918.3215,1.5473979438039982,330.2594950580738
3919.223,1.552759899177387,346.10007490958213
3920.1245,1.5577051282221417,335.06245595011734
3921.0286,1.5617141580926441,321.14913643869045
3921.9307,1.56427927981587,332.2695020077108
3922.835,1.5653422036188744,400.02478274408907
3923.7373,1.5652810150913115,336.77538153900537
3924.642,1.5647458794750857,343.16401212532804
3925.5452,1.5644508301820632,340.7615935381633
3926.448,1.5649466328848425,360.6849684785475
3927.3535,1.566355956096766,340.7588253973082
3928.257,1.568201339775682,305.0389428414593
3929.1628,1.569625060042295,339.9876277818447
3930.0667,1.5698250556001558,337.9899624079021
3930.9731,1.5683980365591934,386.60185700032406
3931.8774,1.5652854626041912,339.11513710810476
3932.782,1.5605275079836607,375.1828989803475
3933.6887,1.5542433604901376,322.34461005022115
3934.5938,1.5468924177993941,416.0988476849167
