wavl,flux,ivar
3566.9744,11.970466645636963,4.490743991819603
3567.795,12.00688181671698,5.623161928261911
3568.6177,12.01197730381589,4.529384847490211
3569.4385,11.994945415278314,5.623181693430085
3570.2617,11.963485667119782,4.895791033034514
3571.083,11.921558325331072,4.705069026025438
3571.9065,11.870462698434814,4.39373957326996
3572.7283,11.812192144619175,5.736734294424924
3573.55,11.749866414571665,4.2693977521351165
3574.374,11.688217294008647,5.232433299515861
3575.1963,11.634041165945899,5.105170938370571
3576.0208,11.594199725670471,5.670763565272722
3576.8435,11.573801872481031,5.071402295300448
3577.6682,11.57196758875143,6.287279281874026
3578.4915,11.580671562870855,4.841860274240887
3579.3145,11.586880497411459,6.090667566753669
3580.14,11.577759854146782,5.08680752979854
3580.9636,11.546115602246195,6.04320144541903
3581.7893,11.49351001549347,5.954629647795823
3582.6133,11.431193661861197,5.125670477361022
3583.4395,11.37623282970794,5.502996781089692
3584.264,11.34621373525437,5.513622815627191
3585.0884,11.35096854211596,5.331629434968921
3585.915,11.389030725526483,5.122740160788378
3586.74,11.44845334905013,5.104176397416762
3587.5671,11.513100128501177,5.495823913488203
3588.3923,11.567420014116816,4.983599336011981
3589.22,11.60073074474522,5.79997885680949
3590.0457,11.607048944350005,5.296213748462832
3590.8716,11.585536867224429,5.649946708971539
3591.6995,11.539305299090199,5.770392437602744
3592.526,11.47529289299814,4.965193434273857
3593.3542,11.402639646501017,5.884682185249568
3594.181,11.33202603903027,5.513786186900711
3595.0098,11.272102744525943,5.905490718466489
3595.8367,11.228652174289795,5.463055839643173
3596.6638,11.20240944055185,5.736953986858142
3597.4934,11.189392469962549,5.681561292997971
3598.3208,11.181485566900742,4.085617245385787
3599.1506,11.168337295166316,4.3972270058836695
3599.9788,11.141152266251543,6.3992643918266925
3600.8088,11.096278546236519,6.1380455016130115
3601.6372,11.038280812371834,5.455854918539186
3602.4678,10.978178029544132,5.875919685116219
3603.2964,10.929639405136907,6.662633554655692
3604.1252,10.902739336087475,4.90033934036304
3604.9565,10.902418519346433,6.6811698061000975
3605.786,10.928475600338194,5.676745599172338
3606.6172,10.97600180653603,6.415395738795788
3607.447,11.035963343291577,5.235794791959548
3608.2788,11.099181202340745,5.839631615891141
3609.109,11.158915943806647,5.830741364244119
3609.9392,11.211249383725175,5.949344770946379
3610.7717,11.250148774576596,5.819966223809033
3611.6023,11.264943843960015,5.424667354650465
3612.435,11.24543642865056,5.530603429504406
3613.266,11.190369432819223,5.5418205419425774
3614.0994,11.111495021905167,5.502323878468999
3614.9307,11.02949453338038,6.442179444921649
3615.7625,10.96171133579492,5.948512284382466
3616.5962,10.91447006709191,7.137714004653715
3617.4282,10.882571660275888,6.259601930296385
3618.2625,10.85498134761533,6.357370472134546
3619.0947,10.823463281308731,6.003257055909466
3619.9292,10.786316654208138,7.28610382081397
3620.762,10.747876982561971,6.266536355561216
3621.595,10.713608497013842,6.371564279592255
3622.4302,10.686853407617178,5.549527395975573
3623.2634,10.668066414363569,5.340689419102952
3624.0989,10.655334097152561,6.031554905096141
3624.9326,10.646524253243848,6.541851615687001
3625.7686,10.641199708004345,6.007325583906071
3626.6028,10.642243051929071,6.671135689166471
3627.437,10.654433452960221,5.443947922049373
3628.2734,10.680039590629848,5.764665759942387
3629.1082,10.713616103967647,5.608768135514625
3629.945,10.741813998428492,6.482848731884542
3630.78,10.748732022828888,5.720911935588232
3631.6174,10.72538261602333,5.708152389336264
3632.453,10.67548999089728,7.04700949057032
3633.2883,10.613317349236938,6.896533267437429
3634.1262,10.555767304461428,6.560401628774571
3634.9622,10.515189765625445,6.859303876253023
3635.8005,10.495254655544054,6.577445976485534
3636.637,10.492982815273713,6.186909759828565
3637.4756,10.500763945192654,5.4549128468804
3638.3123,10.508739084679819,6.028867708793382
3639.1492,10.507688163540799,6.0372120185330225
3639.9885,10.492273421839924,5.756583689275505
3640.826,10.46295278797538,6.300956285329023
3641.6653,10.424201196939917,6.719551262629241
3642.5032,10.382026940173297,7.047361677104631
3643.343,10.341327100087755,5.979721557952492
3644.1812,10.305599953512868,6.608516585984189
3645.0195,10.275706568331714,7.035535873317568
3645.86,10.250292590602593,6.025341352714314
3646.699,10.22728627427358,6.182688576874741
3647.5398,10.204959054090407,7.937116475750994
3648.379,10.182423475657604,8.504243983806552
3649.2202,10.1587670661298,6.951881020122213
3650.0596,10.134266859411873,5.2352831189405
3650.8994,10.111291111540837,6.950685615289192
3651.7412,10.093987501322683,6.813765693144682
3652.5813,10.085749949384498,6.695841130168395
3653.4236,10.086750660128644,7.07642394591677
3654.2642,10.093655496751309,7.000339427977122
3655.1067,10.100654667293718,6.295250732161567
3655.9475,10.10166445772239,7.855406489867606
3656.7886,10.093794914366294,6.698158588798168
3657.6318,10.079904474799593,8.868563397763964
3658.4734,10.067835064670046,6.997098449709243
3659.317,10.06545757837138,6.6986023766420075
3660.1587,10.076191757378291,6.026729266610093
3661.003,10.09866478213119,8.177495198293318
3661.845,10.129509120719783,6.357572329680344
3662.6875,10.165355497899082,8.223603913240488
3663.532,10.200662901797207,6.780853371679968
3664.3748,10.225656010551013,7.476388414578579
3665.2197,10.229813001104187,7.494239472289227
3666.063,10.208535310508276,6.22503399994715
3666.9084,10.168021945408455,6.009530995106058
3667.752,10.123365489725703,7.273909514830813
3668.5977,10.089427886617946,7.336442742029906
3669.4417,10.072382532701285,7.382396424129281
3670.286,10.06545679360392,6.477090847202611
3671.132,10.054338869051888,5.985000283797621
3671.9768,10.028211681683104,5.159109233972179
3672.8235,9.988293730324724,8.225265510695783
3673.6685,9.947474805411405,6.331140760474435
3674.5156,9.920392514767576,5.87603412853039
3675.3608,9.914108505920826,6.909923314927688
3676.2063,9.924261575548446,6.999700706760854
3677.0542,9.939562691921251,7.6883893360281395
3677.9,9.948974010484976,7.02057123937888
3678.748,9.947563515095391,6.842954333418325
3679.5945,9.937280958584214,7.097568823096776
3680.4429,9.924037668103857,8.34399280143226
3681.2896,9.91362113597065,8.529611203105326
3682.1365,9.908326019419286,6.980977353588838
3682.9856,9.906214665069532,7.65993794271252
3683.8328,9.903091762737768,5.955525341662962
3684.6824,9.896184972096911,7.791230264771743
3685.53,9.886715463221927,6.872381618900988
3686.38,9.878760745316072,6.852087254905981
3687.2278,9.876250067177986,8.21037719555021
3688.0762,9.881009053115905,7.743116571407165
3688.9265,9.89379732644986,7.583163126191053
3689.7751,9.916354782905545,7.132611962528075
3690.626,9.954044650728953,6.325034541817269
3691.475,10.017553628575218,6.010859683579674
3692.3264,10.121857269741298,6.8922074548866386
3693.1758,10.272638065971716,6.709517552973323
3694.0254,10.448569877349495,7.688948744026808
3694.8772,10.594087602378842,6.93998479520128
3695.7273,10.643137034434284,2.06187295160867
3696.5793,10.565289847248552,7.701923547929439
3697.43,10.388904186381835,6.394565935295181
3698.2825,10.179755642280174,8.779855137967363
3699.1333,9.999185960395213,7.436198264837716
3699.9841,9.873250742141806,6.926649367126744
3700.8374,9.797665305052137,8.469196908839336
3701.6887,9.756779139331357,7.882370312158097
3702.5425,9.736075642086119,7.43721706758275
3703.3943,9.72627682302496,6.727968340332977
3704.2483,9.720782857933148,7.2919991596336935
3705.1003,9.714424863231573,8.099738822155075
3705.9526,9.703705694099552,6.54737784966
3706.8074,9.687771439292828,7.231660434143973
3707.66,9.668273046316251,7.751669402256474
3708.515,9.6467043301323,7.188279955612607
3709.3682,9.62195506264898,9.024760797386692
3710.2234,9.589256194157773,7.387165600042454
3711.0771,9.543299666118296,7.513341696321019
3711.9307,9.48205298639507,8.710019193078152
3712.7866,9.409631710699909,7.4077762693529605
3713.6409,9.336973378893685,7.360634040946084
3714.4973,9.277144048541462,9.217782720548241
3715.3518,9.240964175853772,9.621595253371364
3716.2085,9.231086228937452,8.399923234281587
3717.0635,9.2416126048612,8.030833602714424
3717.9185,9.261340280518343,7.831326459694284
3718.776,9.279575232194585,9.644833372452778
3719.6313,9.289750266956146,7.110139109747528
3720.489,9.289854281117124,10.274315755078465
3721.345,9.279954634220058,8.234915225636842
3722.2031,9.260547447098787,8.331824304849508
3723.0593,9.233363084840502,6.802443927504874
3723.9158,9.202425749900016,8.415000006856689
3724.7747,9.173562400618662,9.949904752278826
3725.6316,9.151867770497125,8.74198042161575
3726.4905,9.138723456225538,8.649999545959968
3727.348,9.132089287366782,10.223202348516121
3728.2073,9.128088378575574,7.889282306023807
3729.065,9.123168328098622,7.5880195495424845
3729.9229,9.115218207579725,7.34357835631938
3730.783,9.103851245958529,8.535986063365463
3731.6414,9.089963917177514,8.63355923518293
3732.5017,9.074278674754632,8.248167615679032
3733.3604,9.0563304496486,10.172247792361347
3734.2214,9.034411914903327,8.68547162129673
3735.0803,9.008274933460756,9.228519291210729
3735.9417,8.98106450582518,8.836854535093202
3736.8013,8.958949858245676,9.959804166876623
3737.661,8.946252371393452,8.717548221467238
3738.5227,8.942063895617302,8.054678777978774
3739.3828,8.94126504537681,7.842333331200031
3740.245,8.93871863539888,8.687132012352556
3741.1055,8.931959581684639,10.614492904127816
3741.9683,8.920246227769402,9.546261447907591
3742.829,8.90301322518466,7.0252576956255535
3743.69,8.879822347144225,9.48577770612287
3744.5532,8.851714839707695,9.641187529973314
3745.4148,8.822082373292114,11.088074521139935
3746.2786,8.795468768118326,8.616095951590106
3747.1404,8.77673712845889,9.835750373893852
3748.0044,8.769158480463632,10.733041560441805
3748.8667,8.773098513369451,8.977184541522423
3749.729,8.784294922383593,9.48205836024923
3750.5938,8.793875790506496,9.855785586204606
3751.4565,8.79118820841907,8.33357719866976
3752.3215,8.769651041107362,8.428373847924387
3753.1848,8.731571622257302,9.210106485260823
3754.0503,8.686930148268585,11.519017039964954
3754.9138,8.647627583960832,9.491624458467289
3755.7776,8.620495727490807,8.887742528589648
3756.6438,8.606571231663573,7.897664004649005
3757.508,8.604055022502914,8.789142232341325
3758.3745,8.610639981112547,9.660027466526477
3759.239,8.623645552236194,9.093419897644262
3760.106,8.639728606127145,9.800919054701204
3760.971,8.655405524577358,9.991084945312275
3761.8362,8.66790799787672,8.801782095096854
3762.7036,8.674394124959358,9.088156193847782
3763.5693,8.671698781866331,9.050274895771404
3764.437,8.658104836057017,8.81743605441374
3765.3032,8.63544447691201,8.847676704438568
3766.1714,8.608445450590748,10.115547471112519
3767.0378,8.582096786969844,9.024932700444822
3767.9043,8.55871885212122,9.276161711659139
3768.7732,8.538124828866248,9.413967187725572
3769.6401,8.519622920982924,9.239629800646524
3770.5095,8.503193739060785,10.739458578584035
3771.377,8.489991172331242,9.890809214162289
3772.2466,8.481379342349964,8.38154164945842
3773.1145,8.478649509396927,9.803360246604022
3773.9824,8.482196556646628,8.638951077066391
3774.8528,8.490353746273637,12.103603238705057
3775.721,8.49836382145018,9.356374064819565
3776.5918,8.499816964222273,9.400545964193626
3777.4604,8.489997027092125,9.754864157555017
3778.3315,8.468939398523805,10.542927701609027
3779.201,8.44187075999399,10.264641736152647
3780.0703,8.416278617868828,8.751893376974886
3780.942,8.398179179448276,11.86433165664543
3781.8118,8.389115241750183,9.579705587055495
3782.6838,8.385047800176626,10.110533610231403
3783.554,8.378776728306658,9.889881026573608
3784.4265,8.364110675758672,9.701630077246687
3785.297,8.33982485799892,10.024908451093149
3786.168,8.310219089840277,9.236924462691288
3787.041,8.282699374025823,11.020355622033229
3787.912,8.264135851374169,8.897049976418684
3788.7856,8.25740892490907,11.551177022801983
3789.6572,8.260515416976626,9.698720362205684
3790.531,8.267044698540047,10.684675023554437
3791.403,8.268640060030657,11.210550223458485
3792.2754,8.25871386947153,9.820010467719344
3793.15,8.235251782848513,9.805773203927984
3794.0225,8.201401669460365,10.42338645375798
3794.8972,8.162736454872825,9.975005711405084
3795.7703,8.125083001827,10.035076096954608
3796.6455,8.092712757238397,9.991600719611213
3797.519,8.069323278400152,12.805420312778823
3798.3926,8.057784840633751,10.026021366162968
3799.2686,8.059521918830812,11.328445182907279
3800.1426,8.072973223569507,11.1085174400148
3801.0188,8.093556860190581,12.341857898658363
3801.8933,8.115330296542059,10.001349179459256
3802.77,8.133583205408256,11.565146623916723
3803.6448,8.14540962867157,10.675449924746319
3804.522,8.149690616816104,8.712385986455091
3805.3972,8.1466218120325,9.810116812440887
3806.2727,8.13808750374605,10.56944372987593
3807.1504,8.127563359737122,10.284999206610197
3808.0261,8.119092931778239,10.525475363023288
3808.9043,8.115057328363967,9.895276004903007
3809.7805,8.114872387732781,10.659733537277239
3810.659,8.115665596071329,10.154057515740087
3811.5356,8.11485700710322,10.456245693761396
3812.4126,8.11211106088882,10.831550442959406
3813.2917,8.108976631992707,11.332295604813632
3814.169,8.107044736446888,12.673965483443736
3815.0483,8.106402120077313,10.964262969492998
3815.926,8.10533028725218,11.204301314973902
3816.806,8.100604923194323,11.563601771702485
3817.684,8.088465243756428,12.486514739780338
3818.5623,8.066667110411645,9.220121237143626
3819.4429,8.036865891212079,10.233181524515182
3820.3215,8.004957893818782,11.973665177531151
3821.2024,7.976706041588405,12.377823488368445
3822.0815,7.953558057418707,11.732634877913934
3822.963,7.93115701771875,11.13513747966736
3823.8423,7.9034258555194175,10.454578635691258
3824.722,7.8669849654038,12.313291148816603
3825.604,7.823655227064642,10.351030771080739
3826.4841,7.779988729720221,11.886223950562352
3827.3665,7.743241272854431,12.343287112226813
3828.2468,7.717996345569052,13.135159904444004
3829.1296,7.702818188937369,12.058794446527344
3830.0105,7.691476859190483,10.545498546496026
3830.8916,7.676581649262703,12.313160378326122
3831.7751,7.654154309694366,11.274305842121159
3832.6565,7.625690510392444,12.773904894274335
3833.5403,7.595893027461942,12.348495910647816
3834.4224,7.569498937949865,14.675255717512268
3835.3064,7.548194412542546,11.580053688159602
3836.1887,7.531092532125407,12.988784444069214
3837.0713,7.516207124202998,11.74939567574743
3837.956,7.502618738437024,13.710998914160799
3838.839,7.491816606776976,9.893496071253509
3839.7244,7.4873396294738805,12.856117614843988
3840.6077,7.492899321869195,12.672708059190164
3841.4932,7.509666536590202,14.048961695352997
3842.377,7.535148080694363,11.89524682725131
3843.261,7.564615240718481,14.848142613980647
3844.1472,7.5928409458367785,12.561803946284986
3845.0315,7.615160620600738,12.618960800409083
3845.9182,7.629313443815118,9.982288298066354
3846.803,7.636635419057145,11.745900610832212
3847.69,7.64234656190628,11.18189052668247
3848.5752,7.652641239563926,11.64112787790876
3849.4604,7.671062874412504,13.104715549152921
3850.3481,7.696376970309001,10.91259648219956
3851.234,7.722517245307143,13.210956185500985
3852.122,7.741069908547385,10.840476319697187
3853.0083,7.744145862713083,11.711159766165105
3853.8967,7.728260572395192,11.886039259526575
3854.7832,7.696417280243423,10.544559322783911
3855.6702,7.656908831967876,11.593436326995342
3856.559,7.619364348377233,12.898923698195254
3857.4463,7.590212490738425,11.227364912953302
3858.336,7.5699338679563315,14.38784519529804
3859.2234,7.555436785197759,14.049817701094614
3860.1135,7.543593890129264,12.429496186592294
3861.0015,7.5338716756693405,12.39154451629476
3861.8896,7.5269000780171265,11.891644497280554
3862.7803,7.521943948641451,11.894816883732092
3863.6687,7.51619663600633,10.95922215468913
3864.5598,7.506989007437338,12.7707688041015
3865.4487,7.494747312554943,12.567020142233101
3866.34,7.482699923596291,12.641585357949703
3867.2297,7.473858334997722,12.532593655416633
3868.1213,7.467790036618438,11.743416613466504
3869.0112,7.460929287367091,12.035438408065533
3869.9014,7.449079503500696,15.610473841285032
3870.7937,7.429498907413723,13.044483031258602
3871.684,7.401203452198986,13.51319441759078
3872.577,7.363769591088407,15.388141749863763
3873.4678,7.3177159420566,13.024570348984232
3874.361,7.264507532721742,14.231133967215051
3875.2524,7.208136717286344,15.970831263148206
3876.1438,7.153939328355726,13.329836389809158
3877.0376,7.107534155236743,12.795234707348028
3877.9297,7.073247048971951,12.774767883032869
3878.8237,7.051586065285171,15.260662938522973
3879.716,7.038781742976953,16.29238959536001
3880.6108,7.027040478464255,14.596556255638854
3881.5037,7.0077391130973625,14.84091380683439
3882.3965,6.975184974697972,14.736364651574924
3883.2917,6.9289614627913325,14.904240542715309
3884.185,6.873775361315207,13.793433405185372
3885.0808,6.815919000777787,14.215127731298047
3885.9746,6.761572783095394,15.83184955907729
3886.8706,6.714144304231191,14.049479440378926
3887.765,6.674927206461579,14.65982758932533
3888.6592,6.643291059741607,15.804150358860666
3889.556,6.6187227192997105,17.28556186600305
3890.4507,6.602073084806678,16.1493619137997
3891.348,6.5947162415365215,15.682546606033792
3892.243,6.597510806691156,20.0803691588558
3893.1406,6.610085565987956,16.15153897315015
3894.0361,6.631450428295803,19.351419988967823
3894.932,6.660859608183635,17.32370966277438
3895.83,6.697461624156991,15.458015710071615
3896.7263,6.739270910088485,17.515719095688773
3897.625,6.784026845805319,14.653641730235172
3898.5215,6.829278913781821,20.96412567374951
3899.4207,6.873643577771638,14.387380056193052
3900.3176,6.915462110554189,13.992156923601499
3901.2148,6.953667986127341,13.163105940925902
3902.1145,6.988448054754156,12.558659641605184
3903.0122,7.021964835895752,13.293020490709617
3903.912,7.05792468353987,16.322582263744625
3904.8103,7.098061343924269,13.281069131573142
3905.7107,7.140600118904296,14.2204564405362
3906.6094,7.180495733446468,13.61651515921645
3907.508,7.2136696921874,14.710004592833053
3908.409,7.239999824390953,14.588153561624456
3909.308,7.263321378097765,12.553083784431466
3910.2097,7.288654338257021,13.260916587311012
3911.1091,7.31780428824147,15.59425148240587
3912.011,7.348602061478394,15.850081894015265
3912.9111,7.376790177891411,13.041838910118093
3913.8113,7.400259372553534,12.383574584818655
3914.7136,7.420147131488627,12.739200749133452
3915.6143,7.438612856183084,13.414950552084758
3916.517,7.4564340411767915,12.28468141843227
3917.4182,7.4724704771875246,11.74858304447491
3918.3215,7.48585190092185,12.651242309491167
3919.223,7.49686365856421,13.017897577984002
3920.1245,7.506292360602467,12.095454940964272
3921.0286,7.513733641379103,13.582819070570872
3921.9307,7.517021381977098,12.057520181523127
3922.835,7.513290847933589,11.8819141569307
3923.7373,7.50080882298311,12.238454625404449
3924.642,7.480520991475613,10.595558326407636
3925.5452,7.456512318073953,12.740484878066532
3926.448,7.434257493387696,12.627412874785135
3927.3535,7.41852602977342,10.450860194973043
3928.257,7.411870977954417,14.038844858517093
3929.1628,7.413618069142576,12.577176993558432
3930.0667,7.420059127816827,14.878311482005353
3930.9731,7.425472142157413,13.545863768149117
3931.8774,7.424142349402692,13.598234393707969
3932.782,7.41283629094429,12.718321720158436
3933.6887,7.391862810224146,12.418654307380157
3934.5938,7.364405358116876,14.534653283115707
3935.501,7.333849766904513,13.513293229911065
3936.4062,7.302383837823507,12.30257739052672
3937.3142,7.270548551906191,12.534348167091746
3938.22,7.239375462676031,13.082813653473801
3939.128,7.210757349779425,13.987515713880216
3940.0342,7.187430305830064,12.598405076692872
