wavl,flux,ivar
3566.9744,1.9395994024621421,295.30518350780744
3567.795,1.932718327545041,345.86250966093274
3568.6177,1.9264841534885782,272.8804887905811
3569.4385,1.9221719556176595,261.91798224189773
3570.2617,1.9202631330290014,315.43251052515683
3571.083,1.9203748239584058,278.8705728537387
3571.9065,1.92150114791025,259.21356520397217
3572.7283,1.9225661818586854,304.29248310604856
3573.55,1.9228402659935784,292.75497378102403
3574.374,1.922032015631636,273.7644473172038
3575.1963,1.9203326598418773,339.4729049581601
3576.0208,1.9184646644516612,267.9490635784881
3576.8435,1.9174734020316635,279.0848022820732
3577.6682,1.9179718081688042,326.48949973352944
3578.4915,1.919458359159395,267.5583222912276
3579.3145,1.9204791069889195,233.20961529059312
3580.14,1.9196965528721404,292.6789866005596
3580.9636,1.916944629376106,327.65215043390464
3581.7893,1.9132565882425172,289.20829889174274
3582.6133,1.9099686307085315,353.1226030524916
3583.4395,1.9076911750291625,306.6905616159716
3584.264,1.9061317299897635,301.58471212293176
3585.0884,1.904491373883511,307.1150411406934
3585.915,1.902034642346926,311.52936907095784
3586.74,1.8984314687603816,281.04804728030064
3587.5671,1.8937462824752385,281.6013838820846
3588.3923,1.888309206832485,360.597166811856
3589.22,1.8823865117602785,279.20612163040875
3590.0457,1.8762805185267781,276.67451575667195
3590.8716,1.8704266445872761,284.1127679416288
3591.6995,1.8655427689585948,291.1882777866509
3592.526,1.862422555096529,321.3538732129073
3593.3542,1.861478699989963,368.23532349980513
3594.181,1.8625886370893419,283.90141604685925
3595.0098,1.8652151131158388,310.872398412224
3595.8367,1.8685909210236746,357.6455835428906
3596.6638,1.8716901518616436,293.38212065101567
3597.4934,1.8730856266037288,335.1633953640697
3598.3208,1.8714338834703241,237.67982967161566
3599.1506,1.8665900616811049,262.3261808369188
3599.9788,1.8602570496377504,279.57870738307565
3600.8088,1.8550488656009991,331.3091503634237
3601.6372,1.8528071556349233,299.603465878887
3602.4678,1.8534719635890482,257.8895590932247
3603.2964,1.8555500590052292,345.4209328796088
3604.1252,1.8572623491649323,302.05262191935645
3604.9565,1.8573219154551888,339.43554807038623
3605.786,1.855192388138747,248.4053565951582
3606.6172,1.8511733433256656,401.46888594922336
3607.447,1.8463937462083189,358.85604568313784
3608.2788,1.8423519340193317,275.55219041057507
3609.109,1.840284030971714,358.68901331775066
3609.9392,1.8404992818152037,385.0674510698128
3610.7717,1.8422151240604274,339.5707478087256
3611.6023,1.8438348535978117,297.63154648233643
3612.435,1.8437795373428545,296.87728938947964
3613.266,1.8414051624647858,334.26561763519766
3614.0994,1.837398593292086,332.70347162478686
3614.9307,1.833315349616802,309.1076547995134
3615.7625,1.8304932390334638,378.0181349711379
3616.5962,1.8293875308195804,341.92299717876085
3617.4282,1.8296393328511396,312.2070573988621
3618.2625,1.8306302928872742,345.00187124427475
3619.0947,1.8318835933944764,370.3413042942724
3619.9292,1.8330555196923068,312.3695504265917
3620.762,1.833766076150718,331.1815060886557
3621.595,1.8336805919507748,319.9143326972914
3622.4302,1.8327078864124926,310.53493279029135
3623.2634,1.8310769973997154,374.5467270680116
3624.0989,1.8290960322540617,354.0715964428124
3624.9326,1.8268994272487118,321.5264865996609
3625.7686,1.8243997369853828,292.72663657549066
3626.6028,1.8216223047614117,335.28892079288465
3627.437,1.8189198438916687,323.89791307401254
3628.2734,1.816845432270695,282.20144963770235
3629.1082,1.815647546654242,367.71368864865053
3629.945,1.8147702508864771,302.6206557852938
3630.78,1.8130112386834725,396.06574411670766
3631.6174,1.8093585290635084,274.7639956904462
3632.453,1.8040251907318818,304.8688367925897
3633.2883,1.7985366841490502,288.0849132973514
3634.1262,1.7947468748658848,420.78919635537534
3634.9622,1.793516485705518,308.3423932476681
3635.8005,1.7941276908282728,330.76588963549005
3636.637,1.7950783736329494,352.6282321946861
3637.4756,1.795419688051649,350.2577871889979
3638.3123,1.7954628595988573,361.0128307467519
3639.1492,1.7962583697137116,356.29762478078806
3639.9885,1.7983985514556446,350.96621947974677
3640.826,1.8013125201821572,325.6803469290858
3641.6653,1.8037828694634908,253.7761721887384
3642.5032,1.804980869631792,354.047779639672
3643.343,1.8050688664544643,311.22746138948133
3644.1812,1.8047282879091933,376.40852151334724
3645.0195,1.8042209788055175,369.947259947774
3645.86,1.8029235373269732,311.4762608569492
3646.699,1.7998552123185623,318.69894433772555
3647.5398,1.7946683188380612,338.96453237141765
3648.379,1.7882394229916294,351.89382733213654
3649.2202,1.7821318803911586,334.4896740341332
3650.0596,1.7777412563866977,351.9368662330337
3650.8994,1.7755596172424812,348.999554744762
3651.7412,1.775239052074026,307.0386024857094
3652.5813,1.775912277162364,320.0245931983156
3653.4236,1.7766562144951552,330.83709467042735
3654.2642,1.7770153836801768,344.905289270955
3655.1067,1.777347407661615,338.31669431815897
3655.9475,1.7785413030884103,355.4921252701925
3656.7886,1.7811937592224443,325.22682476488256
3657.6318,1.784941360714449,325.1440833314348
3658.4734,1.7885613051569307,314.31086609673173
3659.317,1.7908788154846147,382.9077781203014
3660.1587,1.7915042189561032,303.46963290008904
3661.003,1.790965318162231,312.42263066518615
3661.845,1.7901661487456981,305.4375732980557
3662.6875,1.7897955810655855,317.5763560436222
3663.532,1.7901025369002037,296.63592431328755
3664.3748,1.790976696034517,310.9590484596337
3665.2197,1.792129892555314,361.2239368240254
3666.063,1.793253857318184,332.403661804389
3666.9084,1.7942460519700176,316.6337572496934
3667.752,1.7953278671302721,303.9586264537507
3668.5977,1.7968665495765646,333.777388996449
3669.4417,1.7987958385106744,350.0753858042069
3670.286,1.8002446367540303,323.30235008515115
3671.132,1.7998752068396635,262.16386292104465
3671.9768,1.7968705828319331,320.110804637743
3672.8235,1.7916307086081276,299.12117094899617
3673.6685,1.7855440870416248,318.22021856972987
3674.5156,1.7799143593374094,331.81746664489583
3675.3608,1.7753031617123218,340.05593744024554
3676.2063,1.7715071870482169,302.75475131507284
3677.0542,1.7682380887327678,341.3289860597529
3677.9,1.7656277148094013,334.3970335220217
3678.748,1.764116653115928,363.1846730900747
3679.5945,1.7640492216402501,313.91319760746387
3680.4429,1.765194380884477,360.3629086877456
3681.2896,1.766624704242437,356.61422662788664
3682.1365,1.7670144970153943,357.008866876552
3682.9856,1.7652064587932224,319.47129360533285
3683.8328,1.7608406457294736,331.08145273854024
3684.6824,1.7545599770099007,320.1100735054538
3685.53,1.7478033962007462,343.9540501964194
3686.38,1.742055990973165,315.5455587846492
3687.2278,1.7384019634721408,340.02028193448757
3688.0762,1.7371911902887516,371.4286277311772
3688.9265,1.73815845437069,337.23270795934167
3689.7751,1.7406029473922902,336.3095421096474
3690.626,1.7437573249402762,371.1917954975127
3691.475,1.7471748926658004,316.6344371820935
3692.3264,1.7510587432634146,334.3799208899971
3693.1758,1.7560217652041656,353.944712658577
3694.0254,1.7624845698936977,388.421598497692
3694.8772,1.7699285918828072,368.0049910394353
3695.7273,1.776719754062341,347.2448253040189
3696.5793,1.7810120731547914,321.23572539321026
3697.43,1.7817681437385382,325.1243625147903
3698.2825,1.7792966516896307,361.1357987873682
3699.1333,1.7747383278161928,326.17815101753536
3699.9841,1.769190455439429,338.6391309901784
3700.8374,1.7633007980508966,322.977552726897
3701.6887,1.7575074588459025,317.76851039165246
3702.5425,1.7522243753506497,326.7289726723305
3703.3943,1.7479321818878089,380.0034020515334
3704.2483,1.7447724764005825,397.3911562000689
3705.1003,1.7424410797207055,390.9982967254081
3705.9526,1.7403142162194947,291.8434333575181
3706.8074,1.7378664886552955,327.36873375787496
3707.66,1.7349098955640085,346.80113305269754
3708.515,1.731466330604007,321.25558367526895
3709.3682,1.7276518951245814,369.6313191314072
3710.2234,1.7235487056241305,359.8322662536499
3711.0771,1.7193286522764566,349.6160646176589
3711.9307,1.7152568952727214,332.11567332114043
3712.7866,1.7116632346468714,418.7068414130842
3713.6409,1.7088455605150281,318.4536040780486
3714.4973,1.706920345053893,329.32736685902614
3715.3518,1.7059035102805302,395.4145298758023
3716.2085,1.7057462191871435,314.0361311086098
3717.0635,1.7063740292409115,384.67687720798403
3717.9185,1.7076636637045666,389.98094052941013
3718.776,1.70943667573909,343.19084256315443
3719.6313,1.711377964236269,348.64989888865557
3720.489,1.7129738080360541,390.31436335027297
3721.345,1.7135104326191257,359.4024592787981
3722.2031,1.712384901029804,399.1601864423592
3723.0593,1.709535880368932,360.8092112862466
3723.9158,1.7056986656267046,326.5881461258862
3724.7747,1.7022452605746543,364.15433991347453
3725.6316,1.7005945208268827,420.71877239495234
3726.4905,1.7013474396772805,417.9146310646424
3727.348,1.7038527827901837,360.68789916070443
3728.2073,1.7065236766973981,330.37388720357103
3729.065,1.7077418089208136,334.0883918607253
3729.9229,1.7067552131605668,333.9601271600685
3730.783,1.703874577111103,379.0681561689565
3731.6414,1.7001379251145206,346.1956430776775
3732.5017,1.6966429771741836,363.7574307115954
3733.3604,1.6940429065079752,344.99957670797687
3734.2214,1.6922210141277898,335.42411933971067
3735.0803,1.6905133213696721,378.3190514047111
3735.9417,1.6881877635546796,374.2676812602981
3736.8013,1.6849762646098116,367.1745990622945
3737.661,1.6811785823500824,345.62584146301845
3738.5227,1.6774701441197468,357.6304369467079
3739.3828,1.6745661146284612,412.3764924838147
3740.245,1.6727554168706975,353.9525248254789
3741.1055,1.6716575684816137,335.5669706767926
3741.9683,1.6702745669965957,371.8182526747754
3742.829,1.6676262295384514,362.7407257149972
3743.69,1.663521619110817,324.9454610525263
3744.5532,1.6589014529514872,355.41506320333286
3745.4148,1.655424716817407,363.8753120936258
3746.2786,1.654413565554583,413.72680423459985
3747.1404,1.6561052686187203,425.6235037037934
3748.0044,1.6595753338411598,369.80428443231705
3748.8667,1.6634067500222978,378.16180610014334
3749.729,1.6666423083381985,371.28926476739565
3750.5938,1.6691736384535438,379.6625433528171
3751.4565,1.6713591972841435,416.2684903493984
3752.3215,1.6733958249538161,432.58079482383107
3753.1848,1.6749969129532933,360.9060829551816
3754.0503,1.6757125928057464,371.27725749409683
3754.9138,1.6753223648823918,369.72182364844724
3755.7776,1.6740028809250667,348.1533417802021
3756.6438,1.672209798686973,348.21174657407386
3757.508,1.6705054198686635,405.758956080433
3758.3745,1.6693090276195532,418.1423945513229
3759.239,1.6687570802960319,393.452919729209
3760.106,1.6687070540853823,382.1277130178602
3760.971,1.668979696990389,356.82367607721847
3761.8362,1.6695678464516628,399.8095713274324
3762.7036,1.6705763332512613,379.78679107300815
3763.5693,1.6718411284116412,390.79670827661056
3764.437,1.6725810539882835,365.04525390349005
3765.3032,1.6715081140707149,341.1452722876423
3766.1714,1.6675956404616208,344.45232730395537
3767.0378,1.6609783746500013,321.8469672979268
3767.9043,1.6530572842789495,371.16979320168
3768.7732,1.6457387974383881,369.2244866269467
3769.6401,1.6405044953284498,383.72876686532163
3770.5095,1.6378310607210493,386.0665533146307
3771.377,1.637461901530687,422.8201343796972
3772.2466,1.6387034062722459,369.8954167623146
3773.1145,1.6406932910130438,390.5409066947398
3773.9824,1.642648555049092,363.7752025039047
3774.8528,1.644148608117708,396.7284566680768
3775.721,1.645260011703748,410.4700184154417
3776.5918,1.6464099050105243,422.58485620592273
3777.4604,1.6480871922986624,344.3192135848596
3778.3315,1.6507426208476148,383.1645522587138
3779.201,1.6547097059853957,463.28876222193907
3780.0703,1.6600532097685368,397.76462394777485
3780.942,1.6662146144284475,356.40734350534893
3781.8118,1.671770482666081,378.55430894121275
3782.6838,1.674888844193813,379.090583964903
3783.554,1.674172472852609,321.59842102064954
3784.4265,1.66964057718699,423.864487701798
3785.297,1.662918274957452,371.3943744294565
3786.168,1.6562785765316697,372.51434919356825
3787.041,1.651315031613773,394.2245761393627
3787.912,1.6482042120998799,381.9340682005279
3788.7856,1.6459813524802014,380.69263408674465
3789.6572,1.6436223197791557,405.98383959257404
3790.531,1.6407179611244553,354.48566101276555
3791.403,1.6374518974284433,408.39773987702745
3792.2754,1.6339894777997752,375.49647589242323
3793.15,1.630120693094352,455.7722711161239
3794.0225,1.6254604771037942,369.6408829765629
3794.8972,1.6198270606341747,392.0950100392571
3795.7703,1.6135545849135065,365.12046591443226
3796.6455,1.6072297323385947,406.91918790248803
3797.519,1.6015068337409906,423.30322385950336
3798.3926,1.5968738073492275,403.12567037820315
3799.2686,1.5936910006884057,424.7774117819404
3800.1426,1.5921424376802649,416.97904096295997
3801.0188,1.5920484281026697,391.46682423659394
3801.8933,1.5928833493604526,367.47796827707134
3802.77,1.5940151531448261,436.00128455940177
3803.6448,1.595098123131879,414.40548120645343
3804.522,1.5963532493766603,382.31256314886303
3805.3972,1.5984346190544287,427.83117713955545
3806.2727,1.6020171093360396,413.36066785830286
3807.1504,1.6073707326827111,465.29296554731656
3808.0261,1.6141991186681546,447.8632199375251
3808.9043,1.6219712752245252,384.5764108748194
3809.7805,1.6301046391310026,373.43461601645254
3810.659,1.6382232639668488,368.8620392592434
3811.5356,1.6458645742740845,431.35873038923
3812.4126,1.6524151024082043,398.96828014683837
3813.2917,1.6570868401746461,370.210498418499
3814.169,1.6592442766834263,424.96562439648403
3815.0483,1.6588538579743484,375.66527925334333
3815.926,1.6565143898278132,329.88879733730016
3816.806,1.6531278398269094,387.0707146604266
3817.684,1.649454987361214,439.22463166235195
3818.5623,1.6457702553678908,355.82786693034075
3819.4429,1.6418771728063624,419.6564283580329
3820.3215,1.6373798352158726,400.5574412943309
3821.2024,1.6319674387398795,375.71409094640285
3822.0815,1.6257941613004827,385.7601564510139
3822.963,1.619349306269781,486.5727818387027
3823.8423,1.61310438563836,400.8328101378793
3824.722,1.6068633957015648,389.41112067868147
3825.604,1.5997269664513891,406.55958882663145
3826.4841,1.5907104251668736,409.81491937822926
3827.3665,1.5793832460177704,393.0845898084123
3828.2468,1.566408907184119,402.812445408073
3829.1296,1.5530583850092055,444.2209556997234
3830.0105,1.5407723428837363,434.2123956403742
3830.8916,1.530290294384756,412.26470951349427
3831.7751,1.5215428823164237,473.024114008745
3832.6565,1.5140265578289407,464.1115993006646
3833.5403,1.507287859011012,516.7261395056383
3834.4224,1.5015303002189748,514.1589529630418
3835.3064,1.49740136522887,486.95323612788843
3836.1887,1.4956046309899567,475.0967785365072
3837.0713,1.496421637409471,438.86000608333984
3837.956,1.4997550177187409,492.1813072759941
3838.839,1.5053948837329383,484.8714065600373
3839.7244,1.5133494994893328,409.19096646348606
3840.6077,1.52371133332671,499.06305591296734
3841.4932,1.53657219055589,447.80756041427736
3842.377,1.5516464665367367,512.1469676002631
3843.261,1.5683983493411409,403.61350508407594
3844.1472,1.5859381049670938,443.46820231578954
3845.0315,1.602894364097495,407.3674385228514
3845.9182,1.6179618301883232,391.87159717148364
3846.803,1.6301377124202532,414.63671548771435
3847.69,1.6394630079726251,357.4641001990388
3848.5752,1.6466923843641799,377.8548664483573
3849.4604,1.6528592857950706,393.66203695344296
3850.3481,1.6586420827040766,363.33392096868556
3851.234,1.6641671902099249,412.9494359198624
3852.122,1.6692771200464414,347.21713341555994
3853.0083,1.6736474989651131,437.67616966833623
3853.8967,1.6770449302806325,346.4446177681304
3854.7832,1.6793699304145329,399.770561285343
3855.6702,1.680809983262249,330.1628867673084
3856.559,1.6817900006320328,356.21415643160185
3857.4463,1.6827765270004391,366.508412494119
3858.336,1.6839596670649462,375.20279198478346
3859.2234,1.6850184760374838,394.34317575317266
3860.1135,1.6853002276897362,374.75097080796377
3861.0015,1.6842618146569908,366.31645316574395
3861.8896,1.6818356401231125,363.01597248141604
3862.7803,1.6783863916811768,395.2281559883762
3863.6687,1.6744534970661957,413.49008563240284
3864.5598,1.6703675128118713,409.97772690570594
3865.4487,1.6661210383117138,345.8321657943828
3866.34,1.6612383024310464,413.7245615652853
3867.2297,1.6550861703091282,367.8631351429776
3868.1213,1.647219245117332,360.78136600170023
3869.0112,1.637870048288639,357.9742693258508
3869.9014,1.6278740743557032,404.91244917372717
3870.7937,1.6183574241417318,405.5931055598912
3871.684,1.6102683452571092,378.4053839677406
3872.577,1.6037573501617048,430.5438186273145
3873.4678,1.598125680518481,399.5227151583686
3874.361,1.5919153150951484,414.9309740859994
3875.2524,1.5837304691079206,417.1756092546154
3876.1438,1.572939810477025,429.5138773225016
3877.0376,1.559964246435581,414.00564241342914
3877.9297,1.5458704287679683,448.07367043384676
3878.8237,1.5313144109288759,412.005547075699
3879.716,1.5163901321547701,439.64505569311615
3880.6108,1.5006805507893797,464.62416193018436
3881.5037,1.4840499686467732,502.0677921471276
3882.3965,1.4666077279898004,490.4825617398546
3883.2917,1.4486685100455825,504.481680324043
3884.185,1.430693164239338,487.8424564498998
3885.0808,1.4129081309263518,560.4278221169119
3885.9746,1.3957427578636399,557.1429164595477
3886.8706,1.3796511487009522,519.6783307002006
3887.765,1.3655994282371222,558.3295141675985
3888.6592,1.3548589717764343,576.2385707778133
3889.556,1.348849529598722,623.6496685820704
3890.4507,1.348557260914843,602.871605419327
3891.348,1.3539687775461076,587.1359951761818
3892.243,1.3641765217592108,542.8310177989913
3893.1406,1.3780806970081576,567.3664918991835
3894.0361,1.394675214242571,480.9943803412279
3894.932,1.4133152046670954,473.95880616446203
3895.83,1.433398645561679,527.2941574395596
3896.7263,1.454132458970208,474.75021981753326
3897.625,1.4750607763907881,483.85964158107333
3898.5215,1.495848795266667,517.5087573857916
3899.4207,1.5166746802569773,465.82027920902453
3900.3176,1.537483019407055,443.3659792844045
3901.2148,1.5580233753987818,430.2610993408282
3902.1145,1.5776058807965614,428.80941611716696
3903.0122,1.595386467719767,393.99985209273467
3903.912,1.6112861480831664,351.7750474818347
3904.8103,1.6258518730064526,399.8328232061865
3905.7107,1.6401203981313697,446.42380047527917
3906.6094,1.6547406977232688,358.81791693680685
3907.508,1.669900224088405,357.401064951146
3908.409,1.6853705784615918,385.53529362464974
3909.308,1.7006725091984194,405.5013350331129
3910.2097,1.7155530283554847,350.9447724143236
3911.1091,1.729823315196344,360.3137924864036
3912.011,1.743605863412635,383.31700650675157
3912.9111,1.756833043277352,331.46460716294155
3913.8113,1.7692891227566363,343.76435015073116
3914.7136,1.7805989679888163,340.44887128200907
3915.6143,1.7904734485445364,299.24009982115996
3916.517,1.7991136410818995,325.16973971744983
3917.4182,1.8068931679932456,309.2638754883188
3918.3215,1.8140616509898864,333.27755475860346
3919.223,1.8202811596489792,314.6419575379826
3920.1245,1.8249221854915156,325.03383865032924
3921.0286,1.827581771304622,282.6674917207806
3921.9307,1.828535408615763,300.8603169632242
3922.835,1.8286540451467126,310.70860227690787
3923.7373,1.8287924721560225,304.98054178979197
3924.642,1.8292896865635166,282.8419561645054
3925.5452,1.8299110544366175,326.8136286398619
3926.448,1.8301946335579673,318.5135291763991
3927.3535,1.829857667179891,315.3772855063339
3928.257,1.828995809831765,309.18390179339184
3929.1628,1.8279092239720873,331.2887953325483
3930.0667,1.826685769985711,348.8249982459748
3930.9731,1.824880093887385,315.3731513537728
3931.8774,1.8217506391973468,309.7472251290065
3932.782,1.816841323098935,305.30319377170264
3933.6887,1.810412627707075,308.05737440851243
