wavl,flux,ivar
3566.9744,7.612462988559979,24.607751824227737
3567.795,7.5906682492994895,22.008638108324675
3568.6177,7.568138526835172,28.483320760226302
3569.4385,7.549723818490598,33.5765049153911
3570.2617,7.541673659932518,19.75109745769833
3571.083,7.546379736738578,19.840040204584128
3571.9065,7.559473792537818,21.31123641289188
3572.7283,7.572409235328791,21.155721903539355
3573.55,7.57783679811867,22.762296028231884
3574.374,7.5733053732656055,19.464903971487868
3575.1963,7.562037243955873,25.765023883804616
3576.0208,7.550511703640547,22.90076362393832
3576.8435,7.544605727526521,27.58054006526427
3577.6682,7.5462649024339745,16.7596235098764
3578.4915,7.553487986081323,16.858134655229474
3579.3145,7.5627173566592365,19.26696569651058
3580.14,7.5710801564565955,18.683721860107852
3580.9636,7.576813895180003,24.69028969518861
3581.7893,7.579184244412911,18.049984087309152
3582.6133,7.578216585074863,22.785788590552585
3583.4395,7.574114842892556,20.56511512911424
3584.264,7.566383475928862,20.460941784337106
3585.0884,7.553969945098161,20.74746786020514
3585.915,7.536531846503248,19.402392296183333
3586.74,7.515251393367166,20.59712665779136
3587.5671,7.491799413386582,20.372432569496816
3588.3923,7.467945947757464,22.12938986913584
3589.22,7.445108302495781,21.983280558028476
3590.0457,7.424776177033026,19.742737123627965
3590.8716,7.407286081890467,23.89261678170601
3591.6995,7.391345061406053,20.943904750919263
3592.526,7.374739739815635,22.69620296723519
3593.3542,7.355903265904487,18.370815633180865
3594.181,7.335569236677466,19.904491258044047
3595.0098,7.316299474296806,21.97064272373871
3595.8367,7.301833764869129,17.53645977289153
3596.6638,7.295830184860674,21.279674186429034
3597.4934,7.301017460624488,19.700979271092667
3598.3208,7.317383946347007,22.975050012215053
3599.1506,7.341144701546035,24.12289778615938
3599.9788,7.365225603448012,18.263734298284323
3600.8088,7.382300992649449,22.6224761805659
3601.6372,7.387359224193844,16.398196440221927
3602.4678,7.379826126271573,23.13910184846536
3603.2964,7.3636791223555305,17.35512143159427
3604.1252,7.34561612539608,25.662491953907274
3604.9565,7.332091588892239,26.23070700747303
3605.786,7.327112131929698,19.79831559176414
3606.6172,7.331645584433275,22.119808299365975
3607.447,7.344279848551477,23.872802034570956
3608.2788,7.361108990811623,27.955097633530574
3609.109,7.375248835000231,26.94368201558297
3609.9392,7.378848800161048,19.293441362426183
3610.7717,7.367142292039383,18.695200066694436
3611.6023,7.342471036192545,19.1760697445983
3612.435,7.313493818953458,17.247374778663787
3613.266,7.2899803875873745,18.615741192900494
3614.0994,7.275919292063715,16.928932993601435
3614.9307,7.268226399068376,21.55454544958033
3615.7625,7.26072622147831,24.384688301113314
3616.5962,7.2497199042547065,23.61695384027831
3617.4282,7.235220600046333,19.799841166480416
3618.2625,7.217611730142855,22.19126810190291
3619.0947,7.195489302789053,21.76277625447409
3619.9292,7.167323571283276,18.63197504975439
3620.762,7.1359517765410985,22.36252583979759
3621.595,7.108678401073767,24.330070430015617
3622.4302,7.092939009489221,25.39383453847305
3623.2634,7.090918794177667,30.061061492818713
3624.0989,7.0980062630803555,26.06916952582905
3624.9326,7.106325793845116,21.25810880601951
3625.7686,7.1097834084903875,19.624578440145903
3626.6028,7.106929351211234,18.306925116351483
3627.437,7.100403208390577,23.89706296677333
3628.2734,7.093698672372068,25.859424225651345
3629.1082,7.088246032014809,23.97162275741464
3629.945,7.082677788248032,25.21835018058199
3630.78,7.074688470428377,25.623893084551437
3631.6174,7.063212222319983,22.030588702461717
3632.453,7.049946923128362,19.42676273542225
3633.2883,7.039086200786078,26.879423962017807
3634.1262,7.035879703312628,21.492667679260855
3634.9622,7.043862975753582,34.685930151673375
3635.8005,7.062278819589875,18.88648352748316
3636.637,7.085625067535894,18.65733278829428
3637.4756,7.106629228904257,21.372753682812935
3638.3123,7.119715954908212,27.06136957770201
3639.1492,7.12370687669219,19.852322873225912
3639.9885,7.121062346939659,25.58864782556679
3640.826,7.115583954422087,26.29426822904874
3641.6653,7.110204192830494,22.618631215681344
3642.5032,7.106401708830035,21.827259554421218
3643.343,7.104423526309012,20.614592767167707
3644.1812,7.103585084348964,20.82605144623468
3645.0195,7.102455746555486,19.808357258738774
3645.86,7.099549397701899,21.02848114344692
3646.699,7.093969929959008,18.878753607797222
3647.5398,7.084935724051605,26.452172472275265
3648.379,7.071112483734367,31.72722110023115
3649.2202,7.051470333800292,24.6483839387816
3650.0596,7.028482184905434,24.232068184364593
3650.8994,7.008996733372442,23.169700836777608
3651.7412,7.0008094478332845,20.1145742040142
3652.5813,7.006385296734639,27.139762855416002
3653.4236,7.019938502254071,23.25382335746129
3654.2642,7.030949522725338,22.905773983839754
3655.1067,7.031040720355248,22.041716920067547
3655.9475,7.017830160300587,25.45678516974772
3656.7886,6.993947493233659,22.80604534424897
3657.6318,6.963908776839151,22.61024185428436
3658.4734,6.932956597153504,23.094966059061953
3659.317,6.906508503088124,22.793637068619237
3660.1587,6.88949456472092,24.051483781399014
3661.003,6.883423853043873,24.26382741775946
3661.845,6.885431137392372,30.190232403326956
3662.6875,6.890018263688095,22.968928282087393
3663.532,6.892605593787895,25.403884102081033
3664.3748,6.891467366650412,26.843255515714763
3665.2197,6.887218997911904,26.64800030110616
3666.063,6.881312855404598,22.811029595920616
3666.9084,6.87512430543022,30.184166387159543
3667.752,6.8698822652324845,21.925208255511023
3668.5977,6.866269885006529,18.583109621017734
3669.4417,6.863986660363758,25.88255548770757
3670.286,6.861647837254054,25.474510980720705
3671.132,6.857724579046462,20.534970759761578
3671.9768,6.851685700149676,26.333452444792794
3672.8235,6.844117509425027,32.073948876323044
3673.6685,6.836196272220748,24.287729884932013
3674.5156,6.829311265940785,23.39992844538069
3675.3608,6.8252726732976585,22.122880725045
3676.2063,6.825190137704324,26.115454253996532
3677.0542,6.827515401880514,25.84283376158735
3677.9,6.8273443629936414,26.124556441675292
3678.748,6.818820672673695,20.37799943822041
3679.5945,6.798813648040266,25.692721159891292
3680.4429,6.76856160766666,23.726357794862007
3681.2896,6.733186659522209,28.10123215318182
3682.1365,6.699183691941776,31.998382503057563
3682.9856,6.672302248824508,21.039275284720972
3683.8328,6.655434834424676,28.79520078926056
3684.6824,6.646859102510328,27.997764023218505
3685.53,6.641661519817985,29.055120703651674
3686.38,6.635118840298449,23.266144288004227
3687.2278,6.6265641342948145,28.456698667139616
3688.0762,6.619819359783898,31.913922731676674
3688.9265,6.6198833186645984,27.913197961983037
3689.7751,6.628472586565382,32.8869397940142
3690.626,6.642619856285283,27.15322966456009
3691.475,6.657115209731368,26.989181868547313
3692.3264,6.668309490220402,28.16219622001818
3693.1758,6.674905809245173,23.13877814374317
3694.0254,6.676402776692095,24.9080375465608
3694.8772,6.671618441044734,22.730663691592287
3695.7273,6.660284515506016,29.600572100997436
3696.5793,6.645520403144792,24.51253064111603
3697.43,6.63351731340848,28.384183046724385
3698.2825,6.6288178383083975,32.34454252114473
3699.1333,6.6301851759744315,26.39279493587119
3699.9841,6.631316057396545,25.239156176182718
3700.8374,6.62609230656506,27.480910124256468
3701.6887,6.612992039304005,23.823174362773806
3702.5425,6.594842133879317,28.848516582229472
3703.3943,6.575847036838513,31.385192048114266
3704.2483,6.558557643761697,28.224375647518425
3705.1003,6.543634227001779,29.905242749196436
3705.9526,6.530202891700237,30.397858809223738
3706.8074,6.516764971889284,26.072277722464353
3707.66,6.5019911481837775,28.705385960508867
3708.515,6.485134451912201,26.05207640608012
3709.3682,6.466683533947896,29.417995261588732
3710.2234,6.447879197768613,27.21459989189819
3711.0771,6.430575162233264,32.185296928184044
3711.9307,6.416395068655401,32.21110615749326
3712.7866,6.406113871484997,32.56656568489402
3713.6409,6.399164564488942,28.171149546529623
3714.4973,6.393561158821765,28.188400240946173
3715.3518,6.386992423648689,26.924967413012382
3716.2085,6.378123583577742,30.613304089431132
3717.0635,6.3679369860592665,28.95878636350579
3717.9185,6.359595543642791,25.490644483049532
3718.776,6.356715001588504,27.52976479168482
3719.6313,6.360739656744741,34.81931750559363
3720.489,6.369710422210657,33.819002482630864
3721.345,6.379630177241122,25.715946583531757
3722.2031,6.387129551942061,28.36859534660703
3723.0593,6.390554920278895,25.643498729714874
3723.9158,6.389548689794267,27.86196725484284
3724.7747,6.384095845726356,29.728771652782473
3725.6316,6.374601008400519,29.183972467266553
3726.4905,6.3622336915202,25.744109911307152
3727.348,6.34911779315642,24.84575029299094
3728.2073,6.337474426466925,27.658042153289227
3729.065,6.328763422315969,31.108756937583788
3729.9229,6.322688452060203,29.32378051599797
3730.783,6.317274207188574,27.302320475679377
3731.6414,6.3099893807842315,30.80951316600376
3732.5017,6.299543978976326,29.470995523892217
3733.3604,6.287426831337815,32.50857820815114
3734.2214,6.277244598760966,29.159978964909484
3735.0803,6.27248948409012,29.751486491102884
3735.9417,6.273730468169714,26.229203257912502
3736.8013,6.2778627727771035,31.94216593241245
3737.661,6.279571339040605,28.224799124040423
3738.5227,6.2740570496729795,30.548877169830728
3739.3828,6.259497195991562,32.08867823012266
3740.245,6.237728080906805,29.525644265850325
3741.1055,6.213455683484201,33.713823959627305
3741.9683,6.1918127981380255,32.82803873543243
3742.829,6.176882940402912,35.15046052488184
3743.69,6.170200440820363,32.20386529517008
3744.5532,6.1707267195034055,29.360249201864963
3745.4148,6.175291685156058,28.75208311113341
3746.2786,6.179715394926638,31.356546792719357
3747.1404,6.180017472445331,21.614789072844783
3748.0044,6.173600685811186,29.287279151582318
3748.8667,6.160523304936843,32.19202313524261
3749.729,6.144485228769914,26.24086564066336
3750.5938,6.132128605716476,29.503671108761637
3751.4565,6.129677830294896,32.47290006591638
3752.3215,6.138419351232221,25.581420062868933
3753.1848,6.153551864625582,24.631201233764443
3754.0503,6.1677652689774165,21.556794460569407
3754.9138,6.17592109135041,30.293627081789143
3755.7776,6.1771512874387025,34.62872062929916
3756.6438,6.173006681005253,30.138272819228057
3757.508,6.1654746744699045,28.52078376430536
3758.3745,6.156625020996261,29.710560626265764
3759.239,6.149168903490019,34.56814026720349
3760.106,6.145383595552602,29.83692203338911
3760.971,6.1452302105787675,31.56996033721115
3761.8362,6.145572793906433,28.007740365025377
3762.7036,6.142109236103094,28.20966568803576
3763.5693,6.132368984529112,30.100471017742528
3764.437,6.117001085538625,28.86317768708772
3765.3032,6.0986228614923235,29.31261715517337
3766.1714,6.079016655189242,34.351061064181536
3767.0378,6.057857656516863,34.60534362767063
3767.9043,6.033155953627727,28.182273117924627
3768.7732,6.003670180602008,32.942623130298294
3769.6401,5.971324176733114,34.9260059367579
3770.5095,5.9408247024267755,28.662892646848707
3771.377,5.917935250878661,36.66807452708666
3772.2466,5.905563150838978,32.03828617060188
3773.1145,5.90248561841357,25.294672460670903
3773.9824,5.904629577646831,34.66436589431041
3774.8528,5.908358003270625,29.380329697498563
3775.721,5.912054208402882,40.77233297598756
3776.5918,5.915622412457949,33.50316027109393
3777.4604,5.919615449650022,32.645976172454
3778.3315,5.925581908458364,27.894442603413413
3779.201,5.935950849232936,32.34377751062516
3780.0703,5.952541352996098,32.92052205885715
3780.942,5.974615628662184,32.8921502070414
3781.8118,5.998268495929814,34.3556091788184
3782.6838,6.018217932166928,35.752728409364934
3783.554,6.0296035319062575,30.502215615508476
3784.4265,6.030267629985609,32.11659861682551
3785.297,6.021663373244586,30.588309499096333
3786.168,6.008363121796805,28.21435007963365
3787.041,5.9955741674068035,33.16292486834664
3787.912,5.986375985816208,33.97612896637826
3788.7856,5.980208805327907,32.03820418902442
3789.6572,5.97392131160587,33.12732181453068
3790.531,5.963351756876024,34.36213999787609
3791.403,5.944761698349302,31.95605346995967
3792.2754,5.915493138446601,26.48351435205826
3793.15,5.874853271726101,41.129951305207385
3794.0225,5.825415361662051,33.83136434865129
3794.8972,5.772389550757913,32.30189126305935
3795.7703,5.723202058406724,33.06567848181693
3796.6455,5.6843069272019955,38.625861661647505
3797.519,5.659852965093941,35.53939668415338
3798.3926,5.650192716494201,34.462014166094704
3799.2686,5.6528483829236125,43.58014405535678
3800.1426,5.663623131167049,32.910422878078904
3801.0188,5.678128550014665,32.86701956648751
3801.8933,5.693268557493465,39.54560891243517
3802.77,5.708802408044211,32.195207052194945
3803.6448,5.727018610632799,33.6638360752354
3804.522,5.751253172758919,33.74271995479722
3805.3972,5.78305762062404,31.302303794829456
3806.2727,5.821105068329918,33.615075216985105
3807.1504,5.861269621613113,35.85264156860099
3808.0261,5.898087536995014,35.913392776475455
3808.9043,5.927892185251489,29.958086508563007
3809.7805,5.949627023378447,25.923356580378595
3810.659,5.964570147839779,41.36429184215203
3811.5356,5.973703620770641,35.16670684223964
3812.4126,5.977219142624809,28.788008738007477
3813.2917,5.975840722570518,30.223690760470127
3814.169,5.972167353309186,38.472681585288704
3815.0483,5.96939710448681,38.38920011969428
3815.926,5.968635743732611,30.550049633434828
3816.806,5.967624425826717,34.35700970411894
3817.684,5.962330346577277,29.136496845621064
3818.5623,5.949646461116202,30.018754588212058
3819.4429,5.928601190512865,36.932290993472904
3820.3215,5.8998197731618935,35.715441283623186
3821.2024,5.864092466216456,29.256045043815863
3822.0815,5.823206386061531,35.098489722028056
3822.963,5.779945126674796,32.970336513781795
3823.8423,5.737810225443276,40.1601925588521
3824.722,5.698336544936992,35.408650787195064
3825.604,5.660938190868123,33.58722078507422
3826.4841,5.624821181431794,36.30302603556387
3827.3665,5.58997865794752,35.70174270277499
3828.2468,5.557571720840422,34.0507197698159
3829.1296,5.527527129166322,34.43964296135973
3830.0105,5.497635774129652,34.01297750708222
3830.8916,5.4627922726247276,36.419304069619805
3831.7751,5.416795497232988,38.294113497571246
3832.6565,5.3561874030096535,39.641028923165365
3833.5403,5.282881611647605,39.99210272270832
3834.4224,5.206259194150157,46.45172162409894
3835.3064,5.1388771897603505,61.77734562923467
3836.1887,5.092590516245614,48.59123035671053
3837.0713,5.073640907503532,54.9014599747089
3837.956,5.0821748966412885,43.054450537957095
3838.839,5.113058385738912,43.58116575811199
3839.7244,5.158698639710732,41.58177037163782
3840.6077,5.211722533514317,47.34864868537693
3841.4932,5.267954465355015,42.75779199884952
3842.377,5.325384575198389,42.490944481034745
3843.261,5.383245835393313,35.59896262006915
3844.1472,5.44036382848126,36.18871596725503
3845.0315,5.495166885445899,35.54369028638345
3845.9182,5.547745900517257,36.68221963047629
3846.803,5.599071716977486,35.59753091653856
3847.69,5.651074431827368,33.277652270337335
3848.5752,5.704219939174944,30.974330370140354
3849.4604,5.757453175635456,37.81733210055648
3850.3481,5.808277287230207,34.15916214469275
3851.234,5.853696067562858,26.986983317465842
3852.122,5.892449016565199,36.01531563985395
3853.0083,5.9244676791412045,24.8639468162315
3853.8967,5.950741209819251,31.483429101434254
3854.7832,5.971376334662354,31.27702034989133
3855.6702,5.9855063764196785,33.39143653095374
3856.559,5.9917849241405525,30.170322805798783
3857.4463,5.990013972849297,31.233264346219944
3858.336,5.982296637998922,37.994557671522095
3859.2234,5.972697131330683,30.267072923386735
3860.1135,5.965379062888257,37.04909751843977
3861.0015,5.962930684038859,30.715703459657618
3861.8896,5.965590596097852,32.33627410648382
3862.7803,5.971908638421365,33.56343830114317
3863.6687,5.979240145988442,28.417552206214157
3864.5598,5.983886894205145,31.84087706833434
3865.4487,5.981168026444916,30.28628306922186
3866.34,5.966901309652676,29.147754515473782
3867.2297,5.939842224417197,27.799458165952526
3868.1213,5.902653048979942,35.09461290941756
3869.0112,5.860581911388795,36.948007971209506
3869.9014,5.817431985912628,36.08757188974272
3870.7937,5.773985547800741,24.793364678384386
3871.684,5.729976158208739,30.76020720619826
3872.577,5.685929356664459,37.797847738708676
3873.4678,5.643854818620853,40.70605035829195
3874.361,5.603589254276796,39.55822089030988
3875.2524,5.561748955079717,34.917657770418835
3876.1438,5.512628439982091,40.691773828212646
3877.0376,5.452157992630804,36.548888460759386
3877.9297,5.381058142799802,39.235892444065826
3878.8237,5.303230086257701,43.292568355857036
3879.716,5.223642242457865,42.961143586311174
3880.6108,5.143620128058622,48.67516167812663
3881.5037,5.061270861594806,42.68383993675731
3882.3965,4.972425633604808,39.5167392604938
3883.2917,4.874898898959469,54.182977128058816
3884.185,4.771498022731004,52.45450156630129
3885.0808,4.667062456255248,48.02582597042067
3885.9746,4.56734520868886,57.88224614386789
3886.8706,4.475306789129411,48.22692260816229
3887.765,4.393856979800809,58.78014022562701
3888.6592,4.326278539078862,55.75946010159274
3889.556,4.277365897166344,59.41581193711711
3890.4507,4.252294885242942,62.06929393894473
3891.348,4.253978982884336,56.59314756094014
3892.243,4.28241740850448,63.09896674474131
3893.1406,4.334690350018765,63.165694787860794
3894.0361,4.4050891272950174,57.5800667605584
3894.932,4.487496362707409,57.93768005458076
3895.83,4.577214956255773,57.59510356134978
3896.7263,4.671580820858393,49.960235772084495
3897.625,4.770782859621435,49.15277963382734
3898.5215,4.8734902202157935,47.90888892735146
3899.4207,4.976911326423401,44.93274003893663
3900.3176,5.074990573964473,45.42660771565294
3901.2148,5.162647655513005,43.25109179026136
3902.1145,5.237097981711835,41.19566794946487
3903.0122,5.298608304502235,44.524046351187906
3903.912,5.35172928801244,38.47997528344024
3904.8103,5.4030056304184635,42.70383731280454
3905.7107,5.459560875048619,40.373810538068014
3906.6094,5.525025936250252,36.561480954243976
3907.508,5.598387643432092,39.90414874015613
3908.409,5.674345897860732,38.71482427093319
3909.308,5.745606225852317,31.724757546980765
3910.2097,5.8074776504781385,35.034480389264644
3911.1091,5.8585787152248825,32.839521051394364
3912.011,5.901680117761835,39.68297066026361
3912.9111,5.9406474362287796,35.383205671115974
3913.8113,5.9790939760455055,30.701318862742404
3914.7136,6.018761471594347,36.80722182664349
3915.6143,6.058780308021634,33.44178840058427
3916.517,6.096756313382184,32.35390537824808
3917.4182,6.129466581568636,29.72520903160206
3918.3215,6.1549016568510835,31.102391440584682
3919.223,6.172250324635473,31.39004716352056
3920.1245,6.1822575035825675,26.478942469850896
3921.0286,6.187111845706474,29.325044197033037
3921.9307,6.19056842473334,31.3880271103427
3922.835,6.1970305421971235,32.53799524351495
3923.7373,6.209570163209315,29.767084518099992
3924.642,6.228867297501015,31.01905729346544
3925.5452,6.253240029038396,30.688659448766447
3926.448,6.279979696268637,29.28285657501838
3927.3535,6.306077116637612,31.41428796992018
3928.257,6.3281226213214365,26.855145222373707
3929.1628,6.342911167862077,26.685021949719868
3930.0667,6.347878580733289,25.591200965923463
3930.9731,6.342771441372416,27.312047611271367
3931.8774,6.330410156302047,23.70075643215992
3932.782,6.315555476449213,30.783139751585065
3933.6887,6.302013294587469,28.61234772610672
3934.5938,6.290030574733643,29.12108509031749
3935.501,6.275812781145614,33.06442030319731
3936.4062,6.254378305039014,30.118898110483293
3937.3142,6.2229377886944315,32.39073628868011
3938.22,6.183537433637048,30.587666648708968
3939.128,6.141344684817839,27.05996414059006
