wavl,flux,ivar
3566.9744,1.3092003669505146,380.12133343776236
3567.795,1.3136419241040456,350.9263608114418
3568.6177,1.3208175586036757,293.9372828259924
3569.4385,1.3288056597481717,362.4183139909991
3570.2617,1.3350038319973343,339.16577355091346
3571.083,1.3373362685704575,359.8869305073491
3571.9065,1.335215921470969,215.84595249556938
3572.7283,1.32930517741038,304.21599315889273
3573.55,1.3207316697984621,415.48385800344823
3574.374,1.3106099605275727,354.0736412153112
3575.1963,1.3003252060977224,286.48063827059354
3576.0208,1.2916075306558028,342.1012406882059
3576.8435,1.2863119851748912,396.41524471441585
3577.6682,1.2853028537780091,353.05743634635354
3578.4915,1.2877980063165542,319.06959776736835
3579.3145,1.2915038920652135,398.31117977207646
3580.14,1.2937703339049533,369.9545774164783
3580.9636,1.293009388874866,261.0091985395103
3581.7893,1.2896414302790282,353.4440638669841
3582.6133,1.2860503550118672,387.03787132688024
3583.4395,1.2859354216222538,383.94579834132975
3584.264,1.2935884185177722,399.05627908265717
3585.0884,1.3123956525440756,356.1525460447882
3585.915,1.3421284078006992,356.1768929201885
3586.74,1.3760137222351754,379.12266416145604
3587.5671,1.4024704448543417,311.5651180445333
3588.3923,1.4108856673827213,358.0203769393512
3589.22,1.3988895170649598,348.64219417866826
3590.0457,1.373376461778869,347.8989646024351
3590.8716,1.3449305544821155,342.0770689993839
3591.6995,1.321255650752458,344.9145080140446
3592.526,1.3048699224563356,338.7432114708069
3593.3542,1.2946172943003016,356.0692320497637
3594.181,1.288700994937354,384.96751244863964
3595.0098,1.2856903835003146,294.92580665971843
3595.8367,1.2844374585797336,259.28380293214286
3596.6638,1.2836815466533849,534.862534905045
3597.4934,1.282260765861271,385.1461518997444
3598.3208,1.2795453471734985,396.0856671290491
3599.1506,1.275622481016133,356.5965740570613
3599.9788,1.2711936003094604,380.6652702052251
3600.8088,1.2670776087351725,432.14023147367243
3601.6372,1.2638542732139701,306.81337935901206
3602.4678,1.2616558205137955,335.05746733333206
3603.2964,1.260458050356427,303.58429549049504
3604.1252,1.2603832229383616,379.3818349223566
3604.9565,1.2617798078641504,329.1043149873277
3605.786,1.2648106614061587,345.2367783717952
3606.6172,1.2689830128819728,503.3061857913233
3607.447,1.2730114239681076,348.5912639369801
3608.2788,1.275443763946372,400.6288323359392
3609.109,1.2755039386900038,358.44554959394725
3609.9392,1.2736381736342306,330.1335893876115
3610.7717,1.2711129589255858,364.0950938609103
3611.6023,1.269063114573843,469.66452177169515
3612.435,1.267657542290575,346.2755446947738
3613.266,1.2662024013832607,233.4823367283578
3614.0994,1.2639162955664474,318.2112640209114
3614.9307,1.2607454458060265,311.09452738340383
3615.7625,1.2573695366046194,333.63832414688557
3616.5962,1.254577694480083,355.644147273924
3617.4282,1.2526386093898445,331.5508573278457
3618.2625,1.2512208423690026,415.8567142205315
3619.0947,1.2499474127989592,340.31859649778045
3619.9292,1.2488980742107652,519.3153935559326
3620.762,1.248727257217199,303.62868714097095
3621.595,1.25027665910065,377.7774900427105
3622.4302,1.2540578471124502,371.2100598088227
3623.2634,1.2597905098107252,384.40750885210633
3624.0989,1.2663657756461908,435.7166058043329
3624.9326,1.2720257697767992,407.98275844128904
3625.7686,1.2750880048052002,390.30674931608564
3626.6028,1.2745638011688465,391.2464547430277
3627.437,1.2706512379557122,300.20363200574263
3628.2734,1.264565595653388,580.2541577969533
3629.1082,1.257984058888094,348.1604940800558
3629.945,1.252113758780313,470.4684026070064
3630.78,1.2472866412458525,410.10067945647165
3631.6174,1.2430360615744165,390.3896024429496
3632.453,1.2389621107371183,324.0932644321822
3633.2883,1.2352760854055724,323.3383719778836
3634.1262,1.2326707253725668,433.98086468841103
3634.9622,1.2315375041321857,291.6062986479547
3635.8005,1.2313462148749357,320.11147083800387
3636.637,1.2309163025676852,437.40883237231327
3637.4756,1.2292117463640198,323.3211106233732
3638.3123,1.2260482715854915,436.84648279859977
3639.1492,1.2221811070212762,321.18061333552663
3639.9885,1.2188448327927375,471.3256962158753
3640.826,1.2170318714381498,392.65419453411914
3641.6653,1.2168639106822035,413.34172764346243
3642.5032,1.217614775276578,324.91581340282977
3643.343,1.218201613367331,420.7933448142884
3644.1812,1.217772320341756,420.53461595222615
3645.0195,1.2160444312903538,359.6671402070746
3645.86,1.213317357730558,342.18899358371385
3646.699,1.2102914534980156,367.8258360848766
3647.5398,1.207673121410808,383.5383361359673
3648.379,1.2059817420192456,349.55010137552625
3649.2202,1.2055436162209114,414.12653962903335
3650.0596,1.2065826756263358,362.6088050055818
3650.8994,1.2089906607696923,388.47349515244497
3651.7412,1.2120396076533242,414.17451009692206
3652.5813,1.2145029482560472,429.36495351722635
3653.4236,1.2153737571534495,324.7246819724485
3654.2642,1.2144681198503016,374.79433546538263
3655.1067,1.2125530554274349,311.88003786137426
3655.9475,1.2110172350226802,409.43511966213737
3656.7886,1.2113413937588504,464.6406266758582
3657.6318,1.2144731003082339,281.75040066026713
3658.4734,1.220024379523973,350.7941255166775
3659.317,1.2259903266926515,409.2064155305902
3660.1587,1.2294556304726532,319.7407601547363
3661.003,1.2284151894902524,351.9084491607102
3661.845,1.2231579471055443,376.89584026321046
3662.6875,1.2161124615922234,455.622061067804
3663.532,1.2102851651459976,448.6186387981465
3664.3748,1.2076873180682361,405.46580443390803
3665.2197,1.2086760502925735,370.154707669298
3666.063,1.212386607195107,397.7759185089429
3666.9084,1.2173970762000625,318.31936035495164
3667.752,1.222162137930384,466.9762968143126
3668.5977,1.2254544248781507,406.1297698029691
3669.4417,1.2265678109867235,337.5045453647086
3670.286,1.2254406560426825,479.5578962623467
3671.132,1.2224106353542636,345.4906483741406
3671.9768,1.218075518228288,422.9420260494641
3672.8235,1.213314799403666,445.8938048071077
3673.6685,1.2093996643773544,484.50947472469215
3674.5156,1.207531853733637,451.30005735240456
3675.3608,1.2082197006198245,348.0599159393424
3676.2063,1.2109303480716054,414.14564811730804
3677.0542,1.2145205137757755,403.0061333609576
3677.9,1.217890079101855,344.79879264379554
3678.748,1.220430153893465,434.1333520640636
3679.5945,1.2218514961116471,370.51887621317485
3680.4429,1.2220404907897913,375.4005117631824
3681.2896,1.2211361884510832,375.85878879899775
3682.1365,1.2197560458279413,460.33937752021035
3682.9856,1.2187769237756074,376.760864973229
3683.8328,1.2185827103444156,404.43271475492963
3684.6824,1.2183916309094616,373.6862506731314
3685.53,1.2164652529793278,338.6500834174356
3686.38,1.2111360884230913,433.74590600702845
3687.2278,1.2020723467471903,473.1644355117699
3688.0762,1.1908891482493333,365.8954738352645
3688.9265,1.1809558568472758,321.66828566306407
3689.7751,1.1760909700859032,450.06854002228596
3690.626,1.1784039831692141,232.69959420199953
3691.475,1.1872541946495083,448.47504050825825
3692.3264,1.2005655669733808,403.59616875234366
3693.1758,1.2176311678654137,405.3547050127249
3694.0254,1.2411803211218628,380.8957662859679
3694.8772,1.2757520869665526,391.2833469223327
3695.7273,1.3224165421554501,355.99836438716636
3696.5793,1.3742413901650472,374.24601116947383
3697.43,1.415437639980415,359.6597974503341
3698.2825,1.429672102929429,22.149919271602666
3699.1333,1.4104388832924701,329.1356909423794
3699.9841,1.3661015958487381,383.0677814522422
3700.8374,1.313642004214322,383.735138059411
3701.6887,1.2684599920419894,442.4353928098972
3702.5425,1.2368459432338132,435.44605655058103
3703.3943,1.217680074166868,355.5097509164098
3704.2483,1.206376476846426,419.3478438040821
3705.1003,1.1989869838503335,448.3797313511599
3705.9526,1.1932011547474928,393.36009986869885
3706.8074,1.1881989317519648,427.68159713494884
3707.66,1.1840579492137095,457.2185189237678
3708.515,1.1812002064408247,419.7225443031388
3709.3682,1.1801867246957447,420.66192070022106
3710.2234,1.1814433504477653,431.7686297618627
3711.0771,1.1850358607025968,413.01080777004125
3711.9307,1.1904302717573887,464.716724234379
3712.7866,1.1964292025597394,340.86801981965607
3713.6409,1.2013816639956616,440.51170760130424
3714.4973,1.2039277662375176,400.3976432455321
3715.3518,1.203572215742426,458.1523698180177
3716.2085,1.2008750051902284,382.919972161198
3717.0635,1.196952490447842,530.3773535658561
3717.9185,1.192733648788477,350.8585793465393
3718.776,1.1886516754871552,454.37884952107896
3719.6313,1.1849894725368915,381.37299989994733
3720.489,1.182317135455071,459.940761124804
3721.345,1.1815674989477585,395.54610088646285
3722.2031,1.183294855998842,541.9396881365717
3723.0593,1.1869208755588807,483.58143993231613
3723.9158,1.190804584578415,282.35199010907667
3724.7747,1.1931616463973733,482.6094412552207
3725.6316,1.1930437264849076,462.4620447058503
3726.4905,1.190694190040566,451.44505844552083
3727.348,1.187162343888766,356.7094926480955
3728.2073,1.1836347480096778,405.4248062842571
3729.065,1.1809571065161204,396.3114785859953
3729.9229,1.1793558954332293,378.92474419525604
3730.783,1.178525564746396,504.9397124578961
3731.6414,1.1778240787808747,465.8321399899588
3732.5017,1.1765246338991515,451.8852987296387
3733.3604,1.1741890097602032,449.16886873996134
3734.2214,1.170982545087193,442.92774231312984
3735.0803,1.1677374640879685,380.5970471004335
3735.9417,1.1654155562298583,463.61203627270805
3736.8013,1.1644901070938765,449.2808784994992
3737.661,1.1645624981600704,435.8688288141754
3738.5227,1.1646306189995543,461.35614746804157
3739.3828,1.1636727555943713,543.760141489644
3740.245,1.1611735653253727,499.13470233185774
3741.1055,1.1573701774928673,492.2998720499577
3741.9683,1.153097594319633,395.21736456173636
3742.829,1.1495069388283334,434.6757153154979
3743.69,1.1475576945921822,379.3637794223324
3744.5532,1.1477461264317839,393.17695360468326
3745.4148,1.149998609495328,508.0188451417802
3746.2786,1.153747463734488,484.36439116085893
3747.1404,1.158043722547764,465.10239457067536
3748.0044,1.1619036497474384,482.75240000496245
3748.8667,1.1646438212546195,424.6074952097619
3749.729,1.1662153245479938,487.45149520164324
3750.5938,1.1670533554742604,419.33455397496334
3751.4565,1.1676798871062175,432.0492826788571
3752.3215,1.168366096060694,382.5579853639501
3753.1848,1.168987622719688,462.5946969325388
3754.0503,1.1691023371571088,467.34502203363803
3754.9138,1.168204195595303,410.1757897784702
3755.7776,1.166152599984831,452.21837568726335
3756.6438,1.1634522101369063,575.907046674775
3757.508,1.161049120052949,449.17885051766734
3758.3745,1.159590772957248,450.6199488257763
3759.239,1.1589517936065554,485.4043213302488
3760.106,1.1584170287128512,413.88815718636573
3760.971,1.1574521336762884,473.0662861479917
3761.8362,1.1562303491862025,452.11043665930515
3762.7036,1.1554191415536408,552.339649837106
3763.5693,1.1554048991715147,486.46685331860317
3764.437,1.1556787926765217,463.01954748121534
3765.3032,1.1550393598671722,444.4853675935209
3766.1714,1.1524918386530432,446.44183262437184
3767.0378,1.1481002869919803,430.85471139337193
3767.9043,1.1429700130773115,473.8937392882355
3768.7732,1.1384946015879605,484.8594660341569
3769.6401,1.1356381084104996,475.8146823106845
3770.5095,1.1346947748354532,440.4133846453661
3771.377,1.1356176783023966,481.88098661913995
3772.2466,1.1381894211166501,535.8650463966967
3773.1145,1.141934736059368,498.85660701991475
3773.9824,1.1460713237464129,509.012754286023
3774.8528,1.149680178611777,350.62493134282533
3775.721,1.1520837126793795,439.6819573284672
3776.5918,1.1532802674529092,416.23924172295784
3777.4604,1.1538900493055184,390.03450357428505
3778.3315,1.1547026348194978,485.5876454125292
3779.201,1.156007345438076,471.41330494642045
3780.0703,1.1573715056423326,394.7497767161758
3780.942,1.1580633276638153,382.60234190165914
3781.8118,1.1577408277163237,379.127095861564
3782.6838,1.156761758523111,371.88531146829786
3783.554,1.1558667340211914,498.26305522343506
3784.4265,1.1555932958048716,366.06410273449745
3785.297,1.1559548286264372,496.2589372197293
3786.168,1.156513406331215,494.91144449159526
3787.041,1.1567225207824994,426.91669714253044
3787.912,1.1562518704411555,455.8852481066704
3788.7856,1.1550873788220375,463.99905923018
3789.6572,1.1533910668460574,428.66362981489044
3790.531,1.1512929691862386,552.2411893301077
3791.403,1.1489255317195546,362.0656698241432
3792.2754,1.1465271442075509,463.0332162450307
3793.15,1.1444324819161165,449.80818969570265
3794.0225,1.142800095989779,441.2868392554324
3794.8972,1.1413096357066757,450.9575484282163
3795.7703,1.139298553305763,422.3323881061915
3796.6455,1.1362241729687215,460.4974412919289
3797.519,1.1322425356737016,446.42573561891555
3798.3926,1.1283050481922967,369.1709452384247
3799.2686,1.1257234025032306,461.80100772056954
3800.1426,1.1253963428600011,577.4285321711436
3801.0188,1.1272170092034568,489.07135913514355
3801.8933,1.1301874745933609,442.5237761011715
3802.77,1.1330756160719695,487.7792385846212
3803.6448,1.1350157550330038,563.7823969429992
3804.522,1.1358094508616972,483.4447163870032
3805.3972,1.1357660665264415,441.92165727189075
3806.2727,1.1354642094665552,417.3887877839829
3807.1504,1.1355220749404928,437.1812720204625
3808.0261,1.1364011078994403,477.6427952227922
3808.9043,1.138211634032249,393.61752132420264
3809.7805,1.1406126669244276,370.58843611855633
3810.659,1.1430156596584422,505.76926279835243
3811.5356,1.1448746516761599,469.753014182593
3812.4126,1.1459278726103783,410.3776842490457
3813.2917,1.1461179919356241,455.26205886462077
3814.169,1.1454754228699948,437.15381981969233
3815.0483,1.1441770842005274,420.4146054903968
3815.926,1.1426773189882986,445.1138135387442
3816.806,1.141492278319479,392.78601202155915
3817.684,1.140699472322474,435.43074602350293
3818.5623,1.1396297514597709,370.35404987036014
3819.4429,1.1372533827006583,467.89615113401436
3820.3215,1.1329725955651109,435.572255986543
3821.2024,1.1270307419300343,460.9302579345801
3822.0815,1.1203914872686123,392.88748138692006
3822.963,1.1140697403668531,478.83147836794296
3823.8423,1.1087999997093878,519.4122710953088
3824.722,1.10486772055896,416.82175911782184
3825.604,1.102306430960799,449.9205842173365
3826.4841,1.1009539296920716,490.18341995921804
3827.3665,1.1003527185079194,476.59728947017163
3828.2468,1.099827756162187,485.35659322550634
3829.1296,1.0986971847662068,443.3891175116625
3830.0105,1.0964986960704899,614.2984610969909
3830.8916,1.0930190618627234,468.0071811625484
3831.7751,1.0883109158819912,551.1450854033696
3832.6565,1.082864773206284,472.4997569182115
3833.5403,1.0775644793560073,419.65890311049134
3834.4224,1.0734881592846397,618.8866181565422
3835.3064,1.0712496925776585,519.8282369786912
3836.1887,1.070686374129351,507.59622780164017
3837.0713,1.0710259636578947,528.7090225549589
3837.956,1.0715918852700388,492.8577824620575
3838.839,1.0723818529747822,470.0198166429996
3839.7244,1.0740623274787904,454.3993920457872
3840.6077,1.0773453678580456,408.5226023454483
3841.4932,1.0823979907192434,741.4420927026528
3842.377,1.0886540445257944,463.183561408502
3843.261,1.0952534958714715,407.9387379594403
3844.1472,1.101451205324135,473.83969817121726
3845.0315,1.106781199408483,448.71848816867896
3845.9182,1.1111954989111714,399.244472167693
3846.803,1.1149521641089346,440.38128096463436
3847.69,1.1185702432445501,470.0262884582793
3848.5752,1.1224267006190471,526.0947986501507
3849.4604,1.1265016910248764,431.1886542539233
3850.3481,1.1303736426355067,444.9269498159437
3851.234,1.133535344404903,453.61474887657755
3852.122,1.1357749168645521,463.2516841141531
3853.0083,1.137070860104207,477.8619255078739
3853.8967,1.1373582900426606,494.06981433993536
3854.7832,1.1364234264080688,318.52590347982897
3855.6702,1.134195298350282,456.1222437539166
3856.559,1.1310756268973676,433.90352461710273
3857.4463,1.127972780095914,440.32264805721206
3858.336,1.1258695650243116,463.9173463164884
3859.2234,1.1253776972867198,543.8791747037396
3860.1135,1.1264372088781331,433.8798901461023
3861.0015,1.1284046101232799,472.75009213662895
3861.8896,1.1303704841087745,445.0388861240791
3862.7803,1.1314983159420793,468.09924843315724
3863.6687,1.1312957681524842,441.0119999376064
3864.5598,1.1297760869128852,499.37135832149465
3865.4487,1.1274002474605234,548.161870393835
3866.34,1.1247356551449506,462.8851775917561
3867.2297,1.1220586322098431,544.9760001887784
3868.1213,1.1190283832300132,490.87470658431926
3869.0112,1.114894685367499,476.14379475767146
3869.9014,1.1090630889453958,420.63712452331583
3870.7937,1.1017404256665038,463.4311414752376
3871.684,1.0940891644495743,492.2806347767
3872.577,1.0874771612412983,524.129481792947
3873.4678,1.0827625056460588,514.5494918467027
3874.361,1.0797878109717203,458.15064616395296
3875.2524,1.0777644098656585,473.62490275855026
3876.1438,1.0758077022250105,525.6509739603492
3877.0376,1.0733889272871862,459.18339788011207
3877.9297,1.0704276152546852,484.38823026705603
3878.8237,1.0670627163096031,544.9399146788286
3879.716,1.0634164572216662,503.99869825815176
3880.6108,1.0593333193997119,535.11079673612
3881.5037,1.054480035421415,548.9467189150384
3882.3965,1.0485429495159417,512.7714994445852
3883.2917,1.0414947221919701,471.5214958629191
3884.185,1.0336732185437933,551.6079647315833
3885.0808,1.0254872236689756,491.5166782671618
3885.9746,1.0174506958048701,552.2309460214742
3886.8706,1.0100472597532533,522.798863436162
3887.765,1.0039203076968104,575.5222034596705
3888.6592,0.9997501103560847,625.6894633740027
3889.556,0.9982245073636646,575.2390882890943
3890.4507,0.9998031695161641,558.5427871579027
3891.348,1.004401052098023,555.8619110545886
3892.243,1.0112320059214888,548.5767683928996
3893.1406,1.0191622077014817,497.37342352360207
3894.0361,1.0271118578558576,512.0909516443539
3894.932,1.0346287319189298,500.53867845541447
3895.83,1.0418230830297304,507.0879610785871
3896.7263,1.0488887477386717,513.7920361536553
3897.625,1.0557390793569439,553.3783256299204
3898.5215,1.061827511207464,444.5271109338971
3899.4207,1.0667969916436202,480.9396846110095
3900.3176,1.0709320134725744,581.54066446737
3901.2148,1.0752886933725498,483.97925364465334
3902.1145,1.0810562653917613,535.7799243753793
3903.0122,1.0887665220903688,564.1145707254037
3903.912,1.0980290031034432,511.1087566341382
3904.8103,1.1076248874142463,437.85729919814224
3905.7107,1.1163873707678513,499.5981227003701
3906.6094,1.1238726843859246,472.2154584776242
3907.508,1.1307700564005618,454.8874269572062
3908.409,1.1381991419215591,489.1464039441406
3909.308,1.1465660268602536,388.6488112868763
3910.2097,1.1551979091502658,415.7844237746941
3911.1091,1.1628225227357811,371.26743030239254
3912.011,1.1687757878639138,483.8871654799005
3912.9111,1.1732134751759098,459.097862167801
3913.8113,1.1766733035279644,477.16750917165
3914.7136,1.179348801858982,418.1137511789972
3915.6143,1.1809848343359723,461.59111263331744
3916.517,1.181349662665347,441.8566881420287
3917.4182,1.1806721792055606,406.339696861443
3918.3215,1.1797552784164225,372.0725959330357
3919.223,1.1796324309746753,419.15829966524404
3920.1245,1.1809539262309192,406.2793158198816
3921.0286,1.183595502356781,343.80450079696567
3921.9307,1.1867479833031984,378.5249647858735
3922.835,1.189499323348379,367.87153193037426
3923.7373,1.191288262209485,441.22761815340914
3924.642,1.1921183371985802,420.281532501922
3925.5452,1.1923947164406878,446.3515037310136
3926.448,1.1926506416709735,388.1159057540933
3927.3535,1.1931865984765961,424.13829747905595
3928.257,1.1938201845938343,407.5138820891278
3929.1628,1.1939801274464956,383.0424292460711
3930.0667,1.1931048436167881,313.1574433049541
3930.9731,1.191015690084047,347.9058701051114
3931.8774,1.1879765592597298,370.18161309527125
3932.782,1.1844219492650256,366.90658561806544
3933.6887,1.1807332577451983,440.68203481596737
3934.5938,1.1771770675348017,455.82863389801224
