wavl,flux,ivar
3566.9744,30.05699056023505,2.7859465716775778
3567.795,30.22170322747978,2.9246508272824427
3568.6177,30.303460528793202,2.7647890507199575
3569.4385,30.290939765178976,3.129002231992017
3570.2617,30.19900340477589,2.4128317209593817
3571.083,30.060902306498484,2.712874189606098
3571.9065,29.91244348006483,2.728522934799485
3572.7283,29.780554116129743,2.8724630803868307
3573.55,29.674537166644473,2.8166685390428046
3574.374,29.589571099851575,2.7101372554103196
3575.1963,29.514208843692327,2.813211446003271
3576.0208,29.436518760594517,2.8058533070273417
3576.8435,29.351941031618242,2.851981284101127
3577.6682,29.264561658360844,3.3485724476892202
3578.4915,29.184430402803113,2.969417662909748
3579.3145,29.116738955346406,3.2772169348109967
3580.14,29.055715715831784,2.7262925040185926
3580.9636,28.988552421649405,2.9400672699808172
3581.7893,28.904521085961168,3.1233580200113797
3582.6133,28.804492980383575,3.047448017690954
3583.4395,28.700772588608146,2.8823650501526457
3584.264,28.61514386266173,3.0414852508833
3585.0884,28.570866590198563,3.3378614979769896
3585.915,28.585220364570002,3.3073378249811283
3586.74,28.65935962858241,3.3067815746064277
3587.5671,28.77265942777287,3.1908699710359025
3588.3923,28.885484639404517,2.834174213020559
3589.22,28.95664892943844,2.9758901203621373
3590.0457,28.960590125580765,2.8001229137772286
3590.8716,28.89799181059425,2.9415879731494763
3591.6995,28.788108317710087,2.9597967386615998
3592.526,28.655725870682435,3.1006489506848176
3593.3542,28.51917670289466,3.3563405806875024
3594.181,28.39076061464677,3.1640433593921635
3595.0098,28.27765043717591,2.9022880161446714
3595.8367,28.18680859922971,3.2865635603420715
3596.6638,28.122263978122916,3.309140015548774
3597.4934,28.082711887301528,3.162072546844325
3598.3208,28.05810752874604,3.6554409236263576
3599.1506,28.029826017490645,3.226342719485163
3599.9788,27.979364368634858,3.413292659909972
3600.8088,27.90008438179402,3.3183657093229972
3601.6372,27.80551095796212,3.134054855493768
3602.4678,27.72029299943992,3.4052372942273803
3603.2964,27.66213410008596,3.95517665687244
3604.1252,27.62814277664826,3.157839592958357
3604.9565,27.606151157635914,3.6810296903323616
3605.786,27.59726838720144,3.1604474557867293
3606.6172,27.623296941224687,3.532574193967585
3607.447,27.708143875702856,3.4926300521879905
3608.2788,27.85177435817031,3.330112514961688
3609.109,28.02010290041608,3.740275492631968
3609.9392,28.163385427764002,3.153530497610081
3610.7717,28.24161901548347,3.1238181933504845
3611.6023,28.241265610086995,3.1290418507090307
3612.435,28.174797871821653,2.7804639203755257
3613.266,28.06623430897152,3.1589599239448782
3614.0994,27.935681306033445,3.167534675739599
3614.9307,27.79557369273581,2.7858190972156853
3615.7625,27.651967203512616,3.3758632725278983
3616.5962,27.51158566266369,3.4318730959686827
3617.4282,27.384009356690317,3.541588874724894
3618.2625,27.27561053425302,3.531462965411478
3619.0947,27.187374007545117,3.4863985853798463
3619.9292,27.113215517383107,3.642954027006825
3620.762,27.047211701387095,3.442307152148566
3621.595,26.987551294141504,3.454787031129214
3622.4302,26.937327748198804,3.809220908283483
3623.2634,26.900073808778068,3.258194868056086
3624.0989,26.874541763610484,3.6210474894221827
3624.9326,26.85612021077042,3.4756568477008893
3625.7686,26.841042965252335,3.285977066652291
3626.6028,26.830249733635775,3.699345316949903
3627.437,26.827886045433345,3.680485961410853
3628.2734,26.836797978879385,3.3763525753896357
3629.1082,26.853901318519895,3.597086335996779
3629.945,26.86984539568571,3.550396267878559
3630.78,26.874196864682997,3.340481620478551
3631.6174,26.863464426984024,3.7191254966964307
3632.453,26.84337298320569,3.7991479190594357
3633.2883,26.822080583634047,3.3568111409373915
3634.1262,26.801617576903386,3.247462733426559
3634.9622,26.777110168725194,3.4409848702272643
3635.8005,26.74294736591667,3.248613524134916
3636.637,26.698883233026468,3.362211389809755
3637.4756,26.64820325720232,3.4355182737146746
3638.3123,26.5941411835189,3.2872992128134073
3639.1492,26.537458428528897,3.458355406278656
3639.9885,26.47871078815062,3.5538057241204726
3640.826,26.419773561887766,3.940781427551989
3641.6653,26.36098169964742,3.5100207815154936
3642.5032,26.301208178438344,3.6579388762724214
3643.343,26.239739140350864,4.027932235231494
3644.1812,26.180665153962888,3.8324317020312404
3645.0195,26.13044217865761,3.9929061041197573
3645.86,26.09264123132239,3.5761124295098528
3646.699,26.06426667781517,3.3317420146418595
3647.5398,26.036979170080425,3.366587825326601
3648.379,26.002769257563994,4.287779413258214
3649.2202,25.957036860551703,3.5250594904006367
3650.0596,25.89981275406503,3.6907954284218167
3650.8994,25.834040302102167,3.569434228197876
3651.7412,25.76494225389129,3.6747064264748786
3652.5813,25.698676492520434,3.7651392392888225
3653.4236,25.63831187922582,3.8578843579215008
3654.2642,25.583344289395693,3.8039457274358552
3655.1067,25.531154781803956,3.7214136119529537
3655.9475,25.483080156552653,3.878227738691184
3656.7886,25.445377786460366,3.708991809927429
3657.6318,25.425206271934588,3.799918997301867
3658.4734,25.423821206087258,4.129886480215555
3659.317,25.433864664770436,4.111901476567666
3660.1587,25.44398680594838,4.14707830891396
3661.003,25.446783742969295,4.124018548532991
3661.845,25.443902609800617,3.8497438714935703
3662.6875,25.44497084974686,4.009245755718539
3663.532,25.46050598282569,3.944499737822991
3664.3748,25.492907399235364,3.825009365971778
3665.2197,25.53279778596427,3.946307787620734
3666.063,25.564051201426924,3.479123577297787
3666.9084,25.57608304670951,3.9502517083075923
3667.752,25.571139156652226,3.862588427783138
3668.5977,25.56121223189541,4.261310000506206
3669.4417,25.5571739556658,4.298479388605391
3670.286,25.560234839731123,3.5596883019294596
3671.132,25.5625130305388,4.0064325449559846
3671.9768,25.555015917893453,3.482562404001364
3672.8235,25.536590183625734,3.762578945675171
3673.6685,25.51656533226961,3.761112253146997
3674.5156,25.507732944842484,3.7874799442113205
3675.3608,25.515398467390618,3.7728702785337966
3676.2063,25.53120204384327,3.7509028478406994
3677.0542,25.538051289765082,3.408983268800687
3677.9,25.521736122060414,3.910183517090195
3678.748,25.47972923192191,4.05834068143114
3679.5945,25.42134912974793,3.970856092505143
3680.4429,25.360370675895833,4.605453395356661
3681.2896,25.308650280663212,4.3150510008421445
3682.1365,25.27073888846884,4.027170799637784
3682.9856,25.24350224410547,4.012918306755676
3683.8328,25.219860512358466,3.9677579761639734
3684.6824,25.195138797335026,3.860639713329656
3685.53,25.17172363282097,3.878574161840635
3686.38,25.15550386411407,3.890868660335377
3687.2278,25.149420868683155,3.8129582184173088
3688.0762,25.150282442124173,3.742658683585407
3688.9265,25.15246573198955,3.8632004821620316
3689.7751,25.152799566082308,3.8611548414369925
3690.626,25.15187437761437,4.042941655995448
3691.475,25.15169909040452,3.8984944122645406
3692.3264,25.15286904182553,3.7972390303877175
3693.1758,25.153305258354646,4.184359141767215
3694.0254,25.149268461517803,3.8402911355800597
3694.8772,25.13837099231531,3.5616042955051594
3695.7273,25.122542112677262,4.270366523653474
3696.5793,25.106832588476088,4.166623083702975
3697.43,25.094525282795722,4.229990842426919
3698.2825,25.08264054907956,3.9336614114517863
3699.1333,25.063393744895006,4.113719690007902
3699.9841,25.02946358048324,4.306126079286288
3700.8374,24.978515724794846,4.141517266726255
3701.6887,24.914711735919088,3.8471438014441803
3702.5425,24.845758969000688,4.006215129945151
3703.3943,24.780738159652042,4.387007089395603
3704.2483,24.724782207257988,4.4214417154734935
3705.1003,24.6771622219949,3.8564213672311904
3705.9526,24.6304445078248,4.63531549455686
3706.8074,24.57537626882766,4.4283855791460995
3707.66,24.507873345099785,4.244260935641984
3708.515,24.432176626938446,3.8678612655625235
3709.3682,24.360773778543997,4.67905972060451
3710.2234,24.30613962944673,4.385791717849646
3711.0771,24.273628528082032,4.656518471283893
3711.9307,24.256581912099453,4.050047700183959
3712.7866,24.23942260230747,3.9061691607253235
3713.6409,24.20494126610228,4.282415148259176
3714.4973,24.141347449211768,4.393584160186632
3715.3518,24.04781831828327,4.645824103700935
3716.2085,23.93420657700578,4.388404523272568
3717.0635,23.819052100964058,4.523237714591966
3717.9185,23.720124725819044,4.50364427890568
3718.776,23.64693615517509,4.435068480092352
3719.6313,23.597767565121053,4.346098715123571
3720.489,23.562247853526046,4.041218271675273
3721.345,23.530611311658653,4.865961104869154
3722.2031,23.499089249329753,4.549014843201814
3723.0593,23.47020438299264,4.725375702067918
3723.9158,23.44672401994827,4.659916734288094
3724.7747,23.426933714423825,5.002068616274937
3725.6316,23.404783211162467,4.342802434431497
3726.4905,23.373863665025457,4.584043552847742
3727.348,23.33172980074642,4.40657474494741
3728.2073,23.279373634262658,4.419018838967898
3729.065,23.21941357402157,4.472157465697513
3729.9229,23.1540720937206,4.420800683505389
3730.783,23.086467572109736,4.611468288596995
3731.6414,23.021884465434418,4.822747567563714
3732.5017,22.965181222251996,4.541718281471569
3733.3604,22.919362690502208,4.767754219134105
3734.2214,22.883746717945066,4.921742565737036
3735.0803,22.855976143345572,4.631712231663087
3735.9417,22.83295112686565,4.808755451207432
3736.8013,22.81255794279554,4.802110199666403
3737.661,22.793562450237964,4.8638778436049215
3738.5227,22.77550524448923,4.684083895457909
3739.3828,22.758315601531887,4.535576844510484
3740.245,22.741524569855766,4.557975914661479
3741.1055,22.72388652078835,5.284316133025127
3741.9683,22.70214379209984,4.783836022962469
3742.829,22.67139745020134,4.342279076314036
3743.69,22.626837166255786,5.043424864448842
3744.5532,22.567436119557545,4.9000870021027225
3745.4148,22.499428064544958,4.58137334921986
3746.2786,22.434690951382407,5.028229367754971
3747.1404,22.38708418215704,5.473871812726456
3748.0044,22.364782390771154,5.61726894488959
3748.8667,22.366991289508015,4.963359994438889
3749.729,22.384396645450686,5.4578391684527805
3750.5938,22.404220571687297,5.246426355913257
3751.4565,22.415025825838224,4.724866464367924
3752.3215,22.410413466820685,5.074127918434895
3753.1848,22.390185507659464,4.825439397326718
3754.0503,22.359218611982385,5.095211484709535
3754.9138,22.32437568196055,5.422612541241299
3755.7776,22.290245672879152,4.982032686326889
3756.6438,22.258119322104914,4.961201226734822
3757.508,22.22789281653339,5.159457166899791
3758.3745,22.1994330422754,5.514686323501732
3759.239,22.173209474672692,4.874947898627567
3760.106,22.148615606997843,5.123252136800224
3760.971,22.12392993582453,5.415892315272231
3761.8362,22.096095687528205,5.617596641800891
3762.7036,22.06114959604264,4.907404267949123
3763.5693,22.015050559853265,4.930002268980286
3764.437,21.954979447857806,5.354121502691337
3765.3032,21.882930904556193,5.308199064577508
3766.1714,21.805981351146006,5.61553491985179
3767.0378,21.73495042909739,5.170944571714664
3767.9043,21.678333239392483,5.584731246767711
3768.7732,21.639000128789366,5.125405320669681
3769.6401,21.614587976890235,5.378078589652586
3770.5095,21.60054381101444,6.116931040357806
3771.377,21.594566246671015,6.103277724393623
3772.2466,21.59722792343941,5.257044361926166
3773.1145,21.609661371924627,5.267204648971974
3773.9824,21.630115996027772,4.97791267355947
3774.8528,21.652664233203065,5.393073688481162
3775.721,21.66900776319975,5.036444181942277
3776.5918,21.673053435416957,5.492651382727525
3777.4604,21.663844263405146,5.8361894824219
3778.3315,21.645439888185646,5.9767380711613685
3779.201,21.623856207826968,5.359830283962598
3780.0703,21.60351028912682,5.106504804403867
3780.942,21.585859077797714,5.333674483926085
3781.8118,21.569401577541544,5.80162393293832
3782.6838,21.550048815046235,5.1106087548011
3783.554,21.524066041340088,5.645838147931531
3784.4265,21.491874013606285,5.232950985573693
3785.297,21.460040168984936,5.942919276212312
3786.168,21.435772609025637,5.450525414893542
3787.041,21.419162372364795,5.676645380212351
3787.912,21.400259083833237,5.390549021374943
3788.7856,21.364498737399977,5.581394661702041
3789.6572,21.30255578544057,5.293990789133256
3790.531,21.214614914387294,5.778278767102035
3791.403,21.1099903280437,5.6726929013656635
3792.2754,21.001107671411546,5.155203674721442
3793.15,20.899505438840166,5.974036073892365
3794.0225,20.81289481845344,5.53403342566709
3794.8972,20.74118706161058,5.751008336842332
3795.7703,20.679237506778687,6.552570037979251
3796.6455,20.6209814925034,5.8852414516458245
3797.519,20.56690228670502,6.356172393035345
3798.3926,20.524566980651997,5.966652703409247
3799.2686,20.504044637950635,6.260849168593033
3800.1426,20.51062156347225,6.087579127656093
3801.0188,20.54086133687908,5.99531622078102
3801.8933,20.5849624049537,6.031885472111202
3802.77,20.63335375360622,6.446512556430935
3803.6448,20.68120771691627,5.6674056370799875
3804.522,20.730079710666143,5.537792046540347
3805.3972,20.78324540942252,5.684520395855702
3806.2727,20.841887663099264,5.80346447945124
3807.1504,20.902961109128015,5.309793837820573
3808.0261,20.96032390704161,5.745952247411446
3808.9043,21.00831495661071,6.001256514435809
3809.7805,21.04252274122239,5.670969331075423
3810.659,21.061718910293663,5.717292280767251
3811.5356,21.0673342395656,5.771998006531276
3812.4126,21.06269605916857,5.948878789445869
3813.2917,21.050956511650718,5.551553570577327
3814.169,21.033942269128328,5.789879636127732
3815.0483,21.01133871255452,5.60384714816106
3815.926,20.980903993693932,5.847830257298501
3816.806,20.93903049467641,5.881710600977007
3817.684,20.883940957231253,5.669411865141246
3818.5623,20.817595255497647,5.508856870209302
3819.4429,20.745128513249572,6.65951629695207
3820.3215,20.671665030343103,5.968811076174741
3821.2024,20.59767746628456,5.811983015153049
3822.0815,20.5205743891977,6.046019231770853
3822.963,20.435643294799764,6.294672290281526
3823.8423,20.33868547915552,6.594677584401985
3824.722,20.22447188517793,5.844709542268266
3825.604,20.087868547414736,6.4521005840654775
3826.4841,19.927611527604277,6.225406935170182
3827.3665,19.746557711335907,6.400793335430609
3828.2468,19.555110510866733,6.269886856051838
3829.1296,19.365114156457047,7.103487257366256
3830.0105,19.18907208375501,6.86589058601947
3830.8916,19.033355868123664,7.253489334320773
3831.7751,18.898913993659825,7.823734809807083
3832.6565,18.783446434687548,7.683843189563725
3833.5403,18.68151563158088,7.539513750448946
3834.4224,18.589838864576052,7.507556862636654
3835.3064,18.508115889682948,7.554982811306245
3836.1887,18.442326067897884,7.298259368293464
3837.0713,18.40265940313482,7.695131338863685
3837.956,18.4006815535342,7.827895467022557
3838.839,18.44431581631859,7.07503915377142
3839.7244,18.53468555588291,7.055622944321998
3840.6077,18.664674139393306,7.084361782271607
3841.4932,18.822364209327194,6.465499914918347
3842.377,18.9921773753182,7.4642331926238
3843.261,19.16116776320122,6.860137347380369
3844.1472,19.321120459556607,6.592332523196322
3845.0315,19.468360009740703,6.890997596974785
3845.9182,19.604809545269433,6.985754451025569
3846.803,19.732172567809382,6.602802201480515
3847.69,19.851894779321377,6.526028856515511
3848.5752,19.962084700611694,5.850704291516318
3849.4604,20.061628589696962,5.983101421122672
3850.3481,20.15237579245107,6.021220713212982
3851.234,20.23814247494694,6.388523240321255
3852.122,20.321392466650323,6.257474200261477
3853.0083,20.396272831441248,6.397594240953835
3853.8967,20.45083214119658,5.809730680264398
3854.7832,20.473747123442248,5.780675625133812
3855.6702,20.465019244513794,5.809854715286735
3856.559,20.438495727108428,6.182689825881808
3857.4463,20.415340688251657,5.845985858152246
3858.336,20.41096963827344,6.050835321215551
3859.2234,20.426362832355366,6.232498340374386
3860.1135,20.449384493314987,5.739674460411059
3861.0015,20.464247944238068,5.8150451012477165
3861.8896,20.46160469958098,6.485506210700909
3862.7803,20.441400797054175,6.188466405183387
3863.6687,20.409845159931944,6.300467301212931
3864.5598,20.37307627020029,5.899338229168043
3865.4487,20.332996566993124,6.322669386564966
3866.34,20.284735589445408,6.206996335596494
3867.2297,20.2197873723789,6.141419594616119
3868.1213,20.130660375638627,5.975398107063465
3869.0112,20.017242328665883,6.630531805288523
3869.9014,19.886043378516085,6.4895763215611675
3870.7937,19.74587722976184,6.583899354495724
3871.684,19.603403965341702,6.438527384769119
3872.577,19.459018126576005,7.239680253265292
3873.4678,19.312041607299985,6.993735211134321
3874.361,19.160916226363558,7.207160939027085
3875.2524,19.0063866013343,7.274646583601361
3876.1438,18.846860722399015,6.961589877096737
3877.0376,18.678290698291338,7.802118973758226
3877.9297,18.49767656165323,6.720399828635876
3878.8237,18.30342521963432,8.097515330961667
3879.716,18.098659786734686,8.315529787158077
3880.6108,17.884807060585622,8.049919902976109
3881.5037,17.662239373922006,8.064770619801397
3882.3965,17.42678950833892,8.571506886950642
3883.2917,17.17396749322505,8.438106946063018
3884.185,16.90472028554505,8.389630897871575
3885.0808,16.622990680396754,8.682027605078805
3885.9746,16.340962568817815,9.533566750343066
3886.8706,16.072480285080527,9.276544659316045
3887.765,15.836399087722885,10.206744012420705
3888.6592,15.650222952492312,10.382499341919175
3889.556,15.529441525247599,10.638150159033803
3890.4507,15.485438482086488,11.53777467750563
3891.348,15.521975921347465,12.969932763466598
3892.243,15.635254791285535,10.803535463730304
3893.1406,15.814886166398818,10.60273429468761
3894.0361,16.04277890613988,9.640213824101235
3894.932,16.29911002207196,9.258191633336205
3895.83,16.565513129424197,9.921683715428916
3896.7263,16.826541908152873,8.945101966106849
3897.625,17.07544529898166,9.300596716512503
3898.5215,17.308080933428457,8.314513554068965
3899.4207,17.526295762346226,8.177964891439322
3900.3176,17.731592889032463,7.797610632091721
3901.2148,17.92842106142824,8.000842076515394
3902.1145,18.121270639425326,8.77042134747745
3903.0122,18.312287967940176,7.695496801458478
3903.912,18.503528128771247,8.524372127109668
3904.8103,18.69309677732161,6.96336046327689
3905.7107,18.879104495950653,7.223550137202066
3906.6094,19.057729769531782,6.612113967861323
3907.508,19.227612578416075,7.022888889626121
3908.409,19.38971708995785,6.265652557408459
3909.308,19.54577994805518,6.734697575148502
3910.2097,19.699013813713453,6.177109647652934
3911.1091,19.849091053358116,5.867133906971962
3912.011,19.99409385279512,5.996146270890247
3912.9111,20.12793362060533,6.528645374951058
3913.8113,20.244712171846622,6.318817361671121
3914.7136,20.340490673153667,6.338363696590664
3915.6143,20.41493561635119,6.112610939508808
3916.517,20.47305515654252,6.1830992714954585
3917.4182,20.522120574253005,6.389798074240499
3918.3215,20.569655378800658,5.988538934324861
3919.223,20.6192527660981,5.939016141635539
3920.1245,20.669568605094806,6.207290311200053
3921.0286,20.715124019310043,6.0601884354348465
3921.9307,20.74990788631474,5.545600523627191
3922.835,20.772259991721853,6.054844436563205
3923.7373,20.785240123205835,5.549907649664328
3924.642,20.793971425400247,5.8043890570308765
3925.5452,20.801229092707917,6.169977453831457
3926.448,20.80668129144027,5.668795057626871
3927.3535,20.809472771583515,5.867806141835574
3928.257,20.810512738665437,6.101736078062171
3929.1628,20.811295468448517,5.50743575307805
3930.0667,20.810652837334672,5.903024199800241
3930.9731,20.803506814662708,5.718783622370508
3931.8774,20.7832632029849,6.361328020656868
3932.782,20.745733628905207,6.016377062880183
3933.6887,20.691638335567887,5.922253716607512
3934.5938,20.626248647201614,6.004950401163868
3935.501,20.554860721929835,5.871990042984833
3936.4062,20.480602201517044,6.312020148045152
3937.3142,20.40291078557607,6.1842917490261335
