wavl,flux,ivar
3566.9744,9.35609182859043,30.5095458267353
3567.795,9.352929821176916,31.648868083052637
3568.6177,9.346116251272752,32.15546931274878
3569.4385,9.335876754541376,32.18534699207191
3570.2617,9.32294346263933,31.323469768616068
3571.083,9.30858004158917,32.81091227351483
3571.9065,9.29400732140036,32.851650620439514
3572.7283,9.28031109795883,32.8076624415938
3573.55,9.26801530672527,31.98222060228345
3574.374,9.257216608387706,35.43478171201515
3575.1963,9.247693492360296,33.29130278680056
3576.0208,9.238764238267093,32.82279054908179
3576.8435,9.229792426744853,34.33653600298938
3577.6682,9.220556111680173,35.935691640676325
3578.4915,9.211595906302234,33.535588452519114
3579.3145,9.203613708487469,34.51830782603694
3580.14,9.196886950794866,34.2463100353079
3580.9636,9.191119719203458,34.373255669463504
3581.7893,9.185474316556796,36.19359932442879
3582.6133,9.178898478296356,35.59705849414749
3583.4395,9.170398180003433,33.92363798156122
3584.264,9.159919852333891,30.461493845960835
3585.0884,9.148844246776807,37.01847125147157
3585.915,9.139618902996737,32.89807842803606
3586.74,9.134211879809532,35.682232625933764
3587.5671,9.132250129069234,32.25403462309739
3588.3923,9.130767308711784,34.34458930192994
3589.22,9.125481306504412,32.5506655236305
3590.0457,9.112866818809369,35.335121069760675
3590.8716,9.091484895992584,35.64087253129407
3591.6995,9.062411598466223,33.51440435190069
3592.526,9.029274462239172,34.83564812907608
3593.3542,8.996981703497852,35.99181439968878
3594.181,8.970648533944606,35.5996016297498
3595.0098,8.953144639628476,33.475398440198944
3595.8367,8.94433719407375,38.18608342863808
3596.6638,8.941219624691938,34.15942214787177
3597.4934,8.940022464239155,36.21162110246072
3598.3208,8.938184799414433,35.75544436227283
3599.1506,8.935158996950308,32.24395880878927
3599.9788,8.931818288334394,32.2386043503846
3600.8088,8.928965305470603,34.165849104537024
3601.6372,8.926112380290697,36.12927719194036
3602.4678,8.921263569019395,34.903186944977314
3603.2964,8.912414063270967,32.84435486095473
3604.1252,8.89972982478437,35.679908898581424
3604.9565,8.886763953971123,36.763368359197166
3605.786,8.87924677017857,35.598495188591606
3606.6172,8.881483159265438,35.28291333749567
3607.447,8.893423035465483,38.25675946898389
3608.2788,8.910231491966467,34.09323171245343
3609.109,8.924479291160944,35.27975163277277
3609.9392,8.929712186266963,34.50497123173001
3610.7717,8.922569967027032,36.56968336898931
3611.6023,8.903517767817805,36.18691245551218
3612.435,8.876058316370752,36.674701567379095
3613.266,8.84584933682819,36.664992620089
3614.0994,8.818492273801407,38.12976649287724
3614.9307,8.798036874635818,38.29707003858579
3615.7625,8.785247610038873,36.91061762577434
3616.5962,8.77833697745068,35.64648347655115
3617.4282,8.774639923966708,39.22373937400264
3618.2625,8.772055725249107,35.97823378448303
3619.0947,8.769386242208617,36.78554056478053
3619.9292,8.765696655167721,35.89056047568599
3620.762,8.760105711260564,37.61235354813555
3621.595,8.752013835324565,35.48574371169927
3622.4302,8.741279136861868,38.241877460219285
3623.2634,8.728067421352037,37.67973366672449
3624.0989,8.712470110330665,36.260938751644375
3624.9326,8.695111525649473,38.86677801160553
3625.7686,8.677484394026346,40.64220173193983
3626.6028,8.662474922937003,36.16968356027938
3627.437,8.653342592226041,38.69024335114075
3628.2734,8.652163287782773,36.20142489347098
3629.1082,8.657887688812218,36.822885916907055
3629.945,8.66572885979077,36.09457810248373
3630.78,8.668881285867004,39.88629443121206
3631.6174,8.662152655622446,35.155632816750355
3632.453,8.644880048231292,36.88893920816668
3633.2883,8.620814955183585,39.36021761133723
3634.1262,8.595096718732133,39.68395255323108
3634.9622,8.571269118607347,37.910048198177904
3635.8005,8.549845900113612,37.54867089143031
3636.637,8.530199372498732,40.13792964640016
3637.4756,8.511730306649502,38.80897922713161
3638.3123,8.494571115805355,35.88487559644352
3639.1492,8.478740607623852,41.58208102650014
3639.9885,8.464167496854285,41.55432470161133
3640.826,8.45118893045614,42.22133850149717
3641.6653,8.440505354860676,41.04494285892839
3642.5032,8.433047010463106,42.94034866220682
3643.343,8.429163403553225,41.37562437906624
3644.1812,8.4283298988007,39.63030025434737
3645.0195,8.42917039027416,42.01642220777676
3645.86,8.430118283346708,40.41771051411778
3646.699,8.430189765145276,42.519103073131745
3647.5398,8.429385924925269,37.66380377293812
3648.379,8.428362361717305,38.63892521102306
3649.2202,8.42763926489812,38.19711637859661
3650.0596,8.42700562407059,40.360564256059654
3650.8994,8.425545754020014,39.79743894522024
3651.7412,8.422269163626297,38.45018326156711
3652.5813,8.416841771012015,39.082234087987715
3653.4236,8.409810004578304,40.09568671640629
3654.2642,8.40246099867022,42.69360667332062
3655.1067,8.396136168155397,38.06227158526647
3655.9475,8.391735681349287,39.876558092462865
3656.7886,8.389368556645215,39.41241723858203
3657.6318,8.388764950167495,40.33835156182821
3658.4734,8.389885630488704,40.795875733808984
3659.317,8.393149223324981,38.35505232288953
3660.1587,8.39901852823522,39.59997255170456
3661.003,8.40751239023322,42.45592423463322
3661.845,8.417828455746504,36.98716265333873
3662.6875,8.428599555031623,39.28650912674996
3663.532,8.43819629784381,38.19115965788248
3664.3748,8.445224971699528,38.88892717527817
3665.2197,8.449005920378479,42.23378904174222
3666.063,8.449370799085568,39.65343475765698
3666.9084,8.446572480832376,39.92044267014327
3667.752,8.441534534944305,38.687855434184335
3668.5977,8.436098503181654,43.842013667158646
3669.4417,8.432467828138295,38.6915833401652
3670.286,8.431543717296924,40.255648920596734
3671.132,8.431841443133182,35.1833023585063
3671.9768,8.430064200755357,38.183678455477704
3672.8235,8.423119172209844,38.087509411249655
3673.6685,8.410143163809343,40.152452655655125
3674.5156,8.393020752352959,43.77016963620267
3675.3608,8.375728620710188,40.8959700861846
3676.2063,8.362210803371747,42.89821462442893
3677.0542,8.354667345581792,41.399381749640646
3677.9,8.352650617033067,41.92978412614815
3678.748,8.353559397056186,44.49719050539968
3679.5945,8.35446788254542,41.171633888241125
3680.4429,8.353581391404,40.199809607605985
3681.2896,8.350227326265491,43.38244078791023
3682.1365,8.343851862627703,39.63751078059609
3682.9856,8.333749890151164,40.904508155843345
3683.8328,8.320287121650145,43.2671818343798
3684.6824,8.305734803942169,44.0958913887108
3685.53,8.29389681379789,38.95351268080531
3686.38,8.287933648327348,39.27810477184946
3687.2278,8.289097243420661,45.226658648879514
3688.0762,8.296661824491824,39.74942437513616
3688.9265,8.309047777693713,39.616126001667425
3689.7751,8.324426657892323,40.36028036983531
3690.626,8.340853799202181,41.32114696472476
3691.475,8.355790516147252,38.529318640391104
3692.3264,8.366823941310164,40.47077671874344
3693.1758,8.372273583108575,41.20707074434828
3694.0254,8.371770594487794,39.65629473174064
3694.8772,8.365792364630956,37.33701033630774
3695.7273,8.355344757965556,41.62599808965029
3696.5793,8.341654995477242,41.41014003952339
3697.43,8.326086666498783,40.94040235300754
3698.2825,8.309558964842813,41.58064796299991
3699.1333,8.292696538167036,40.416375291032715
3699.9841,8.27585345326113,42.752070797406276
3700.8374,8.259296758452821,42.056708594851266
3701.6887,8.24305774246227,40.661480137515504
3702.5425,8.22655344012705,40.95141582319516
3703.3943,8.209590864113945,44.20402659537088
3704.2483,8.19280273548012,44.58145564852696
3705.1003,8.177706473837986,44.751112422143784
3705.9526,8.165111500227898,41.66615008539658
3706.8074,8.154326269731621,43.45162121374243
3707.66,8.143758227641957,42.53735033577921
3708.515,8.132209668876666,45.33295524946717
3709.3682,8.12008598022906,46.40778621788514
3710.2234,8.1087396114763,45.1071535172681
3711.0771,8.099283690543203,43.37544555426882
3711.9307,8.091380641833373,42.80359181732306
3712.7866,8.083511136675392,43.43657344065449
3713.6409,8.074222887448283,42.45456045501501
3714.4973,8.06302853465691,42.356189481303524
3715.3518,8.050757751715341,45.62269614213128
3716.2085,8.038890745223485,40.625695618303766
3717.0635,8.029243252425397,42.14114934908991
3717.9185,8.02330698673071,42.87136152108758
3718.776,8.021831433586296,46.0016289865722
3719.6313,8.024283014539526,44.1279410351482
3720.489,8.028674242392741,44.18107580494285
3721.345,8.032077549491524,44.56382673121597
3722.2031,8.031836042873449,45.83463719121925
3723.0593,8.026706576855453,43.36720520725443
3723.9158,8.017305059620583,44.17151953919528
3724.7747,8.005555283172868,44.895544491312855
3725.6316,7.9937856875595505,43.3514562299532
3726.4905,7.983496334358507,46.87047933314232
3727.348,7.974845064597703,43.91456525361316
3728.2073,7.966403096754277,43.754559853761826
3729.065,7.956216317039972,43.8473832053263
3729.9229,7.9432535229656525,43.501950934164896
3730.783,7.928479447048997,44.69961063422026
3731.6414,7.9144681691692025,44.99306572022006
3732.5017,7.903466163726531,46.78022979635051
3733.3604,7.896117110626983,46.37121334410311
3734.2214,7.891056767909319,46.02259560879509
3735.0803,7.885945424506228,46.681744294450084
3735.9417,7.878487636293865,44.36338952873126
3736.8013,7.8674489657141855,47.521246138458636
3737.661,7.853155619758439,45.67201193084126
3738.5227,7.837708111091856,49.7908317567779
3739.3828,7.824431480481954,47.09004984308269
3740.245,7.815923330819426,47.410158820903895
3741.1055,7.812476461645281,47.52669619765651
3741.9683,7.811592957620642,45.066676497848896
3742.829,7.809759298556401,45.20817466639484
3743.69,7.8048658089290734,43.88768985924284
3744.5532,7.797442404612234,47.462213517253865
3745.4148,7.789996947285721,48.91801846313271
3746.2786,7.785029624430234,44.34044292893686
3747.1404,7.783705702732572,47.105592527911995
3748.0044,7.7856740578248385,47.19665585646476
3748.8667,7.790023991960149,47.855005156989975
3749.729,7.7960747646330395,46.26579156954507
3750.5938,7.803129081703889,44.25613096951717
3751.4565,7.809565529143361,45.70058283127007
3752.3215,7.812969244028704,45.29263265666897
3753.1848,7.81149230871492,47.214819985082016
3754.0503,7.8055844537871755,42.06686846890958
3754.9138,7.798048407600576,47.29731747116401
3755.7776,7.791875032718055,44.142954058126676
3756.6438,7.787701233664645,47.49345533997257
3757.508,7.783054222764289,43.013211750852925
3758.3745,7.774246089048166,46.74623483546933
3759.239,7.759770686882096,45.6546907782581
3760.106,7.741853235093549,47.4943388029527
3760.971,7.7253037059553655,51.99307043504784
3761.8362,7.713849482071215,50.167272642187186
3762.7036,7.707977277800318,49.64920051626719
3763.5693,7.705406920499451,50.21652454396495
3764.437,7.703314113961587,51.36657360673432
3765.3032,7.700150152368771,48.202836319642266
3766.1714,7.6956967514532435,48.51073184386872
3767.0378,7.6904332871653045,47.01824422417994
3767.9043,7.685108610529114,47.268543842482885
3768.7732,7.680666846856293,46.62893782627928
3769.6401,7.67783175353165,49.17217662716292
3770.5095,7.676343641425254,46.79914937664443
3771.377,7.67493122862321,47.76120639158668
3772.2466,7.672068792586326,47.18988568756203
3773.1145,7.666969206748474,48.08531530709502
3773.9824,7.659897329395941,48.945776979089516
3774.8528,7.651938640983497,48.449899183413905
3775.721,7.644658105263901,49.214580822375396
3776.5918,7.639509515868449,51.30022350459808
3777.4604,7.637611081504298,50.3666984645739
3778.3315,7.639486763494744,50.262989568060625
3779.201,7.645146363586216,48.47313853190254
3780.0703,7.654163488998534,48.90489320160307
3780.942,7.665712547372638,49.50146195744329
3781.8118,7.678444894578623,47.85780184348923
3782.6838,7.690821832361107,45.06930698810998
3783.554,7.701264031014084,46.958358600752874
3784.4265,7.708693690068825,49.60912974468262
3785.297,7.712286406524063,48.82119775219607
3786.168,7.711329720427286,47.343226361814445
3787.041,7.7051971060359294,45.88776516407489
3787.912,7.694146142380141,46.715359185577206
3788.7856,7.679888076299228,49.05199601013595
3789.6572,7.6654828105544635,46.80159796763442
3790.531,7.653536347746504,47.120295564578164
3791.403,7.644760471565681,48.29495847799787
3792.2754,7.6374491132902955,49.18106056267079
3793.15,7.628918976994676,48.99772559669631
3794.0225,7.617371442230848,48.528014548005515
3794.8972,7.602643902206143,48.30390265508249
3795.7703,7.586182652800278,47.496197755695896
3796.6455,7.570017451894737,48.115257938537376
3797.519,7.556227357230402,47.58398591820726
3798.3926,7.546007666952005,53.069634395002666
3799.2686,7.539412107991471,48.85674888018897
3800.1426,7.535415215844657,48.56020962216894
3801.0188,7.532138765884649,49.17639157755313
3801.8933,7.5274768986944895,51.140259442767096
3802.77,7.519870372956628,50.365037415824176
3803.6448,7.509458702747762,55.79587382137218
3804.522,7.49836560068091,53.32139533824237
3805.3972,7.48999918956785,49.985024063017235
3806.2727,7.4870996601690525,49.75719903342409
3807.1504,7.490466392345596,53.65609519303721
3808.0261,7.498579106832445,51.8671500307089
3808.9043,7.508378356353087,51.301783733148774
3809.7805,7.51641496088898,48.03203450562338
3810.659,7.520429593991634,50.05101723294615
3811.5356,7.5201377333430965,49.84543476200419
3812.4126,7.517084837996132,50.51348715621678
3813.2917,7.5133156823467075,49.0209965828093
3814.169,7.5100140321451745,51.04582468031842
3815.0483,7.506882332948468,54.724585025633615
3815.926,7.502739945471767,51.85817641808453
3816.806,7.496508334529354,48.812958562187326
3817.684,7.488072887445187,49.801447927171054
3818.5623,7.478247455009941,50.575915734785816
3819.4429,7.468163500363493,52.064933123542545
3820.3215,7.4585417886336565,47.99532758627963
3821.2024,7.449149446231501,51.47406543300532
3822.0815,7.439375023336083,54.43503904064502
3822.963,7.428742177815595,49.40586444825564
3823.8423,7.417275271246416,53.28451816380371
3824.722,7.404825244928315,50.264577172876955
3825.604,7.390694328721254,52.88720780884104
3826.4841,7.374198980614381,52.74925103528198
3827.3665,7.3555308138917095,52.01249305495612
3828.2468,7.3366553996597,51.155693218068784
3829.1296,7.320155183632375,55.0928967129067
3830.0105,7.307820833444828,54.7509843511908
3830.8916,7.299131396705517,49.67621841291127
3831.7751,7.291758427700233,54.10582556124403
3832.6565,7.283235407773708,52.619733163971915
3833.5403,7.272508124544439,53.688564406565504
3834.4224,7.2607005262372954,55.48799957665143
3835.3064,7.250166859151233,52.06734148865081
3836.1887,7.243209269002796,55.35838307073101
3837.0713,7.240696330998205,54.53717475902257
3837.956,7.241855257794675,53.04942879383976
3838.839,7.24496403576235,55.83478268687623
3839.7244,7.248625794882975,53.07848981140631
3840.6077,7.252564420661262,51.361823008123565
3841.4932,7.257571169512943,56.32765117307274
3842.377,7.264624715159858,53.93832959547278
3843.261,7.27414145176276,53.9179140404138
3844.1472,7.2855560421018195,54.52804922114344
3845.0315,7.297376347770832,52.37953358801817
3845.9182,7.308033557307285,53.748322954536604
3846.803,7.316376050632412,53.128478254030775
3847.69,7.321991287810999,50.2037621322647
3848.5752,7.324607202076298,53.3291710807784
3849.4604,7.323991398339656,55.42753854124784
3850.3481,7.320398010331114,50.11107947677147
3851.234,7.315179930819322,52.68564308606731
3852.122,7.310333451725966,54.20318459502143
3853.0083,7.307373703771017,52.06034575884713
3853.8967,7.306346031291602,53.56224499626402
3854.7832,7.305984077272379,51.81857706822681
3855.6702,7.3044825629847185,54.11153887046886
3856.559,7.300414529961026,52.67043938777576
3857.4463,7.293523176642279,55.53289101044379
3858.336,7.284971966485988,54.25973481331641
3859.2234,7.276964455630089,54.505262035731185
3860.1135,7.271297511999391,53.63117010614914
3861.0015,7.26822025645928,54.64754203315157
3861.8896,7.26600299914379,51.73706869233538
3862.7803,7.261995634569243,53.76271673218545
3863.6687,7.25434785842857,51.26678321593141
3864.5598,7.243155148129195,54.678959540198015
3865.4487,7.230562986270087,53.194032915507705
3866.34,7.219305641464739,53.121279579050984
3867.2297,7.211428963727982,56.47532582399336
3868.1213,7.2072929526965055,58.22420975720742
3869.0112,7.206005212617148,53.109761332486514
3869.9014,7.206401649058832,53.58902448670898
3870.7937,7.208007308057575,54.97911679378254
3871.684,7.210953042442259,52.647300899186234
3872.577,7.215005598355622,55.37348724885318
3873.4678,7.218546133581358,56.63698629181356
3874.361,7.2187993784579785,51.67939499880861
3875.2524,7.213214159436933,56.75852173582753
3876.1438,7.201060823831706,52.63207397406604
3877.0376,7.183785067124556,54.96711741739141
3877.9297,7.1642359557711845,56.0558255746237
3878.8237,7.144932474770392,55.52197052230604
3879.716,7.12743183688609,56.49792916130881
3880.6108,7.111813959321693,57.98039245700889
3881.5037,7.097227557398841,55.305926608648086
3882.3965,7.082186436668958,61.22913207946817
3883.2917,7.0656026692394285,55.80833139136481
3884.185,7.047770230307749,58.94302744252611
3885.0808,7.030004563198969,57.92553514358274
3885.9746,7.013876706681361,59.58964944832706
3886.8706,6.999833903654557,60.62316977069192
3887.765,6.987634889180717,59.658657727808276
3888.6592,6.977266131440694,59.81632763961017
3889.556,6.969914868187325,59.749247925240304
3890.4507,6.967645294031554,59.176965711585375
3891.348,6.971964275243134,59.72030948859664
3892.243,6.982697046872389,58.072612726328316
3893.1406,6.998043609081503,62.1432355194592
3894.0361,7.015376794419238,55.7473032512988
3894.932,7.032728997810739,57.70180598731683
3895.83,7.049276745366211,56.18218814365781
3896.7263,7.0649881731560775,57.471029261506175
3897.625,7.080212044456664,57.737851200636655
3898.5215,7.09480997857951,58.68494155928271
3899.4207,7.108417229554988,55.50741005857663
3900.3176,7.120527960510644,56.488028698140354
3901.2148,7.131274575763541,56.75089163312312
3902.1145,7.141592371692331,57.2384421438997
3903.0122,7.153012760101944,53.43221089396128
3903.912,7.167244323542801,57.075779866406535
3904.8103,7.185131860130608,55.41380740822714
3905.7107,7.2063411535094515,55.92153136985551
3906.6094,7.229091884833687,55.85881673800083
3907.508,7.25109746812689,52.62944531213675
3908.409,7.270309305370634,54.36213570682302
3909.308,7.285455988637393,53.929984331867544
3910.2097,7.296538974662169,53.73074952389559
3911.1091,7.304263466022192,51.61458292507722
3912.011,7.309745286287492,53.30549473579436
3912.9111,7.314012027055775,54.329047970994225
3913.8113,7.318069356437138,51.00252453915485
3914.7136,7.322776163014345,57.83532304085288
3915.6143,7.328403219628989,52.926456309234645
3916.517,7.334275581020544,53.112411479333005
3917.4182,7.3388385600733175,48.54586594642746
3918.3215,7.340607344043473,53.03903804647301
3919.223,7.339031263711949,53.739208129632104
3920.1245,7.334829852038972,52.85498823406268
3921.0286,7.329549873269945,50.85886872675986
3921.9307,7.324882105866478,52.17897856092499
3922.835,7.321839018156785,54.3611916607539
3923.7373,7.32038744068172,52.45315445855184
3924.642,7.319523998630461,54.59089466378965
3925.5452,7.318013712266254,51.956656928987215
3926.448,7.315185386147054,55.10614656665368
3927.3535,7.311247846288369,52.63337824062299
3928.257,7.306933481701106,56.484989470576195
3929.1628,7.302570227784242,54.906357109331026
3930.0667,7.297503405499272,54.576625373572654
3930.9731,7.290170013409785,53.208903655522036
3931.8774,7.279237865853255,56.3969177412338
3932.782,7.264620742863768,53.826152694052304
3933.6887,7.247868238314798,55.85900150848086
3934.5938,7.231574433535246,54.626822987634625
3935.501,7.217799218393846,55.359312572045106
3936.4062,7.2072311787335765,57.87873155980974
3937.3142,7.198652577934412,54.58639229318743
3938.22,7.189747487605582,54.739415158419014
3939.128,7.178009062776808,55.88635649301273
3940.0342,7.162046776156106,57.06804341059402
3940.9407,7.141996231075218,55.005723449208595
3941.8494,7.119245015193017,54.021172214671374
3942.756,7.0955368671250625,58.790617099886255
