wavl,flux,ivar
3566.9744,7.246525457301011,7.664150417043179
3567.795,7.2796478936371996,9.307147320908406
3568.6177,7.297542194695441,8.622633093229755
3569.4385,7.286750651929699,9.411452293723505
3570.2617,7.243739125268707,9.682314001761007
3571.083,7.178526199149588,7.59097484555963
3571.9065,7.109429693296122,10.325112380378979
3572.7283,7.054909769533928,8.269619839244621
3573.55,7.023328960176787,9.253432825848648
3574.374,7.009659019060212,7.950524509186492
3575.1963,6.999918901028341,10.673905563485269
3576.0208,6.9817791769488275,14.411344096752934
3576.8435,6.953795061963404,7.051767316802522
3577.6682,6.924286122628393,11.418750333385388
3578.4915,6.902544602621242,9.787893996239264
3579.3145,6.890429190534011,12.224775800169663
3580.14,6.882915873434209,9.316049327452786
3580.9636,6.873963432806677,11.705364510787534
3581.7893,6.860350410367671,7.991050483541585
3582.6133,6.841918033673259,15.621273490324437
3583.4395,6.8210753694549044,11.87933030849992
3584.264,6.80429847114265,10.333443095538609
3585.0884,6.80102686046969,12.327407425689493
3585.915,6.818658884545826,14.072820652283461
3586.74,6.855790346030183,14.850459876017196
3587.5671,6.900795694978283,10.722430679071277
3588.3923,6.936379012892979,12.74477636711067
3589.22,6.948801483250563,7.209237745751285
3590.0457,6.9337320767607515,13.232747351241041
3590.8716,6.897559325510536,9.481272558849156
3591.6995,6.852916478770402,8.872738650097379
3592.526,6.812663018968379,10.131743388639133
3593.3542,6.78384527476337,9.249719549419412
3594.181,6.766330006348325,9.438059644753983
3595.0098,6.754074048812552,11.77128394052371
3595.8367,6.739128536028659,9.06961227952011
3596.6638,6.714329034271478,14.513385847319848
3597.4934,6.674757045087077,14.959007195563188
3598.3208,6.619487882605577,8.878913608339445
3599.1506,6.5529532951351195,10.47512089471096
3599.9788,6.4878890827688265,8.527274872893601
3600.8088,6.44221830011617,17.491632755816447
3601.6372,6.432218228061781,13.365422258597048
3602.4678,6.461202824564094,13.92969137343962
3603.2964,6.514888220888556,14.083154823577477
3604.1252,6.569805115588959,10.316856988597612
3604.9565,6.609583978608128,11.714772958332063
3605.786,6.63531932416115,9.303554336835603
3606.6172,6.661354652236668,13.45562048396269
3607.447,6.699343200832726,12.368584512597335
3608.2788,6.7476314280451515,11.789388008099136
3609.109,6.792378897291843,8.329359579309866
3609.9392,6.819147713240253,9.146300819285244
3610.7717,6.822082567900358,9.175537848369034
3611.6023,6.805527354002459,11.06121750991431
3612.435,6.77820337355858,10.639802499451273
3613.266,6.746892120140037,10.95949447598743
3614.0994,6.714172904237436,13.739755922039343
3614.9307,6.681400448970531,11.448590887393832
3615.7625,6.650091393971538,14.158267798222495
3616.5962,6.621144739746623,11.12574050415612
3617.4282,6.593411389043579,12.631666412842804
3618.2625,6.564847558436433,10.237692988498301
3619.0947,6.536932674940729,11.664485756030329
3619.9292,6.5156374268348705,13.606185203367682
3620.762,6.508374942909015,11.034488572928392
3621.595,6.517620709056691,16.832089125423035
3622.4302,6.537804558837249,12.059414890430475
3623.2634,6.557108435686389,13.89144248344121
3624.0989,6.564182443097729,7.081721897053569
3624.9326,6.554458316644209,11.10565334736809
3625.7686,6.532499858832171,12.292432056161172
3626.6028,6.50822703717785,11.74947980347549
3627.437,6.489105155786314,12.512988136157507
3628.2734,6.474883526505991,12.173786197445285
3629.1082,6.459002552735705,13.226749581140892
3629.945,6.435703228237289,14.894960528585973
3630.78,6.407457414645195,10.629893838022992
3631.6174,6.384509261260038,12.633833743804736
3632.453,6.377841795836527,14.150423366299888
3633.2883,6.3907211584000505,7.996298203951967
3634.1262,6.417981270838968,13.543727536358016
3634.9622,6.4515044971256925,11.955088806997935
3635.8005,6.486903882451235,12.76575196305915
3636.637,6.5234595585764135,12.391334324533306
3637.4756,6.560781348993569,11.05222742180832
3638.3123,6.59465158688808,12.925719303853233
3639.1492,6.618435027071135,10.185134960217733
3639.9885,6.6267705545660265,12.606144432628215
3640.826,6.61938809903478,20.05093476151064
3641.6653,6.601459854387887,12.791961696860644
3642.5032,6.580161510042629,11.605406781458642
3643.343,6.560009207024533,13.936870679786733
3644.1812,6.5411972744273434,12.391368237033339
3645.0195,6.521046426149651,9.788071557376647
3645.86,6.497760397375597,12.320445274783358
3646.699,6.472689399431237,9.621226465617623
3647.5398,6.448584186085059,12.55228328161878
3648.379,6.426873914053848,11.88389669778945
3649.2202,6.40595738973928,11.33518756776695
3650.0596,6.383603848853338,11.832600709690762
3650.8994,6.359532449649635,9.37105974356755
3651.7412,6.33621278184093,13.269347541009907
3652.5813,6.316737019827685,12.177455616641069
3653.4236,6.302017302654453,14.122025237950655
3654.2642,6.291028926616789,11.685259956655827
3655.1067,6.282498328180674,13.212312615371392
3655.9475,6.276811551277951,12.52550745876378
3656.7886,6.275732934010724,11.295558634743047
3657.6318,6.280954459307281,12.421117490631525
3658.4734,6.292395706726278,12.59827008471367
3659.317,6.3076714125325415,10.874681320616114
3660.1587,6.322800992030274,13.717527118961712
3661.003,6.334903669126388,14.022850934243127
3661.845,6.34462792366011,10.898346701244437
3662.6875,6.3564082160927295,12.241693608208939
3663.532,6.374086726674018,10.746325005234436
3664.3748,6.395226035653965,9.999545881571569
3665.2197,6.410431477547593,8.436476171204696
3666.063,6.4091283855766354,12.745765622713568
3666.9084,6.388096693264736,10.37413120985836
3667.752,6.354782158763405,16.826399705619533
3668.5977,6.322326715301716,12.24495374311183
3669.4417,6.301837147097541,12.817588676301245
3670.286,6.296545523105207,12.628967800363103
3671.132,6.3026404564031955,11.377863701909973
3671.9768,6.313158278940904,12.158397935487475
3672.8235,6.3219987224430945,12.861206803818328
3673.6685,6.325803692761443,10.894446415553029
3674.5156,6.324165833610713,14.529774657066378
3675.3608,6.318219103564981,15.103418693749624
3676.2063,6.308859954801238,12.427988504020348
3677.0542,6.29618759848808,11.574446267330806
3677.9,6.280940177423974,10.949072920585715
3678.748,6.265770382463724,14.864844285437748
3679.5945,6.255172342534802,16.262903381426113
3680.4429,6.252687133345427,17.019119883960805
3681.2896,6.258524640467682,13.471891978681048
3682.1365,6.269620484670819,14.048117880500921
3682.9856,6.28271322016154,12.137449901884924
3683.8328,6.297045871211509,8.726485341064805
3684.6824,6.31401720892144,10.818705537654685
3685.53,6.333458560390956,16.546322427930825
3686.38,6.351903098326748,11.357316446178396
3687.2278,6.364277017793973,12.902689624982036
3688.0762,6.3683920050639635,12.140402423734374
3688.9265,6.3667565591269994,10.860395965628603
3689.7751,6.364723387014439,10.021966234374105
3690.626,6.366525239887641,11.047037735400437
3691.475,6.372480366300158,17.04237784976523
3692.3264,6.378916104281969,10.93274533091844
3693.1758,6.380376944023559,11.493535059604294
3694.0254,6.373051541586872,16.090628884412546
3694.8772,6.357031150101695,14.761176392680682
3695.7273,6.336500407668105,10.198995554679051
3696.5793,6.317350430984802,13.10890435925214
3697.43,6.304733125515581,10.912359099688434
3698.2825,6.300669376231409,15.568418144787557
3699.1333,6.303513311230357,10.06957671038844
3699.9841,6.3089791295914495,8.975083916171577
3700.8374,6.312513464858507,13.500640472021015
3701.6887,6.311266945570207,10.522571838956647
3702.5425,6.304950485527894,11.58379391723869
3703.3943,6.295454316480616,10.009755366455188
3704.2483,6.285191606060772,12.96578259789251
3705.1003,6.27510577374649,14.887611470940882
3705.9526,6.26341034560551,11.820006474189114
3706.8074,6.246979285422395,11.386354294981095
3707.66,6.224269871370671,11.006826658987997
3708.515,6.196452660899276,12.112929301976797
3709.3682,6.1665698383944365,11.090435679797856
3710.2234,6.136230006022289,14.465238401610575
3711.0771,6.104434035382404,13.0296750185767
3711.9307,6.068304495594461,13.466332887207864
3712.7866,6.026511422940562,18.16117716996538
3713.6409,5.982751157169375,11.680496010716388
3714.4973,5.944915358830573,11.448443306926187
3715.3518,5.921716925133519,12.902312515722937
3716.2085,5.916588343059223,14.650546973144525
3717.0635,5.925812991849833,13.778857847377939
3717.9185,5.9414237864244175,11.382710989026261
3718.776,5.956815865662177,11.153987739303831
3719.6313,5.969080079141645,14.278933077213749
3720.489,5.9772549018587116,15.664946260803353
3721.345,5.979467077074517,12.44591183104818
3722.2031,5.973751462666263,12.779806656737394
3723.0593,5.96077473165918,17.218040575303938
3723.9158,5.944446093602193,14.140771180806155
3724.7747,5.929366543309371,17.76146452100172
3725.6316,5.917831524226691,11.181174574042865
3726.4905,5.908409877376983,14.355230915932788
3727.348,5.897281791279537,14.175274027964551
3728.2073,5.880516948103493,14.541239237189515
3729.065,5.856958222382531,14.078223690483478
3729.9229,5.829134898031412,12.95701915853933
3730.783,5.801847519229343,16.18280090815758
3731.6414,5.779470793215553,13.70828917349796
3732.5017,5.763769699122919,17.264048555870424
3733.3604,5.754546908557566,14.10330147800685
3734.2214,5.750392143798904,14.054542317040212
3735.0803,5.749528236157049,19.786350059419522
3735.9417,5.750300173861998,14.562854962286254
3736.8013,5.752022608789486,19.36558918074614
3737.661,5.755442728942345,16.416069879482137
3738.5227,5.7622954356545755,13.236032072557135
3739.3828,5.773917673014887,13.215055974002203
3740.245,5.78978466863838,13.511345367992273
3741.1055,5.806438224892364,13.475610995192646
3741.9683,5.818817193423942,21.520713147728955
3742.829,5.822931789415438,16.34914063158609
3743.69,5.818710189815518,11.651533153769831
3744.5532,5.809372608013106,14.820433113768958
3745.4148,5.798144620848833,17.296267235604425
3746.2786,5.785187167731232,15.084187674237203
3747.1404,5.768790656272634,15.30784243108943
3748.0044,5.749010166983685,16.4600801206771
3748.8667,5.73012146361987,17.15217638501468
3749.729,5.717769144055582,16.78723886684815
3750.5938,5.71423162353344,14.511224648827266
3751.4565,5.71620219300635,14.544745120314301
3752.3215,5.717448328422957,13.258741501893354
3753.1848,5.7136383142250455,15.021911837609203
3754.0503,5.7045321823235495,19.419325128045152
3754.9138,5.692113280702505,14.465699658204995
3755.7776,5.67718201738032,14.061640191752865
3756.6438,5.658640425181016,13.345784587683077
3757.508,5.636014737492095,16.58837597372751
3758.3745,5.611410056009316,18.01674302774975
3759.239,5.589245149227554,16.07937995353372
3760.106,5.572956061678844,16.439890623642935
3760.971,5.563529326100662,18.610312119467718
3761.8362,5.559810054388503,17.35339650934616
3762.7036,5.560306991797176,13.891864188506105
3763.5693,5.563764533954276,15.190524806658088
3764.437,5.568677173108582,16.71386563451988
3765.3032,5.572765513736106,17.45261219980163
3766.1714,5.573380957529472,15.181543310696487
3767.0378,5.568505761599655,17.569959437084286
3767.9043,5.557872572304003,14.406108452303947
3768.7732,5.543349709979739,18.054080682237593
3769.6401,5.528546731529692,15.965306646529296
3770.5095,5.517331085451638,20.614045130545623
3771.377,5.512954204400598,17.04957527715695
3772.2466,5.517076185198014,16.789396190064608
3773.1145,5.529060957360594,16.7696983582054
3773.9824,5.545401924701561,12.815241977020854
3774.8528,5.560405151195288,15.376181893486667
3775.721,5.568467923083199,14.769174042694829
3776.5918,5.567229369754727,17.197993810086633
3777.4604,5.558525406736387,17.19586808172479
3778.3315,5.546844402681925,16.016926386716456
3779.201,5.536578541160756,19.059746690011508
3780.0703,5.529547560926572,18.25222473814548
3780.942,5.524450899037096,18.93073605266785
3781.8118,5.518261111674182,22.87377677890677
3782.6838,5.50895541360239,15.51593654059405
3783.554,5.497953177182222,19.53020298850266
3784.4265,5.489528410011203,18.226397939992747
3785.297,5.4878459116742055,14.630291447121909
3786.168,5.493489968908148,20.06573154428811
3787.041,5.502639217826527,14.420402176866888
3787.912,5.508771300478748,12.987153876637143
3788.7856,5.50605814022301,14.024202008906286
3789.6572,5.492155226126731,18.248622524869308
3790.531,5.469017569237159,16.897056980242816
3791.403,5.441617909866737,14.749003277925652
3792.2754,5.414805387201883,15.955006424313455
3793.15,5.3912681998449505,14.405458038255095
3794.0225,5.371372311157166,20.06575681915776
3794.8972,5.353917870760147,15.366460442293464
3795.7703,5.337667454285379,19.534153879276534
3796.6455,5.321402693566283,18.163802818696453
3797.519,5.304500510188622,17.532111960472033
3798.3926,5.28756504193007,17.70769976391111
3799.2686,5.2732984449311715,18.305939780145142
3800.1426,5.265848069736425,19.49486994161922
3801.0188,5.268333520883114,17.69071251567095
3801.8933,5.281111974939207,22.81998436117927
3802.77,5.301815057157601,15.64602494728227
3803.6448,5.326251011802571,23.199175146208074
3804.522,5.349672400362193,20.429755103043668
3805.3972,5.367378572420407,14.342386730346302
3806.2727,5.377088307470392,21.474880767039863
3807.1504,5.380142041904438,19.2015038006583
3808.0261,5.380079380403512,17.166797357111356
3808.9043,5.37911494385735,17.533088740380855
3809.7805,5.376529753151532,14.337479374669538
3810.659,5.370931478658607,17.012796632681553
3811.5356,5.363554889985812,17.767271474558438
3812.4126,5.358493766663291,16.996135612970434
3813.2917,5.359819287392941,16.278765445714793
3814.169,5.368290869637199,19.195020820701966
3815.0483,5.38058838660402,14.764743209023234
3815.926,5.391220984177903,17.13696757218262
3816.806,5.395935402863183,18.78786457969757
3817.684,5.393660757911002,18.067360919438002
3818.5623,5.385973519468251,18.298076673276793
3819.4429,5.374323971137832,18.22140384726904
3820.3215,5.3581228554461235,15.848457431360927
3821.2024,5.335077205750134,21.878244885134833
3822.0815,5.303992775270438,17.338458322263772
3822.963,5.266336167936836,16.093112596704763
3823.8423,5.226639661135365,17.365731940954902
3824.722,5.189762957796587,15.95978252612908
3825.604,5.158382875041951,17.645631670270408
3826.4841,5.131661126838364,21.428759871468447
3827.3665,5.105811571010015,17.409056266299928
3828.2468,5.077593237449018,20.164602160673667
3829.1296,5.045806769551041,20.813562759928473
3830.0105,5.01117542996144,24.691376144159307
3830.8916,4.9738688777888385,20.46370568104002
3831.7751,4.933363831819036,19.4872985519562
3832.6565,4.890531995837211,22.548744038896025
3833.5403,4.848397570325312,23.381209688295375
3834.4224,4.81225354914268,18.946728047032483
3835.3064,4.786453359830455,26.02509466820579
3836.1887,4.772726218179991,19.37626729398763
3837.0713,4.769198398157565,24.158769065920136
3837.956,4.772180550653419,25.812198607565325
3838.839,4.778846704807656,19.308926217783416
3839.7244,4.789474306532796,23.774905549860804
3840.6077,4.8070134744197075,23.488812751630125
3841.4932,4.834473304331766,20.230159666637455
3842.377,4.871356267032028,22.2571489429006
3843.261,4.9131440564773925,19.4474504837123
3844.1472,4.9535020403296,16.48035512077762
3845.0315,4.987962481005609,19.87004500175492
3845.9182,5.017365531723766,18.63781586536701
3846.803,5.046660042025962,20.516772708589286
3847.69,5.081838870603736,22.669512868918485
3848.5752,5.125168275555577,17.05228305409566
3849.4604,5.1742614325356975,19.763261824760765
3850.3481,5.223886149556454,15.283729087268771
3851.234,5.268396719805141,14.695749526830358
3852.122,5.303931295623019,18.61206766564645
3853.0083,5.32751396128592,18.89406539683524
3853.8967,5.338068212616559,16.482566460381463
3854.7832,5.337364007561226,17.405219346917114
3855.6702,5.331130585788265,16.75986102017807
3856.559,5.327298279923239,15.96023638131128
3857.4463,5.331770622135185,19.88635221285999
3858.336,5.344205618903594,23.09331751208494
3859.2234,5.357629478008713,14.863444144353519
3860.1135,5.363170554917741,19.837793044905826
3861.0015,5.355543143879763,19.973620375577962
3861.8896,5.335272864349699,18.771166294849735
3862.7803,5.306286731866053,19.16570779119407
3863.6687,5.272990012338955,20.204487604599024
3864.5598,5.238551045286387,17.484839500644817
3865.4487,5.2065625752359725,20.06324294841187
3866.34,5.180966802950784,18.01761730739616
3867.2297,5.165080713759405,18.032577922898525
3868.1213,5.158351094346386,17.29242920625189
3869.0112,5.155713029214631,16.823785932861803
3869.9014,5.149834262597207,18.704585175877
3870.7937,5.1349308594694145,18.28990299151245
3871.684,5.109176613284238,20.347299339731965
3872.577,5.074165936944444,18.92932490314518
3873.4678,5.0338416673294955,18.665115181175697
3874.361,4.992193927573882,17.861214548461902
3875.2524,4.952588752257126,21.23831809719556
3876.1438,4.916056791506314,20.949999222579052
3877.0376,4.881543331984165,18.839669298495103
3877.9297,4.8471829757744525,29.683490536095643
3878.8237,4.810812214361352,26.53883356787526
3879.716,4.770681598225761,17.57042949068783
3880.6108,4.724466480916065,18.155398493538772
3881.5037,4.670504138434354,21.476801198200977
3882.3965,4.60830555153121,18.010074077815755
3883.2917,4.539440260096492,25.385463710791505
3884.185,4.467625325790985,23.590326483501077
3885.0808,4.396387547355223,23.830930806788004
3885.9746,4.329445859765039,25.258865374186374
3886.8706,4.268637609648144,25.311262567561045
3887.765,4.214919464931474,23.81062157054528
3888.6592,4.168225226271266,35.10536064301637
3889.556,4.129570215697555,32.45491673845394
3890.4507,4.102479227400571,41.50256342596411
3891.348,4.091569279487615,29.40228336194922
3892.243,4.100294067760283,29.759754476923227
3893.1406,4.128184333601739,34.526126915901386
3894.0361,4.170602624947177,33.03257978704791
3894.932,4.221891469451886,25.112053312511097
3895.83,4.2782987478775185,28.94719880515285
3896.7263,4.338092952568152,27.591440111565706
3897.625,4.400724793325227,28.845784812108864
3898.5215,4.463908574288836,23.750003798898785
3899.4207,4.525310777519987,20.182656129960147
3900.3176,4.583160481343403,23.81406341789135
3901.2148,4.638602681258473,24.132638318821414
3902.1145,4.694302342333069,21.26437949478756
3903.0122,4.751995194562504,20.633824781363646
3903.912,4.811831162945529,27.685503141632402
3904.8103,4.87127717606522,19.607134558176725
3905.7107,4.927704572942077,19.09167841109054
3906.6094,4.979584554549151,18.969963554057514
3907.508,5.028511279796507,17.246418953652743
3908.409,5.077792131142995,25.418939997505923
3909.308,5.129618217349646,17.786481755447006
3910.2097,5.1842303601439905,23.811317162867454
3911.1091,5.239501826567852,15.256523101264726
3912.011,5.293690119187392,20.79208957815153
3912.9111,5.3451931083230235,16.660971596328274
3913.8113,5.392945543316921,20.315977057135207
3914.7136,5.435342252319503,16.625493432921647
3915.6143,5.470145978878974,15.630512200138691
3916.517,5.496190300194511,18.642351364866144
3917.4182,5.513929059263953,13.033488991016563
3918.3215,5.5261481044133465,14.77454208687257
3919.223,5.5365145327914185,18.02777888465651
3920.1245,5.547746782260698,18.027113068886642
3921.0286,5.559967240578313,14.630697887647598
3921.9307,5.570981314097293,13.984949415519273
3922.835,5.57874611031303,17.113599928742705
3923.7373,5.583457653253748,16.035417907969034
3924.642,5.587843704292225,14.620801221285726
3925.5452,5.5948808615203705,16.0570952159718
3926.448,5.605343197653998,18.06815070667872
3927.3535,5.617081724608372,13.742677950008048
3928.257,5.626264846921791,15.786799989280953
3929.1628,5.629626709075724,14.61301044366413
3930.0667,5.62556158288486,14.929720138839313
3930.9731,5.6143241815034495,15.008707856056454
3931.8774,5.597794077414864,16.37439529693669
3932.782,5.578737331858738,16.129008587135512
3933.6887,5.559859020681953,17.857583552541506
3934.5938,5.542675721803041,16.201400173317705
3935.501,5.526561675371681,15.617584528195732
3936.4062,5.50953444367125,16.466741787183075
3937.3142,5.4890803843384175,17.26724087086418
3938.22,5.463538811652713,17.37018923533171
