wavl,flux,ivar
3566.9744,0.6739212415065532,951.7335044531445
3567.795,0.6772565367774721,928.9383977927191
3568.6177,0.6788318582902638,1183.440166940739
3569.4385,0.6775528223896775,1228.57101980259
3570.2617,0.6737170671689088,657.9587308896023
3571.083,0.6687137633886365,1153.9093426500565
3571.9065,0.6639603023730536,1314.5150541686126
3572.7283,0.6601088923072638,1439.0389155640387
3573.55,0.6569073827252803,1209.0818038966427
3574.374,0.6539602234029316,1036.9421379939197
3575.1963,0.6514852572091977,1249.989821424522
3576.0208,0.6502700518597417,2455.572840626939
3576.8435,0.6509916982652876,1223.9845767911384
3577.6682,0.6534532442014088,1999.592907646055
3578.4915,0.6564236637890445,1004.184357154065
3579.3145,0.6581251772859329,1002.634695875883
3580.14,0.6568774807761566,1174.0381698100937
3580.9636,0.651731680708876,1231.9549344973548
3581.7893,0.643116455894392,910.9080381358498
3582.6133,0.6335157126993389,795.9742948028795
3583.4395,0.6269554547312707,1027.0766698000505
3584.264,0.627112582074578,1208.1755019055815
3585.0884,0.6346684107875978,691.4221602856297
3585.915,0.646816508074056,726.9690380125894
3586.74,0.6592138554829468,1157.2730328992693
3587.5671,0.6690463917579587,1107.948259334952
3588.3923,0.6759743443692959,1135.7234540532756
3589.22,0.6813864822210213,1146.4663562835133
3590.0457,0.6866312677010817,1066.3933311027633
3590.8716,0.6920919719386659,2020.6268014571258
3591.6995,0.6969706678628066,1186.5441084265092
3592.526,0.6998147477958624,1001.3839170228198
3593.3542,0.6995880802385591,518.9438653374186
3594.181,0.6965775262021165,738.9787218465514
3595.0098,0.6925590517428175,1460.8858639579034
3595.8367,0.6899328364241799,747.5163649810273
3596.6638,0.6901878781279052,1292.7082674758244
3597.4934,0.6929526155631877,2287.7776399305194
3598.3208,0.6961798359938214,685.9659066953699
3599.1506,0.6975563829896194,718.8841208108033
3599.9788,0.6959660813059986,913.5590361905707
3600.8088,0.6921028185961156,1022.4999678420825
3601.6372,0.6878380980159753,2713.1780376890324
3602.4678,0.6848586305153251,864.5321570510732
3603.2964,0.6836899763486518,1150.2580232542255
3604.1252,0.6834849992868607,1380.8832685890256
3604.9565,0.6827930424400787,748.77372022133
3605.786,0.6806631875106983,1013.6914847194314
3606.6172,0.6772868785485368,879.7228755559291
3607.447,0.6737237514230966,1549.1428711194112
3608.2788,0.6709304911590446,1478.2289970212053
3609.109,0.6692393666429259,1318.2922713661433
3609.9392,0.6686098842886227,1099.064764623555
3610.7717,0.6692735657369074,1304.4132473293303
3611.6023,0.6717623156999799,872.2976669854994
3612.435,0.6763241523184923,740.3592085505709
3613.266,0.6823531217633871,692.5559417710108
3614.0994,0.6885970085812931,1268.6423979353267
3614.9307,0.6936704824856238,907.661999356787
3615.7625,0.6967854613882692,796.7908026501223
3616.5962,0.69798734925725,1375.22429681689
3617.4282,0.6979629704550535,1108.233981619739
3618.2625,0.6973551844577941,1167.1359692821286
3619.0947,0.6961290870269754,753.7581190319084
3619.9292,0.6937050263170752,813.9413834247106
3620.762,0.6898455278111111,859.9419409825491
3621.595,0.6852433131682923,815.0593553111204
3622.4302,0.6812066795970578,1019.0849334733924
3623.2634,0.6787937478559288,1299.189330066071
3624.0989,0.6781888564059431,1520.5733926545395
3624.9326,0.6789079811405411,972.3103021611399
3625.7686,0.6803147127299002,1232.5215529581983
3626.6028,0.6820371961827617,1119.09704995549
3627.437,0.6841334150813176,1138.484880029296
3628.2734,0.6870246542858893,1102.7687200755277
3629.1082,0.6912142345993845,1184.964907940896
3629.945,0.6968572072769873,1573.8526666986288
3630.78,0.7031577288933877,878.7690730243771
3631.6174,0.7084337467419549,963.6830173320357
3632.453,0.7107848384670541,958.2958094680504
3633.2883,0.7093873221571381,1060.0020599028537
3634.1262,0.7051270170473858,1161.1954310843375
3634.9622,0.7003382064732809,1230.8534017096626
3635.8005,0.6975809593472055,687.9565188374726
3636.637,0.6985378630259286,1306.5162195938717
3637.4756,0.703482824789584,626.78242904092
3638.3123,0.7115362169276881,1147.2170093684217
3639.1492,0.7212506805566695,988.4796718070174
3639.9885,0.7309233334497747,1051.1638992057058
3640.826,0.7387775486213667,959.6246370782873
3641.6653,0.7436246438041477,844.8128623958928
3642.5032,0.7451941050610521,964.9648397217769
3643.343,0.7440981064367989,1252.329153846046
3644.1812,0.7411621743933633,616.1760545313996
3645.0195,0.73705122185217,562.1466940431932
3645.86,0.7325585802071277,959.2312384771258
3646.699,0.7289230604500434,1206.3505956125762
3647.5398,0.727236076806735,908.9819175547408
3648.379,0.7275548990374144,909.1799641405482
3649.2202,0.7286806372113033,738.4568540686973
3650.0596,0.72914748263447,820.2445466370942
3650.8994,0.728511236607371,521.4202792768328
3651.7412,0.7276671575063431,880.0730667333735
3652.5813,0.7279185865801358,1148.9253021088064
3653.4236,0.7295975279389333,1576.882012925202
3654.2642,0.7315195667140341,1012.7912002728908
3655.1067,0.731837521439947,645.7118432200839
3655.9475,0.7295172484847849,1081.7067721445924
3656.7886,0.7252036989021217,671.2541338087128
3657.6318,0.7208092455340318,1620.0365002264473
3658.4734,0.7184311142294794,1171.7797496994328
3659.317,0.7193520097665413,1182.7449358696151
3660.1587,0.723730314012064,1964.4516305971972
3661.003,0.7307275849299472,863.5782880654025
3661.845,0.7387679331678024,728.850178518425
3662.6875,0.7462056481559265,731.5007600642573
3663.532,0.7518847110098642,635.4417902825818
3664.3748,0.7555068593093545,811.5642369316924
3665.2197,0.7574937495264428,726.8415086228098
3666.063,0.758214379496654,967.2417905465505
3666.9084,0.7574967396922461,1688.9772256260662
3667.752,0.7548162362735844,900.6489662254712
3668.5977,0.7499597875762967,748.6945082560568
3669.4417,0.7435341914330028,1095.8125253393855
3670.286,0.7368166221775215,694.7400873076581
3671.132,0.7314095298837867,1190.4712892141092
3671.9768,0.728803715809282,833.4045082168524
3672.8235,0.7297069663870271,1091.1351929125622
3673.6685,0.7335428056432635,1660.5731103864705
3674.5156,0.7385937360725894,412.70687948468935
3675.3608,0.7429690263051193,603.9526777549174
3676.2063,0.745856394003005,718.2777249955344
3677.0542,0.7477412099524142,903.5055083180015
3677.9,0.7496133154752699,1023.6280230689404
3678.748,0.7520229250077894,818.0349062694163
3679.5945,0.7546942752940241,670.1175541265453
3680.4429,0.7568414801983393,2692.5430667590663
3681.2896,0.7575467499360892,1017.9372317607339
3682.1365,0.7561708582136558,783.9265718924323
3682.9856,0.752688254355025,1319.6616476215738
3683.8328,0.7479083761783754,632.1803535217356
3684.6824,0.7431513119972155,544.5293496774927
3685.53,0.7397657803377965,574.9043667717115
3686.38,0.7385699154161793,1260.9968648661045
3687.2278,0.7397272640297842,1289.63533983767
3688.0762,0.7427450848275196,1232.4000041917695
3688.9265,0.7466340460959544,513.8727285938135
3689.7751,0.7501285170121098,1405.5701859284577
3690.626,0.7521752127477495,1145.8535178593033
3691.475,0.7523833323538757,626.0638921137565
3692.3264,0.7512884811772932,1122.202509973114
3693.1758,0.7499702245495593,978.4545814845135
3694.0254,0.7492222189854664,922.1156429964575
3694.8772,0.7489629728509989,854.9578208103252
3695.7273,0.7483553704332887,1272.5826186710444
3696.5793,0.7465008746240107,1448.840471541097
3697.43,0.7431553029179497,1399.006317111507
3698.2825,0.7389308419274787,1032.3766214942902
3699.1333,0.7350646578845749,810.1959724176735
3699.9841,0.7328405322585619,951.769199550887
3700.8374,0.7331832026481251,856.2992271864297
3701.6887,0.7363840189041292,1139.724279589876
3702.5425,0.7419737561682795,955.3900110149355
3703.3943,0.7486277235318345,984.1652048470605
3704.2483,0.7545770126056156,1057.7822167838713
3705.1003,0.7583024744789573,713.1899573787664
3705.9526,0.7595317849512381,825.7390572639388
3706.8074,0.7593615120830083,804.0212909344707
3707.66,0.7594362779304179,828.6930099245952
3708.515,0.7607212858065302,905.6670545307538
3709.3682,0.7629581104157123,1390.8290963801583
3710.2234,0.7652274671671087,656.6422055582257
3711.0771,0.7669195503689931,803.7184452600632
3711.9307,0.7683234738532281,1107.4766540565113
3712.7866,0.7703555281676348,800.3045710613434
3713.6409,0.7737201778356381,970.0932890014311
3714.4973,0.7781844351375873,2671.112055047847
3715.3518,0.782439344733421,422.4130461269297
3716.2085,0.7849621492233727,728.7453367755086
3717.0635,0.7850359778706726,688.1285012945209
3717.9185,0.7832908884144437,734.5152015069297
3718.776,0.7812057659935798,693.887071262368
3719.6313,0.780180147706172,511.33934107804305
3720.489,0.7807781825932997,1187.1785151832862
3721.345,0.7825978725073435,696.6338017687866
3722.2031,0.7845774632123815,834.6231895820366
3723.0593,0.7854587447790612,932.9311294961174
3723.9158,0.7843517326386436,568.6962146880581
3724.7747,0.7812024582082377,671.9254410978901
3725.6316,0.7771375663228218,1028.98750229869
3726.4905,0.7741949843453461,925.3777949624509
3727.348,0.7744597480050084,1068.3942100776817
3728.2073,0.7787809407212994,836.4034204420851
3729.065,0.7860426480239505,924.8709018733678
3729.9229,0.7936684572641672,713.1627975660333
3730.783,0.7989277753680798,644.4901897333816
3731.6414,0.8002547894585939,641.2881034766407
3732.5017,0.7980164780391937,491.8693622303146
3733.3604,0.7943096494029543,934.0725869759598
3734.2214,0.791971938262559,741.7127607186238
3735.0803,0.7932107517726174,613.3490975477237
3735.9417,0.798421659941885,649.3193700140353
3736.8013,0.8059736225626409,960.2515570492227
3737.661,0.8132272707887799,565.3326515157913
3738.5227,0.8179929166446311,806.4448972485765
3739.3828,0.8195157439937283,587.4892917770127
3740.245,0.8184724327550654,830.5747058075492
3741.1055,0.8160888561070618,780.2640132664636
3741.9683,0.8134063605804264,849.4719265104766
3742.829,0.8112041533613847,734.5551386108575
3743.69,0.8100484903054223,540.3448252578471
3744.5532,0.8100721264616889,645.0887799991482
3745.4148,0.8105672062486052,685.2528428612322
3746.2786,0.8101610026992344,565.5218956121466
3747.1404,0.8078034538173657,531.7044997152702
3748.0044,0.8037589754718276,646.1347742883867
3748.8667,0.7996788578733356,1002.8185580325191
3749.729,0.7975038327685586,708.7218117193415
3750.5938,0.7983070395097748,668.583748108835
3751.4565,0.8018287465569627,825.4220907400021
3752.3215,0.8068963724303946,1409.9832314704893
3753.1848,0.8120853530414899,892.6702230754437
3754.0503,0.8163478234358691,851.8727171220007
3754.9138,0.8192001520242793,980.6940873127583
3755.7776,0.8208173263683329,461.23918216890127
3756.6438,0.8217566498027765,689.821099621481
3757.508,0.8225510519639444,598.6579541745845
3758.3745,0.8233940577644927,572.7143770563001
3759.239,0.8240899976423302,778.5712757548956
3760.106,0.8242636617105088,648.8963552304358
3760.971,0.8236081495218344,719.7141024727434
3761.8362,0.8221809141295727,558.5722355459629
3762.7036,0.8206235543655618,780.9264636223747
3763.5693,0.8199880121435031,871.5680674810259
3764.437,0.8209542294545341,1235.6388309078404
3765.3032,0.8230958371389954,525.3367496535067
3766.1714,0.8250671149426454,613.2632368766655
3767.0378,0.8256842525858438,740.9948454817043
3767.9043,0.8248718099733835,1220.2924781352854
3768.7732,0.8233972356143829,812.3532056732686
3769.6401,0.8218707541217428,660.5035019292803
3770.5095,0.8201733769655147,803.2508495308037
3771.377,0.8180067065891475,575.9091648585014
3772.2466,0.8156558505379456,1426.9919398188536
3773.1145,0.8140229054351817,881.0180201180003
3773.9824,0.8137567851166436,568.3436395691427
3774.8528,0.8145830623096797,717.4413022529783
3775.721,0.8154884567992567,505.43584147661
3776.5918,0.815647179042368,581.2882346640007
3777.4604,0.8151940586156647,788.6933290922713
3778.3315,0.8151900590849469,824.6001677439742
3779.201,0.8167693405725757,694.8794646162528
3780.0703,0.820182569690996,487.1206524715557
3780.942,0.8245567443274695,715.5175511011063
3781.8118,0.8284836893212183,557.6059291376829
3782.6838,0.8310356252198863,465.79837625991837
3783.554,0.8321533232103453,649.4638814250823
3784.4265,0.8323357823980495,654.9258757277833
3785.297,0.8319379347457527,839.8694690378395
3786.168,0.8309254239966384,530.5792014239087
3787.041,0.8292425964187654,760.4775532945004
3787.912,0.8273322950166357,824.4315559013612
3788.7856,0.8260946196134691,667.5087021126749
3789.6572,0.8263123601291513,626.392703289566
3790.531,0.8280153649844311,656.7068062994229
3791.403,0.8304239607966131,651.9921725626727
3792.2754,0.8324498396519606,579.169966838134
3793.15,0.8332250263619743,788.3386374062437
3794.0225,0.8324226978582411,531.8789867228364
3794.8972,0.8304062992259523,693.1356508001904
3795.7703,0.8282075260702247,912.8780784884314
3796.6455,0.8271416159527183,570.0992890081046
3797.519,0.8281726432750443,628.7493769271364
3798.3926,0.8313046980122138,665.2731343710392
3799.2686,0.835519525736283,703.6667598576023
3800.1426,0.8392343047855915,681.6972767012696
3801.0188,0.8412020683058699,521.07341590698
3801.8933,0.8411285533442293,802.172443953372
3802.77,0.8397934273357757,724.200919282461
3803.6448,0.8384671555860836,707.1893853807968
3804.522,0.838107477895018,868.8194603585456
3805.3972,0.8390177173276575,675.9598592391719
3806.2727,0.841079445465222,637.9476448910882
3807.1504,0.8441323156694235,713.535190201229
3808.0261,0.8479493992061518,558.9515365027603
3808.9043,0.8520741009086102,759.9149186276121
3809.7805,0.8558113518611836,515.3448352371294
3810.659,0.8587584026428063,547.2331626032332
3811.5356,0.8610680564518663,650.4163400215263
3812.4126,0.8632210669702518,712.8705592537202
3813.2917,0.8653452855823421,688.5105313295255
3814.169,0.8668728171676894,528.450887926566
3815.0483,0.8669357390874687,498.83231216167326
3815.926,0.8650586677097725,709.2638780036547
3816.806,0.8615897151072415,750.8062835430707
3817.684,0.8576247565724411,702.2095918739072
3818.5623,0.8545172444887494,542.5666123908667
3819.4429,0.8534029278289569,710.9777801615712
3820.3215,0.8547739533757386,623.6086800971432
3821.2024,0.8582495916454146,542.003722460599
3822.0815,0.8627262303703696,602.5134710598513
3822.963,0.866947750236031,584.5013174783006
3823.8423,0.8699681394450083,739.5450680186432
3824.722,0.8714039547117343,481.1769795580956
3825.604,0.8711718877422443,617.2191806217345
3826.4841,0.8691406281759766,647.2968960433849
3827.3665,0.8649648700555507,584.4422381995447
3828.2468,0.8584124523388998,584.7447905744226
3829.1296,0.8498381294211009,570.6133411221606
3830.0105,0.8406242006065563,585.8411139636514
3830.8916,0.8326999429448491,743.4060789663738
3831.7751,0.8277570708923614,637.15700955119
3832.6565,0.82650407345182,793.9108576878758
3833.5403,0.8284446003180237,621.915652404007
3834.4224,0.8323622550749978,602.3051752930842
3835.3064,0.8369395852970584,836.8498516090724
3836.1887,0.8410704340304165,600.5357203092632
3837.0713,0.8440308027134448,661.7917114882894
3837.956,0.8455005690596107,685.8675222103985
3838.839,0.8456644445999107,966.5027948156052
3839.7244,0.8452296011632582,677.1630850188815
3840.6077,0.8451703509570495,579.7888175851626
3841.4932,0.8463018140591506,530.2094431788034
3842.377,0.8489042006666991,548.524380073214
3843.261,0.852645335220192,505.790551832627
3844.1472,0.8568147601580836,545.5303566763816
3845.0315,0.8606958259868605,540.0512136460127
3845.9182,0.8639724506167761,511.3568430352782
3846.803,0.8666998904969301,702.8809394809879
3847.69,0.8690947615675255,547.918352299058
3848.5752,0.8711655592392199,502.88573319513637
3849.4604,0.8727417768876249,522.6788758574143
3850.3481,0.8737608537982106,729.117738717179
3851.234,0.8745274560377932,485.44269673902164
3852.122,0.8756539520829884,595.8821767105314
3853.0083,0.8776856668262379,525.0674562954226
3853.8967,0.8807783494644903,672.8546138702817
3854.7832,0.8845118987117687,633.4170196787142
3855.6702,0.8880693165848508,671.1437235225083
3856.559,0.8906187570157869,558.673580339222
3857.4463,0.8918462737486537,651.2576718644857
3858.336,0.8922910293616838,558.3233468902113
3859.2234,0.8930468590559927,543.8347879481919
3860.1135,0.8950212565099788,598.8817836171844
3861.0015,0.8982161377354899,460.0830519027104
3861.8896,0.9016986188360439,610.6752352542683
3862.7803,0.9042240509773826,612.9721723450705
3863.6687,0.9051002342474866,591.6996725831943
3864.5598,0.9047077395768665,468.70172462923273
3865.4487,0.9041606829124061,545.4606906047799
3866.34,0.9043943054547914,485.1835863235266
3867.2297,0.9053993295654879,594.5865708015491
3868.1213,0.9062641070156712,552.9804606952308
3869.0112,0.905933398911654,535.2841440078718
3869.9014,0.9039861615624979,597.9304241216705
3870.7937,0.9007786784560478,533.2598083353779
3871.684,0.8970821017260029,508.3510404663473
3872.577,0.8935331702796981,493.6528342116203
3873.4678,0.8904484487580039,557.9016802810451
3874.361,0.8877783347788938,554.5352328249049
3875.2524,0.8853645246294523,525.7194836491494
3876.1438,0.8831203235697909,504.7771818257076
3877.0376,0.8811009927828022,616.841544262581
3877.9297,0.8793299684446649,737.5398796247073
3878.8237,0.8776095014538279,501.79331643369756
3879.716,0.8756826530153607,522.2431642619161
3880.6108,0.8734258301199717,769.1884559156715
3881.5037,0.8708326070486007,856.8058942581908
3882.3965,0.8677204150485774,463.21439955799957
3883.2917,0.8637153135207597,724.1087180398547
3884.185,0.8585998547587852,1054.077636764631
3885.0808,0.8524523371369236,824.2010958748646
3885.9746,0.8455654879053867,547.5979615918524
3886.8706,0.8380649385696891,594.8847063566936
3887.765,0.8301763966207778,566.6617616822072
3888.6592,0.8226176956473125,610.9185143415709
3889.556,0.8169059211083554,748.4091581836676
3890.4507,0.8149474389646534,775.3155790070502
3891.348,0.817994856829253,648.2045639280581
3892.243,0.8258744141695441,858.9929665053061
3893.1406,0.8369961011865321,646.1155487008787
3894.0361,0.8489268181049716,478.3862113199732
3894.932,0.8596351371610973,543.3442687282834
3895.83,0.8681711909890238,649.8237782572344
3896.7263,0.8747570814117387,585.2381525308947
3897.625,0.8804526287333979,699.4826796833922
3898.5215,0.8862407083465992,735.4551744749723
3899.4207,0.8925196240217219,625.112980900611
3900.3176,0.8988553826348922,710.9786056746673
3901.2148,0.9045492633467819,481.9682021869579
3902.1145,0.9091811589679152,704.8379493676841
3903.0122,0.9127863114986604,544.2930938900591
3903.912,0.9156149567190855,471.9805819986264
3904.8103,0.9176902623827845,589.9420132965803
3905.7107,0.9189200058777618,604.0214475167091
3906.6094,0.9194826896592705,533.9735910170108
3907.508,0.9200906744136391,568.1397648858517
3908.409,0.9216594812890364,552.9268363181724
3909.308,0.9245944288100116,443.1269751238042
3910.2097,0.9283290585589035,395.7930045655804
3911.1091,0.9314612950494521,487.2548216908592
3912.011,0.9326333565657542,506.0055626044501
3912.9111,0.931386159058037,558.0548828252694
3913.8113,0.9285400531877483,560.2154826929329
3914.7136,0.9256966380625438,526.4773267898918
3915.6143,0.9243011691739864,668.2843866250473
3916.517,0.9248325042537661,682.1888913242935
3917.4182,0.9267688873888132,565.8107794655028
3918.3215,0.9291928469546951,446.3894829641745
3919.223,0.9314404067756092,541.9644729515445
3920.1245,0.9333523107361948,584.9106961096248
3921.0286,0.9350011366970492,512.3777077012465
3921.9307,0.9363638741827917,567.6556789705966
3922.835,0.9372675880301338,489.1230659977465
3923.7373,0.9374723114618998,447.6949558050221
3924.642,0.9368004178223711,483.4118964148405
3925.5452,0.9352222579097046,453.81665153290595
3926.448,0.9329498502384551,482.2895002099024
3927.3535,0.9304770299438062,569.2964738414082
3928.257,0.9284988860735875,614.4628896107927
3929.1628,0.9276260037925285,480.77539451538365
3930.0667,0.9281731723251335,472.95219034525377
3930.9731,0.9300011140694783,453.62386759840075
3931.8774,0.9324985807652502,578.3801963001172
3932.782,0.9348140513137062,497.20282384767233
3933.6887,0.9362584423072119,566.5635177245089
3934.5938,0.9367128504113866,451.2325504336259
