wavl,flux,ivar
3566.9744,9.422533343574989,9.275806147358136
3567.795,9.458263841113489,9.972748917976991
3568.6177,9.484903850827065,9.115761793214794
3569.4385,9.499720345032927,10.94615727390704
3570.2617,9.501802740606475,7.979022163215041
3571.083,9.491872725023176,7.939656634819152
3571.9065,9.471630310832648,8.694043065995258
3572.7283,9.442817574448418,8.454862224199708
3573.55,9.40611265978323,8.626955402944363
3574.374,9.36152257362429,8.557941094527775
3575.1963,9.310650524453818,7.576923714009937
3576.0208,9.257830641534785,9.804720633189794
3576.8435,9.210983386400477,9.825061061768618
3577.6682,9.177986694135292,8.203129020891783
3578.4915,9.163532294428375,8.165994177124748
3579.3145,9.165799824453977,9.166055252499694
3580.14,9.176516058916352,11.188848083354682
3580.9636,9.18269782481549,10.348478147419609
3581.7893,9.170521021367563,8.815337296894828
3582.6133,9.131100589786229,7.795088665132258
3583.4395,9.066725386370116,10.432270454745401
3584.264,8.994499459293026,10.011559993338352
3585.0884,8.94004389074258,10.871879812910183
3585.915,8.92567473114043,10.968385188985167
3586.74,8.958638368814812,11.827383962773268
3587.5671,9.027361953024208,10.213634683513492
3588.3923,9.106707701961387,10.068383932557916
3589.22,9.169882546677895,8.5099159877751
3590.0457,9.1971930836625,8.872109632655842
3590.8716,9.182878446808818,8.394037013225958
3591.6995,9.134165050661766,10.700516609109462
3592.526,9.067452380357253,8.917882511128461
3593.3542,9.00083202648153,10.075878465774618
3594.181,8.948375840290112,10.305751567895019
3595.0098,8.914436594897353,12.075647115272002
3595.8367,8.894266111548596,8.935653739844417
3596.6638,8.878527015814296,8.948488633934545
3597.4934,8.86106134755193,11.724991903222366
3598.3208,8.842296790402692,14.280083865096417
3599.1506,8.825371036731164,8.522455783386535
3599.9788,8.811163616046963,13.181150990820832
3600.8088,8.797560615118888,11.801180160380573
3601.6372,8.783600183156572,8.386010939948328
3602.4678,8.77053792545992,12.221596351549378
3603.2964,8.758419740579754,11.107777176365548
3604.1252,8.743269297637397,8.928402479048591
3604.9565,8.72120969602882,10.116313042469583
3605.786,8.695454058842213,12.020253492693762
3606.6172,8.676753941138841,11.496880931446935
3607.447,8.67666682839091,10.464833179634244
3608.2788,8.699006539988739,9.568563850312751
3609.109,8.737291070329974,9.920232661065013
3609.9392,8.779161643194618,9.806508530265859
3610.7717,8.812740832985659,9.54561761916379
3611.6023,8.830388960946554,11.022911755001301
3612.435,8.829496732869012,9.577390855569586
3613.266,8.811005701081271,10.890887383289124
3614.0994,8.778994780193063,9.817634655132633
3614.9307,8.740524361746557,9.392567774017817
3615.7625,8.703101773338005,9.663343784190692
3616.5962,8.672223253670003,12.358806853117136
3617.4282,8.649934395071543,9.217671537963316
3618.2625,8.634423792526741,10.24606959847221
3619.0947,8.621290265567227,11.596575583685427
3619.9292,8.604842559636728,9.671033998263521
3620.762,8.581139891583941,10.498725028968963
3621.595,8.550194772135294,12.425295841562445
3622.4302,8.515956974299312,8.75522287370803
3623.2634,8.483823446441193,10.44317870194465
3624.0989,8.45740313161682,12.420586583374241
3624.9326,8.439124174654607,10.95320725702552
3625.7686,8.431217614975674,10.99690578683249
3626.6028,8.435495451760087,12.149424736577902
3627.437,8.449996874457936,13.29576722563883
3628.2734,8.467173320049598,11.29089907988141
3629.1082,8.476474584313888,11.120859191498406
3629.945,8.470652307693502,12.076198825130987
3630.78,8.449852765626717,12.137933978580707
3631.6174,8.420813978953285,10.4016333656935
3632.453,8.393190488163784,12.690442903501063
3633.2883,8.374534986865124,11.951316206252796
3634.1262,8.367244021024854,11.04882134477376
3634.9622,8.36751083765221,9.642087254187286
3635.8005,8.36749573387105,10.676741501406322
3636.637,8.360053810693078,11.744763431402342
3637.4756,8.342222943941598,12.73867381942364
3638.3123,8.315221848954533,10.590395711700763
3639.1492,8.281498426424942,11.422272917183903
3639.9885,8.2429912178726,13.254881191786975
3640.826,8.201973846598008,11.346233234982996
3641.6653,8.161433106104981,11.930151691541534
3642.5032,8.12555544258263,14.17589300193988
3643.343,8.097713377638042,13.523708337200606
3644.1812,8.080089660085209,10.82981061563952
3645.0195,8.073447207161564,11.593533851238563
3645.86,8.077788880434872,9.90683075817531
3646.699,8.091368225504322,12.179849583797353
3647.5398,8.109288468255077,11.432204812920363
3648.379,8.123627293796751,12.426317857508444
3649.2202,8.126945860632196,11.478098773648068
3650.0596,8.115883620002123,11.993046355779967
3650.8994,8.09197015727981,11.142395230035095
3651.7412,8.059067124024843,11.242471464340491
3652.5813,8.02119944705103,12.50321359990102
3653.4236,7.981641950907428,11.662931175708875
3654.2642,7.944418397680449,15.464293929000233
3655.1067,7.913754751360473,14.146303570204037
3655.9475,7.8936626459159545,15.283143892692703
3656.7886,7.886181525623918,14.623486241072056
3657.6318,7.891178617373187,12.461993066364794
3658.4734,7.906498506416992,13.164037887875624
3659.317,7.928640752397067,11.862702557767635
3660.1587,7.953256163122352,10.617776117175556
3661.003,7.976887831514665,11.537447872559591
3661.845,7.997998008795662,13.653374039039061
3662.6875,8.017267791235332,14.426786704796795
3663.532,8.035227349114457,11.938981332690638
3664.3748,8.050126000142045,9.8584639684728
3665.2197,8.058061508759922,10.849163442346748
3666.063,8.05457770731526,11.874269039299511
3666.9084,8.037516400961096,10.748721646919744
3667.752,8.009654967694326,12.194269218479834
3668.5977,7.979019544476972,12.718030873425427
3669.4417,7.956566457906646,12.831659293299936
3670.286,7.950398510465389,11.589122490764021
3671.132,7.9616779634241555,11.9832048838783
3671.9768,7.983830464620121,11.803485629315096
3672.8235,8.006042173413594,13.436566230706365
3673.6685,8.018024511611758,12.191882347077572
3674.5156,8.01469144957822,10.91168368561842
3675.3608,7.997918920277264,11.916512264019799
3676.2063,7.974585720863802,13.401560958853064
3677.0542,7.951516287962185,13.49156530555817
3677.9,7.931331563086932,13.49747436854981
3678.748,7.911673259159886,15.882224521504602
3679.5945,7.8890166649517885,12.83755646715943
3680.4429,7.861918695287217,14.702375687841643
3681.2896,7.832705686581397,10.636807807147225
3682.1365,7.805714341089923,11.660389776889861
3682.9856,7.784887261124868,13.581125187395427
3683.8328,7.771860298787969,13.43951138544545
3684.6824,7.7654978208081555,13.024178204453712
3685.53,7.763742094878046,15.83263657198048
3686.38,7.765104174162292,10.079091847991245
3687.2278,7.768774694036832,14.386157348587732
3688.0762,7.773302832452524,12.709396920179552
3688.9265,7.775920353674714,13.642970474235183
3689.7751,7.774195377170971,13.485293105635627
3690.626,7.769092791641211,10.496293948735088
3691.475,7.7661031510146366,13.049733332003582
3692.3264,7.772042284430956,12.9829567310122
3693.1758,7.789344468998547,11.424435287842051
3694.0254,7.812798544420289,14.600500792558378
3694.8772,7.83190120074516,13.510675431193318
3695.7273,7.837415803216364,12.767730691445756
3696.5793,7.827811574204605,12.744861262983608
3697.43,7.810022209932346,12.681366545645245
3698.2825,7.793908614505136,14.891830444303087
3699.1333,7.784690113831172,13.064656358036036
3699.9841,7.778813227262635,14.169250809697639
3700.8374,7.767101411637065,13.48302888812491
3701.6887,7.742096242706726,15.55852387614752
3702.5425,7.703249375940808,12.34867515778347
3703.3943,7.657281505821852,14.601654922380032
3704.2483,7.612979304852856,13.544552463416677
3705.1003,7.577700711053383,14.681356785468221
3705.9526,7.5552685242804385,11.586028672523563
3706.8074,7.546833740629868,14.912227852890757
3707.66,7.550603395569069,14.616526668640537
3708.515,7.5612604054153545,13.953918977882987
3709.3682,7.571398975116158,9.750295996936746
3710.2234,7.575163901343297,12.737578282293203
3711.0771,7.57073413640403,15.988758693831045
3711.9307,7.559501817728404,13.790393285112449
3712.7866,7.542630975647268,14.803464376225774
3713.6409,7.5190725832542284,12.418123604085695
3714.4973,7.486410571495444,13.26042829010925
3715.3518,7.444819744861957,15.722696994180204
3716.2085,7.3991706821062895,13.988256072000922
3717.0635,7.35913475908343,16.115706159510594
3717.9185,7.33414300798474,16.718106537258056
3718.776,7.328171105649677,18.404046127587137
3719.6313,7.336519763824101,15.828860846474159
3720.489,7.347368706817598,16.27735643160305
3721.345,7.347383745540914,13.50890795152771
3722.2031,7.328439756912731,14.381723358426036
3723.0593,7.291990370697917,13.851678877171086
3723.9158,7.248147004088948,12.843031799508642
3724.7747,7.21002079218453,17.553811200436638
3725.6316,7.1867295684907715,14.604874293272369
3726.4905,7.178847368965861,14.015214861454668
3727.348,7.180734876930704,17.42709788113621
3728.2073,7.185571190553152,15.043551227546077
3729.065,7.1894013684235984,15.372426035055843
3729.9229,7.191430585398261,14.541336795278498
3730.783,7.191418992141981,14.128866287779333
3731.6414,7.187350188595084,14.550995206405691
3732.5017,7.175695733691741,14.679021150636677
3733.3604,7.154338367832736,16.19422451675657
3734.2214,7.125212404698706,14.375574296840549
3735.0803,7.09502553545396,16.94449696977052
3735.9417,7.071825417850813,15.224109060471008
3736.8013,7.061130126191568,19.257870779273446
3737.661,7.062441814267872,16.074179316380413
3738.5227,7.070168566452116,17.890292226169123
3739.3828,7.0774733778585075,14.20955165651137
3740.245,7.0804874765112835,15.828573005066364
3741.1055,7.079139881244535,18.59404521707816
3741.9683,7.075076474302731,15.025156213238898
3742.829,7.06931814687703,13.936749238473586
3743.69,7.0615450945754015,16.475250260253734
3744.5532,7.050762007949902,14.84104603728079
3745.4148,7.0365035529997275,17.01505059111156
3746.2786,7.019688619740626,13.940805996590392
3747.1404,7.003132188829007,15.609265780624588
3748.0044,6.989985804017529,16.5441470207362
3748.8667,6.981854831353537,16.358495715833477
3749.729,6.977383896227428,15.098417672951907
3750.5938,6.973457459583354,15.876035157132089
3751.4565,6.9678660486196815,17.851586807461192
3752.3215,6.9612594666499765,14.941718061263627
3753.1848,6.956720608171849,14.640477385945323
3754.0503,6.956809548925033,15.187937797147148
3754.9138,6.960984280619585,18.657296676922574
3755.7776,6.965852257108845,15.010686774252816
3756.6438,6.9680225911257905,14.165504559064342
3757.508,6.966278145806425,17.007201989606973
3758.3745,6.9608379152788675,13.379688059319035
3759.239,6.9512865521858,17.257610586087676
3760.106,6.936325900911895,16.416001509667193
3760.971,6.916198110917966,21.70164370054668
3761.8362,6.893906828232903,19.02310893872408
3762.7036,6.873649048812684,17.867500799092394
3763.5693,6.857722519226457,14.271915603081736
3764.437,6.844953690129768,15.253396176383605
3765.3032,6.8329605978672605,14.335871705437212
3766.1714,6.820834952116218,15.951632828911254
3767.0378,6.810054557878496,18.495872311435708
3767.9043,6.802384328584866,16.80363374993539
3768.7732,6.797928067625257,15.769575333209229
3769.6401,6.7953054165191675,16.668628709553612
3770.5095,6.793406638219658,21.413608867310653
3771.377,6.79257775147292,15.610746970107696
3772.2466,6.793945051886011,17.09343287281711
3773.1145,6.798227103964603,18.647889139777117
3773.9824,6.805241804342904,16.90567767469093
3774.8528,6.81382333265409,19.389978026449484
3775.721,6.82147395198455,16.56160570129968
3776.5918,6.824869698300786,15.091468106632497
3777.4604,6.821514370422402,17.197950406361127
3778.3315,6.811959162228953,14.866924061071757
3779.201,6.800521448771652,17.290534164907438
3780.0703,6.794443332408949,17.64681253247041
3780.942,6.80389687853077,18.193273912454618
3781.8118,6.842535545130621,15.310327556937713
3782.6838,6.925214005384214,15.66950252487619
3783.554,7.056476688474702,15.408719711180076
3784.4265,7.216808894096062,16.84396037159743
3785.297,7.3551533801101625,19.251574335224444
3786.168,7.411645539595911,12.758864834159562
3787.041,7.353267257545855,17.07008820341097
3787.912,7.199106341163532,16.660271813865577
3788.7856,7.005734256588009,19.13243500022428
3789.6572,6.831487450590614,16.95565466537716
3790.531,6.704179305296234,18.40063223851746
3791.403,6.622755161874804,18.679800462323154
3792.2754,6.571395372898196,15.123742495888227
3793.15,6.535692706525539,20.70395507828274
3794.0225,6.507874665579798,17.079066145267504
3794.8972,6.484644703722367,17.234711776281593
3795.7703,6.464691205985558,19.18430835980019
3796.6455,6.447016986503682,15.330840395669862
3797.519,6.432172237870091,19.09139952420402
3798.3926,6.422965801213759,22.61277078591361
3799.2686,6.42359296582242,20.866732988571524
3800.1426,6.436693197136057,19.624554879383723
3801.0188,6.461283146148339,18.770777230585445
3801.8933,6.492953722194711,20.437206455570966
3802.77,6.5261263103154645,18.383400953166973
3803.6448,6.554824847061666,19.944614955597764
3804.522,6.5739642420057685,17.396915471820595
3805.3972,6.580224889394284,15.18007026118513
3806.2727,6.574047601939446,17.380620028185508
3807.1504,6.559307171206346,17.685718150546105
3808.0261,6.541386236133202,18.782087321740924
3808.9043,6.524623197556552,17.471946072090905
3809.7805,6.511923309832668,19.23772954946915
3810.659,6.504967429207379,18.982753372213995
3811.5356,6.504781491208016,19.861508906253412
3812.4126,6.51122936361287,20.948393459779975
3813.2917,6.522627530185169,19.28364612284302
3814.169,6.53579692183118,18.175837946995216
3815.0483,6.547344350309641,16.723333858239943
3815.926,6.554754215179677,17.771601834621336
3816.806,6.557055394801325,19.312893584611718
3817.684,6.554050362469038,18.475072953115834
3818.5623,6.545423165478637,19.770653721080286
3819.4429,6.530423699348489,16.092699516569358
3820.3215,6.5085412728803815,17.634802050093466
3821.2024,6.479620806184878,18.780787489936557
3822.0815,6.444317777464369,16.735153299562256
3822.963,6.40370675031865,17.19121497022579
3823.8423,6.360055397215225,19.706760052559623
3824.722,6.3157457194671744,20.79880152156296
3825.604,6.272623893160899,21.349294301996757
3826.4841,6.231823447721283,19.051306436989442
3827.3665,6.193238789100435,21.99563453317644
3828.2468,6.156397943711186,18.088125292753233
3829.1296,6.1192041171977705,19.048009825748785
3830.0105,6.0784144474940325,21.72172229292732
3830.8916,6.030223438228101,19.125103079877867
3831.7751,5.973123155554818,24.498345534211794
3832.6565,5.910644630376661,20.349851622409393
3833.5403,5.849894850009248,26.741697760154008
3834.4224,5.799425512397178,28.471450674208636
3835.3064,5.764133468094431,24.122994982708835
3836.1887,5.744259498669429,22.200769470066934
3837.0713,5.7363802377202635,19.067007569598584
3837.956,5.737386931300675,26.356872527243087
3838.839,5.747228314453784,22.71490984684684
3839.7244,5.768743075225202,22.300077813422206
3840.6077,5.804285767548975,25.298959726464165
3841.4932,5.85293245563302,21.985317635748142
3842.377,5.909425015694975,21.011870267903685
3843.261,5.9672975145654155,23.922797776928398
3844.1472,6.021449963055681,21.120656032343298
3845.0315,6.069025005911852,20.687396850573343
3845.9182,6.1099477705850775,24.790063468711015
3846.803,6.145263765521111,21.865468166985096
3847.69,6.177304627707832,20.739147796584884
3848.5752,6.208221340867332,20.710575379766365
3849.4604,6.239733405284984,22.712954237351347
3850.3481,6.272676735370107,18.686602576514957
3851.234,6.306819493569956,18.694614891827555
3852.122,6.34130261932094,17.692146233452934
3853.0083,6.373625705285386,18.90118437517349
3853.8967,6.400532078686959,17.155250373423623
3854.7832,6.418603833663243,20.017349933971737
3855.6702,6.426152530569527,19.641341823537527
3856.559,6.4236447055549935,18.062738948647496
3857.4463,6.413568624590533,18.968698572527593
3858.336,6.399381793291829,21.12635997910651
3859.2234,6.384563406683007,18.882703468939063
3860.1135,6.371575406957599,18.604083079498583
3861.0015,6.3618304877075635,17.86884731034184
3861.8896,6.355215078857099,21.45916487759929
3862.7803,6.349924234257025,19.60558511758788
3863.6687,6.342706996401996,20.145785979706016
3864.5598,6.330150142358667,20.042449037609398
3865.4487,6.310749773239919,18.436014218881265
3866.34,6.285435181571002,19.389536655083887
3867.2297,6.257109260557505,17.917445748496906
3868.1213,6.228481472123018,17.059801229673916
3869.0112,6.200780694069388,25.050463898926395
3869.9014,6.17234524794611,19.83257344603432
3870.7937,6.139522503589399,19.624023301008386
3871.684,6.0996959145346175,20.176734655226394
3872.577,6.053569249010754,23.98476730717998
3873.4678,6.005777015160215,25.001408593019534
3874.361,5.960284149768409,24.233185233248367
3875.2524,5.917366220649495,22.450391213895553
3876.1438,5.8726609464204165,20.707885938368964
3877.0376,5.821221189693651,22.757627857835885
3877.9297,5.762079100012131,23.10197893159079
3878.8237,5.698274387028265,27.421976960228875
3879.716,5.634910158909356,27.07466567071053
3880.6108,5.57412970823546,27.313838888785035
3881.5037,5.5144361836406395,26.772541188479053
3882.3965,5.451193967577556,28.34094297830306
3883.2917,5.380315948829762,23.599075059599947
3884.185,5.301387380359906,27.15128557868402
3885.0808,5.216559282939433,25.570777432928445
3885.9746,5.130554602436976,31.130174172059775
3886.8706,5.047837352425873,24.925070688316566
3887.765,4.9741843298154045,32.69152113264144
3888.6592,4.915672176605727,32.29942616387009
3889.556,4.878393959153281,36.388301272398785
3890.4507,4.866689748367656,40.062711861239215
3891.348,4.881086183276187,29.245005577009852
3892.243,4.9183581059572035,34.09259271439723
3893.1406,4.97282694178181,29.518361201948014
3894.0361,5.037062247893737,34.0494790770869
3894.932,5.104341365421839,29.151050342107276
3895.83,5.169723161872239,34.17727779622854
3896.7263,5.230656861468647,30.734220938911378
3897.625,5.288471396462174,24.21310311665229
3898.5215,5.346460021202006,28.61502688968171
3899.4207,5.409087359895851,31.43986578240059
3900.3176,5.477967223549001,24.460226856961388
3901.2148,5.551530783640909,24.702711729675176
3902.1145,5.625856577255457,24.58594706169448
3903.0122,5.697366492624171,23.846212084971487
3903.912,5.766449856661223,24.839808864382668
3904.8103,5.835554869208528,24.729459231966963
3905.7107,5.907542965282371,21.656343743174784
3906.6094,5.981811923112082,23.649511130002217
3907.508,6.055003882129225,21.52418647900094
3908.409,6.122529324938929,22.697338674564822
3909.308,6.180749729468425,20.387257085841885
3910.2097,6.229618855893384,18.539450842531345
3911.1091,6.271361667700599,21.09260319913312
3912.011,6.309745111667503,17.99917066950263
3912.9111,6.347221592397988,19.215398930248018
3913.8113,6.384403557543134,18.857244129731793
3914.7136,6.419796226402854,21.80695302296717
3915.6143,6.450622970949113,18.985998553492152
3916.517,6.475181704205349,21.438947073880165
3917.4182,6.493901932380841,20.202436797595315
3918.3215,6.509716349037535,17.173846866525057
3919.223,6.52576926785786,18.80370344225878
3920.1245,6.543462113498532,18.826393876712647
3921.0286,6.561780676562363,17.25498032882894
3921.9307,6.578419811733589,17.816743916178304
3922.835,6.591509823434002,18.214538471024543
3923.7373,6.599464964572881,17.8207863309047
3924.642,6.600755397562281,16.216724125099898
3925.5452,6.594646206291683,18.715174338344166
3926.448,6.583519856137448,16.245222830710425
3927.3535,6.573662156950794,20.804196992501673
3928.257,6.5724535428297886,20.30600697127247
3929.1628,6.583025685483284,20.844157426425
3930.0667,6.601378866569531,18.149842684849414
3930.9731,6.618911997435134,15.683186720070596
3931.8774,6.627871849972634,18.636691486618243
3932.782,6.625945196556549,16.62692960945056
3933.6887,6.615691590768005,20.114287704818963
3934.5938,6.60099112271413,16.24103795101205
3935.501,6.583503382298655,17.60705112385479
3936.4062,6.562397105576451,20.761064133099755
3937.3142,6.535859918115137,18.26337728491359
3938.22,6.503665955085836,20.627626753524062
