wavl,flux,ivar
3566.9744,9.584663708181164,5.7783099269993015
3567.795,9.68879885780598,5.8664887256904406
3568.6177,9.743725760430893,5.680520286736228
3569.4385,9.74876597145128,6.125339656274015
3570.2617,9.718839790079972,5.985329465893478
3571.083,9.67515109970899,5.453942737113949
3571.9065,9.633884749222286,6.487322966216929
3572.7283,9.600248528068647,5.746833192478583
3573.55,9.568910019035922,6.4859651338455455
3574.374,9.531028096925748,6.276045448017387
3575.1963,9.480814828750379,10.75193783320365
3576.0208,9.416202381446386,5.863840203466577
3576.8435,9.338011114109962,7.155582228470603
3577.6682,9.248421907555233,8.081283990262662
3578.4915,9.15398497202731,6.440194082882161
3579.3145,9.064244052346314,5.756874083000607
3580.14,8.9884063752992,8.549101763224382
3580.9636,8.9320724852363,8.196214076179873
3581.7893,8.895375866508212,9.247557895992754
3582.6133,8.87702410492994,6.699794610438045
3583.4395,8.877292871491115,5.625144082952947
3584.264,8.899493643103309,7.650655173473279
3585.0884,8.947082853875084,6.664302280873819
3585.915,9.018900034964599,8.728260545890336
3586.74,9.105039668327203,6.523735857719261
3587.5671,9.189665973629795,7.3820783197663475
3588.3923,9.255382460180513,6.897295961294713
3589.22,9.291066203495951,6.132307316206147
3590.0457,9.293947018445524,5.318893628526139
3590.8716,9.269284670199392,6.357934669572823
3591.6995,9.225459228687267,6.756958691503279
3592.526,9.170479244760399,7.339836881315359
3593.3542,9.110695873727211,5.999793368320306
3594.181,9.053648091539044,6.7839167586783065
3595.0098,9.007359977301858,7.847710930366429
3595.8367,8.978025190350948,8.081187942270336
3596.6638,8.965619301590928,6.5561407300435866
3597.4934,8.96455935452478,7.20382767481421
3598.3208,8.966982498815856,6.836230752334493
3599.1506,8.966316611194612,6.517479731246702
3599.9788,8.959276995470773,8.45969479615231
3600.8088,8.946292821698712,8.047514400388824
3601.6372,8.930275702510727,6.029763213695134
3602.4678,8.913016748243203,7.6583563914803605
3603.2964,8.892564152436188,7.643759341335049
3604.1252,8.864883767288056,6.41659073871815
3604.9565,8.830993066795811,9.151309177955046
3605.786,8.802428548799506,7.3303351198162945
3606.6172,8.796191196079933,7.517530204626111
3607.447,8.822744884960555,7.653199659555806
3608.2788,8.8766602716005,7.137872733310364
3609.109,8.93847246780789,5.569822725953925
3609.9392,8.986750153766488,5.830753337183629
3610.7717,9.00838097405856,6.931470571273621
3611.6023,9.001967652501705,6.402281913627941
3612.435,8.974745348631192,7.275289706440655
3613.266,8.93709124040897,6.800166124890918
3614.0994,8.897846456589729,7.313189365653027
3614.9307,8.862622986460032,6.636399214555765
3615.7625,8.832482376465144,7.552278045461335
3616.5962,8.805306664644057,7.589397146337939
3617.4282,8.778447751901995,6.88059400621756
3618.2625,8.751179898586262,7.647587127808618
3619.0947,8.726050981207063,9.343082345385925
3619.9292,8.706212265304629,7.352282488873736
3620.762,8.692693278812158,6.582631902637926
3621.595,8.682844070094957,7.547513000656462
3622.4302,8.671894998614214,7.257208994501266
3623.2634,8.655118280876927,7.901639814724799
3624.0989,8.629337209698715,8.782396551394754
3624.9326,8.59535259096161,8.048288606652418
3625.7686,8.55933722901751,9.202508051375393
3626.6028,8.532185476490382,10.375088535796698
3627.437,8.52335214877291,7.532644128936342
3628.2734,8.534928029460227,9.634717527998916
3629.1082,8.55969950647758,6.104827015421417
3629.945,8.585855712802632,6.907551118980592
3630.78,8.603745679553526,6.46377641762852
3631.6174,8.610705078765195,8.401157542699645
3632.453,8.609820369884368,7.344448342069911
3633.2883,8.605556174743485,7.344607801704982
3634.1262,8.599887573926535,7.36888848584759
3634.9622,8.592677351097594,7.273004403716427
3635.8005,8.584620754328101,7.9368385843984814
3636.637,8.578620754359,6.816894944585544
3637.4756,8.576745105774222,6.244306779152768
3638.3123,8.576783240395862,9.336400463142374
3639.1492,8.57309451369272,8.156569518044462
3639.9885,8.561617561417341,6.570861816000433
3640.826,8.543517287613701,7.834605927852361
3641.6653,8.523066656855791,7.760570229186364
3642.5032,8.503189063669932,6.333046870353086
3643.343,8.483146178904306,6.4822989740613535
3644.1812,8.461527300567422,6.814079968115225
3645.0195,8.439612012386826,7.551608832615
3645.86,8.42154738314526,6.934116892086526
3646.699,8.410680530946685,9.072439403719386
3647.5398,8.406053515266494,7.335318061581087
3648.379,8.403499769190006,8.804737640255953
3649.2202,8.399048242521147,7.1204968151356445
3650.0596,8.391014024461247,5.6595341288951335
3650.8994,8.379028830035741,6.3982714543446315
3651.7412,8.36262824963153,8.053674499339916
3652.5813,8.341556033999288,7.786140480946168
3653.4236,8.316652782756899,8.215138207242676
3654.2642,8.29070749518755,8.464748046361194
3655.1067,8.267063264101862,10.255728333313996
3655.9475,8.248047428054104,10.494211008295899
3656.7886,8.232907700558172,8.452013960993611
3657.6318,8.218338846394513,8.242162226462936
3658.4734,8.201327047572835,7.205727685426784
3659.317,8.181892822185171,10.050599554487846
3660.1587,8.163749588362036,8.055537872476243
3661.003,8.151581697722943,9.399858917956049
3661.845,8.148561620315945,9.565569034922431
3662.6875,8.154729836311033,9.504752715589781
3663.532,8.167165310251773,10.73936140653386
3664.3748,8.180936600841145,9.865834824194065
3665.2197,8.191651590014642,7.686378144546622
3666.063,8.197626830836356,8.372979127829892
3666.9084,8.200385223840847,9.003930402740533
3667.752,8.202564122937904,7.917374155143716
3668.5977,8.205839435625439,9.65783634770412
3669.4417,8.210244723934805,8.819821602524161
3670.286,8.214869949064216,7.459118921154922
3671.132,8.218812892374933,7.488956753422067
3671.9768,8.221951175365163,9.768029674377042
3672.8235,8.225148589219227,9.949999896078769
3673.6685,8.229319301405107,9.612600543633327
3674.5156,8.234316011245728,9.035718917940674
3675.3608,8.238859622445796,8.437894444821326
3676.2063,8.2419570229749,8.345287717968766
3677.0542,8.243688110266316,8.122494880765926
3677.9,8.244123862736956,8.246466845368376
3678.748,8.241557976148107,8.928637925212195
3679.5945,8.23262448040087,8.39788330053504
3680.4429,8.21490728627042,8.79210097674919
3681.2896,8.190079845253461,9.061225927289993
3682.1365,8.164206737444603,8.877785223084729
3682.9856,8.145345420666334,8.416758607671868
3683.8328,8.139478140713958,8.522733169614737
3684.6824,8.14676235104257,7.995136905689334
3685.53,8.161387599465565,11.730180913304638
3686.38,8.175382698563617,7.806359491481469
3687.2278,8.183184589411583,8.600722160722688
3688.0762,8.183716783546313,7.530513013875553
3688.9265,8.17877916891353,9.75228993173491
3689.7751,8.171394214029181,8.164376052782423
3690.626,8.16537900546998,7.263798173238597
3691.475,8.165291297651512,7.969540257364398
3692.3264,8.17474439512272,10.992963922029597
3693.1758,8.193403969362738,8.785017630981457
3694.0254,8.214973952086291,8.768029868634324
3694.8772,8.228783350630962,10.230640354442524
3695.7273,8.225843838921815,6.4578755602264435
3696.5793,8.205385483112911,6.712669453306303
3697.43,8.175363867458803,10.281014694803895
3698.2825,8.146066540679739,8.12018127807023
3699.1333,8.123697200959857,9.477967079366323
3699.9841,8.10799598101305,10.02933585260738
3700.8374,8.09499740661564,8.594062012760268
3701.6887,8.080553830509075,7.089478866487778
3702.5425,8.062364534898565,9.426580075362281
3703.3943,8.041215007405697,7.661605602340052
3704.2483,8.020101456626524,9.257134766970463
3705.1003,8.002708758345873,8.271790247766964
3705.9526,7.99080369491024,9.691658034924439
3706.8074,7.983340229695521,9.595170029384565
3707.66,7.97705476510951,8.438700572060117
3708.515,7.9679628523271875,6.964640839212279
3709.3682,7.953126627926161,10.888300764727012
3710.2234,7.931185202795685,9.170241142048859
3711.0771,7.902306477495198,7.862716956798884
3711.9307,7.867194185836861,10.416010059957364
3712.7866,7.827034195981124,8.613729150283003
3713.6409,7.785051934725492,9.784152384709792
3714.4973,7.746736759846624,10.142550645292246
3715.3518,7.718846753344406,10.537261522885885
3716.2085,7.704208855449396,10.087030185035136
3717.0635,7.698643629732917,9.244617125395152
3717.9185,7.692150672153481,9.926495937851115
3718.776,7.674916937185006,7.628450565754515
3719.6313,7.642638869925227,8.57689576140074
3720.489,7.5967154541785655,12.958544445065035
3721.345,7.542389671840945,8.91072335624977
3722.2031,7.48654082407866,9.819611420091267
3723.0593,7.438960082651762,9.611020488020143
3723.9158,7.410240131612042,9.98917949063633
3724.7747,7.407647333228444,11.198117949724958
3725.6316,7.4295851929011025,8.008998679396456
3726.4905,7.464774913495063,10.811212943725202
3727.348,7.4971246750901175,8.898322890914582
3728.2073,7.513540269418436,9.624819690035265
3729.065,7.508621093753936,9.334365848845998
3729.9229,7.485723617849824,8.655193776832808
3730.783,7.4538001740977835,10.06962159177189
3731.6414,7.423038000879506,9.20240734510884
3732.5017,7.400270877623076,9.199512326782495
3733.3604,7.387994325957296,11.953501661925195
3734.2214,7.3848933836101605,10.918048505007965
3735.0803,7.387451792787337,11.31681619129521
3735.9417,7.390909399130306,10.548671277465438
3736.8013,7.390760014138959,11.260902068221098
3737.661,7.384992293299361,9.716851870327998
3738.5227,7.375294889655921,11.337344202764665
3739.3828,7.365767127724063,9.868425328509893
3740.245,7.359221730756365,12.292032452187845
3741.1055,7.354512161532432,12.156703187509235
3741.9683,7.346862123489802,10.854083394088013
3742.829,7.33149654134345,8.49598440426156
3743.69,7.307069343921466,11.336905776797888
3744.5532,7.276362361630581,10.178464651564255
3745.4148,7.2445192072422815,11.002305440297581
3746.2786,7.216044213572544,12.328954103712311
3747.1404,7.194385192357451,11.717117958625144
3748.0044,7.181606835460339,11.508647907043624
3748.8667,7.178705929176631,11.92328552867684
3749.729,7.184702554025811,11.803981868896715
3750.5938,7.196385585413324,9.980590331955328
3751.4565,7.208539938345093,10.234100470149128
3752.3215,7.21548679107177,14.106969296744506
3753.1848,7.213116015507029,10.155458867159716
3754.0503,7.201311649492324,10.843137281655878
3754.9138,7.184528112468848,10.815057335522978
3755.7776,7.168883172644981,11.792356323591887
3756.6438,7.1578839018275175,12.49891099045228
3757.508,7.150382377240578,9.712208709003155
3758.3745,7.142388554487565,11.12480019489699
3759.239,7.1310119490680375,11.09451115269426
3760.106,7.116129622604215,11.139167616829432
3760.971,7.0997640591194,11.431030455741299
3761.8362,7.084161729053756,12.565586503468092
3762.7036,7.070833077271699,10.0209867624077
3763.5693,7.060030067663681,10.858622846054747
3764.437,7.050467217464942,10.392777875346594
3765.3032,7.040643037153939,10.764269690994082
3766.1714,7.030625743606386,13.016143657335281
3767.0378,7.023041137112321,9.786209158659052
3767.9043,7.021308399186122,11.924801042001707
3768.7732,7.026855353005434,10.947536047398705
3769.6401,7.037349797912386,10.971818806356431
3770.5095,7.047619237660372,13.74012536449346
3771.377,7.051916844931302,11.725035839624505
3772.2466,7.046443786956483,11.191504775478888
3773.1145,7.030680563916308,10.905460982976885
3773.9824,7.007502519761064,11.454208685852844
3774.8528,6.982066291893176,11.05836356166335
3775.721,6.960121911817989,13.35513975852214
3776.5918,6.945265772744237,11.417778771877195
3777.4604,6.937737368130895,10.051069706157703
3778.3315,6.934197266096884,12.740412889495733
3779.201,6.930122822786596,11.347590925544132
3780.0703,6.922513106103664,12.31232836363001
3780.942,6.911091461256874,12.444814685484321
3781.8118,6.897533960632243,12.023327577371951
3782.6838,6.883858334656195,10.88466652957246
3783.554,6.871988131307065,11.511596494362445
3784.4265,6.86336059252213,12.857457256971015
3785.297,6.858821310661536,11.258684981488853
3786.168,6.858016566500012,12.17718137736949
3787.041,6.859377008303044,11.223344678189372
3787.912,6.860467141553918,10.842462376920395
3788.7856,6.858798598380562,12.167042377397259
3789.6572,6.85266434405974,11.72180155417094
3790.531,6.841624877416119,12.167278687865755
3791.403,6.826838241859177,10.282780134913494
3792.2754,6.810619772315757,12.778190479348442
3793.15,6.795285439657054,12.241646575430506
3794.0225,6.781595524759569,10.92835440556116
3794.8972,6.768017078350102,12.277714291357888
3795.7703,6.7525314232133855,12.95976515311434
3796.6455,6.734504471055461,10.812603899764873
3797.519,6.715705669838052,11.692356594258568
3798.3926,6.6992207761580485,13.298519598465374
3799.2686,6.688538049007513,13.319362373268795
3800.1426,6.686989440987335,11.358103224045607
3801.0188,6.696746607004736,13.159914887100468
3801.8933,6.717395303657153,14.03099443592625
3802.77,6.744998072950147,11.144845378180678
3803.6448,6.772125186133104,11.575187720146674
3804.522,6.790295743550178,8.756058817709299
3805.3972,6.79263054502188,10.596551312442296
3806.2727,6.777541892118272,11.691860638676562
3807.1504,6.750256379743574,14.244556213363094
3808.0261,6.72136100451389,13.474049082501756
3808.9043,6.701052817602791,14.276885636198895
3809.7805,6.694249344009909,12.786467262712732
3810.659,6.698678569062853,14.100572745585998
3811.5356,6.707818826477065,11.366839922272463
3812.4126,6.71519070495571,14.788218062099629
3813.2917,6.717167726770259,12.54984687765819
3814.169,6.713451268838899,14.161601162520107
3815.0483,6.705867918728585,12.906764962300157
3815.926,6.696749170756517,14.56042461694198
3816.806,6.68821523594993,13.988576384357017
3817.684,6.683840359945115,14.929111625754839
3818.5623,6.690783040493373,12.19313673831023
3819.4429,6.718688844016193,13.112977554202564
3820.3215,6.771529370854858,12.348583489083824
3821.2024,6.838446857254979,12.248542666721077
3822.0815,6.8924229337098115,12.562483118216358
3822.963,6.905407406838055,11.544628476736815
3823.8423,6.866173983022758,14.816742448124614
3824.722,6.786392188462973,12.546279925771213
3825.604,6.689329628228608,6.173738048303473
3826.4841,6.596274799545676,11.651417504335686
3827.3665,6.518404207213946,13.398056693118617
3828.2468,6.459767893763793,13.3335178612034
3829.1296,6.418689685466612,14.094785829290657
3830.0105,6.3908294437846855,14.632833860703888
3830.8916,6.370282666491354,12.80931376412835
3831.7751,6.351835320429274,14.176792792328126
3832.6565,6.331939973849777,14.951702494458852
3833.5403,6.308640568763376,13.421154386281152
3834.4224,6.282483992753801,14.00312185554499
3835.3064,6.256638979388958,17.943715521016674
3836.1887,6.236748203498703,13.988299244378554
3837.0713,6.2281095165754214,13.508289771697896
3837.956,6.232563223437218,15.352677246292988
3838.839,6.24663580005778,12.90395826415795
3839.7244,6.263499697016823,13.04492491380871
3840.6077,6.276741912434354,15.898368020359417
3841.4932,6.283024394518805,16.163837630361687
3842.377,6.281384262637599,13.610442064337514
3843.261,6.272350168368597,12.164661562260257
3844.1472,6.258564852457338,12.268894346934704
3845.0315,6.246062761504296,14.361393424168929
3845.9182,6.242389465899615,14.31615527757205
3846.803,6.2520040854871235,15.957308204792485
3847.69,6.272366492123859,13.671213001070411
3848.5752,6.294936113667763,15.014713000753549
3849.4604,6.311057060546075,15.078953144611317
3850.3481,6.317173531378288,13.23215476384614
3851.234,6.31585852248117,15.16171751794541
3852.122,6.312632362171647,15.679669466672582
3853.0083,6.3113410688611085,13.475964223874904
3853.8967,6.311358785945746,13.357182675762678
3854.7832,6.308347754161963,14.881576869226754
3855.6702,6.298093260314389,12.615388463040794
3856.559,6.28065001311044,14.478497771518034
3857.4463,6.261458362270241,14.65851761223797
3858.336,6.2476360608636865,14.775973412283644
3859.2234,6.243275494663595,14.533618650861909
3860.1135,6.247010908330637,14.31905239971793
3861.0015,6.2541562950017635,13.876352297344932
3861.8896,6.260425880837961,15.629971186730504
3862.7803,6.263866618983788,14.0062256809501
3863.6687,6.26426557794822,12.913469074749349
3864.5598,6.261666293195854,13.78290275425913
3865.4487,6.255417898524762,16.650717190031024
3866.34,6.24416607808318,12.782033918817724
3867.2297,6.226860755395119,14.812220799401869
3868.1213,6.203673913450314,13.821473944369718
3869.0112,6.176630225722523,19.599422288985618
3869.9014,6.148285123577973,17.09056003394278
3870.7937,6.120190829363773,17.24311554214306
3871.684,6.092108369695406,14.948626767318741
3872.577,6.061930308063262,17.363813816139352
3873.4678,6.027790954097373,15.008798520985236
3874.361,5.989318530727014,18.17888128389518
3875.2524,5.949311971769136,16.50456520418041
3876.1438,5.912224981275508,17.499830445868763
3877.0376,5.88189821191821,17.770722684500374
3877.9297,5.859353625629691,20.83349302884717
3878.8237,5.841896905294836,16.806447267344346
3879.716,5.825273872036967,17.266427450288077
3880.6108,5.80556783364657,15.239942248388488
3881.5037,5.780548437931693,18.860905578258983
3882.3965,5.748980569310951,15.288976167051093
3883.2917,5.710229930205156,18.491623985941445
3884.185,5.6652479936889035,16.635509393949125
3885.0808,5.616928535537638,18.621525981366627
3885.9746,5.570727469655207,18.772205493491377
3886.8706,5.531623766588691,16.923551186382607
3887.765,5.502443084362903,19.440253540963663
3888.6592,5.482624946204166,16.773294077819553
3889.556,5.470215944327799,19.562988570635746
3890.4507,5.464185753928166,19.373515512559933
3891.348,5.4653144299284175,18.308026077120832
3892.243,5.475532821764189,19.441100981024107
3893.1406,5.49603756157693,18.71242841963165
3894.0361,5.525413842410393,18.981412808613428
3894.932,5.560112117233852,17.49779402608428
3895.83,5.596338959043651,18.61305153526229
3896.7263,5.631774621380711,18.75886117933563
3897.625,5.666456363872393,20.425661819328322
3898.5215,5.7007739875562695,19.98103499383048
3899.4207,5.734858016869783,17.937045842093053
3900.3176,5.767353929742217,15.511475673647784
3901.2148,5.796396525927253,17.288045352089405
3902.1145,5.820360421089277,17.252595996254502
3903.0122,5.839182513627488,15.451179515151779
3903.912,5.855278915679527,15.081154292854215
3904.8103,5.871889633982208,17.561942871226762
3905.7107,5.891464824150676,17.67340567515078
3906.6094,5.91481238777964,15.265536064442705
3907.508,5.942362908954196,16.897834099785655
3908.409,5.974650503168331,16.627139079065223
3909.308,6.011049156346727,13.57186741350602
3910.2097,6.049206900902606,13.624391393241277
3911.1091,6.085025676274596,16.977012273051184
3912.011,6.115252547210413,12.851955033565476
3912.9111,6.137857609330415,16.356722765144784
3913.8113,6.152226771815694,14.66199484617156
3914.7136,6.158470612709017,16.329773660992675
3915.6143,6.157898333387266,15.291071506432738
3916.517,6.153636185670948,14.537970848868127
3917.4182,6.150039918098626,15.57701363833399
3918.3215,6.150988319970648,14.2635826081047
3919.223,6.158069959930777,16.280326437672333
3920.1245,6.169582957306086,16.26175389373706
3921.0286,6.181191373057517,13.978312596030598
3921.9307,6.18819666893425,13.858253652979348
3922.835,6.188549780573933,15.250023059382235
3923.7373,6.1839051747139875,15.589177747437333
3924.642,6.1784450276833445,13.403542554209103
3925.5452,6.176662175623815,16.294679086466022
3926.448,6.181406245539303,13.090868305858484
3927.3535,6.192829820945971,15.36383626585349
3928.257,6.207767688108015,13.35272017939494
3929.1628,6.220709717089365,15.499432210088841
3930.0667,6.225947677894678,14.273057335065204
3930.9731,6.2206365576816305,13.932606151752962
3931.8774,6.206151511633856,14.261679005623316
3932.782,6.186855098280905,15.09116168263134
3933.6887,6.166976978370483,14.820162551619116
3934.5938,6.147744514190999,13.637067773476863
3935.501,6.126318691514136,13.007238762907546
3936.4062,6.098630901152639,13.77301757030214
3937.3142,6.062889385102489,13.809599765316555
3938.22,6.022067240051066,16.14502374209494
3939.128,5.981220726724261,16.676087178442693
3940.0342,5.944484226112589,17.064818766555938
3940.9407,5.912493828865749,15.874229028605466
