wavl,flux,ivar
3566.9744,1.7331282283439515,372.38088357730726
3567.795,1.7333558559812043,441.6304909612668
3568.6177,1.7295375875334003,469.79943734060123
3569.4385,1.7218399588373683,443.60269001268966
3570.2617,1.7120934283237081,440.2436743845733
3571.083,1.7032277326425316,425.8507399501736
3571.9065,1.6976185310915477,533.3453483064931
3572.7283,1.6960272468667035,364.4570062596232
3573.55,1.6975303959932775,402.73392206255403
3574.374,1.7007624190289001,328.6273363426009
3575.1963,1.7049737398300848,482.15924761676223
3576.0208,1.710094719136124,476.65355669367244
3576.8435,1.7157095002682767,436.48908119814735
3577.6682,1.720399798289094,384.7713824312727
3578.4915,1.7220506607792359,395.3175233358142
3579.3145,1.719233272889451,355.903094968281
3580.14,1.712221867780478,582.9908641799627
3580.9636,1.7030681397430556,433.0910965019724
3581.7893,1.6944853802304147,437.9740502431785
3582.6133,1.6888438095880236,407.04989968415344
3583.4395,1.687402703700974,519.5103899558621
3584.264,1.690271464292828,371.4236583091387
3585.0884,1.6964164545985296,429.07459824571333
3585.915,1.703798509357255,484.1094629413471
3586.74,1.7096649613239812,432.74187780221513
3587.5671,1.7116112490572322,382.4443511155061
3588.3923,1.7086873359356283,435.60657957741444
3589.22,1.701980009792961,425.34197802544907
3590.0457,1.6940382335192896,396.5165307020155
3590.8716,1.687330449792809,419.3611599017051
3591.6995,1.682993502677341,432.23671949632626
3592.526,1.6804234442492945,505.14161147843384
3593.3542,1.6777856282965142,439.28848359577233
3594.181,1.6726990613145472,397.49953467650926
3595.0098,1.6607451944917313,471.5506922998736
3595.8367,1.6300063519379133,558.1860693427743
3596.6638,1.5519706778948512,437.84656285650175
3597.4934,1.376993758219828,550.1013013689643
3598.3208,1.0533858572556476,488.8271137953962
3599.1506,0.5702062877579883,473.2054607854457
3599.9788,0.017176689924647343,378.4299199495096
3600.8088,-0.4245960921921177,388.15231968174544
3601.6372,-0.5655934117789395,4.223790938260439
3602.4678,-0.3405668765395369,398.97956146797037
3603.2964,0.14457067276097324,370.25052940672924
3604.1252,0.6925198113650958,458.99652738518216
3604.9565,1.141064373343657,456.17342059289604
3605.786,1.4276855351680586,438.3606948898972
3606.6172,1.5783693311154985,457.6648888310423
3607.447,1.645548941584134,425.552267822752
3608.2788,1.6723301647409448,438.07717260698064
3609.109,1.6818500735552024,394.82673809338604
3609.9392,1.684050675189816,480.97750193902357
3610.7717,1.6825986658560275,478.3611249122617
3611.6023,1.6790190156208855,392.75390529330565
3612.435,1.6744723712718772,453.671834955733
3613.266,1.670451932091547,497.72329954177985
3614.0994,1.6683876027086202,422.2626740949324
3614.9307,1.6688565118982732,443.3822130289297
3615.7625,1.6711125293939155,426.7220341105409
3616.5962,1.6736847583866492,451.38204965012363
3617.4282,1.675438208348978,438.02233511095864
3618.2625,1.6761514012414649,483.80881122037215
3619.0947,1.676035310406874,445.21346863375845
3619.9292,1.6749977160733958,500.23464251859923
3620.762,1.6725761252855575,399.8183267543557
3621.595,1.6686456481987186,444.3838958130441
3622.4302,1.6640652219501788,465.7887433081344
3623.2634,1.6604965575146142,441.3992283458366
3624.0989,1.6593866973931992,426.10004130426887
3624.9326,1.661259332000025,492.70118066642806
3625.7686,1.6657085153993165,535.0521130405275
3626.6028,1.6718646351465403,418.2029444528562
3627.437,1.678786198648533,379.58635882726685
3628.2734,1.6853925521050033,404.27274875366885
3629.1082,1.6902989991455981,463.82879664696645
3629.945,1.6921691034069448,390.5966135614806
3630.78,1.6902610718369167,419.08012008102247
3631.6174,1.6850211099022019,356.60019119494024
3632.453,1.6781634804415744,511.2365860936621
3633.2883,1.6720066254937664,540.8104610560512
3634.1262,1.6686063043120414,460.4145720014074
3634.9622,1.6690003031701937,450.8714616706149
3635.8005,1.6728239426670362,571.7073548025252
3636.637,1.6784688463046002,472.21473041804506
3637.4756,1.6837226963258922,468.7319280561477
3638.3123,1.6865558026727354,443.6529071272441
3639.1492,1.6861126926939953,358.87159803167975
3639.9885,1.6830744207944603,479.9023627930944
3640.826,1.6792457418075408,435.34167315363896
3641.6653,1.6763071535820633,458.6854878066437
3642.5032,1.674817570436554,456.25450815239503
3643.343,1.6741048117759225,411.597518962236
3644.1812,1.6731881691421866,404.32780102528494
3645.0195,1.671698780708451,440.5987913145416
3645.86,1.6700113996155963,448.9581575651964
3646.699,1.6686957224633352,426.63593647563175
3647.5398,1.6680392761046539,590.3136162753938
3648.379,1.6681663421413486,487.4467451807417
3649.2202,1.6692643613324898,394.6613760598663
3650.0596,1.671437531246105,466.99952061220125
3650.8994,1.6744135288570052,410.547856328375
3651.7412,1.6776167357765237,462.93344391272313
3652.5813,1.6805877636782007,461.75004640200734
3653.4236,1.6832435468736215,367.4643002291756
3654.2642,1.685511059989063,374.45664851789223
3655.1067,1.686953881845067,501.5393599460257
3655.9475,1.6867929067337564,363.0956758546808
3656.7886,1.6845276085996859,335.55178025995735
3657.6318,1.680505984171548,427.9846653439803
3658.4734,1.6759718248283677,429.99207252259913
3659.317,1.6723230228369743,514.0628914853154
3660.1587,1.6703042766908842,451.1817346572403
3661.003,1.669491230007599,440.0181429425011
3661.845,1.6686139266791473,414.57424998358584
3662.6875,1.6664365913432644,484.3222853601845
3663.532,1.6626382838656102,443.8639907638531
3664.3748,1.6579381855723163,459.15701735643756
3665.2197,1.6532762998705095,456.40595279179513
3666.063,1.6492018150311436,454.116603585088
3666.9084,1.6459766538756406,530.5775347049187
3667.752,1.6442473136975169,516.830889705223
3668.5977,1.6448815404833874,487.804390944437
3669.4417,1.64799413802559,423.43547791312403
3670.286,1.6521802569168809,524.5305924765089
3671.132,1.6550610654395264,450.7066345148045
3671.9768,1.6548057482084881,430.3376779808384
3672.8235,1.651339649471152,457.05533006448957
3673.6685,1.6461488228564296,522.6553996540645
3674.5156,1.640971338827437,452.06024316343337
3675.3608,1.6367425103317523,593.1020387902576
3676.2063,1.6333281709161656,445.4101214883822
3677.0542,1.6301560081775712,447.1275173678565
3677.9,1.626836124507405,646.9030685348016
3678.748,1.6232950282237233,479.59773588287914
3679.5945,1.619838369160377,425.8384460364867
3680.4429,1.6171645049289611,457.90426121684095
3681.2896,1.6164546863443454,728.7267051121147
3682.1365,1.6190943705289713,436.6593778324019
3682.9856,1.626354193113059,474.41534357081605
3683.8328,1.6389122112137988,493.41986920344146
3684.6824,1.656267708153672,442.5078783241398
3685.53,1.6754427326285053,548.3201636098411
3686.38,1.6913089387421019,450.586490245475
3687.2278,1.6985728563649511,292.0785293471622
3688.0762,1.6954053209017519,501.184359860811
3688.9265,1.6844648082345748,380.8205723660441
3689.7751,1.670872068499739,529.8246493979369
3690.626,1.6586217290032368,499.6206547535092
3691.475,1.6492176702533372,394.62877520479304
3692.3264,1.6422614962293454,501.1085801523048
3693.1758,1.6370797765586997,449.76980417886233
3694.0254,1.633284020806515,536.8217159303972
3694.8772,1.6308148153732211,486.6153128643776
3695.7273,1.629794174571321,515.4910522963428
3696.5793,1.6303575827300947,433.9437092826667
3697.43,1.632416256307685,431.7594879884973
3698.2825,1.6354541669034486,376.1106834581203
3699.1333,1.6386090871108179,418.4485908543525
3699.9841,1.6410077923922253,453.98389664659186
3700.8374,1.6418716250084926,464.6017554219228
3701.6887,1.640511088066033,449.0618628270269
3702.5425,1.6365347935694838,424.1703410807796
3703.3943,1.6303038217507906,548.959764742539
3704.2483,1.6230171005412157,473.5743757374733
3705.1003,1.6163970276641693,538.7235175377707
3705.9526,1.6118540002863606,471.98433725321104
3706.8074,1.6100975461709905,452.2328638023913
3707.66,1.611092206294626,540.112129905632
3708.515,1.614206846832209,468.27846793143704
3709.3682,1.61841243025908,506.36546351387653
3710.2234,1.622633178160072,433.08552543398264
3711.0771,1.6260297254690557,401.2010754942096
3711.9307,1.6281654133736008,474.2030457364354
3712.7866,1.6288002004149793,484.0258841676556
3713.6409,1.627786198037066,412.6544719640059
3714.4973,1.6252766743365161,424.5423584561461
3715.3518,1.621965363034391,558.978181436967
3716.2085,1.6188532405847689,420.08935670336297
3717.0635,1.6167605159422123,500.69718421766225
3717.9185,1.6158923923432922,401.50823633526574
3718.776,1.61595266339078,487.4557682156684
3719.6313,1.6164661621815146,490.94856676619446
3720.489,1.6169360381588884,514.5866071495666
3721.345,1.6167393786293385,437.71609743658576
3722.2031,1.6151699697102557,587.8023152418909
3723.0593,1.6119627749832808,441.2663508715842
3723.9158,1.6078730173328626,394.63344162933566
3724.7747,1.60450093826137,435.3465782940037
3725.6316,1.6031517889049982,504.5901793434422
3726.4905,1.6036555272880402,538.970196793829
3727.348,1.604546419347871,432.75689371011305
3728.2073,1.6043434248662454,596.2057710519742
3729.065,1.6026102410170564,524.4263609725901
3729.9229,1.5998596022848266,572.5182288024595
3730.783,1.5967718944702882,443.1072108220003
3731.6414,1.5937703377020822,480.8602551050244
3732.5017,1.5910947509530624,545.5214979854792
3733.3604,1.5890475610766903,521.648274539636
3734.2214,1.5878713234438133,459.44886663157024
3735.0803,1.587651729768038,457.78817430881776
3735.9417,1.5883760861911953,636.8767444615208
3736.8013,1.5900506671770243,552.6144185729827
3737.661,1.592532523983167,469.4499981058435
3738.5227,1.595205652410355,395.56678304046056
3739.3828,1.5969697562511955,473.0816679370347
3740.245,1.5968274680372567,459.71032632881503
3741.1055,1.5944972506902828,502.33276895724276
3741.9683,1.5905431502655374,612.3484469545486
3742.829,1.5860210728561792,421.4994567815315
3743.69,1.5819418795916342,470.79620665346994
3744.5532,1.5790941118274477,611.0498076935111
3745.4148,1.5780860741077118,773.8920149925443
3746.2786,1.5793017683277948,450.78801340171253
3747.1404,1.582730140462528,562.4584682173321
3748.0044,1.587747853487648,437.7865173292704
3748.8667,1.5930782648621524,534.5517719494804
3749.729,1.5973128231102578,547.2053000826597
3750.5938,1.599554319916082,457.3734760164804
3751.4565,1.599869685334677,547.2463897857293
3752.3215,1.599226940693825,509.13242851879085
3753.1848,1.5988179011289079,455.79191738444615
3754.0503,1.5992565928332232,489.0804358214948
3754.9138,1.600232420679522,488.1638075365792
3755.7776,1.600896203591309,467.9118626436016
3756.6438,1.6006011969938787,436.9593995365667
3757.508,1.5993978354931537,415.1740168649196
3758.3745,1.5979594884503314,471.5282837208925
3759.239,1.5971303796648577,496.658685038024
3760.106,1.5973396440020078,462.01728822796883
3760.971,1.598217295737326,554.9450803317861
3761.8362,1.5986104101442895,506.35223483501693
3762.7036,1.5970896512615227,474.93906845410504
3763.5693,1.5927356238476187,525.0049023446094
3764.437,1.5856790724591319,525.1393754054974
3765.3032,1.5772398146727067,514.0247232162772
3766.1714,1.5693829651204825,492.77129653302336
3767.0378,1.5640420137061986,517.0121758253104
3767.9043,1.5621287922485814,543.8487049901379
3768.7732,1.5631303096414941,508.6202581305119
3769.6401,1.56543761280146,520.649463367465
3770.5095,1.5674579897019625,469.29883238975634
3771.377,1.5686105693786785,497.75159791195335
3772.2466,1.5695334849625766,547.63514541335
3773.1145,1.5713121879480632,495.55096407769645
3773.9824,1.5744613503390448,613.5407054281119
3774.8528,1.578390741167869,467.12297423106435
3775.721,1.5817235808129835,478.9447342909531
3776.5918,1.5833666394884194,523.3203570277135
3777.4604,1.5832449373150457,443.8269052496445
3778.3315,1.5822213802279022,539.6385244262837
3779.201,1.5812457313337487,514.8033178096357
3780.0703,1.5806754609558298,478.1358108956152
3780.942,1.580341127737975,489.0026683374897
3781.8118,1.5799953100753819,507.6456189163865
3782.6838,1.5795343600655503,476.49327110751744
3783.554,1.578913253993655,514.1709509745773
3784.4265,1.578037487188537,506.68594742392474
3785.297,1.5768044165668862,562.816493745232
3786.168,1.5750905071713743,449.34284387233714
3787.041,1.5726943771306863,415.1165762096176
3787.912,1.5694505546166102,497.0343551659012
3788.7856,1.56549345692718,547.2352469773612
3789.6572,1.5615253301842025,479.933040320035
3790.531,1.5584874979079557,519.2760094553199
3791.403,1.556997265297733,503.54505595086925
3792.2754,1.5568022875698204,474.77124070115843
3793.15,1.5568830438092476,432.1507058934423
3794.0225,1.556044697827211,444.84315276414753
3794.8972,1.5535847136571506,502.4980192243634
3795.7703,1.5495611407629346,502.6982698087759
3796.6455,1.54450096861871,588.2328337228868
3797.519,1.539094066617445,464.95670291700407
3798.3926,1.5339722520906875,563.935834841288
3799.2686,1.5297705651860958,526.3772499574354
3800.1426,1.5271247053529104,457.21800518468984
3801.0188,1.526436965295103,544.0533638740395
3801.8933,1.5277834807253499,559.9257599944897
3802.77,1.5309290909617463,501.6640210739218
3803.6448,1.5354555467759652,518.7838063799455
3804.522,1.5409126262716153,469.9320979043633
3805.3972,1.5466225823123998,584.5215976662928
3806.2727,1.5514434268592618,484.1727594479888
3807.1504,1.5531567153710029,482.1133185678995
3808.0261,1.5476682758508629,563.2143958100874
3808.9043,1.5286616531437625,572.8670025167235
3809.7805,1.4900761637699815,593.3032326315711
3810.659,1.4319272548224433,496.84309579499694
3811.5356,1.3673896898407734,568.6538009312322
3812.4126,1.3201149875816471,37.40365651551103
3813.2917,1.3114058164767584,583.8414326921785
3814.169,1.3449683305066955,440.96409982725453
3815.0483,1.404529602039481,487.6367043103391
3815.926,1.4658388970424132,541.4735522529703
3816.806,1.512262731412071,442.00103252714956
3817.684,1.5391518527847887,455.36315754110603
3818.5623,1.5505408353001346,514.7773953589559
3819.4429,1.552605265970639,437.30968742200145
3820.3215,1.550471471374586,502.384627300086
3821.2024,1.5475416128368917,475.9855626886235
3822.0815,1.5456146348238424,562.6288242052545
3822.963,1.544994245170468,624.0514240300213
3823.8423,1.54490407634589,475.50072516019276
3824.722,1.5442206815917656,500.83304859587105
3825.604,1.5421413506205286,512.5634672746978
3826.4841,1.5383628748369158,542.5679762060499
3827.3665,1.5327962386299043,532.354380594513
3828.2468,1.5254477952039487,513.6706500644735
3829.1296,1.5164082282556615,561.0243860092422
3830.0105,1.5062376627333929,494.0938608536725
3830.8916,1.4958946630026817,541.0752993470221
3831.7751,1.4865201431102757,597.2851200931653
3832.6565,1.478984249080307,599.7455806526663
3833.5403,1.4733590654868558,503.746603793844
3834.4224,1.4692172782248145,546.9850275596199
3835.3064,1.4660791197174747,485.7970595380892
3836.1887,1.4639689823307198,611.3875164261046
3837.0713,1.4633328254560167,581.0722768340578
3837.956,1.4646171654677231,551.6141647896275
3838.839,1.4678603618376742,676.309041761932
3839.7244,1.4727530908939406,546.2362966593662
3840.6077,1.478863504442486,525.2709515448246
3841.4932,1.4858863070232984,546.9522514223352
3842.377,1.4935134632677047,530.4993182473814
3843.261,1.5015393233098822,530.3080071192152
3844.1472,1.5098747173034546,617.3876284770279
3845.0315,1.5183862181618997,590.7607501725206
3845.9182,1.5267285813245368,632.8378886887557
3846.803,1.534020310160639,557.4778186431565
3847.69,1.5393825733817634,529.8396549814495
3848.5752,1.5426083347786845,485.255459586303
3849.4604,1.544736912123677,484.6000453217354
3850.3481,1.5475378750499,541.7433784518587
3851.234,1.552296478400588,662.3948852412273
3852.122,1.558921417451964,475.2958428858421
3853.0083,1.5658962014763864,443.4927913246852
3853.8967,1.5713003061859954,450.29958749524036
3854.7832,1.573809661951011,515.1719080587491
3855.6702,1.5735236450798409,437.7806506158405
3856.559,1.5718809847179958,504.131020240521
3857.4463,1.5708265089304714,621.9525908083782
3858.336,1.5715484427121253,536.7909874582725
3859.2234,1.5737669985212375,452.3855165520517
3860.1135,1.5760776884211347,522.8430124599495
3861.0015,1.5769547792561114,434.5105027839222
3861.8896,1.5757339043525607,462.4497134344571
3862.7803,1.5728499086177448,496.8745151011541
3863.6687,1.5694362976749572,542.0133705394921
3864.5598,1.5664571047436826,470.7106755130016
3865.4487,1.5641320029927197,493.84231870627434
3866.34,1.5618432955838046,508.49065630648266
3867.2297,1.5587567901240689,545.8310540859463
3868.1213,1.5544469713909344,489.53607610637306
3869.0112,1.549196453926278,537.7876144531198
3869.9014,1.5436461054588415,501.96153998293556
3870.7937,1.53833269269293,513.8537626560785
3871.684,1.5334093722032893,595.2260268691194
3872.577,1.5285307311168665,496.518084266515
3873.4678,1.5231642985025362,507.5615873603615
3874.361,1.516830751296972,609.0058906952265
3875.2524,1.5095034456002558,577.0854311040683
3876.1438,1.5015524022384,558.89159388483
3877.0376,1.4935410147241752,525.011012741228
3877.9297,1.4859374616584804,545.4220442392681
3878.8237,1.4787517201833615,530.8875727168229
3879.716,1.4716783776772642,585.7663534137306
3880.6108,1.4641494557237948,536.6613981071197
3881.5037,1.4556498792088808,582.9129574574429
3882.3965,1.4457302609101286,644.216300856578
3883.2917,1.4341732972670942,564.0949601365606
3884.185,1.4212057757072205,737.6958205193929
3885.0808,1.4072392438365215,600.1972102089268
3885.9746,1.3928859068407047,662.0064006518629
3886.8706,1.3784960657812375,648.3389517536973
3887.765,1.364529984438617,610.3549334212739
3888.6592,1.351730604190648,711.6263174050936
3889.556,1.3414899124586188,647.4453166404597
3890.4507,1.3356576504504665,796.3501846594497
3891.348,1.3356026072336105,682.1514963244855
3892.243,1.3415371497439954,792.2562370382516
3893.1406,1.352409571964843,745.9311960365383
3894.0361,1.3664741554002218,623.229909443785
3894.932,1.3823839746750501,636.6499591101743
3895.83,1.399489172128758,616.3778029252713
3896.7263,1.417299226824404,649.0471364107464
3897.625,1.4352163412572507,558.1747490562256
3898.5215,1.452158256114795,575.3785170157582
3899.4207,1.467429635593419,576.1854990746809
3900.3176,1.4808040234151238,510.4855634338901
3901.2148,1.4927382028157354,568.1384973929537
3902.1145,1.503819041059601,584.2996906946479
3903.0122,1.5144152673450828,437.4799969152953
3903.912,1.5248267000333684,577.2646862912839
3904.8103,1.5351526202006465,565.8329743488853
3905.7107,1.545529426578557,498.4427279859403
3906.6094,1.5559662239089935,513.8216897492232
3907.508,1.5664636573796586,561.5035507810396
3908.409,1.5768919221427198,550.8456723641864
3909.308,1.586925709489851,463.0954711042087
3910.2097,1.596336148925728,532.1605936041041
3911.1091,1.6049363900522922,494.3512295949083
3912.011,1.6127515476619605,471.12183766548486
3912.9111,1.6197306113903185,468.53359129261656
3913.8113,1.6258608145473321,542.4409834059513
3914.7136,1.631254974027603,459.63479977572337
3915.6143,1.6362524281136956,494.4217483236916
3916.517,1.641399998234745,467.2284372243238
3917.4182,1.6469867031354286,450.5381702269895
3918.3215,1.6527390406299207,422.5261302120154
3919.223,1.657707874847719,468.4036303699692
3920.1245,1.6609204363346555,381.66251950297124
3921.0286,1.6621352376624765,459.58944107956466
3921.9307,1.6622316048236037,435.554962052613
3922.835,1.6627749177835722,468.1352264576407
3923.7373,1.6650423829964103,435.88914048268384
3924.642,1.669339689573178,447.27140536515117
3925.5452,1.6749187822493485,478.5935223882067
3926.448,1.6804884933821902,456.5496637367154
3927.3535,1.6847393606070096,374.7423179592736
3928.257,1.6867404231704555,434.33126213857963
3929.1628,1.6863290011315195,421.3733328013355
3930.0667,1.684132687152675,411.4607887209936
3930.9731,1.6811668502664887,440.2968544518035
3931.8774,1.6781217704809792,411.7906640845939
3932.782,1.6747605777304708,483.68097256318396
3933.6887,1.6701102784848971,444.7896382935576
3934.5938,1.6633261846105545,414.7853299112355
3935.501,1.654415637013823,413.70701382468224
