wavl,flux,ivar
3566.9744,5.361161004915355,14.759014607621427
3567.795,5.375362704700029,15.34964418695916
3568.6177,5.372679433321768,12.643937886734014
3569.4385,5.355328460747425,25.551586096861136
3570.2617,5.329017036110975,15.838437928766108
3571.083,5.299024467790403,19.40827128008494
3571.9065,5.267637077954799,18.12596277040427
3572.7283,5.236140301269486,20.85991978855138
3573.55,5.2069562779445535,19.56153963175143
3574.374,5.1840423036075896,21.669224966354896
3575.1963,5.1698852641034545,17.7807645824972
3576.0208,5.162147246833506,13.318740967266187
3576.8435,5.154952875395602,18.974809392722733
3577.6682,5.142766699273683,17.81399896590791
3578.4915,5.123122209247097,20.302197464340953
3579.3145,5.095547989953151,18.671417363656158
3580.14,5.060262042822635,21.754584959021823
3580.9636,5.019999355243539,20.394970119667775
3581.7893,4.981427958268615,22.73832303400305
3582.6133,4.954431318721234,27.9718499285848
3583.4395,4.946954691897391,34.35745785391915
3584.264,4.961842916396726,19.801097070120075
3585.0884,4.996462437335283,18.686804121896483
3585.915,5.044755735450952,21.66946297662782
3586.74,5.0980747045663,21.452844207973925
3587.5671,5.146964851050165,18.138766709425667
3588.3923,5.182078939859983,18.8630112566508
3589.22,5.197985670757107,17.317576554188932
3590.0457,5.194930513457193,24.791761651076733
3590.8716,5.179051270786535,20.74658002711273
3591.6995,5.159419797809529,21.326800235711318
3592.526,5.145208414147267,18.125312500355317
3593.3542,5.143048858773898,17.020704571295862
3594.181,5.154409818568893,17.57526459431465
3595.0098,5.172744689292749,16.23345429461114
3595.8367,5.18462463291794,23.771836548665487
3596.6638,5.178182440646547,15.134440188631363
3597.4934,5.152479459245518,27.982367527451895
3598.3208,5.119018525979259,30.199775370242005
3599.1506,5.091318806445183,17.017171675218872
3599.9788,5.074384301975896,15.570840443873916
3600.8088,5.0628232446426615,17.966874286648654
3601.6372,5.048939792935426,23.21569619482845
3602.4678,5.029308080234196,22.252777242581388
3603.2964,5.004696557896221,36.89957143709081
3604.1252,4.975834161929198,24.650031969944575
3604.9565,4.943136301383406,18.47343930948328
3605.786,4.910762800359396,23.6255399702086
3606.6172,4.887685862760425,19.2967845618507
3607.447,4.883535601425911,27.832631765583475
3608.2788,4.901071831852841,19.917024935955112
3609.109,4.93346812461007,17.38091280612501
3609.9392,4.968204284415209,23.319355036034747
3610.7717,4.99317220699151,21.193838277860216
3611.6023,5.001011705598966,23.05964234825487
3612.435,4.991348162256398,24.61508333127877
3613.266,4.9702977304894596,28.824156501880132
3614.0994,4.947711634493629,22.79074984676503
3614.9307,4.932643734537406,23.08948495514795
3615.7625,4.927916221582502,22.69743117256383
3616.5962,4.928350357109758,26.368263735871842
3617.4282,4.923873753172171,19.643988490936618
3618.2625,4.906484585628516,16.33011831064172
3619.0947,4.876053493962692,19.197017457669038
3619.9292,4.839747309961585,21.55534308935353
3620.762,4.807232864708402,21.91996367031539
3621.595,4.784793145279723,21.053969884369838
3622.4302,4.773882419704449,23.56844977937345
3623.2634,4.772060986921056,22.540265594618717
3624.0989,4.774368991651222,18.045598408025512
3624.9326,4.775280921029989,25.770402578690778
3625.7686,4.7712679358269705,18.7702839701859
3626.6028,4.762568835368409,24.014803090672913
3627.437,4.752096092963319,32.946861546714864
3628.2734,4.742380211430799,19.790765270920275
3629.1082,4.7336134459904375,16.512651545616183
3629.945,4.723982253539794,21.712614639178845
3630.78,4.7116467023566555,22.564625698325084
3631.6174,4.695714746890737,19.91982101179003
3632.453,4.676590057702656,23.952418362348958
3633.2883,4.65525771775068,31.63546786592473
3634.1262,4.633007173160728,28.608458862139166
3634.9622,4.611686523389883,27.877875576883618
3635.8005,4.593503759250265,21.738201911500415
3636.637,4.58086786389012,19.756214613227847
3637.4756,4.574291722905636,26.25799685293756
3638.3123,4.571573499166226,28.231327407381073
3639.1492,4.569347522874551,22.605054348251763
3639.9885,4.566124280113152,24.849712603743157
3640.826,4.562590155725293,41.37562690882899
3641.6653,4.558566252062564,24.67889730715263
3642.5032,4.551209675203428,23.128390585247242
3643.343,4.537394170576095,22.413964616736465
3644.1812,4.5179302513858435,29.75538564240302
3645.0195,4.4979494869358385,30.411150420694472
3645.86,4.483172763546463,23.64536122593052
3646.699,4.475765165250446,25.467938521549506
3647.5398,4.473335258646461,21.014317818113447
3648.379,4.471726504729704,23.11948778491994
3649.2202,4.4680163303952165,30.97139885602586
3650.0596,4.461832413476782,25.046118275858475
3650.8994,4.454684685873207,27.308312104181162
3651.7412,4.448589602926461,29.00906255536646
3652.5813,4.444684763180464,27.387192269592376
3653.4236,4.442118626092885,22.338669199679806
3654.2642,4.4378630436132935,25.438481219102243
3655.1067,4.427615997469528,20.2913790489489
3655.9475,4.408488189889572,19.36857401606329
3656.7886,4.382217427688579,26.377183832806036
3657.6318,4.356733247365855,28.31613640098483
3658.4734,4.343507680593557,34.27799346855861
3659.317,4.350726110253636,60.06315641545736
3660.1587,4.378243184651515,35.75085765544881
3661.003,4.4184532335902915,34.352588863644584
3661.845,4.461539279189811,31.125359602485403
3662.6875,4.5013751703556695,41.09477054683163
3663.532,4.5355562403438014,27.747630439062405
3664.3748,4.56237114586594,26.321587015898963
3665.2197,4.57938219269591,26.056400095111016
3666.063,4.584062550268675,16.856566240277946
3666.9084,4.576067810689518,30.747378443332387
3667.752,4.55738688856905,21.157219130032153
3668.5977,4.530948195048583,26.73499704239567
3669.4417,4.500342384905629,24.329894427500232
3670.286,4.46987236925574,29.498933645077177
3671.132,4.444401502668876,30.16769057126311
3671.9768,4.427430595548855,29.473198889082045
3672.8235,4.418773329978305,29.342652093390132
3673.6685,4.415366719333071,23.15701189682836
3674.5156,4.41394753160983,20.698293596103554
3675.3608,4.413378005821625,32.44502123510699
3676.2063,4.414073893718874,28.972770605900912
3677.0542,4.415917955663868,25.771288444991427
3677.9,4.417457375223847,25.47617833881512
3678.748,4.417430645309995,23.82879374489272
3679.5945,4.41643139443344,27.59930473716454
3680.4429,4.416524883559716,30.104185574175457
3681.2896,4.419125874725473,21.168111506549536
3682.1365,4.423501272717074,28.02371489628104
3682.9856,4.427385300038706,22.74466976584264
3683.8328,4.428820104061823,26.894078378869743
3684.6824,4.4275347411071655,28.675353480045516
3685.53,4.424870214767289,38.670260122441334
3686.38,4.422711614887453,24.499280688080827
3687.2278,4.422111409412316,28.07718993071993
3688.0762,4.422403465303801,22.029074458692882
3688.9265,4.42207322819334,17.2323752657143
3689.7751,4.421026183138555,30.373147503148783
3690.626,4.421778926161567,28.634764773066255
3691.475,4.427536847192301,26.371908216311837
3692.3264,4.4386459794160205,31.288886921111995
3693.1758,4.450726260199146,20.87403853138691
3694.0254,4.456724893704811,22.026510196148447
3694.8772,4.450982350757209,23.895135183228994
3695.7273,4.433031965970308,25.18615674234343
3696.5793,4.408080050443848,24.819802283160985
3697.43,4.384146978314508,36.7475724280048
3698.2825,4.367006870182493,32.22901792328519
3699.1333,4.357656694011508,31.47949857050357
3699.9841,4.352893005809476,32.68239321498843
3700.8374,4.348624373301274,33.089418327843106
3701.6887,4.342411805219245,29.886023105119317
3702.5425,4.33369373430799,36.08346415511696
3703.3943,4.322873736239724,29.54511136926124
3704.2483,4.310612169615827,23.164512489036984
3705.1003,4.298636497859176,24.655081052126736
3705.9526,4.290155508072846,36.20740292179352
3706.8074,4.289270942475822,27.39527491151132
3707.66,4.298715884196679,30.47222132500912
3708.515,4.317357787065682,37.14044680748978
3709.3682,4.339175333115767,32.63194320170232
3710.2234,4.3559185731922065,25.15262075484854
3711.0771,4.361444718280699,41.936193082371815
3711.9307,4.355171113490365,20.950776479577243
3712.7866,4.340744182717854,28.535343973841172
3713.6409,4.322119820355502,23.23912763171311
3714.4973,4.300182097455508,28.74652510955764
3715.3518,4.273458775887276,20.88270561699011
3716.2085,4.240495716294354,24.714878564340577
3717.0635,4.202749969706006,29.997473288648486
3717.9185,4.164022900032462,31.3924403256739
3718.776,4.128314308855321,30.171516176954047
3719.6313,4.097774173641021,37.09518242611806
3720.489,4.071893857856616,29.196301048793444
3721.345,4.050015714765911,24.021791798361917
3722.2031,4.032567251564137,45.378694241641206
3723.0593,4.021351300395858,31.00771694951105
3723.9158,4.017880835436719,40.094771470206226
3724.7747,4.022283467662276,35.180129970209364
3725.6316,4.032412130035099,32.25213810045644
3726.4905,4.043928735768253,34.07744041894226
3727.348,4.051320333699879,43.7143396149374
3728.2073,4.050251609140674,29.79657814930715
3729.065,4.039933773352747,29.909753182062452
3729.9229,4.0244267711817185,25.4990873936399
3730.783,4.011287594142396,51.98132454293652
3731.6414,4.007447727073468,34.74147104875599
3732.5017,4.014307969298123,25.798784448428172
3733.3604,4.026605105393403,27.884311789922606
3734.2214,4.036322062739365,29.505422562278184
3735.0803,4.038243262170784,27.71281102162917
3735.9417,4.032767370068837,33.33820303513679
3736.8013,4.023604204458976,34.29294975215817
3737.661,4.013344390836512,29.090972229231568
3738.5227,4.001347469499726,42.23513710480687
3739.3828,3.9856646476444526,27.864768099538153
3740.245,3.966216856917734,32.461997833276584
3741.1055,3.946386777870137,27.562717101804797
3741.9683,3.9304987983779696,41.17500126247163
3742.829,3.9206189016902675,30.615897466360824
3743.69,3.9148874027442098,42.52281772605448
3744.5532,3.9098692379162197,28.613431031862728
3745.4148,3.9039294699485554,32.71910538041319
3746.2786,3.898123906698037,28.966615180263954
3747.1404,3.8941415971524824,25.79556046774169
3748.0044,3.8916490818844567,33.773635838985825
3748.8667,3.8882514420568293,28.610909319731213
3749.729,3.88170035911725,37.665917946156945
3750.5938,3.8720047055581004,37.51342679224227
3751.4565,3.861446858317242,36.93123877207599
3752.3215,3.8525050876095444,27.834687029446062
3753.1848,3.846499213493126,24.44235005612896
3754.0503,3.843691597689464,27.76521412068831
3754.9138,3.844509354868924,30.759578557890393
3755.7776,3.849540128297547,42.88447750750983
3756.6438,3.8581517828049736,42.991102550234665
3757.508,3.8672385120580297,36.10473891974012
3758.3745,3.872546231348377,31.9509362293868
3759.239,3.871598165916606,31.103028424831734
3760.106,3.865876675167101,32.777706315735315
3760.971,3.859868685176927,49.32918822961299
3761.8362,3.8578640841484986,40.875731010239434
3762.7036,3.861422352379055,35.33631400639063
3763.5693,3.8689159866506455,30.251210382286793
3764.437,3.876984065707779,35.79291851178098
3765.3032,3.882030970195668,24.67234848281478
3766.1714,3.8811042097048523,40.392918326771515
3767.0378,3.8723609851471945,39.140015268391444
3767.9043,3.8563373920824207,30.749144214233347
3768.7732,3.8371476993360254,34.898923490765455
3769.6401,3.821711619478565,31.318673883357746
3770.5095,3.815574301402477,41.17240505455993
3771.377,3.819382069944716,38.145031005147466
3772.2466,3.8286746211831297,34.77398053951257
3773.1145,3.837426478494508,36.192102867675636
3773.9824,3.8418947241354027,55.03351861859509
3774.8528,3.8416580301217187,25.184671316885478
3775.721,3.8384208840158514,27.82444212704443
3776.5918,3.8340626053859217,37.25865646495005
3777.4604,3.8291727589158415,33.438017583791755
3778.3315,3.822547332877851,34.413602297518864
3779.201,3.812456730175855,33.60164560685732
3780.0703,3.7985709078307317,32.73911944973022
3780.942,3.7830552656809315,40.84316297979366
3781.8118,3.769896196514709,41.69477067429844
3782.6838,3.7628031487555194,40.851361403503084
3783.554,3.7637942719525825,33.53378763376931
3784.4265,3.7722402791448224,44.7087611355302
3785.297,3.7849355340443034,31.425388050712684
3786.168,3.7974790192683043,33.53747409039161
3787.041,3.80609462925404,39.91669624259019
3787.912,3.8087112639243785,27.681501189507106
3788.7856,3.8050125536469857,37.73569111195329
3789.6572,3.79602646911828,26.926078340268106
3790.531,3.7838281161980265,40.98715439677155
3791.403,3.770802840476484,37.536421981024276
3792.2754,3.7578556151332347,37.146512770486986
3793.15,3.7437225612082674,45.63251319047268
3794.0225,3.7263745636932946,32.92090783677809
3794.8972,3.7050194643629024,36.6988864223601
3795.7703,3.6815243181293438,41.512188080258504
3796.6455,3.6593154159172223,34.48733680309462
3797.519,3.6421626708301957,33.32287467458797
3798.3926,3.632427645119992,51.744963226572125
3799.2686,3.6305233769309972,42.01437427802601
3800.1426,3.634982533681931,33.52489582572509
3801.0188,3.6433490027569437,42.00157672319007
3801.8933,3.6533187271375303,30.366555881491877
3802.77,3.6637859552535716,31.215627242566256
3803.6448,3.6749693733488633,33.537272303141954
3804.522,3.687968852555906,31.15774698207818
3805.3972,3.703019053425488,34.88861402474716
3806.2727,3.7185146443297623,34.63139626199174
3807.1504,3.7315149426535705,49.337431983719654
3808.0261,3.7397447159047825,31.192238099263093
3808.9043,3.7430344477526813,49.332606077408975
3809.7805,3.7420673290158644,40.821192454274936
3810.659,3.7364408679943275,34.20337165077834
3811.5356,3.7245274370487493,40.47876575607241
3812.4126,3.7057915053693224,39.79179682156694
3813.2917,3.6833045276457006,43.080871818187276
3814.169,3.6636749248441967,43.290524340399976
3815.0483,3.653103077418953,51.38221127069696
3815.926,3.6534548757297887,42.01029202427641
3816.806,3.6607637466338874,36.500847016017474
3817.684,3.668022606052209,32.07270409485814
3818.5623,3.669820249226249,39.829514911574655
3819.4429,3.66500699462292,35.190565913536204
3820.3215,3.6559879758952314,34.15458452009827
3821.2024,3.6455709231045894,51.27244429988716
3822.0815,3.6346367009073335,40.35226122081366
3822.963,3.6220151170457737,34.7869677227539
3823.8423,3.6066217192268266,37.736883189095934
3824.722,3.588625519007338,35.67060327317829
3825.604,3.56889407992809,41.14215460444379
3826.4841,3.547742926335442,37.875665818252344
3827.3665,3.5243618341916103,48.831007031831874
3828.2468,3.4983007243039728,36.53751501787309
3829.1296,3.4698320618720593,40.509813182863304
3830.0105,3.4402393124975057,34.90827015370494
3830.8916,3.410786392983924,52.66518652535176
3831.7751,3.3827430511709915,45.99074777912323
3832.6565,3.3575301819039733,42.89848151402254
3833.5403,3.335884414006269,51.45072800537136
3834.4224,3.318034156627556,43.11997466141162
3835.3064,3.303492946399623,54.0130572262819
3836.1887,3.2919924760884522,64.85303858751669
3837.0713,3.283574749025112,38.58722683536204
3837.956,3.278570680744248,66.32856131056757
3838.839,3.2776495506640986,42.835317290131954
3839.7244,3.282303946021618,60.68399825390774
3840.6077,3.2949701997381684,35.29518085397677
3841.4932,3.3178225456606176,51.185775545494224
3842.377,3.3503197017490924,45.98213979675333
3843.261,3.388507242588984,41.52298808941425
3844.1472,3.426543201880014,50.54709301539898
3845.0315,3.459593731637226,39.56367692803867
3845.9182,3.4865377100559107,42.89301292135297
3846.803,3.5087692594371003,33.524248057060895
3847.69,3.5283932219999863,43.841603340050966
3848.5752,3.5458087676871113,36.029052610979576
3849.4604,3.559888507507437,33.34630084905322
3850.3481,3.5693830850283037,34.72791523215541
3851.234,3.574693438043003,38.707675290168964
3852.122,3.578416891651136,45.712103386561395
3853.0083,3.5836232991395454,37.48291195396964
3853.8967,3.5917222457135702,40.9269118058757
3854.7832,3.601571171402667,29.679537442392334
3855.6702,3.6110637575149713,36.901975313031635
3856.559,3.6193520115170275,40.26746813472165
3857.4463,3.6276377200360286,38.18592743436721
3858.336,3.6377413389036546,50.29715644139357
3859.2234,3.6495291620335144,44.263474518813915
3860.1135,3.6603685549319374,36.45469941368691
3861.0015,3.6665148320927647,41.41445365948472
3861.8896,3.6655957251283193,35.403783279751025
3862.7803,3.6575143530694367,37.17608813226536
3863.6687,3.6443225728259274,38.91105409300372
3864.5598,3.629224899547877,39.53235082802635
3865.4487,3.6156061078543456,38.6406564414507
3866.34,3.6051048629952183,45.822595108292624
3867.2297,3.5968390769167833,42.74209547653892
3868.1213,3.5879014283656296,35.90104479813479
3869.0112,3.57552155888919,42.82272956625127
3869.9014,3.5584277593072415,43.7811074488603
3870.7937,3.536801941952991,36.04906839541811
3871.684,3.511408016347885,46.891682817286956
3872.577,3.4823918586336915,38.683996619433984
3873.4678,3.449953872638485,46.77219769209927
3874.361,3.414652184830276,61.637821807521426
3875.2524,3.378477233554086,51.87823904645227
3876.1438,3.343460098083897,59.6695387262418
3877.0376,3.310389327437291,46.420795872359335
3877.9297,3.278302301175439,63.27631629875442
3878.8237,3.244784689275905,54.92195623369779
3879.716,3.2083337442986104,50.062412936285114
3880.6108,3.1689613962035983,43.96372451920497
3881.5037,3.1283733463944707,71.60734523572236
3882.3965,3.0876855700906143,49.22882745757051
3883.2917,3.0466764679862037,53.87518409677278
3884.185,3.00486297550724,76.56692371336159
3885.0808,2.962300666677884,53.81725563870958
3885.9746,2.920889539322273,72.73182969041807
3886.8706,2.882611686949468,64.62307334954392
3887.765,2.8492927142714013,62.033292026079614
3888.6592,2.822287172537892,61.78314370563961
3889.556,2.803817691136432,63.602799234147945
3890.4507,2.797198620229923,70.53973015540025
3891.348,2.8050674388862813,65.99973929201646
3892.243,2.8275387141847204,84.58680154642511
3893.1406,2.861808463916226,63.24563149136722
3894.0361,2.902962529088272,71.58915970304764
3894.932,2.946597339344569,59.029325153511024
3895.83,2.9899117928209633,55.04212401563919
3896.7263,3.031265499978858,61.51840276505335
3897.625,3.0699382859126363,73.60761036283901
3898.5215,3.1048562801204485,48.8158790754895
3899.4207,3.1360958200147304,58.00758638950877
3900.3176,3.1650546159735726,47.83280112158761
3901.2148,3.1946750634741385,65.53187592752136
3902.1145,3.2274590844907296,43.49151398423485
3903.0122,3.2637630887570857,44.65606189656625
3903.912,3.302444129608487,48.42646172633918
3904.8103,3.3414285777034443,37.61545276195558
3905.7107,3.379455326662722,48.44222537189757
3906.6094,3.415782796300211,41.70807526239172
3907.508,3.450711405784608,39.25954865762543
3908.409,3.4850966781239245,38.6160377917526
3909.308,3.5195083932261,41.35781852602415
3910.2097,3.5539442884031227,36.861766855512265
3911.1091,3.5866810385860313,44.089367197323305
3912.011,3.615269124560204,35.0418283970322
3912.9111,3.637175319745172,39.732933022047156
3913.8113,3.651999036406386,40.595457296263916
3914.7136,3.6620428843682404,48.45807376449895
3915.6143,3.671032963508725,54.92232041820784
3916.517,3.68176913296347,42.137084064390734
3917.4182,3.6946351948073097,40.04126289803905
3918.3215,3.7087831380061513,32.35628511033183
3919.223,3.723529321683184,48.19881617462821
3920.1245,3.7388452241013153,39.671983833820676
3921.0286,3.75445011714473,32.574258424807006
3921.9307,3.76925063263903,35.694069027895246
3922.835,3.7820040772956154,35.93454923314235
3923.7373,3.7918084543376125,34.05504503487832
3924.642,3.799007455674125,31.408149746492843
3925.5452,3.8052278421878345,36.0078771539175
3926.448,3.812724799972553,34.125955668428176
3927.3535,3.8226513205500074,38.57139991246887
3928.257,3.833574668295476,32.215358603557654
3929.1628,3.8419305202177894,33.673465043907804
3930.0667,3.8437242297861323,28.158052033542877
3930.9731,3.8366138008957513,38.91588286815441
3931.8774,3.8207337405391377,33.40624039096208
3932.782,3.7983932127023894,38.187275971566116
3933.6887,3.773508440258846,48.7910143116783
3934.5938,3.750726627454859,33.32217037294577
3935.501,3.732938610760437,37.14571972519042
3936.4062,3.7195729967519817,39.84784145998009
3937.3142,3.7065762273149407,28.82275651071072
3938.22,3.689839114525278,30.497121613082932
