wavl,flux,ivar
3566.9744,6.595980181646106,17.902940508388937
3567.795,6.588307965089999,15.999275655035055
3568.6177,6.559940540436135,18.18514601311097
3569.4385,6.515485807682063,17.59276185600202
3570.2617,6.465077316814569,17.049050836072933
3571.083,6.4190107693271985,16.004408294920587
3571.9065,6.3808932175836075,20.01782981135271
3572.7283,6.347935386416637,18.379005874902084
3573.55,6.315819887896832,14.430344235831914
3574.374,6.285571364852744,18.693845955892357
3575.1963,6.264929338299525,15.660660186864783
3576.0208,6.262449428028242,13.391503209413477
3576.8435,6.281114480783642,20.047564277842078
3577.6682,6.316399016719219,17.721551185060434
3578.4915,6.359708113859297,21.75012304191286
3579.3145,6.404035699778708,16.341494591080775
3580.14,6.446036275036872,19.659342581708945
3580.9636,6.483244513303518,11.214466240444336
3581.7893,6.5109254550053475,16.2435594857136
3582.6133,6.520954510257501,16.143780670278773
3583.4395,6.507173642987163,16.68095337481288
3584.264,6.471958596739349,16.320712888217976
3585.0884,6.428033618929743,16.519330940149654
3585.915,6.392699301971052,18.86274994320771
3586.74,6.378590851240375,21.499703389592913
3587.5671,6.3867115651469755,16.640501306210787
3588.3923,6.407309093721592,17.891324395635447
3589.22,6.426281782876655,17.781302895750933
3590.0457,6.4324629725569835,19.710477689359717
3590.8716,6.422770103715732,16.427299682504458
3591.6995,6.402097657155548,17.90067383897255
3592.526,6.379855401230839,22.060845036084118
3593.3542,6.364623919929802,17.358053327954146
3594.181,6.360640653243548,18.93328730122369
3595.0098,6.366149366597246,19.469225625824862
3595.8367,6.3745555487037935,20.011484376232993
3596.6638,6.378005556994229,19.25333105163717
3597.4934,6.372006580663291,19.503416704302364
3598.3208,6.358370185743154,25.327116980901394
3599.1506,6.343348346639569,24.297685416487962
3599.9788,6.332562117118507,16.41833291622264
3600.8088,6.3262204175474075,14.37052552542498
3601.6372,6.3192259122455905,21.023277050407472
3602.4678,6.305193665334368,15.124724722386587
3603.2964,6.281878968621217,16.863389852413167
3604.1252,6.253736992574984,31.967956865961035
3604.9565,6.2306487156573995,20.505813032249684
3605.786,6.223421263425078,20.31849090316699
3606.6172,6.237991314523163,18.82218785376972
3607.447,6.272086919116778,13.857226389377091
3608.2788,6.315247717311307,17.58829658398841
3609.109,6.35180031016316,16.140965558195035
3609.9392,6.368031808489626,14.004567590379477
3610.7717,6.358487418558992,16.451699048511387
3611.6023,6.328233981219071,19.603507898015966
3612.435,6.287624540008502,17.80681999044737
3613.266,6.245323514304632,21.37505961775405
3614.0994,6.2045323088482975,16.923338734018717
3614.9307,6.1665206779593476,22.580584611587703
3615.7625,6.133621508999107,18.565049227704414
3616.5962,6.1094288805584815,17.07666994629087
3617.4282,6.095258846465768,21.88237401271851
3618.2625,6.0875355945489105,17.867388810913155
3619.0947,6.080202401452707,17.236411204598085
3619.9292,6.069234155881302,21.190396721630968
3620.762,6.0556186781238495,20.633110498812812
3621.595,6.043734596174591,19.03095804651186
3622.4302,6.037522374927984,24.58281601540672
3623.2634,6.037506592163148,18.38195239488031
3624.0989,6.040573945188685,22.577315517485257
3624.9326,6.042300165748878,18.76010889224902
3625.7686,6.039778635170154,21.776009019343206
3626.6028,6.033103473219149,16.503876967237982
3627.437,6.025034611115744,18.94942774015252
3628.2734,6.01978740886324,19.840389458333725
3629.1082,6.021624062352172,24.877088775487074
3629.945,6.03284873153408,27.294136710019664
3630.78,6.051677247154878,22.93226584372686
3631.6174,6.072160464755552,22.790374333582662
3632.453,6.086649479041611,19.735184234128408
3633.2883,6.090521824661442,19.29539629531177
3634.1262,6.084524530105909,30.146289065073912
3634.9622,6.073789506751503,19.084846714892226
3635.8005,6.064187231665214,25.21473297700532
3636.637,6.059864233983064,21.921977041177588
3637.4756,6.06323717466521,22.148088233955885
3638.3123,6.07617361114789,19.5703985358033
3639.1492,6.098962786693429,22.25133546783649
3639.9885,6.1273819664145055,23.67707102987923
3640.826,6.151663669796739,15.415564259466045
3641.6653,6.161521303311554,21.051798719786113
3642.5032,6.152555378244028,22.838363613535915
3643.343,6.12917743316698,18.631073206326548
3644.1812,6.100906603741173,25.09631957215711
3645.0195,6.075323144324409,19.473988526753622
3645.86,6.0544847463337685,17.47152663147824
3646.699,6.036773257200877,20.901197374565076
3647.5398,6.020870177456612,18.231917078616014
3648.379,6.007927385603987,21.85391635452609
3649.2202,5.9988611629516475,15.846901227301757
3650.0596,5.991298469592934,24.423609955605677
3650.8994,5.979987866722937,19.24682719520785
3651.7412,5.961686600432076,21.088968690206823
3652.5813,5.939849222944799,17.66443772115942
3653.4236,5.923955900369716,22.53828391832364
3654.2642,5.924225779617079,23.389991738196677
3655.1067,5.944821482219486,21.590740739244147
3655.9475,5.981018639683593,17.009987814246692
3656.7886,6.0217835461556515,20.016493647902816
3657.6318,6.054551707753656,17.845853144046725
3658.4734,6.069356762742561,22.66835034545212
3659.317,6.062432494973699,17.837605331565122
3660.1587,6.0378227992314395,18.093325334092587
3661.003,6.006307081452009,17.58388304245782
3661.845,5.980726171495023,27.14891063823569
3662.6875,5.9686377383989795,18.420157213308034
3663.532,5.969293212722924,20.704804367883003
3664.3748,5.975976403723605,18.967952672824147
3665.2197,5.9814771951527055,22.040733900374867
3666.063,5.981172171708291,21.913034886748143
3666.9084,5.972457462965245,14.836868453113098
3667.752,5.953583036983865,18.516170020324694
3668.5977,5.924510760155475,20.811680557324614
3669.4417,5.889329213989268,20.91740780165014
3670.286,5.855590388278838,28.105039317334835
3671.132,5.830964404077381,17.99155273803879
3671.9768,5.818959517859538,24.420589635948097
3672.8235,5.817109074590573,23.75655091414278
3673.6685,5.8201559601694415,20.611885864526375
3674.5156,5.824916749919263,20.56868052299863
3675.3608,5.832197648612695,54.073673858156575
3676.2063,5.843709543710688,26.69962074287624
3677.0542,5.857593408008445,23.98107838644044
3677.9,5.867914511416015,21.86564075671413
3678.748,5.869073072906974,19.49967585420051
3679.5945,5.859626356832844,23.58089083496529
3680.4429,5.842546656502128,29.69844856137652
3681.2896,5.823071207748812,18.26199112701915
3682.1365,5.806539937012006,29.205951724025624
3682.9856,5.7972242053161605,22.842906772971546
3683.8328,5.796490677340205,24.443027617556158
3684.6824,5.80113523699047,21.991092466477998
3685.53,5.804708969743218,23.147753252699903
3686.38,5.801714761856405,17.968783128046102
3687.2278,5.791151903712457,24.759623670011145
3688.0762,5.776344975697385,19.8152257073912
3688.9265,5.762062647600532,18.15709704088835
3689.7751,5.752197120516896,25.559956777182762
3690.626,5.749140280910489,22.73423830839331
3691.475,5.754380749885463,19.265913170919728
3692.3264,5.768257585716996,23.314901915635023
3693.1758,5.788935454025212,24.532747083472955
3694.0254,5.812115219221319,26.371864868929933
3694.8772,5.831930205949078,18.48223607619229
3695.7273,5.8431304966039415,27.66675034131433
3696.5793,5.843711510277309,19.59886005847406
3697.43,5.835411544001852,17.835211855593467
3698.2825,5.821967107459781,21.235449143076227
3699.1333,5.806168275813625,21.601626336206046
3699.9841,5.788145107368304,19.505327140586427
3700.8374,5.767004597179095,23.65654013686187
3701.6887,5.743824541135842,23.56947692535845
3702.5425,5.7217511493624045,22.577202895609307
3703.3943,5.704194920300899,19.56437303168685
3704.2483,5.692423509368238,19.74252501624543
3705.1003,5.686109690621573,22.813231926011355
3705.9526,5.684087877206057,21.21257735818341
3706.8074,5.684304606077895,23.971983128551447
3707.66,5.683214106804744,23.122282740867142
3708.515,5.677068005445144,25.289579944490253
3709.3682,5.665035197360479,21.88938917023108
3710.2234,5.650787309953984,31.99749993900161
3711.0771,5.640564888532793,20.31799816285703
3711.9307,5.638661173888603,23.1918914981144
3712.7866,5.644795165198797,25.16794781433785
3713.6409,5.654547746954141,21.174110994814736
3714.4973,5.661939975905901,22.637636563865858
3715.3518,5.661951361082767,20.833331717655724
3716.2085,5.652720637407568,22.958682374645946
3717.0635,5.636497859708201,23.334383794248232
3717.9185,5.618203071077007,28.750452514366593
3718.776,5.6021336126556465,18.551722938036782
3719.6313,5.589369105623281,25.791937290572474
3720.489,5.577479329639271,23.412553748221413
3721.345,5.563210016285659,28.045936142002144
3722.2031,5.545061867857265,21.872229590861483
3723.0593,5.525114529121341,28.043484710999223
3723.9158,5.508014748068067,24.449373044789404
3724.7747,5.498210656437387,34.000611725274254
3725.6316,5.4966957635175575,20.180011900608086
3726.4905,5.500138328402551,23.792207612729186
3727.348,5.503796373133244,19.762693358932907
3728.2073,5.505370376258723,23.997237983132358
3729.065,5.506159685148401,30.508940424748005
3729.9229,5.508761164971394,25.41496003109026
3730.783,5.513770864650645,25.906590134833348
3731.6414,5.518392544122772,19.385399055860752
3732.5017,5.51786208255354,22.442556888011996
3733.3604,5.5083316116674235,19.05216043314836
3734.2214,5.489527627781618,22.888508799229875
3735.0803,5.465716673999923,21.583792060503317
3735.9417,5.443276123559719,26.828099110609653
3736.8013,5.427584215662819,23.72628097150637
3737.661,5.420429668881688,19.157106292966244
3738.5227,5.420594296712309,23.277444920006598
3739.3828,5.42519484604844,27.163060476189788
3740.245,5.430410167776141,23.32267265467726
3741.1055,5.431970865272518,21.579104187961438
3741.9683,5.42698910521868,26.481877972841254
3742.829,5.416348465099662,27.37508235465725
3743.69,5.404990032897005,16.858973471398873
3744.5532,5.3988527501870385,19.79620183874929
3745.4148,5.40057039476249,21.242856996243408
3746.2786,5.407545908577477,25.8402521703195
3747.1404,5.41440775476522,20.482070731052747
3748.0044,5.417727829963023,27.008242407623516
3748.8667,5.41858423883116,25.698641544864472
3749.729,5.4208684363876785,23.409389394119536
3750.5938,5.4267929871393035,24.804204647915935
3751.4565,5.434026421118054,23.352151499476616
3752.3215,5.437487506451844,28.98193396979686
3753.1848,5.43368578146366,24.67915924093345
3754.0503,5.423426492788547,31.01399787918107
3754.9138,5.4105063893093615,21.818646430487373
3755.7776,5.398276896303404,19.8419285782713
3756.6438,5.387875735178517,28.329811014577082
3757.508,5.37862497382495,25.37737868715507
3758.3745,5.368707904039936,29.49633610025513
3759.239,5.3559241859290125,28.99822865453566
3760.106,5.338516609512137,22.08657287816953
3760.971,5.317233914622369,25.28971446699344
3761.8362,5.296003680259833,26.311388440134
3762.7036,5.280532994202247,26.11688723431885
3763.5693,5.274766879538804,29.147610105136533
3764.437,5.2774564852784875,26.759622842920184
3765.3032,5.282243443722034,24.660826750479416
3766.1714,5.28146126390502,24.20541497268027
3767.0378,5.271220497049126,28.88581942097634
3767.9043,5.253559794085761,25.407247701741806
3768.7732,5.233899987424107,30.04642909347306
3769.6401,5.216972046887311,27.51649824487316
3770.5095,5.204415690254684,31.611944807750422
3771.377,5.196142065435236,32.363695058366986
3772.2466,5.191849892844221,40.78819890847652
3773.1145,5.191774331026561,33.15110797763104
3773.9824,5.196168475539063,30.29340250611407
3774.8528,5.204642752745194,25.25043652866001
3775.721,5.215291037837521,25.366050219338206
3776.5918,5.224848792763688,24.893452114822196
3777.4604,5.230185191894546,23.716961418518093
3778.3315,5.2310531070960575,31.086050240700967
3779.201,5.230844505235776,28.062810077042556
3780.0703,5.234449977033612,31.461099159543057
3780.942,5.244887017115871,24.088906481408397
3781.8118,5.261538978689728,24.768784045073065
3782.6838,5.281168929828237,25.607578537600975
3783.554,5.29939124759602,21.410855886892406
3784.4265,5.312151956385323,27.884277280256
3785.297,5.315905756436349,22.547320762854813
3786.168,5.3083385335008595,33.45331662164997
3787.041,5.2889457928163,26.761749982821012
3787.912,5.25990827115341,25.6065415786258
3788.7856,5.22520433815669,23.510673517254375
3789.6572,5.189565365041683,29.074763543227782
3790.531,5.156568574508749,30.433641801598245
3791.403,5.129106795196524,26.69028632678961
3792.2754,5.108591748256354,28.210945765922805
3793.15,5.093759885730443,23.911643787262634
3794.0225,5.0794768917692386,23.072565661926916
3794.8972,5.0581412413368305,27.493437738454013
3795.7703,5.024783514175216,23.123152147394897
3796.6455,4.981044609255321,25.939203423080713
3797.519,4.935798577942259,41.74905631641572
3798.3926,4.899761451114986,32.76286786750482
3799.2686,4.880141534113907,29.576790047930466
3800.1426,4.878459672866947,34.70827062252579
3801.0188,4.891926588969759,28.199677956071596
3801.8933,4.916287484346687,27.50562264056967
3802.77,4.947495105785414,28.889778042936324
3803.6448,4.981676616640115,25.67017690478119
3804.522,5.015958074372483,27.33969119102241
3805.3972,5.047982877916089,26.778350293541834
3806.2727,5.076197769496349,22.40920586819584
3807.1504,5.0991626926778775,27.269773385485006
3808.0261,5.115643889838947,26.010551824326143
3808.9043,5.125603226038115,27.414776289793917
3809.7805,5.13026256896713,22.834601618675674
3810.659,5.132084172205582,27.12378345324935
3811.5356,5.133903636112563,30.709023676523596
3812.4126,5.137996340304663,28.887504295125183
3813.2917,5.1453296465066725,28.971641757481308
3814.169,5.155460425227472,34.19968848227076
3815.0483,5.167376048069063,30.73617423358365
3815.926,5.18007536986597,26.914287361203797
3816.806,5.192755755272564,25.822580535275318
3817.684,5.203663399595699,34.825297257015755
3818.5623,5.209396767144092,23.238615041340893
3819.4429,5.205369762965032,24.71467004172871
3820.3215,5.188350640063268,23.94217516910515
3821.2024,5.158901908035826,27.09527598842212
3822.0815,5.121773917407493,28.73144040817455
3822.963,5.082538104260957,28.557050560260134
3823.8423,5.04485166638802,29.727418529029862
3824.722,5.008805999819036,33.8357926046139
3825.604,4.972604262792258,32.992298300498454
3826.4841,4.934628012035859,35.25472051371391
3827.3665,4.8936739670275,34.91233840479622
3828.2468,4.849822383837417,26.688977825947795
3829.1296,4.803522219851327,32.92789922048092
3830.0105,4.755872247638981,28.829550750036336
3830.8916,4.7067385321391955,37.71901560996143
3831.7751,4.654415083614074,34.597067618622695
3832.6565,4.5970185307261255,38.805161372547765
3833.5403,4.534049322924199,31.851014154450333
3834.4224,4.470078336744073,39.13111744164587
3835.3064,4.413988341370192,33.69771682353225
3836.1887,4.377081103275634,49.48776129756981
3837.0713,4.367297767472813,35.19811462961735
3837.956,4.386185725124629,41.51692677211699
3838.839,4.428873719548905,31.241651379522903
3839.7244,4.48786703171402,38.215816690147115
3840.6077,4.55547717114161,38.2695083199107
3841.4932,4.626067797588727,39.426516881223755
3842.377,4.69520648803961,34.80879159725089
3843.261,4.761018302154302,29.21014078494438
3844.1472,4.82291982416505,38.38268914359925
3845.0315,4.879049424537845,33.17524499848466
3845.9182,4.925647206431308,27.739734338029905
3846.803,4.956410749020193,23.191327907975438
3847.69,4.9630048229066555,32.68284592059046
3848.5752,4.92883540873068,35.722366478090386
3849.4604,4.819789921598315,30.222527807406475
3850.3481,4.583423807205981,28.419529631868944
3851.234,4.180799635378411,29.322306285893667
3852.122,3.6391182391390213,27.43799799566512
3853.0083,3.100686396220278,31.402753213380908
3853.8967,2.774254133840379,26.048105107810517
3854.7832,2.818189311074313,24.891818142986775
3855.6702,3.221106485445055,29.216166171164005
3856.559,3.812396733504286,33.70970509324818
3857.4463,4.37600283698893,26.195543312045718
3858.336,4.78089909835305,25.622039615503546
3859.2234,5.005328607308795,25.66193118351866
3860.1135,5.099742926984369,30.782829913735732
3861.0015,5.124162931041467,29.661635489085164
3861.8896,5.121877770896971,25.991359900541696
3862.7803,5.115452516142056,30.581553958050613
3863.6687,5.113696322393252,25.815189508723225
3864.5598,5.117552122419184,29.5313678817985
3865.4487,5.124371821917505,28.153364655479205
3866.34,5.131142159507336,26.603047762936168
3867.2297,5.135853399811568,27.08396924884463
3868.1213,5.136904190872769,23.420856011533548
3869.0112,5.131704273121197,23.27975163683803
3869.9014,5.117191550992859,24.883289130703265
3870.7937,5.092256658901157,29.81947006004189
3871.684,5.059696003734911,22.71274930317565
3872.577,5.024030254405034,26.883637404407693
3873.4678,4.988158557194119,27.8091806277147
3874.361,4.950471574713956,27.411527933557704
3875.2524,4.907063505405158,34.210699667350376
3876.1438,4.854454329661957,32.47294989810789
3877.0376,4.792063324249901,28.936708814071864
3877.9297,4.722999945710704,26.990089570979645
3878.8237,4.6513810892876855,37.99752645137101
3879.716,4.580587968001773,30.390351061465395
3880.6108,4.509753326408002,29.36249241501433
3881.5037,4.435530930307785,36.6685407206275
3882.3965,4.35425836495782,38.66104483079292
3883.2917,4.26546254654547,39.39462999388687
3884.185,4.17256514732878,39.155459824642165
3885.0808,4.078614611935196,54.180121504117366
3885.9746,3.9858565376026713,57.04980789019817
3886.8706,3.8942990808276967,43.2421578625066
3887.765,3.8059025233834687,54.348724768914735
3888.6592,3.7257550246662343,54.578412425667565
3889.556,3.6632339821724953,54.86324690298296
3890.4507,3.629757348459779,63.39067943423878
3891.348,3.6329262462625826,53.89266835768662
3892.243,3.673190329610867,60.45255771866677
3893.1406,3.7439399220140523,53.758614947764165
3894.0361,3.834093350237395,48.37232312910633
3894.932,3.9332047424108967,45.852891990929045
3895.83,4.033317101650778,47.22282877435629
3896.7263,4.128895322351538,39.230100010314416
3897.625,4.218596666333022,50.24224229393287
3898.5215,4.302854321540795,37.358884662312875
3899.4207,4.384191618972025,42.671767411415765
3900.3176,4.463265031264292,39.95547553604468
3901.2148,4.53911925673819,36.53475452759949
3902.1145,4.609126219554006,30.110198289053642
3903.0122,4.670927146414098,32.90718000669141
3903.912,4.725840760570433,36.68837600309243
3904.8103,4.777729803777734,30.409389209720423
3905.7107,4.831460709117898,25.487797779338294
3906.6094,4.888843015901378,30.659295895916408
3907.508,4.9482064769117144,29.37878531275102
3908.409,5.005399740090404,32.96680264904629
3909.308,5.055907562474795,38.312975746131805
3910.2097,5.097923836371832,27.127791925842878
3911.1091,5.132224804371252,30.79704887709834
3912.011,5.161945265165038,29.707505818938696
3912.9111,5.189711259785914,26.484604299440086
3913.8113,5.216733772409676,26.185020064079982
3914.7136,5.242974821042278,23.46353017996772
3915.6143,5.268159263819164,26.14374653266931
3916.517,5.29254010675211,27.704032352189436
3917.4182,5.3158098575177055,25.85262792565658
3918.3215,5.337083861988025,24.242018423691462
3919.223,5.354987161354035,32.34321304530842
3920.1245,5.368714497809302,30.820856558722326
3921.0286,5.377892944798024,22.912289434625915
3921.9307,5.382174412898028,24.363531599677742
3922.835,5.3814442915053435,24.71340367064744
3923.7373,5.376480165861939,23.96796345025069
3924.642,5.369423026207916,26.857840261927482
3925.5452,5.363167808164359,29.978458306811003
3926.448,5.359728672730812,28.391122887606453
3927.3535,5.359231420445897,24.64847182205835
3928.257,5.360306467580258,26.689696996849108
3929.1628,5.361453746421198,24.95186827824936
3930.0667,5.3616998796422,25.767639861784904
3930.9731,5.359606687270753,29.982930907339682
3931.8774,5.352106105233309,22.689115218344813
3932.782,5.335724983977899,21.584151990886138
3933.6887,5.310293849864475,29.105572775048696
3934.5938,5.281695473401377,23.977469612721848
3935.501,5.258884112410163,52.363553033482695
3936.4062,5.247986455627503,26.111984459278325
3937.3142,5.247916273439138,26.22450275764807
3938.22,5.252498431887572,23.475723967135245
