wavl,flux,ivar
3566.9744,3.1180350636171803,22.26924252880275
3567.795,3.1151466448337617,23.400144196524735
3568.6177,3.0980287797785895,152.85764455867536
3569.4385,3.070901703261293,20.430239791995525
3570.2617,3.041797798236476,20.00920118342963
3571.083,3.0176911739625605,22.900253474783547
3571.9065,3.000712241359708,77.13610179533875
3572.7283,2.990014719483805,20.223017367175334
3573.55,2.984522560988548,21.61157977164706
3574.374,2.984125786299714,31.01545746215762
3575.1963,2.9884218598337218,30.971226234624847
3576.0208,2.9957593258664583,9.842015541614698
3576.8435,3.0040335839757497,25.51194528511377
3577.6682,3.0122736927113998,20.94453940404398
3578.4915,3.02036603420918,15.812885046577112
3579.3145,3.027471270348374,18.506058794066874
3580.14,3.0310408740105883,21.127256909444164
3580.9636,3.027853858420011,12.663726909222001
3581.7893,3.0157299913785427,15.998836272406963
3582.6133,2.994177666134733,21.23119554252648
3583.4395,2.96386325083817,12.802826907068106
3584.264,2.927224938625584,21.836525529608732
3585.0884,2.88920544245867,32.7778248758351
3585.915,2.858300137527221,18.704473499216242
3586.74,2.8451400901165993,19.40707503202369
3587.5671,2.856817013668948,30.51092937403844
3588.3923,2.8910563426536813,49.72216665252107
3589.22,2.9352839169280234,16.274617848060743
3590.0457,2.9722414195786526,20.37726330208119
3590.8716,2.9900462076794163,17.488796285475747
3591.6995,2.987013302233849,51.549158596675454
3592.526,2.970528608800851,16.002147682595496
3593.3542,2.951672092615267,24.00148251020874
3594.181,2.9400295675098214,20.61446821723294
3595.0098,2.9400978121690176,18.230102749404637
3595.8367,2.950932011105031,24.81109014147391
3596.6638,2.968166866803087,29.269159491008338
3597.4934,2.9867100067749046,26.633236307433904
3598.3208,3.0015630172223533,10.209519701856877
3599.1506,3.0081850435535102,26.827033192359398
3599.9788,3.003818859522964,15.364491219967833
3600.8088,2.990785842632301,29.626433767652166
3601.6372,2.9770569949999928,29.27021260247382
3602.4678,2.9709574166076615,26.093732392807894
3603.2964,2.974234714256009,18.703720371360316
3604.1252,2.980437371366014,33.74601320182443
3604.9565,2.9815589834558693,26.936952141138875
3605.786,2.9763819167060226,17.523306073017295
3606.6172,2.97217899897616,13.375197569959335
3607.447,2.9782487140450575,26.22514904360218
3608.2788,2.9978005846847786,18.83850155631376
3609.109,3.0248437895636715,24.290955359682975
3609.9392,3.0476490507463714,29.436884976211637
3610.7717,3.054699811277837,27.86906060934492
3611.6023,3.0402376550394163,12.062199947137561
3612.435,3.006649473012232,55.52421648442166
3613.266,2.962589699638279,12.471690328557678
3614.0994,2.9172327690944004,23.023517291577164
3614.9307,2.876441044930536,16.19299249930802
3615.7625,2.8410645285683205,21.787013581364963
3616.5962,2.8098832879203797,37.33766769059449
3617.4282,2.782842089419378,43.62094051577861
3618.2625,2.7615893682214003,20.84946172399764
3619.0947,2.748196833858933,22.108637512932894
3619.9292,2.7424232466524696,20.74098037162487
3620.762,2.741767744704516,44.19347944991394
3621.595,2.7435445333580644,18.45902786753326
3622.4302,2.747445305903569,25.18295703279171
3623.2634,2.7560222353961747,22.72779819215042
3624.0989,2.772665158540352,22.63281716608113
3624.9326,2.7973605780702124,21.688206700034357
3625.7686,2.823664811305966,56.161757304073745
3626.6028,2.8395561357722188,14.435307829012359
3627.437,2.834918287449588,46.781981980791485
3628.2734,2.80924874890692,21.392525411829176
3629.1082,2.7738522463416153,23.061473300408764
3629.945,2.7449067602993757,32.001481995673785
3630.78,2.7344941357048977,14.542724059801202
3631.6174,2.744965194051035,41.52701391836671
3632.453,2.770530931026651,51.19402813057147
3633.2883,2.8024033513893136,17.773848446035533
3634.1262,2.8330977126884425,18.576851628475165
3634.9622,2.857510016539704,22.644403896585963
3635.8005,2.8730960353497843,11.846793704199985
3636.637,2.879303532781641,11.814584153887903
3637.4756,2.8784017494982685,12.249406712580635
3638.3123,2.8749834558327296,38.09907981829612
3639.1492,2.8741336349837465,24.938101728562586
3639.9885,2.87921162554312,14.290305941048503
3640.826,2.890454743116014,26.340589006161856
3641.6653,2.905011150218109,16.884896918679182
3642.5032,2.9181077387811505,19.270553619927078
3643.343,2.92598249633777,15.16288108759522
3644.1812,2.9281732590006992,17.833221336704554
3645.0195,2.9272877277403286,29.433482413214417
3645.86,2.9258106417799947,24.68180276476574
3646.699,2.9238693391038715,24.840052198241846
3647.5398,2.920449440992785,15.356322108893515
3648.379,2.9161885044464984,43.99368319027419
3649.2202,2.9135310014139026,79.33101847224404
3650.0596,2.914283942737056,47.23828970485636
3650.8994,2.9184613184406265,14.494270591919967
3651.7412,2.9266230912576474,9.403827789499903
3652.5813,2.941601613534401,17.990527828931516
3653.4236,2.965476881334859,29.041731862044028
3654.2642,2.9932882641137875,12.506788107753573
3655.1067,3.012369109691952,15.150640551587223
3655.9475,3.009799611143179,14.585123214795074
3656.7886,2.983594805172177,11.736051037360033
3657.6318,2.9461374552942585,24.320434223189643
3658.4734,2.9170471914206098,23.803226692471515
3659.317,2.9097779195729006,23.094031798325652
3660.1587,2.9241154289594014,15.392748886101723
3661.003,2.9485702868976142,15.07966704419027
3661.845,2.969945288081998,17.221338822449283
3662.6875,2.982651936901788,15.041851673150157
3663.532,2.9898965141418445,19.171801080723498
3664.3748,2.997986083887371,21.384181752174637
3665.2197,3.0096158678887983,22.192000972409524
3666.063,3.021456644417177,37.83898581137868
3666.9084,3.0269536037550324,10.529581241529556
3667.752,3.0204841127654154,11.059776798455392
3668.5977,3.000996417388829,6.285474996311825
3669.4417,2.9739164461141576,27.162324915154045
3670.286,2.949599344569663,24.71246140027316
3671.132,2.938429261492301,20.426974256777473
3671.9768,2.9441075747417402,15.863902141722932
3672.8235,2.959945579927355,31.854567315783232
3673.6685,2.972536209437219,34.03231828153032
3674.5156,2.9715292127365402,8.50395403581574
3675.3608,2.957415498884917,43.39427743212781
3676.2063,2.940419704509627,33.37548805585564
3677.0542,2.931610033563552,14.24803949039352
3677.9,2.9351165085993394,26.593784723134387
3678.748,2.9474071822707577,19.809401290450698
3679.5945,2.9614605452621916,16.920266741649392
3680.4429,2.9703620842368026,16.861594509701906
3681.2896,2.969101688651052,14.731884052221334
3682.1365,2.957697204172865,15.533956606266871
3682.9856,2.943550878294442,10.669080130164
3683.8328,2.938295908859432,35.032586627370534
3684.6824,2.94792948499417,22.342840996785373
3685.53,2.9650854692402033,28.207039985134966
3686.38,2.9723045782621607,11.542378715595216
3687.2278,2.9547271224631633,14.581820721325927
3688.0762,2.9116396605041537,17.476337399013918
3688.9265,2.856585290404802,21.444247259290222
3689.7751,2.8080151638514352,53.427658958902505
3690.626,2.7774568350340907,24.660326632436504
3691.475,2.765768754849539,38.175818840781226
3692.3264,2.765267875061931,14.643227201327177
3693.1758,2.76617793174077,26.911705595386486
3694.0254,2.7625831254197757,41.5200291017517
3694.8772,2.755462557078344,13.134243685002366
3695.7273,2.751001292425973,98.44911110030529
3696.5793,2.75516410859492,16.020629479922317
3697.43,2.7693090813184007,21.49021433774478
3698.2825,2.7900974531337814,36.30477652617096
3699.1333,2.812305648870212,35.82074215177847
3699.9841,2.831937083505237,96.49127516371885
3700.8374,2.8469770996372947,33.34717519627414
3701.6887,2.8567749443036785,19.20922691408719
3702.5425,2.8616148274611053,18.06856424714027
3703.3943,2.862289730539629,18.243331754925684
3704.2483,2.860297351204555,38.43609702016809
3705.1003,2.8575764046536802,24.028490053285754
3705.9526,2.855519878279947,17.096619563368243
3706.8074,2.8538075312766966,15.425478048683134
3707.66,2.8503265032181995,28.889295504857614
3708.515,2.8427633871451614,13.61262253261728
3709.3682,2.830734921428617,13.569206455124382
3710.2234,2.8158611219567953,32.82428369457847
3711.0771,2.800115539059394,11.783538492320286
3711.9307,2.7841682302684965,33.68465833618292
3712.7866,2.7682417875893965,12.632961068227539
3713.6409,2.7540028595226014,45.88029404487342
3714.4973,2.744044396528616,462.41288843761924
3715.3518,2.73942384917332,20.016909306248607
3716.2085,2.737330279226588,26.013681875632738
3717.0635,2.732520566568108,23.287389361387984
3717.9185,2.7212308386710085,36.089884611180985
3718.776,2.703936697287475,49.254913103469384
3719.6313,2.6846256150097925,16.64828372319525
3720.489,2.667226875941629,29.730059045227478
3721.345,2.653936605059986,21.043005832690287
3722.2031,2.6456473051507303,21.255550017197685
3723.0593,2.643556186128553,64.30769913303821
3723.9158,2.648700058773451,15.567050692107058
3724.7747,2.6606798287065336,46.757897315458415
3725.6316,2.6771207045098304,44.82883642425283
3726.4905,2.695247550776792,31.64138450722825
3727.348,2.7132539690280173,21.550817329122864
3728.2073,2.7307741531001817,25.83205051839531
3729.065,2.7472874022353753,21.178290183844776
3729.9229,2.7612303762625734,13.617397144793875
3730.783,2.7702857282478583,24.042179371284867
3731.6414,2.7728497080786427,15.495637395390425
3732.5017,2.769109656640038,22.03931316053321
3733.3604,2.7607992501650958,21.68418926901949
3734.2214,2.7504663422545774,29.6669278586292
3735.0803,2.7410232605209632,22.961025570935497
3735.9417,2.734828152637131,19.584577199291342
3736.8013,2.732757852405595,28.659295724913655
3737.661,2.7332012927444738,18.36285585991001
3738.5227,2.732387560927467,17.792186412594877
3739.3828,2.725994044258697,22.11863292896773
3740.245,2.7114347228187623,20.290089228657724
3741.1055,2.690107986452857,15.862035674025627
3741.9683,2.6678748979847358,46.83701248118169
3742.829,2.6536602909920215,32.30544635605629
3743.69,2.6548589396488382,37.531249992570224
3744.5532,2.6732331258357607,23.58614362553601
3745.4148,2.702857561731385,31.77457417160469
3746.2786,2.7324545537392164,21.136293741679626
3747.1404,2.749862982209879,20.875305138333747
3748.0044,2.7481140697606556,10.924183807193348
3748.8667,2.728839209493645,33.956402806825004
3749.729,2.7018967986804934,30.2566151138695
3750.5938,2.680565178013023,17.281660134457255
3751.4565,2.6749716310908718,21.480529696394058
3752.3215,2.6861263379847804,13.926008405858525
3753.1848,2.704907998827644,22.95768663475728
3754.0503,2.717219572350091,22.90369380439487
3754.9138,2.712751447359294,18.125625097142688
3755.7776,2.691974799240157,24.990289764380645
3756.6438,2.6652844574868326,19.904733570749165
3757.508,2.6457992478043875,19.555410719739744
3758.3745,2.6403117674915872,17.806452645494126
3759.239,2.6462195123604055,18.11220295970369
3760.106,2.655093246230041,16.35550515855837
3760.971,2.6599746149256505,34.28345634987706
3761.8362,2.6605994103016952,17.012144353730594
3762.7036,2.6623336542439624,29.69028461290169
3763.5693,2.6704162477982925,18.509135011589574
3764.437,2.684664077180782,21.528838457415873
3765.3032,2.698793316019881,29.857240020397377
3766.1714,2.70469989089528,40.43038380744786
3767.0378,2.6973998951023326,14.099338946720222
3767.9043,2.677593488639729,28.332668188971905
3768.7732,2.6503698093781645,36.77846847706773
3769.6401,2.622710022436135,28.55368812070687
3770.5095,2.6008261853270795,24.88206325958696
3771.377,2.5896250327142125,46.68171753019517
3772.2466,2.5915139517940284,26.21694307667816
3773.1145,2.6058062380493934,19.631281276668282
3773.9824,2.628783601070753,16.68370689588979
3774.8528,2.6551290657679836,43.96300581061603
3775.721,2.679337425000506,30.21590326082176
3776.5918,2.697450932111834,34.52179773801358
3777.4604,2.7071351534416235,47.524746847057756
3778.3315,2.7078520840467992,14.08633880103061
3779.201,2.6995428022300656,33.02715340094253
3780.0703,2.6814106347170474,19.7704490561199
3780.942,2.651960898503161,13.221668083222225
3781.8118,2.6117483108467803,15.975072833799418
3782.6838,2.565915039804102,45.20364979365054
3783.554,2.5254431326758127,31.682270810737144
3784.4265,2.502841455612357,24.69669325389591
3785.297,2.5065098865822417,55.996703135429996
3786.168,2.53505018668215,20.022827918324204
3787.041,2.5776750972128144,23.116405380871704
3787.912,2.619770274871851,13.171676426011809
3788.7856,2.651515788624669,25.392132496493197
3789.6572,2.6705923478808034,34.37935489348381
3790.531,2.679566307174045,45.33712011208653
3791.403,2.679737784582743,17.8379318639277
3792.2754,2.6689080209194027,38.11329939327357
3793.15,2.6437645504117557,23.259323516440595
3794.0225,2.6044608084209098,26.666891280905467
3794.8972,2.5560195595195148,47.78836154931835
3795.7703,2.50761200333333,30.07128653752079
3796.6455,2.4689613877512557,32.3911534872147
3797.519,2.4482902413692402,41.50597981698476
3798.3926,2.4488231929773208,34.54472834592469
3799.2686,2.466922712908998,31.358674486970862
3800.1426,2.4922196204104807,28.36743979875042
3801.0188,2.5125204158315984,24.064615767747725
3801.8933,2.5199194063504344,28.78674427232214
3802.77,2.514671277271979,20.173482306025406
3803.6448,2.5029643252792635,29.258961470669572
3804.522,2.4911748418195336,16.98331989696663
3805.3972,2.481786272119217,62.31043117849217
3806.2727,2.4735716729217967,14.53948775238597
3807.1504,2.465322914685443,44.263973141535566
3808.0261,2.458842765354365,34.454048103837465
3808.9043,2.458487391030257,31.351260621694404
3809.7805,2.4681753005287748,45.18759472237619
3810.659,2.4883433158090438,32.0024487706642
3811.5356,2.5151533459039332,15.32410010974421
3812.4126,2.542767832024448,47.63868177773736
3813.2917,2.5659711399499816,21.730683075494305
3814.169,2.5816943998788866,26.385814342542723
3815.0483,2.58991565944185,27.72257868667214
3815.926,2.5933571708141465,33.86076132355225
3816.806,2.5966066671548926,20.170184738592614
3817.684,2.6031014067080505,15.98615656479164
3818.5623,2.611897854901679,20.18691334582034
3819.4429,2.6174773642220863,34.4211595058612
3820.3215,2.613790278211634,25.646470755839843
3821.2024,2.5991697285353306,19.409873383322648
3822.0815,2.5774234483901783,26.780685880672053
3822.963,2.5542949414569396,26.262624250331278
3823.8423,2.5335803967138557,27.41259990995929
3824.722,2.5149888516192385,53.678781256532105
3825.604,2.4957243661723827,20.167398221870716
3826.4841,2.473694042528677,40.56163995836248
3827.3665,2.449419637590912,36.74037143908117
3828.2468,2.426045793672379,31.49594555551319
3829.1296,2.4062367208980966,35.12213147194981
3830.0105,2.390062223505227,35.88371141139635
3830.8916,2.374492799726068,48.53182779624626
3831.7751,2.356011965153314,45.582167669281475
3832.6565,2.333783139532919,40.14282143937941
3833.5403,2.310220853451038,38.116861396449835
3834.4224,2.2892711460668598,25.96622406394946
3835.3064,2.272774493784453,44.89820048732831
3836.1887,2.2598415835001293,35.04782767615254
3837.0713,2.2491139670011346,24.754516570874536
3837.956,2.242271624826062,35.92064723186908
3838.839,2.24439403811869,46.218337652600994
3839.7244,2.2604975580815636,21.960619109225888
3840.6077,2.2916225197541245,25.028080432494182
3841.4932,2.3344532747642495,40.876170980959344
3842.377,2.3830525046939037,37.717916923615206
3843.261,2.4318264912979424,89.66865022298016
3844.1472,2.47611291404392,26.161332880945533
3845.0315,2.512283523031435,19.201739681909235
3845.9182,2.53937736512739,24.600287595245955
3846.803,2.558787065314565,43.952486717332576
3847.69,2.57328920631213,34.4030113322168
3848.5752,2.584438039243909,22.18167290613561
3849.4604,2.5923573010786534,61.26569796670603
3850.3481,2.5970885081458013,23.869268141023664
3851.234,2.599912364801828,23.079256959135293
3852.122,2.6033235503778633,30.93080183816428
3853.0083,2.6100599400799718,18.245320693736637
3853.8967,2.622422799702432,19.985874561102435
3854.7832,2.6414860682754266,21.40720770505773
3855.6702,2.666762494110557,29.484907082955125
3856.559,2.6960347252406254,22.832619618740722
3857.4463,2.725285833100497,22.791448317113932
3858.336,2.7491295368340305,31.74683929078305
3859.2234,2.761046315024372,24.919438894260054
3860.1135,2.756508720886389,17.35120236387169
3861.0015,2.7362347124874926,18.465311095477343
3861.8896,2.706550317109796,20.87882733536783
3862.7803,2.675120106339084,26.382139416455875
3863.6687,2.6463584355463623,49.7185493427596
3864.5598,2.6202650239794143,24.659522686572785
3865.4487,2.5968538899932545,30.71994335478084
3866.34,2.5788801718060474,31.929145019948642
3867.2297,2.5709480093079464,39.132584238162266
3868.1213,2.574295528134282,23.465843738460435
3869.0112,2.5835286356951177,22.104392465025484
3869.9014,2.5886579162601286,21.583299295623142
3870.7937,2.581314230381041,20.02771286871883
3871.684,2.560036875626937,19.008101359475155
3872.577,2.529921392295021,19.702817823579768
3873.4678,2.498411990481813,31.403562932822236
3874.361,2.470262823692649,47.352225335107306
3875.2524,2.446651865777092,25.79629422981869
3876.1438,2.4257066708302752,49.53540383616396
3877.0376,2.404287828371938,33.92651311244944
3877.9297,2.3794865108357,26.604343492111628
3878.8237,2.349508550771397,47.948504712610614
3879.716,2.314968959385369,36.87209657046575
3880.6108,2.278247581561321,36.848537250629164
3881.5037,2.2428599271665646,50.118686951831805
3882.3965,2.2111720320548662,56.58706849435128
3883.2917,2.1834151470045136,37.47630734452697
3884.185,2.1573908833058555,38.61590861520091
3885.0808,2.1283902273234965,26.662422406083838
3885.9746,2.091576649232565,33.84788249311456
3886.8706,2.0446929624511254,41.244941269375516
3887.765,1.9917658115377683,30.69587980321468
3888.6592,1.942329929626502,74.37149103574336
3889.556,1.9075787338289159,36.98874615630309
3890.4507,1.8947304784542318,37.6765849176463
3891.348,1.9027154824836174,78.45712007439836
3892.243,1.9233500217065596,52.824072492998816
3893.1406,1.9466227683079345,41.83564752770499
3894.0361,1.9661983030953107,68.16622461802746
3894.932,1.982220375321488,26.307458883459653
3895.83,1.9989959585125763,24.410972796595907
3896.7263,2.0208616939480297,39.453159515029974
3897.625,2.0497720489301816,31.622811887590206
3898.5215,2.0845741792545116,49.97446407412843
3899.4207,2.122850960635732,30.156113011926447
3900.3176,2.1616880545669956,45.20892024017425
3901.2148,2.1995645665234327,23.593681590795644
3902.1145,2.2367103803710715,48.664985252414546
3903.0122,2.274702720260738,23.81933032002884
3903.912,2.3160032689847068,38.99203824163819
3904.8103,2.3617184030236906,68.28201841976743
3905.7107,2.4112957860734925,23.657440477709176
3906.6094,2.461756056731208,45.35593675222301
3907.508,2.5093823554051613,20.794948933760676
3908.409,2.550726183811076,41.38786118165505
3909.308,2.583436431327981,23.768585209223932
3910.2097,2.6073511068555857,16.406779792033745
3911.1091,2.623407636585774,22.28330426597697
3912.011,2.633037193081817,17.407361405187295
3912.9111,2.6376444658662828,21.648315536035653
3913.8113,2.6402038725269867,29.357549202121014
3914.7136,2.646118826451359,39.731796154918236
3915.6143,2.661235980508389,24.431571182010817
3916.517,2.6880796970740746,22.484120473276644
3917.4182,2.7234402414772645,20.63164235957292
3918.3215,2.760372760344592,17.57316818506615
3919.223,2.7911686759807126,28.230588158092083
3920.1245,2.8108121893660343,16.997759254869575
3921.0286,2.817845455968745,35.570227032125466
3921.9307,2.8142913648206664,22.250724726339815
3922.835,2.8046682558359306,24.448202717048154
3923.7373,2.7944237373607206,22.402460077288335
3924.642,2.7879708158364216,20.071793413341272
3925.5452,2.7870619966322745,28.312283767647724
3926.448,2.790004115973336,15.545866312599365
3927.3535,2.7932166062342216,25.793213490153498
3928.257,2.7939177661031676,23.12082049526411
3929.1628,2.791702343994301,28.179135919620464
3930.0667,2.7875534979392365,22.482949901132237
3930.9731,2.7816344213337887,24.958101741539494
3931.8774,2.7722990235667915,25.578980243940098
3932.782,2.757279538427432,17.589381085579443
3933.6887,2.736569531761825,35.34379084154328
3934.5938,2.714275252462692,21.888692562353175
