wavl,flux,ivar
3566.9744,0.5302622686888718,892.551649053584
3567.795,0.5293978073453405,1315.938493421054
3568.6177,0.5287659120958511,1470.1197381583079
3569.4385,0.5283178784512078,2183.0934073953567
3570.2617,0.5274242012010155,1003.6478773942268
3571.083,0.5254422461279703,1127.1438565468436
3571.9065,0.522444909246767,1578.7422252820675
3572.7283,0.5194771346098191,1043.909148846988
3573.55,0.5179796745401639,690.9605710352355
3574.374,0.5189651578614054,1398.5373622846432
3575.1963,0.5224161919246365,1094.5510770422948
3576.0208,0.5273766307087838,902.1035050917601
3576.8435,0.5324966998633314,1036.839236664974
3577.6682,0.5366853635083246,1665.2006137133449
3578.4915,0.5391425694568842,680.3419345358565
3579.3145,0.5392865809959648,1184.6166086423377
3580.14,0.5367914500112845,1825.049642344024
3580.9636,0.531943759037329,1163.839203813208
3581.7893,0.5256894800862145,1061.0024128266043
3582.6133,0.5193217962329063,1531.869320996815
3583.4395,0.5138329539847343,1266.5901643265975
3584.264,0.5097974408269335,939.8128893858494
3585.0884,0.5074417086155573,855.8777609778049
3585.915,0.5069064739730941,1303.7460137649823
3586.74,0.5081944165162905,2126.1785260969273
3587.5671,0.5109300881313275,2584.4869750861667
3588.3923,0.5142055114711329,1163.4893203672782
3589.22,0.5168558477011014,852.8206191088491
3590.0457,0.5179197057744643,2111.0899135270497
3590.8716,0.5171035599293634,911.8967088682359
3591.6995,0.5147906813540702,1814.1336681558835
3592.526,0.5118932380608393,1127.221533365602
3593.3542,0.5096107614841306,1130.0095704528262
3594.181,0.5091024193272838,1112.504684022621
3595.0098,0.510792106098089,764.4435000920054
3595.8367,0.5138147386621043,1968.0949613789057
3596.6638,0.5163029218028647,817.9646722283846
3597.4934,0.5165158080692723,962.0159399191183
3598.3208,0.5139877387187237,1779.0909246009774
3599.1506,0.5097349631466994,2445.194565109561
3599.9788,0.505590168093211,921.7340528765125
3600.8088,0.5032116231322904,1074.891267637319
3601.6372,0.5034958477364649,796.4513465450244
3602.4678,0.5062337280192903,1248.5633196163644
3603.2964,0.5101550345456278,940.3321409197372
3604.1252,0.5135221748504745,944.9791663284977
3604.9565,0.5150547969210729,905.0363365593871
3605.786,0.5146983883368332,1853.380714426113
3606.6172,0.5136412213693778,2687.4665495038676
3607.447,0.5134778053095785,1817.6546349143155
3608.2788,0.5151571076053292,1808.7699449604363
3609.109,0.5184103565116245,1140.8098142385752
3609.9392,0.5219762505623313,856.2121378087965
3610.7717,0.524323216718216,1605.4254865286784
3611.6023,0.5244225935239322,2190.732674441271
3612.435,0.5222847131952233,956.9786095222524
3613.266,0.5190109498170549,895.1599079095322
3614.0994,0.5162569745608666,1768.250214914451
3614.9307,0.5152640557378787,1615.9382592801219
3615.7625,0.515881197244063,858.9742598859305
3616.5962,0.5166121034805974,763.6544091877852
3617.4282,0.5157819553529825,935.4534254869868
3618.2625,0.5129616712328618,1882.3788332851436
3619.0947,0.5093575972762222,1094.2847801307807
3619.9292,0.5067763613767658,1090.978546711091
3620.762,0.5062880971869361,1323.2214795163002
3621.595,0.5075715720215418,2198.4428722418743
3622.4302,0.5094430646633477,1142.1989524147775
3623.2634,0.5108243924920675,895.4809989639107
3624.0989,0.511415633067334,1223.3692763620666
3624.9326,0.511566714161271,1721.0441769009446
3625.7686,0.5117407846358085,1444.714933656454
3626.6028,0.5121030338631734,1234.0043211743005
3627.437,0.5125465641049393,1450.64398693898
3628.2734,0.5129476782901021,2499.5192397929636
3629.1082,0.5133510562746035,1028.9307760952393
3629.945,0.5139736156269251,1013.6771656091752
3630.78,0.5149954528802628,1463.8354053192327
3631.6174,0.516305097303186,1254.4175327871756
3632.453,0.5174352713468415,808.3504290199576
3633.2883,0.5179206303669369,2546.367307698495
3634.1262,0.5176808253152231,2586.850153948693
3634.9622,0.5170353585160788,949.7767412875711
3635.8005,0.5163378877368862,1096.7809552009273
3636.637,0.5157320187813738,1204.1169138897237
3637.4756,0.5152656856039506,1536.913662206373
3638.3123,0.5151520515353915,1759.355130522986
3639.1492,0.5157482407841492,777.1699757563833
3639.9885,0.5173057512333126,904.7318149019376
3640.826,0.5197757989161543,714.0997744401294
3641.6653,0.5229155495630908,1591.3014026144851
3642.5032,0.5263753976658351,867.188903429315
3643.343,0.5297086755010749,1208.608639433613
3644.1812,0.5322060506884544,1363.1961272648082
3645.0195,0.5330542733999297,1008.9549889610091
3645.86,0.5317087434768827,830.9805057989893
3646.699,0.5283202565767913,836.4885594419255
3647.5398,0.5236865586779893,791.6481123825993
3648.379,0.5188478426145914,1376.0332969093756
3649.2202,0.5145622787557476,1255.3267342119295
3650.0596,0.5113308520927521,1063.0124209106905
3650.8994,0.5095785816646914,1174.0815293485969
3651.7412,0.5098331153352206,2390.6292707282446
3652.5813,0.5124136017233618,1140.8977236574865
3653.4236,0.5169593566845585,1054.9070743068055
3654.2642,0.5222293352854663,1218.0934193028622
3655.1067,0.5266580574601273,871.925855562679
3655.9475,0.5291303650614599,1066.398991236992
3656.7886,0.5296541940153605,1156.679685244421
3657.6318,0.5292636115925248,930.7406290104608
3658.4734,0.5293762088071625,1271.1563489105292
3659.317,0.5309004277479183,1761.1814177972824
3660.1587,0.5336137029603875,1499.0102774920047
3661.003,0.5362480289912657,989.0825695523092
3661.845,0.53716548937727,976.724735162452
3662.6875,0.5353434533546504,1651.025899939034
3663.532,0.5310122936326199,1044.988978251215
3664.3748,0.5259520754177026,796.9362888628344
3665.2197,0.5231688051453721,1321.0806217480804
3666.063,0.526115277378986,2997.3488678463323
3666.9084,0.5372873966736401,1080.611824301071
3667.752,0.5565039449274778,1033.3607556521142
3668.5977,0.5799638901576313,1117.080492631365
3669.4417,0.6004462218984558,808.8087201427769
3670.286,0.6107425726301816,50.221289128219574
3671.132,0.607634060819809,2768.4119450976023
3671.9768,0.5939411194822344,1024.6328238200706
3672.8235,0.5761434368159922,1247.3688142946794
3673.6685,0.5601610717831758,966.2800138785187
3674.5156,0.5485385495306853,1021.6120636909548
3675.3608,0.5412495244315518,1351.2421956178314
3676.2063,0.53726666889408,897.1283377895597
3677.0542,0.5356536045085551,1376.7055112799676
3677.9,0.5355278547209061,1004.2743202184654
3678.748,0.5359998151191928,1455.1867574475698
3679.5945,0.5365257449504394,1505.388977435342
3680.4429,0.5371523686724979,1269.508723427948
3681.2896,0.5382092679371904,1405.9637979880863
3682.1365,0.5397506298968344,862.3216527896709
3682.9856,0.5413056059538961,876.3552715532394
3683.8328,0.5421362444384464,958.3074791540605
3684.6824,0.541780019851634,793.6446627814596
3685.53,0.5404236091856034,2253.5482604275285
3686.38,0.5388776871006711,1567.738037102778
3687.2278,0.5381092655323161,897.4001095725582
3688.0762,0.5385288861708537,925.3208317425044
3688.9265,0.5396140533787411,733.6292925264812
3689.7751,0.5401288380354606,1135.015164109659
3690.626,0.538911147961777,753.5627705653061
3691.475,0.5357329298502141,1582.8269125238382
3692.3264,0.5316498989793664,1202.3955161699669
3693.1758,0.5285468423772216,2436.188950951566
3694.0254,0.5278809920219906,12630.991064966896
3694.8772,0.5297301575636213,1449.3357725774224
3695.7273,0.5327843199140389,1706.497520866163
3696.5793,0.5353642260265025,1129.8847204802373
3697.43,0.5364313982448398,1181.0744425779508
3698.2825,0.5359947291981224,1107.0914949662003
3699.1333,0.5347661434142169,1296.7573294173699
3699.9841,0.5335034815089531,810.4559271878105
3700.8374,0.5324298287402754,1136.6629823916712
3701.6887,0.5311149519298493,1495.0994528424028
3702.5425,0.528922041027899,1614.2257858560597
3703.3943,0.5257343163806385,1008.2558059651933
3704.2483,0.5221342510253684,1372.4681848143243
3705.1003,0.5189715002713637,1088.6305551102316
3705.9526,0.516646272062093,1064.4413887378018
3706.8074,0.5150361465864938,2075.3522334589957
3707.66,0.5140189902566447,1097.500518469406
3708.515,0.513962768238895,1454.8453983312409
3709.3682,0.515611217305767,1672.713775246756
3710.2234,0.5193362516337607,1447.4824395561839
3711.0771,0.5244655786471156,960.2465673800946
3711.9307,0.5294958033930773,1297.7385008059439
3712.7866,0.5330056091767976,883.2624531389396
3713.6409,0.5345156455630569,1582.3429830656348
3714.4973,0.5346757168133733,1057.3295284269263
3715.3518,0.5345480153581457,1051.14085065579
3716.2085,0.5347325095535423,1107.4348657236678
3717.0635,0.5349725972738281,1048.7428662919328
3717.9185,0.5344916151803248,822.9287530065965
3718.776,0.5326729344490634,1187.209618356895
3719.6313,0.5295509696834932,1109.3290116778442
3720.489,0.5257241055419595,1405.4353945035455
3721.345,0.521973881640829,1339.030689120888
3722.2031,0.5187991125895592,1473.4111692454223
3723.0593,0.5164427597607922,1126.815903410087
3723.9158,0.5150763950384974,1592.6090494359291
3724.7747,0.5149270011286412,1876.1732129022628
3725.6316,0.5160132171121296,1593.3039175921817
3726.4905,0.5178762233282316,1900.3271307733773
3727.348,0.5196826462991392,1132.8789985518918
3728.2073,0.5206778754492094,1034.4336110039083
3729.065,0.5205239241417041,806.3585210111232
3729.9229,0.5194013121830298,1023.0338999571103
3730.783,0.5178721166828094,938.8042565811946
3731.6414,0.5166267045973034,1582.9498353972344
3732.5017,0.5160906354087396,918.2829494183864
3733.3604,0.5162098745496588,1710.3643294262702
3734.2214,0.5165926356512451,869.0521752000491
3735.0803,0.5169335198093998,1168.089793879966
3735.9417,0.5172930453101814,1214.6622522029902
3736.8013,0.5179353832897885,1009.966509986226
3737.661,0.5189072833243648,847.8650162381671
3738.5227,0.5197813998410084,2411.44345681329
3739.3828,0.5198964972234091,1146.4292639876394
3740.245,0.5190289615693885,793.927992578467
3741.1055,0.5179194294062774,1174.450699181137
3741.9683,0.5180561584091363,826.6396162705757
3742.829,0.5207007451182232,2189.426935297186
3743.69,0.5258623177559884,1193.5638262657872
3744.5532,0.532172162985931,1795.0574293347363
3745.4148,0.5376968943778357,871.92750194876
3746.2786,0.5411457038144587,922.8806650850523
3747.1404,0.5421650741805002,1598.145118412004
3748.0044,0.5409718350912799,1280.272546884883
3748.8667,0.5378151361666753,1700.6869413480517
3749.729,0.5329534857355188,987.9834582745235
3750.5938,0.5270126166093726,1235.2399974736486
3751.4565,0.521294139706156,1165.6615725823817
3752.3215,0.5173740120122059,1681.33982466035
3753.1848,0.516405887702319,1153.0017612593708
3754.0503,0.5183381332500319,1062.0554308789492
3754.9138,0.5219271340223404,983.9657778487854
3755.7776,0.5255531468291966,998.7074651398578
3756.6438,0.528131075427093,1171.530989271027
3757.508,0.5294165340551278,1440.9179189041188
3758.3745,0.5297385352824048,1191.1377729230896
3759.239,0.5295690264948412,1131.5279107407134
3760.106,0.5294039760021957,1542.3121789313761
3760.971,0.5297518106558623,1493.992652052877
3761.8362,0.5309832337210332,1169.0856238327635
3762.7036,0.5330870238719259,1029.6320698061356
3763.5693,0.5355087884959597,927.7507609106373
3764.437,0.5372993557895861,999.1032452106974
3765.3032,0.5374668327507849,1261.0398483291774
3766.1714,0.5355165868028308,1382.5999904802713
3767.0378,0.5317947276412806,1716.7742829449548
3767.9043,0.5273466664437174,996.9917436937416
3768.7732,0.523408977047171,909.3154250658962
3769.6401,0.5209157851860252,1367.1687562655325
3770.5095,0.5201714824201847,1638.005262165346
3771.377,0.5210108205637156,1421.7487169303342
3772.2466,0.5232544476937351,1776.2185291580358
3773.1145,0.5273312450538299,1519.6637397398497
3773.9824,0.5346133664034431,1415.3170485297273
3774.8528,0.5468146503598408,996.5660021854342
3775.721,0.5641035536225603,1182.4713461325189
3776.5918,0.5835279156949041,1004.4916696072198
3777.4604,0.5987957659450198,1107.1515718249477
3778.3315,0.6037863173628477,605.3318428019344
3779.201,0.5964337332535921,907.1930741310001
3780.0703,0.5802723807339012,1213.4688886367849
3780.942,0.5616333614028206,970.8130730117464
3781.8118,0.5458542096870271,1494.2963286356494
3782.6838,0.5351210246296711,882.8792093054254
3783.554,0.5294496663324896,1720.427756614761
3784.4265,0.5278403330497301,1783.6329644125587
3785.297,0.5289554305859274,1355.9645461281289
3786.168,0.531122378021766,818.0505609942716
3787.041,0.5326281707562044,1135.4161049312033
3787.912,0.5322033854345873,981.0384593886558
3788.7856,0.5294006518733099,1237.4412411650892
3789.6572,0.5246629120565804,1094.6713894546176
3790.531,0.5190625970821114,2179.877630346784
3791.403,0.5139600372505642,851.748497159989
3792.2754,0.510394251665437,1404.4918387167957
3793.15,0.5086879132473968,1223.15629163712
3794.0225,0.5082459955219614,1259.0786176258466
3794.8972,0.507679358100907,1031.3523146200644
3795.7703,0.5053755662761553,1147.0258547934748
3796.6455,0.5003484526326113,1072.3666977338721
3797.519,0.49308856717546645,1061.8894212623118
3798.3926,0.485573191396584,1242.8458367072462
3799.2686,0.48032613692731885,1286.389435291716
3800.1426,0.47901684524085675,1272.1637168005796
3801.0188,0.4815913519489955,1741.7524639249712
3801.8933,0.48678768370534004,1404.441326845384
3802.77,0.49334995664934633,1440.6063110526388
3803.6448,0.500644497254646,1205.015711261634
3804.522,0.5084939061829818,1316.5252736485334
3805.3972,0.5163754006018498,1423.5094430135118
3806.2727,0.5234092041368984,1195.7146116394879
3807.1504,0.5287817766863359,881.0526097065133
3808.0261,0.5321917725706279,989.1888049575732
3808.9043,0.5338334814105372,709.982907811626
3809.7805,0.5338730739240012,1310.2234992510985
3810.659,0.532285078397497,976.0488666928613
3811.5356,0.5291804646202195,1007.5004971073978
3812.4126,0.5252631230495751,1214.0521428289371
3813.2917,0.5218160896299522,1167.8886115025555
3814.169,0.5200631528108746,1813.6562346738554
3815.0483,0.5203640741906947,1132.4531812521084
3815.926,0.5221239717839207,928.2699180013419
3816.806,0.5244063730837732,982.4355171774049
3817.684,0.5266376078672925,1470.0379934644384
3818.5623,0.528808076127559,1083.8527193844834
3819.4429,0.5310154805058783,1083.04221878297
3820.3215,0.5329231010089598,1588.7904550312996
3821.2024,0.5337463258028545,1276.0473821087148
3822.0815,0.5326926875447755,986.5201970659115
3822.963,0.5295032424340996,1429.8498580623373
3823.8423,0.5246221851460955,1390.7247248455826
3824.722,0.5188865802087778,1076.5379889320948
3825.604,0.513179084118659,1342.2511313351367
3826.4841,0.5082663502033336,992.5204769874409
3827.3665,0.5045809483354925,1308.8484237746877
3828.2468,0.502123675421395,1424.3185998432068
3829.1296,0.5002556642109925,1519.7603175672339
3830.0105,0.49797296494166743,1090.1145250534794
3830.8916,0.49444583798976016,942.5967616493022
3831.7751,0.48944227735894685,1286.1857336224214
3832.6565,0.48319762626847146,1237.9443999054834
3833.5403,0.47581178431180876,1375.4926369367793
3834.4224,0.46732966640381485,981.6328870610675
3835.3064,0.4582860832328011,1677.2707657984643
3836.1887,0.45044904240012135,2139.3593355341663
3837.0713,0.4461905874770799,1608.4299733319806
3837.956,0.4470967734287935,3581.417495263903
3838.839,0.4528338702193164,1777.9030993561146
3839.7244,0.461585576563385,1206.385395650523
3840.6077,0.4713938378447887,2059.3164928157985
3841.4932,0.48133118973417627,1135.413543136523
3842.377,0.4912514590275816,973.4547324438453
3843.261,0.5012642050342442,1081.7842969350572
3844.1472,0.5111622659724558,1546.373018409854
3845.0315,0.5202809336892007,1449.6640552304618
3845.9182,0.5279068879672675,1080.536340622314
3846.803,0.5334967025890291,1195.5409721586182
3847.69,0.5370762766691333,1123.112488118319
3848.5752,0.5390219499723883,1261.4995147098703
3849.4604,0.5397636115338784,1044.2184904538183
3850.3481,0.5395235930508862,996.7782253015125
3851.234,0.5384699697901515,1126.320073457296
3852.122,0.5370247389543199,1295.2589221445355
3853.0083,0.5360010848883101,1291.0578527296016
3853.8967,0.5363304262968157,1029.7568557438783
3854.7832,0.5385818929591716,1901.1007604604904
3855.6702,0.5425802637291698,1581.229103293187
3856.559,0.5474631829428773,988.3996072524116
3857.4463,0.5521759832228855,1068.4107146375802
3858.336,0.5562241492415815,1083.0033183686132
3859.2234,0.5598675306880193,1158.569232825789
3860.1135,0.5637607207737353,1078.6330592182298
3861.0015,0.5679716283351318,1245.5330463730454
3861.8896,0.5714978787433007,980.9762997612296
3862.7803,0.572664636691156,1666.3542498942086
3863.6687,0.5703657250225745,1745.3184326219987
3864.5598,0.5650508457579825,1021.0697826437331
3865.4487,0.5586381232510557,1307.1271981287737
3866.34,0.553338472221083,1036.8703511156316
3867.2297,0.5506369440902669,868.8872215730544
3868.1213,0.5506868389016384,977.5212575545178
3869.0112,0.5524784498865174,1161.8426176783084
3869.9014,0.5543573739833128,1133.234857195078
3870.7937,0.5547485653102222,813.4700175002706
3871.684,0.5528124248125454,829.829199664521
3872.577,0.5487088754999258,856.2842749459263
3873.4678,0.5434171137716768,973.198092867968
3874.361,0.5381672819267014,944.6796555166318
3875.2524,0.5340106333453358,840.5248341220226
3876.1438,0.5313138240660535,4096.796980716852
3877.0376,0.5295999693856875,1396.1939769358517
3877.9297,0.5277180408356912,1529.7219859073264
3878.8237,0.5243986797451006,1693.974926733741
3879.716,0.519040194975653,742.230624352727
3880.6108,0.5120445397726255,1291.5783166900426
3881.5037,0.5046203306177736,2646.785053990864
3882.3965,0.49783036916831325,1266.4173520487018
3883.2917,0.4918595090731557,1419.8532796001784
3884.185,0.48589553617249764,1913.7707903238786
3885.0808,0.4785303943953374,1146.5392312519573
3885.9746,0.4687194034794357,1368.5345705250838
3886.8706,0.4563524350065261,1268.7663868988457
3887.765,0.44274499232952,1622.6023242276608
3888.6592,0.43019675529691925,1894.4882478543816
3889.556,0.42129889851135616,1918.1935097092835
3890.4507,0.4180443657190984,2689.5188834001706
3891.348,0.4209765529434043,2010.6434070792309
3892.243,0.4290389984888185,2023.904168027792
3893.1406,0.4400263896660003,2040.138250271197
3894.0361,0.4512787326426616,1351.2735684545216
3894.932,0.46079940258203134,1723.0395372929402
3895.83,0.46775068689726973,1264.5974362082877
3896.7263,0.47245511647301397,1693.7305376011986
3897.625,0.4760646753208286,1514.9599109579085
3898.5215,0.479880786922836,1429.8627099399973
3899.4207,0.48505252472334126,1631.1951417341454
3900.3176,0.49231194409664786,2230.7598115078345
3901.2148,0.5019463660651031,1442.5218974814711
3902.1145,0.5136553779994285,1309.960076015794
3903.0122,0.5264795499721864,1064.7340145253474
3903.912,0.539323922968084,973.4565887404559
3904.8103,0.5511693075907044,1102.2027363012378
3905.7107,0.5615442736854576,1855.8254548491873
3906.6094,0.570296037779013,823.4385336638625
3907.508,0.5775431653341813,731.508476909293
3908.409,0.5833512606921358,1191.8487498835402
3909.308,0.5875575112507282,1017.5825133868781
3910.2097,0.5899530481441853,1046.0896523194892
3911.1091,0.5905240866550807,721.7082386250761
3912.011,0.5897046567101611,1733.3987723973107
3912.9111,0.5881634384440424,853.3648709716276
3913.8113,0.5863649711990718,749.4672940711689
3914.7136,0.5843828648923918,1077.7086918574364
3915.6143,0.5821980789309534,1020.108746496664
3916.517,0.5800523987240525,867.4808512059211
3917.4182,0.5784822647422223,1162.9028729852673
3918.3215,0.5779152109574359,1066.8435741960834
3919.223,0.5784248190611808,1055.1483160900643
3920.1245,0.5798169814914115,745.9590978687654
3921.0286,0.5818491604479465,1039.0609054467918
3921.9307,0.5842149234296754,854.2158153537255
3922.835,0.5865289440467171,1281.493971312978
3923.7373,0.5884626091212691,805.349463913483
3924.642,0.5900645242966717,1026.2078781790008
3925.5452,0.5917210198122174,833.5734476204208
3926.448,0.5938391073046785,868.2601260870352
3927.3535,0.5965217032307282,933.5000011980792
3928.257,0.5995096199635157,848.2092115582491
3929.1628,0.6024026678160769,740.8370136233193
3930.0667,0.6047886927211163,700.631786157699
3930.9731,0.6064286966767901,732.5904225260659
3931.8774,0.6072824153071824,1015.2221902381749
