wavl,flux,ivar
3566.9744,17.717808470852436,31.252968279285724
3567.795,17.68793994869022,29.6818107584593
3568.6177,17.664596300007485,28.614364746782684
3569.4385,17.643628398410424,28.65355477834256
3570.2617,17.62424646581191,31.347075185670352
3571.083,17.610893839882056,31.34131300385658
3571.9065,17.60861269170796,31.21204913424593
3572.7283,17.61729770127022,28.90788067165016
3573.55,17.629901484686286,30.18190951792905
3574.374,17.636830345649667,29.221555286971295
3575.1963,17.63233935496951,30.991119743187625
3576.0208,17.61797640442694,30.82029362133788
3576.8435,17.60060474306675,29.69028750250921
3577.6682,17.58673024285111,29.963489260016495
3578.4915,17.57821745230017,29.69418942850358
3579.3145,17.571731925751124,29.186495186535698
3580.14,17.56214610278755,31.741458978953652
3580.9636,17.546410381123366,30.0653713667389
3581.7893,17.525066672668114,27.188487983837316
3582.6133,17.50175862377905,30.24545059937219
3583.4395,17.48037183208692,28.9415667990367
3584.264,17.462275595502973,30.556562860164235
3585.0884,17.444233781423684,29.904932561473775
3585.915,17.420325136294938,30.140782354400052
3586.74,17.386918561188864,30.58780268556611
3587.5671,17.346234354967713,30.689669772984136
3588.3923,17.306519723255647,31.15912272388832
3589.22,17.276585800832827,34.09572276419897
3590.0457,17.261321217727904,29.873421446235273
3590.8716,17.259011254390604,30.368909978263318
3591.6995,17.263279224705222,31.753897925156213
3592.526,17.266138618093287,30.96404223253534
3593.3542,17.26107877282648,30.53542847522314
3594.181,17.24532059467143,30.608464147731876
3595.0098,17.220774927720743,32.46081502683901
3595.8367,17.19365461912139,30.052657998232906
3596.6638,17.171544286426062,30.826552283690926
3597.4934,17.160279253284866,32.048341669715526
3598.3208,17.161396837116893,33.54538276242576
3599.1506,17.17151456146634,29.9094894020464
3599.9788,17.184190951223776,31.78771804099156
3600.8088,17.19305881140115,29.61544747072392
3601.6372,17.19413749499722,33.57883456259368
3602.4678,17.18678720581131,32.73600231674368
3603.2964,17.17294258715419,31.375786658872453
3604.1252,17.15516872356614,32.1681802278359
3604.9565,17.13440117299879,33.01149431716029
3605.786,17.108626975900616,31.629628973377745
3606.6172,17.073163785979496,30.53235134606576
3607.447,17.024415688941374,32.6971646671466
3608.2788,16.96308692860536,33.45494727394007
3609.109,16.896381348113593,31.80695449307023
3609.9392,16.834772594546852,35.59916991409921
3610.7717,16.788078218720962,34.57407167135513
3611.6023,16.762145642851365,32.783114177084926
3612.435,16.756826061396286,33.56365555598515
3613.266,16.76706783047933,33.111702713096875
3614.0994,16.784649323392507,32.058669635402225
3614.9307,16.80107887702049,33.08378492652154
3615.7625,16.811124216369482,33.34511153290195
3616.5962,16.814320005573933,33.31327569828692
3617.4282,16.813924290221937,33.1109548540142
3618.2625,16.81379543595313,31.453960050381923
3619.0947,16.815529521032733,32.38532061115773
3619.9292,16.81803374870465,32.22575189553748
3620.762,16.8193833847748,31.514796906279823
3621.595,16.818949781765976,32.6504400631292
3622.4302,16.81773430643332,31.839893463851443
3623.2634,16.817208314853687,31.518401745647996
3624.0989,16.818204749292217,34.18114776528161
3624.9326,16.82079890733395,32.97501894480321
3625.7686,16.8245166055175,32.15012703911652
3626.6028,16.828071264971346,32.653858296141124
3627.437,16.829360150782925,34.21702113806213
3628.2734,16.826511180766744,32.52635176053234
3629.1082,16.81963841716003,31.912528829192524
3629.945,16.811145008893742,32.68680531701793
3630.78,16.803910620297213,32.437978379695735
3631.6174,16.79867400848562,32.41910602647356
3632.453,16.79372540670258,33.06243009181241
3633.2883,16.78684456578386,31.365310152303632
3634.1262,16.777692054245136,32.443057471286394
3634.9622,16.768187210295405,33.802926261076465
3635.8005,16.76035752278588,32.46529046172807
3636.637,16.75443762835185,32.29740654008893
3637.4756,16.748692675430725,32.261038804375964
3638.3123,16.741325164236844,33.458413064615335
3639.1492,16.731727179494168,31.77369102953065
3639.9885,16.720210408748883,33.88707108957104
3640.826,16.70728817499889,32.75588068765892
3641.6653,16.69365219881174,33.71554439753311
3642.5032,16.681349146166212,32.331555457651206
3643.343,16.673692398749008,32.78769331556257
3644.1812,16.67405823740526,35.31104474664639
3645.0195,16.683893785100643,32.72003089340319
3645.86,16.70186232770564,32.531174780158096
3646.699,16.723997621691463,30.49630494772724
3647.5398,16.745305103469477,33.335530410919226
3648.379,16.760970852600426,33.399420678456515
3649.2202,16.768033759814784,32.92349418409242
3650.0596,16.76613538160508,33.7542507301535
3650.8994,16.758026913408717,31.72642138432865
3651.7412,16.748536375208644,33.5729987360015
3652.5813,16.74227143150361,32.21345316386622
3653.4236,16.740782505879757,33.24594178806416
3654.2642,16.741771681119936,32.24674217599986
3655.1067,16.741030823330412,32.502623969216366
3655.9475,16.735923311439016,33.19187976475288
3656.7886,16.72732864765618,34.18818852427211
3657.6318,16.718297640619927,33.45076511841636
3658.4734,16.710862620834156,34.99822702544977
3659.317,16.703996693826294,32.42709642719458
3660.1587,16.69517431158697,31.783628942791474
3661.003,16.683317306875303,33.54420740741213
3661.845,16.670461203535908,32.93271518410073
3662.6875,16.66015195100618,33.9697948620375
3663.532,16.654972519918562,33.33033212418458
3664.3748,16.65475199983619,33.80454921127048
3665.2197,16.656323243308034,33.924547686884225
3666.063,16.654884825952003,34.09263340770542
3666.9084,16.646334850396624,32.90203930039487
3667.752,16.62935820645612,33.4808174623932
3668.5977,16.60544109990308,32.46435191549602
3669.4417,16.577690095892606,33.75795952829283
3670.286,16.548977931244465,32.98719562180951
3671.132,16.521685584254186,35.071353156077066
3671.9768,16.498053026067954,34.18169037098746
3672.8235,16.479719682286916,33.31718092932512
3673.6685,16.467623678711554,37.62898096753091
3674.5156,16.46127812737429,33.383338675424945
3675.3608,16.458964100118486,34.95133834605983
3676.2063,16.45819792464904,34.015749397636505
3677.0542,16.456994955866456,34.17162794664229
3677.9,16.454971601165244,33.35646618688593
3678.748,16.45338215879968,35.337288340648044
3679.5945,16.453971494166993,33.61246253090509
3680.4429,16.457437028852986,37.09187591500062
3681.2896,16.462581676036045,33.44474436343379
3682.1365,16.466641175263472,34.33311964264041
3682.9856,16.46658390446799,34.597918269718534
3683.8328,16.461046897383678,34.432961938766105
3684.6824,16.451592012699503,35.38501196563159
3685.53,16.44203237489093,35.9674515730311
3686.38,16.435486371735085,34.12342147219103
3687.2278,16.431902872413424,32.38251044828503
3688.0762,16.427802937693365,33.43633447213381
3688.9265,16.418600723947765,32.994925515183894
3689.7751,16.40121374391903,33.04578687486917
3690.626,16.375088093675284,35.25443309869456
3691.475,16.342591429613513,32.185112477099295
3692.3264,16.308089791571838,35.613959558925885
3693.1758,16.27736404493297,35.452575898386826
3694.0254,16.255019878303504,35.44687464709516
3694.8772,16.242590383385455,36.37366241242758
3695.7273,16.237247045334993,33.817772633203944
3696.5793,16.232318678551028,34.375930084534694
3697.43,16.220438896501367,34.21340448347352
3698.2825,16.197399401655158,33.14528545987361
3699.1333,16.16473344851317,37.914657250636935
3699.9841,16.128264896293405,36.389826762192044
3700.8374,16.09468191370885,36.28179033789186
3701.6887,16.068862213373567,34.465236839521886
3702.5425,16.052296378929928,36.65353928497517
3703.3943,16.043996334842454,34.49096286293789
3704.2483,16.040959704161487,35.4667895006606
3705.1003,16.039473082084683,35.41608792928068
3705.9526,16.03647734462518,36.91065601434826
3706.8074,16.03091239254436,34.45578470097822
3707.66,16.024110807046725,36.79337136454497
3708.515,16.01856925120136,37.66517161941524
3709.3682,16.01618310616434,35.74437868089323
3710.2234,16.016911206494523,35.1422586400152
3711.0771,16.018959559488376,36.46725839771455
3711.9307,16.019926198323216,35.08440259487319
3712.7866,16.018219660776847,35.265953023327114
3713.6409,16.01396938911168,37.81464113371494
3714.4973,16.00853198037224,37.60799831562904
3715.3518,16.002831094418326,38.2696641184315
3716.2085,15.99578440926571,35.44540591577468
3717.0635,15.984691686230759,35.45543931862499
3717.9185,15.966984529853166,37.04451528744972
3718.776,15.942135873871845,35.6894471079808
3719.6313,15.912673390618732,36.617601043870714
3720.489,15.882834180703226,37.09985486905979
3721.345,15.856970059660068,37.09340663604467
3722.2031,15.836835800870151,35.62132179179752
3723.0593,15.821222947208899,36.963986904769165
3723.9158,15.806798143161775,36.84818643360172
3724.7747,15.790515950296262,38.291492634351776
3725.6316,15.771343520679553,36.93574158063129
3726.4905,15.750097700839202,36.80528959185059
3727.348,15.728972386019883,36.99042998089123
3728.2073,15.710446846294918,38.74230618361394
3729.065,15.697081634829194,36.01204827090922
3729.9229,15.690432113181,37.69705463067329
3730.783,15.690104282975096,38.73665815878026
3731.6414,15.6932962688033,38.29743012962835
3732.5017,15.69610026184114,37.108573651377284
3733.3604,15.695813420793053,37.102096739947754
3734.2214,15.692347476084453,39.7603089270363
3735.0803,15.687600993767756,38.24857949795128
3735.9417,15.683657283052506,37.648715243189145
3736.8013,15.681660849089795,38.06055607809178
3737.661,15.68155145483686,35.498548104669545
3738.5227,15.682329701421988,36.498450837875254
3739.3828,15.682456244168453,37.62711249052108
3740.245,15.680775410134787,37.14915244823573
3741.1055,15.677579243567076,36.677378104548595
3741.9683,15.67459662990558,37.98974598916375
3742.829,15.673626083291436,37.7532623533403
3743.69,15.674881963689133,38.04373750972547
3744.5532,15.676716561280061,37.74839814198759
3745.4148,15.67651836768844,39.4282957604432
3746.2786,15.671864920655201,35.787417449245616
3747.1404,15.661336029728698,37.486627401437964
3748.0044,15.6449254468618,38.90590398504927
3748.8667,15.624361332023913,37.80864016630589
3749.729,15.602303372340208,38.852055227214414
3750.5938,15.58140062546413,39.066708972132616
3751.4565,15.563730968856209,39.00095684007209
3752.3215,15.550159712674445,37.326334539463474
3753.1848,15.54056126969583,36.513757797375575
3754.0503,15.533644999783366,39.32074479671288
3754.9138,15.527784537608463,37.4612035205258
3755.7776,15.521855228374783,37.55846674205996
3756.6438,15.51569819891122,38.46054958932326
3757.508,15.50969015265331,38.69440354939388
3758.3745,15.503966402251159,38.145664468100115
3759.239,15.498350082264952,38.197026138291065
3760.106,15.492348600015465,38.036563306684236
3760.971,15.485148633805458,39.36526967106734
3761.8362,15.475267547230414,38.640120772419685
3762.7036,15.460892445871238,37.72339649167479
3763.5693,15.441083526712028,38.1703903452016
3764.437,15.416494396813688,38.77355272000891
3765.3032,15.389558653692822,39.31285930196954
3766.1714,15.363021277576026,41.35570229529252
3767.0378,15.339234563849143,37.88884398543142
3767.9043,15.319268144667227,41.96157070767043
3768.7732,15.303194698273531,38.57101239266925
3769.6401,15.290900300125266,41.92089486999984
3770.5095,15.2830385144636,39.377512424562056
3771.377,15.282234198284202,40.71796088359438
3772.2466,15.2924583263411,39.697853271882906
3773.1145,15.316744399814654,39.44716878132931
3773.9824,15.354519735700803,39.05980845291582
3774.8528,15.400595285378147,39.40364505706873
3775.721,15.446498162890821,38.56351334168454
3776.5918,15.485242283142986,38.56700861616351
3777.4604,15.513567998521875,39.01438218006655
3778.3315,15.532864836139947,39.446045989884674
3779.201,15.546053799761427,38.47552216858431
3780.0703,15.555480293027335,38.84690133173471
3780.942,15.561893703766845,38.559372924992395
3781.8118,15.56469850416571,37.683711233275105
3782.6838,15.562269444438183,36.66884958820508
3783.554,15.55214773441866,38.86064324409831
3784.4265,15.531865347380702,37.46014140496673
3785.297,15.50069469182328,38.80251870416558
3786.168,15.460367105172903,37.91570048200994
3787.041,15.414614769511589,39.320845550204474
3787.912,15.367566514991447,38.677967090698715
3788.7856,15.320814132117212,40.99798759539262
3789.6572,15.273634132679774,38.8600899024715
3790.531,15.223344418743974,40.349273214934655
3791.403,15.168421237412236,38.80272194773732
3792.2754,15.108973232945813,42.70315983008681
3793.15,15.046483466997616,41.43804816250246
3794.0225,14.982948115842516,43.273097896151164
3794.8972,14.919635031557815,41.024197837958624
3795.7703,14.859680466556961,41.34429410112104
3796.6455,14.808289708787106,43.09573270493162
3797.519,14.772961123502766,44.54745546497465
3798.3926,14.759869407899604,42.1569485270459
3799.2686,14.771807754040333,44.39384600627912
3800.1426,14.807199121094742,42.93383043128341
3801.0188,14.861584295497487,41.395521689370675
3801.8933,14.92888934244891,42.63240034456494
3802.77,15.003724623357062,40.13564908509613
3803.6448,15.080765739660096,41.45149613268032
3804.522,15.15609586379978,41.09939443561391
3805.3972,15.225623382796083,43.556127407135726
3806.2727,15.286632504897952,39.54727092096594
3807.1504,15.337757084614944,39.484441570715184
3808.0261,15.379421982247019,38.21954096277795
3808.9043,15.414522468247828,38.96974492391818
3809.7805,15.446112260939575,38.783479125614065
3810.659,15.47606927837614,37.89212263579016
3811.5356,15.503404500868918,38.61096944408021
3812.4126,15.525474119625532,38.92266101701425
3813.2917,15.539372757904939,37.5967948496813
3814.169,15.543044024719377,38.394979382927445
3815.0483,15.535643048779397,39.29908918545399
3815.926,15.51736093424139,37.79430678069197
3816.806,15.489382389969297,37.15774969222596
3817.684,15.454017510013896,39.044436041538816
3818.5623,15.413362587253452,39.681547436418384
3819.4429,15.368155856727576,38.955544260231676
3820.3215,15.317920960078748,39.54308168432958
3821.2024,15.26109181356138,40.09986844006035
3822.0815,15.197220520872195,39.74318585234506
3822.963,15.126560417237425,40.42231285431238
3823.8423,15.051034624465334,40.43926691393921
3824.722,14.972364838268529,41.70915277496852
3825.604,14.891440241067153,41.811626288839044
3826.4841,14.807914494331689,42.765167568248444
3827.3665,14.718505263698095,43.059111599623755
3828.2468,14.61960859756648,42.79161184398384
3829.1296,14.507561100851143,44.06342803954516
3830.0105,14.382593920120568,44.54944396286702
3830.8916,14.247581565016814,47.00219276778688
3831.7751,14.107822995122417,46.57869731575416
3832.6565,13.97086832079668,49.355624186198305
3833.5403,13.84372332738863,48.442062599941785
3834.4224,13.736426847097563,50.19332487849584
3835.3064,13.65996362217896,51.41435535708068
3836.1887,13.62609114007577,50.32588610110959
3837.0713,13.64236171641549,53.4047449799886
3837.956,13.70967494642438,50.37767238692502
3838.839,13.82049291898402,47.86535150650208
3839.7244,13.962156022809618,48.92985489264511
3840.6077,14.118776794854563,46.43508319253312
3841.4932,14.27748757383378,46.990635458736556
3842.377,14.428319910889288,45.80322366988643
3843.261,14.56777852205215,42.5078616559587
3844.1472,14.697050692921964,42.47492908115077
3845.0315,14.819019842911864,42.87893963482046
3845.9182,14.937747057395212,42.24530493932173
3846.803,15.054591691598125,41.699193840808825
3847.69,15.170730288577904,39.99726592319029
3848.5752,15.285499784947623,38.62364369168083
3849.4604,15.39781754581449,38.584372142564064
3850.3481,15.504895593428213,38.74365113959641
3851.234,15.602382006512544,37.74135661616845
3852.122,15.688829543353577,36.472968980673016
3853.0083,15.765358152885247,38.0083506596472
3853.8967,15.835890136558616,37.61377053609565
3854.7832,15.902646438808768,36.05776747183438
3855.6702,15.96595739311117,36.23677516672436
3856.559,16.024585037275028,37.09488124009608
3857.4463,16.07683731197369,36.79069868963843
3858.336,16.121433991945977,35.24309918326671
3859.2234,16.15594820452127,35.248242603880115
3860.1135,16.177905726260178,34.525750829666855
3861.0015,16.185467622935718,35.871002350163295
3861.8896,16.17935886433812,36.25042836830736
3862.7803,16.162682492713035,34.99004964936666
3863.6687,16.139739388299763,36.19598252282613
3864.5598,16.113417231970832,36.62829658680367
3865.4487,16.08404461128202,34.867697083718944
3866.34,16.04884758763799,37.02761589685537
3867.2297,16.003939122378686,36.39802205953502
3868.1213,15.945263597559824,36.961763346787315
3869.0112,15.870593744336503,36.40418400021925
3869.9014,15.779525627724412,35.82468055556035
3870.7937,15.673841689023059,37.17069088484901
3871.684,15.557358857329575,37.69007740199227
3872.577,15.432162664133847,40.07904739822903
3873.4678,15.299353322631402,39.0379522673193
3874.361,15.156649544998235,39.827651096481894
3875.2524,15.002316777338589,44.671171136557476
3876.1438,14.83431327707172,40.08262240849312
3877.0376,14.652244023834239,43.958909657953754
3877.9297,14.459565267619348,42.59876963520431
3878.8237,14.260152968566109,44.47240624921041
3879.716,14.059572876028158,45.59907744944093
3880.6108,13.859106249826489,48.622455968032355
3881.5037,13.65786833338909,49.83651392951567
3882.3965,13.45049755921336,49.842707351331505
3883.2917,13.231672825509815,52.686198512810904
3884.185,13.001492825348963,54.88118244054386
3885.0808,12.763335395514334,54.804305736943036
3885.9746,12.527760651878603,60.115164624915394
3886.8706,12.306359341384674,63.12283158197849
3887.765,12.114800843338461,61.52634519854711
3888.6592,11.968615997951405,66.61464273167199
3889.556,11.883319610401006,69.66657662498392
3890.4507,11.871254591717651,70.07452194048216
3891.348,11.936214016876274,68.89451311985243
3892.243,12.07131564522418,65.73330169850038
3893.1406,12.261934058328151,62.91851001911469
3894.0361,12.487756028839,58.64729305556703
3894.932,12.731732745071854,58.84593163223224
3895.83,12.982584038978997,56.42161275542304
3896.7263,13.233466731579194,52.37853536218497
3897.625,13.484158969845273,52.10729775541283
3898.5215,13.732964978749134,47.694184850787316
3899.4207,13.979817159021641,46.75045889419118
3900.3176,14.220799989043563,45.273244726829695
3901.2148,14.454003322947703,44.22393950710565
3902.1145,14.678591822724252,43.466978613622516
3903.0122,14.893793066498246,40.3950985119027
3903.912,15.102124117216471,40.66951239244243
3904.8103,15.304139030363975,39.72516323854942
3905.7107,15.50085121008735,38.40017963406194
3906.6094,15.689775931811155,38.714515143557506
3907.508,15.868634346163905,36.10743173627742
3908.409,16.035570441096727,35.75539342118395
3909.308,16.18927900839955,36.84457797993902
3910.2097,16.331940547878204,34.190780385455064
3911.1091,16.465628688527733,33.458907806669494
3912.011,16.593774471230265,34.10101152350068
3912.9111,16.71718823385597,32.634102313337436
3913.8113,16.83595188990294,34.44653411705127
3914.7136,16.94947121293771,31.442674533919753
3915.6143,17.056691402247516,32.09960479653348
3916.517,17.15796755930982,31.43845945710328
3917.4182,17.25281619576683,29.859891583604053
3918.3215,17.34173878915607,30.431408203553953
3919.223,17.425017664525058,30.50585466610341
3920.1245,17.503966913062474,30.480650499545302
3921.0286,17.579199503171964,29.767350307497754
3921.9307,17.649301036913545,29.465486181635487
3922.835,17.712285502461828,29.778449621896122
3923.7373,17.765185896574213,28.72391380860648
3924.642,17.806063559862427,28.769655285755938
3925.5452,17.833878510817165,27.80429181677225
3926.448,17.849983127115955,28.687193103729864
3927.3535,17.85763742084858,28.91520983179079
3928.257,17.86046900811816,29.98224918263241
3929.1628,17.860456687086966,29.745547710221334
3930.0667,17.856679553386858,28.96079076684239
3930.9731,17.84588870994247,28.9411779100273
3931.8774,17.824433103391563,29.25278689555281
3932.782,17.789890172158785,28.229606971451588
3933.6887,17.741700503624383,29.734452509456506
3934.5938,17.680911565706978,28.861882581434386
3935.501,17.608268085502942,29.82572577781789
