wavl,flux,ivar
3566.9744,15.376903226924217,5.014350680155488
3567.795,15.388646328620725,4.151584387687381
3568.6177,15.378936522601672,4.559574355738082
3569.4385,15.33925016056996,5.078707489820357
3570.2617,15.272661641623538,4.312027788827349
3571.083,15.19385748307638,5.270014100542573
3571.9065,15.123588454523928,3.900972253844734
3572.7283,15.082538906167573,4.997024449418669
3573.55,15.080597851650866,5.696213529787557
3574.374,15.11105765764831,5.0607508654531514
3575.1963,15.153113680561761,4.7235423008792585
3576.0208,15.185580569112684,4.195316572847803
3576.8435,15.199522354452586,5.964824775423849
3577.6682,15.200304632802649,4.582386886341709
3578.4915,15.197286726754049,5.310014328565872
3579.3145,15.194232866434032,4.7636431352567765
3580.14,15.189109425200881,4.30209396952358
3580.9636,15.179855068375911,5.4564187662022885
3581.7893,15.166427703355007,5.394731385993781
3582.6133,15.147627821493373,4.675876721859315
3583.4395,15.118567631796724,4.881175974521265
3584.264,15.07425114492511,4.629323565617856
3585.0884,15.01438008890868,4.738692036416187
3585.915,14.945232647781076,4.71395352024984
3586.74,14.877827598627638,4.969466336728407
3587.5671,14.822471766020369,5.024760638366766
3588.3923,14.786220159449448,6.605151504119996
3589.22,14.76991267076572,5.023014789892545
3590.0457,14.769004848974841,5.181951755099489
3590.8716,14.774950184765359,5.058364967894143
3591.6995,14.778288622545599,4.597937029952448
3592.526,14.771821961518294,4.872066361954018
3593.3542,14.753046455851214,4.117509902599733
3594.181,14.72417751296978,5.898446239000663
3595.0098,14.689177126584857,5.229490824931376
3595.8367,14.651780152650456,4.862618559438736
3596.6638,14.615022434166713,5.447623505803088
3597.4934,14.583290508428504,5.751134408693069
3598.3208,14.562905381505189,5.375780545073628
3599.1506,14.558892271449361,5.4056799850859
3599.9788,14.571121571094551,5.197793677887128
3600.8088,14.591882591644538,5.043335210385853
3601.6372,14.608489281008124,5.466905651655771
3602.4678,14.610409311866162,4.810719796551963
3603.2964,14.59507712604594,4.979787348536632
3604.1252,14.568635087009843,4.990828462791692
3604.9565,14.541613529703623,5.70457480052749
3605.786,14.523667960021083,5.090013466755404
3606.6172,14.518575315956587,5.145227544591981
3607.447,14.522327380874211,5.2362236392162975
3608.2788,14.524627735319111,5.021856396655754
3609.109,14.514824261280486,5.8406833454865135
3609.9392,14.488653099209735,5.561476089248686
3610.7717,14.450307360741473,5.0209926990783975
3611.6023,14.408975256953008,5.383445085494284
3612.435,14.372279598879649,6.330155806272848
3613.266,14.343988753008876,5.405878898736456
3614.0994,14.323595717531616,5.426097119460653
3614.9307,14.307889299308892,5.390467920867143
3615.7625,14.291772357202522,6.287547793419968
3616.5962,14.271123895792122,5.5388562403078385
3617.4282,14.246388549658954,5.9088393587135535
3618.2625,14.22309209083134,5.236547463158709
3619.0947,14.208461112561082,5.626454573578458
3619.9292,14.205356299335017,5.9083567227526155
3620.762,14.209832835488285,5.140363542738864
3621.595,14.213342344270753,5.2915711812441355
3622.4302,14.20798609865919,5.529869758991483
3623.2634,14.191166788031389,5.302258084777953
3624.0989,14.166545545950134,5.599788873131528
3624.9326,14.141007391317132,6.198833714941389
3625.7686,14.118819088697803,5.913277500060812
3626.6028,14.099176724432072,4.963321181170891
3627.437,14.078192377164394,5.264888308793212
3628.2734,14.05399971834693,6.041536278362762
3629.1082,14.029423812186314,5.943425934395215
3629.945,14.009436016524077,5.980376133118704
3630.78,13.997363554453887,5.514690255532638
3631.6174,13.992340798835908,5.554496580558516
3632.453,13.990784278335369,6.079270036195303
3633.2883,13.988872689095018,5.905510536827303
3634.1262,13.983994397896273,6.318489065388697
3634.9622,13.974694852862916,4.957913323158545
3635.8005,13.960340509217428,6.0899728009806555
3636.637,13.941308451391341,5.628969655724339
3637.4756,13.918183118750848,7.416195732210702
3638.3123,13.891612397416106,6.527285253232919
3639.1492,13.86261841784794,6.565666952340462
3639.9885,13.833850645501071,5.032393669065062
3640.826,13.809263376908184,5.527530002253674
3641.6653,13.791618621755333,6.100327361739146
3642.5032,13.781921379455722,5.952535387377449
3643.343,13.779778248314567,6.573892972139562
3644.1812,13.783848414398832,5.840903822847167
3645.0195,13.790535067319578,6.607698659467703
3645.86,13.793103036896428,6.058119353125084
3646.699,13.783551999778917,6.1328984422619435
3647.5398,13.756812604642287,6.007797872129361
3648.379,13.71410119232249,6.156256318102328
3649.2202,13.661967765252637,6.177480015813455
3650.0596,13.609884604230094,5.692131596528973
3650.8994,13.56630626476218,7.039497792969668
3651.7412,13.537336446478962,5.108015926014089
3652.5813,13.52527635368502,6.603887480217873
3653.4236,13.527074566531711,6.370454173816595
3654.2642,13.535171956180138,6.246021896018647
3655.1067,13.540377687360168,5.815241715336692
3655.9475,13.53500743864233,6.047022853221412
3656.7886,13.514624678584646,5.4633394241256985
3657.6318,13.478667480737112,6.032766616341535
3658.4734,13.431363731932963,6.42740097155723
3659.317,13.379698498426636,7.118189139244185
3660.1587,13.330080942313058,6.137455250707922
3661.003,13.283870749394671,6.234672950558387
3661.845,13.239142306957307,5.502942409073586
3662.6875,13.194384568819789,7.599213142320424
3663.532,13.152328655145368,7.644243863957288
3664.3748,13.11861352463822,6.19145695001783
3665.2197,13.09660157667754,6.216645348980935
3666.063,13.084917111450922,6.989364177908602
3666.9084,13.078070858635963,6.820304074296612
3667.752,13.070711561717525,6.565428869541469
3668.5977,13.06156516283628,5.704687153623836
3669.4417,13.054817122798987,6.890356267998355
3670.286,13.056302030536125,7.276997337075039
3671.132,13.06714675136306,6.403120789921293
3671.9768,13.080554291625573,5.874813038241062
3672.8235,13.086109112570295,5.824697088327666
3673.6685,13.077079488709003,6.201291172779747
3674.5156,13.053786207477366,6.867442281956349
3675.3608,13.021109942424728,6.708550387600738
3676.2063,12.983944685961525,6.951754197623646
3677.0542,12.945951684407193,6.406876018079651
3677.9,12.911231134971752,6.02501141885876
3678.748,12.884526892773218,7.831936127598717
3679.5945,12.870370815533905,7.05688442387488
3680.4429,12.86953087016163,6.517748254589351
3681.2896,12.877433093339206,7.015293401319889
3682.1365,12.885302968682286,7.404131365834813
3682.9856,12.8840182109269,6.466126959552053
3683.8328,12.868670172926924,6.851157521739793
3684.6824,12.841325183766635,6.348830882991302
3685.53,12.810519931650479,7.705367918798965
3686.38,12.786002241685948,7.997828470708931
3687.2278,12.773129641693842,7.7987060683397225
3688.0762,12.76959612180579,7.344153863581535
3688.9265,12.768279866136252,7.088128419796245
3689.7751,12.762499627381983,6.91482051726397
3690.626,12.749432797109794,7.566604285557057
3691.475,12.72994160336809,6.419630969733513
3692.3264,12.706066699622111,6.723515226409442
3693.1758,12.679738758513547,6.521857217621195
3694.0254,12.652278076882643,7.457620744156048
3694.8772,12.62505545809689,7.128980637681189
3695.7273,12.59957011429474,7.043528270519512
3696.5793,12.576211545747151,6.754181321675195
3697.43,12.554302706236133,7.200297249200615
3698.2825,12.53264066519702,6.423054864937343
3699.1333,12.511461916252895,7.282101421422105
3699.9841,12.492706706725103,7.0474553902419235
3700.8374,12.478857774859486,7.696973181956796
3701.6887,12.470788996391676,6.020940893070218
3702.5425,12.466363379009273,7.263391613508682
3703.3943,12.46167541182854,7.051324952671649
3704.2483,12.453293224454303,7.8196749211281285
3705.1003,12.440166552111073,7.086629870035373
3705.9526,12.423656601838836,7.355087111214166
3706.8074,12.40648184808177,7.413417711471532
3707.66,12.391285501987328,7.232742841023792
3708.515,12.378814032018235,7.806315884787399
3709.3682,12.367678272829885,7.3250561251058315
3710.2234,12.355249080541842,7.475806108771435
3711.0771,12.34003098985542,7.774063790289164
3711.9307,12.322433009635073,5.913019885203471
3712.7866,12.303340294144538,7.1048348754136725
3713.6409,12.282302108097864,6.8987242713097165
3714.4973,12.257315744347968,7.114697725643072
3715.3518,12.227483229704038,6.9385460956152984
3716.2085,12.194024090389265,7.6196952211081
3717.0635,12.159775028375842,8.92846701962136
3717.9185,12.126663922739823,6.941809665429084
3718.776,12.095554038561529,7.637928211003157
3719.6313,12.067795363358094,6.945537451221144
3720.489,12.045296590921689,6.5973785424022955
3721.345,12.029836501609452,8.502189666944723
3722.2031,12.021035844810019,7.281794793090552
3723.0593,12.01656327936482,6.700014980717947
3723.9158,12.01375605468413,7.564642488916498
3724.7747,12.01193172899186,8.850278883216244
3725.6316,12.012977710025703,7.792798777308969
3726.4905,12.019268837935313,7.83456672832293
3727.348,12.030169097953449,8.129719978245687
3728.2073,12.04039025905296,7.213691356545764
3729.065,12.042110527543878,7.458412385842245
3729.9229,12.029993461505542,7.068229086473228
3730.783,12.004364954876408,7.966282653799598
3731.6414,11.970546762692381,8.614295947473494
3732.5017,11.934507589523745,7.535926554190878
3733.3604,11.900310271321791,6.94997279614056
3734.2214,11.869394340306952,8.473542848853764
3735.0803,11.8428265039927,8.781530021181418
3735.9417,11.821754368997121,8.928441030076717
3736.8013,11.807705186364643,9.097673736117532
3737.661,11.801309101860687,7.576606302789021
3738.5227,11.801828299486477,8.117824933268452
3739.3828,11.806742713362185,7.988958679135279
3740.245,11.811808274473707,7.411853964140211
3741.1055,11.811917490956056,7.924688721384387
3741.9683,11.803144633997984,7.613244975467833
3742.829,11.784929030119613,7.8872284053002994
3743.69,11.760533574808521,8.642077547614994
3744.5532,11.735283746357736,9.025466682215935
3745.4148,11.713917852964645,7.731066771503197
3746.2786,11.698036368473659,7.9512409241425726
3747.1404,11.686369380683542,8.943081817886627
3748.0044,11.676043601360076,7.475328116831098
3748.8667,11.664508416198771,8.509375797537448
3749.729,11.649777153559143,8.438204498012572
3750.5938,11.630098651857805,8.103044132306358
3751.4565,11.604785603395712,7.672422597688602
3752.3215,11.57561349368187,8.940365914694176
3753.1848,11.547832580506352,10.789603195716449
3754.0503,11.527192814839406,7.4459165954474935
3754.9138,11.516365707855622,7.811092886155317
3755.7776,11.512401805424423,8.46164512938402
3756.6438,11.508513565961788,8.02476953278727
3757.508,11.498494437928692,7.927244495668829
3758.3745,11.480947229439087,8.235718263156366
3759.239,11.460317335249503,8.963556006617342
3760.106,11.443023835126226,8.161451614799333
3760.971,11.432757349741948,9.059039966342013
3761.8362,11.427805130133123,8.77211767879886
3762.7036,11.423043796754326,8.052117588476738
3763.5693,11.413842603969714,8.204243713567855
3764.437,11.398888571506117,8.143315932680535
3765.3032,11.380546937544695,8.766324369066837
3766.1714,11.362536809437245,7.502434663555555
3767.0378,11.347480690798578,9.10324543993367
3767.9043,11.335063816806267,8.079072547389018
3768.7732,11.322523174545209,8.868140800679576
3769.6401,11.306826840994677,9.241562452457066
3770.5095,11.287012419028708,9.375257849420775
3771.377,11.265705165882657,8.985425811720924
3772.2466,11.247282557776323,8.778616758986622
3773.1145,11.234947088599814,8.105470834271705
3773.9824,11.227917582296158,8.635199298695156
3774.8528,11.22200628844498,8.409172521433536
3775.721,11.212773005250044,8.805592505956643
3776.5918,11.198759452672274,9.552533702107079
3777.4604,11.18256343776511,9.520544142005445
3778.3315,11.168314241417297,8.742262255416044
3779.201,11.15875000412189,8.25353990286166
3780.0703,11.153390515518609,9.182908517067627
3780.942,11.14953713019077,10.242761254176397
3781.8118,11.144389456263033,9.771819482067153
3782.6838,11.13650077897652,8.919347999110318
3783.554,11.1256871491255,9.768378452474693
3784.4265,11.111479517835019,9.743825846600283
3785.297,11.092627219361379,8.904848727110354
3786.168,11.067962641201087,9.238427515107277
3787.041,11.038223890101982,8.606267357225516
3787.912,11.006565776690662,9.061590847255163
3788.7856,10.97625469276405,8.867727770341448
3789.6572,10.949078918872999,9.634439744548168
3790.531,10.923946252742622,8.758054384128219
3791.403,10.898174041850595,9.889264741144455
3792.2754,10.868593519931533,8.99515234052228
3793.15,10.833275249643222,8.935614465473156
3794.0225,10.793036572522755,9.089857410455265
3794.8972,10.751153439573846,10.226924140782856
3795.7703,10.713012484359044,8.993527954652468
3796.6455,10.68324609876948,10.886693270002796
3797.519,10.664413131308176,9.012577729990326
3798.3926,10.6561787595192,9.382068999990368
3799.2686,10.657065336139038,10.733604663598411
3800.1426,10.666174349174472,9.74647492958405
3801.0188,10.684018686502576,9.041046288230449
3801.8933,10.711769079773598,9.12400690444857
3802.77,10.749898143135443,10.816517328770411
3803.6448,10.795324051499074,9.114205512574317
3804.522,10.840507843312752,9.810318998239204
3805.3972,10.873965015686755,8.156035543216385
3806.2727,10.885835898548859,8.168960220617516
3807.1504,10.872676879527411,10.313320704318302
3808.0261,10.83973307184287,8.7147260063085
3808.9043,10.79788809034368,9.818366539054267
3809.7805,10.759094039472911,10.134888055290787
3810.659,10.731551019839213,9.329698138112727
3811.5356,10.718813205246697,9.340226674570053
3812.4126,10.719841667028017,11.042157710245146
3813.2917,10.73072858203069,9.52827914304047
3814.169,10.745969306591743,9.026794327646815
3815.0483,10.759969594106554,9.210859665257988
3815.926,10.768109753529627,10.085227060118761
3816.806,10.768171167567871,9.641308980927832
3817.684,10.760465144530336,11.735716581763455
3818.5623,10.746401662340444,9.961037018615038
3819.4429,10.726190347158429,9.89603137274391
3820.3215,10.698368901743505,9.208314515165387
3821.2024,10.66120947454893,9.325676460740931
3822.0815,10.615910441173792,10.493802742348088
3822.963,10.566740016788085,10.405327646925333
3823.8423,10.519670351072065,10.697749176709609
3824.722,10.478164811653839,10.391194724074198
3825.604,10.441668922912655,10.370761472108711
3826.4841,10.40676452993388,9.383346586376957
3827.3665,10.369237403918586,10.686464326551247
3828.2468,10.327226088118396,10.816572639391078
3829.1296,10.281492750479522,11.72800472731454
3830.0105,10.235642987351738,10.621984003196221
3830.8916,10.193333984799919,11.262857243487229
3831.7751,10.156125342686536,10.174855228917014
3832.6565,10.122513068402814,11.507171897740438
3833.5403,10.088758784410892,9.768163103909286
3834.4224,10.053075428407958,10.232948357389915
3835.3064,10.017781362794631,11.723868571756476
3836.1887,9.98958619212767,10.174069908865459
3837.0713,9.975298157194095,12.401849354221737
3837.956,9.977224907540558,9.620801938788674
3838.839,9.990810161560116,10.403598702629145
3839.7244,10.007477882510791,11.269504745906728
3840.6077,10.020198882571856,11.10986288136294
3841.4932,10.027585622352959,11.468657166383151
3842.377,10.033049654340383,10.03571135815021
3843.261,10.041614408293055,10.69851982217219
3844.1472,10.056914315303047,10.75045327977074
3845.0315,10.07960370304748,10.580239779657681
3845.9182,10.107621679318001,12.323411595630748
3846.803,10.137304118184542,11.171292787466157
3847.69,10.166357523485841,10.444658036889725
3848.5752,10.194469400443522,11.260725435665004
3849.4604,10.222065379184,10.712244576288638
3850.3481,10.247479119817736,11.505745254418343
3851.234,10.266575793098909,10.506846196389775
3852.122,10.27616182045408,10.181365452374523
3853.0083,10.276691522161721,11.094871958246419
3853.8967,10.272323943792022,10.716112821965641
3854.7832,10.267813324202411,9.265256875441104
3855.6702,10.265649939602723,10.384727963965368
3856.559,10.265810298603922,10.132865982882072
3857.4463,10.26743433892202,9.892463964123348
3858.336,10.2704460602234,10.9377781183651
3859.2234,10.275596258862004,9.810442364487542
3860.1135,10.28317168778857,10.533421270111683
3861.0015,10.291369517146917,11.485686459423652
3861.8896,10.29634446571973,9.809449584446943
3862.7803,10.293852871964058,10.897446576945825
3863.6687,10.281511954871776,11.837903585582476
3864.5598,10.259627392391328,9.796059637881097
3865.4487,10.230928557515243,10.247873038985158
3866.34,10.199063295671927,10.771447323360174
3867.2297,10.167893973395271,10.872641044166643
3868.1213,10.139338633256056,11.403414249082493
3869.0112,10.11253347924965,10.17727058056952
3869.9014,10.083561811349151,11.959253194511767
3870.7937,10.047494066543136,10.268059108021184
3871.684,10.00117907240031,10.585735113521057
3872.577,9.944467357563068,12.955829532344717
3873.4678,9.881541846552196,11.438574407534153
3874.361,9.818354721722745,11.185170566833072
3875.2524,9.760587179044808,11.212438137770922
3876.1438,9.709196047110856,12.63648836856873
3877.0376,9.65970753654274,11.860424293758077
3877.9297,9.605026242933311,13.469726413910596
3878.8237,9.539611169935858,12.327840403477333
3879.716,9.464405256886245,12.910533118871248
3880.6108,9.385157224451284,11.386528983473328
3881.5037,9.30870342704697,15.15623809717622
3882.3965,9.236480486977685,12.114715493184194
3883.2917,9.164471734854681,11.480044729022802
3884.185,9.088027417287742,13.10716363381374
3885.0808,9.005404022676432,12.820261116046952
3885.9746,8.920600501062436,15.97070741398278
3886.8706,8.839429480275248,13.838676658144307
3887.765,8.767716347508353,14.101078568557124
3888.6592,8.708258509042205,14.706394660155441
3889.556,8.661913409300096,14.0703131821932
3890.4507,8.629829952023297,15.493118583109903
3891.348,8.614222475318325,14.587780755336734
3892.243,8.618354946590497,16.636167365190534
3893.1406,8.643816667014079,16.600814834898486
3894.0361,8.688501825967922,14.28499276904746
3894.932,8.747622222408072,16.853396308931814
3895.83,8.816137248630103,14.260657131792085
3896.7263,8.890127680806177,15.289866519101542
3897.625,8.968338871328932,14.147727104903822
3898.5215,9.049775294196033,11.980499601170797
3899.4207,9.134071114049037,14.157316786777441
3900.3176,9.218991496017626,12.692391538847682
3901.2148,9.302216211749315,12.614628415548818
3902.1145,9.381698815241254,10.88606964636255
3903.0122,9.456309274826328,13.454097710415306
3903.912,9.527425819021346,12.906162113930153
3904.8103,9.59653707669749,13.087306018617888
3905.7107,9.664900264157716,11.874123846824514
3906.6094,9.731367377652747,12.019086425184065
3907.508,9.793943416101051,11.55271278885967
3908.409,9.850949738610668,11.354828905915268
3909.308,9.90187607927569,10.960435529052383
3910.2097,9.948133064104502,11.136845981627228
3911.1091,9.99104378253078,10.498135704924666
3912.011,10.031938536190651,13.425408233503013
3912.9111,10.071007147213916,11.507272773070518
3913.8113,10.10779545505824,11.754183308389742
3914.7136,10.140748989247603,10.80424836243743
3915.6143,10.167491526316583,9.886848534095943
3916.517,10.186698984456038,11.413332493477627
3917.4182,10.19897667846455,9.525197303495142
3918.3215,10.207331698879768,10.043406165971442
3919.223,10.215797883279516,10.872829151331278
3920.1245,10.227933301571458,10.705275493583333
3921.0286,10.245273947169252,10.646019087324452
3921.9307,10.266427102535783,9.428940516562914
3922.835,10.288097123607608,10.092281244332094
3923.7373,10.306733425284246,10.644433324369567
3924.642,10.320579298565786,11.212454813206543
3925.5452,10.329284070375829,9.856535816699552
3926.448,10.332919030167766,11.485952021545845
3927.3535,10.331091310509139,10.528443813524467
3928.257,10.323366113274812,9.69930125148406
3929.1628,10.30989353051198,10.6362482905646
3930.0667,10.291730639887405,10.257519764910462
3930.9731,10.270318716275227,10.182659728513418
3931.8774,10.247466485432703,11.190156085653765
3932.782,10.224590848390903,11.532538483357646
3933.6887,10.202405685709087,11.443112720815044
3934.5938,10.180566466838963,10.554600631045298
3935.501,10.157378852708199,10.82738582364962
