wavl,flux,ivar
3566.9744,0.8182659122854389,588.9362497669038
3567.795,0.8105950459372138,515.1827329647958
3568.6177,0.8010618420199406,126.21507438525784
3569.4385,0.7927350876775473,96.81361417399087
3570.2617,0.7865476679637238,192.8811001701241
3571.083,0.7814742436053672,166.45894101877315
3571.9065,0.7759802738651977,133.04085338518365
3572.7283,0.769808332973585,640.4627727571615
3573.55,0.7642291356606575,320.5567856151275
3574.374,0.7609066205044743,2865.5381101116973
3575.1963,0.7604363362398664,193.8916226100633
3576.0208,0.7620282129734773,93.12841363218197
3576.8435,0.764664029988025,198.68371588843618
3577.6682,0.7682357905502698,162.1140749915946
3578.4915,0.7732657144439202,179.81516794923274
3579.3145,0.7798077680212105,231.68108851001654
3580.14,0.7869349000048764,351.10826878863077
3580.9636,0.7932907016108888,240.7977910116777
3581.7893,0.798045940159031,238.93162669335837
3582.6133,0.8009139661107081,116.7275502577982
3583.4395,0.8018752694644633,111.39366254383059
3584.264,0.8010498214212279,261.35456353140125
3585.0884,0.7991285708204225,196.84004598469684
3585.915,0.7976512300375876,218.76840064389003
3586.74,0.7985043309316561,222.82953949919462
3587.5671,0.8026427814008145,407.63727572004404
3588.3923,0.8090819674387414,110.22667742268372
3589.22,0.8153010052492405,132.7344826688839
3590.0457,0.8186363090331005,222.0626492246946
3590.8716,0.8179218991016592,226.6665484169187
3591.6995,0.8139114070036632,282.0067092747813
3592.526,0.80869948506465,175.5095700001569
3593.3542,0.8045176106790174,518.4746756219273
3594.181,0.8028810960001651,212.06499054002188
3595.0098,0.804127000055729,82.17805526229722
3595.8367,0.8074943576714624,346.7699097864899
3596.6638,0.8116273320646537,98.02213256698099
3597.4934,0.8153109379193666,147.91313590236177
3598.3208,0.8178282232040242,205.2096243472657
3599.1506,0.818744102099512,196.8149022757163
3599.9788,0.8174702787020653,223.24938136053805
3600.8088,0.8135427464203712,146.38312189181366
3601.6372,0.8073087738327935,192.15724907253338
3602.4678,0.8000282512542486,95.25085989924793
3603.2964,0.7933154526402506,194.87719326120668
3604.1252,0.788048394740067,176.06218234211218
3604.9565,0.7839594571467245,108.14530356355876
3605.786,0.7801248835147044,196.47702336328675
3606.6172,0.7760471216508237,231.90673455822844
3607.447,0.7725997333712199,133.73256908424855
3608.2788,0.771638149235976,103.37833828398995
3609.109,0.7745928033748706,180.06258182224576
3609.9392,0.7810816143033567,198.4035911535228
3610.7717,0.7890067870642132,221.73484191449052
3611.6023,0.7960925503269304,315.8174419194961
3612.435,0.8017054967691338,152.85253646509804
3613.266,0.8067359244129826,141.57254112199007
3614.0994,0.8120758002313853,178.63303912776138
3614.9307,0.8170215834007557,159.54237541553076
3615.7625,0.8195230228885606,203.44059950000226
3616.5962,0.8176284877943565,173.68388019020685
3617.4282,0.8110375974896548,158.93933373883894
3618.2625,0.8015143638778611,111.17042437033035
3619.0947,0.7921900933260686,316.07089316112945
3619.9292,0.7857271885860794,278.0582960690973
3620.762,0.7828781247585112,208.14152957021696
3621.595,0.7819867904697423,275.72881020254425
3622.4302,0.7802917205677451,142.67633647223425
3623.2634,0.7759725954496114,112.09186207198572
3624.0989,0.7695358199581117,315.1350854538001
3624.9326,0.7636992249613392,330.61463785925207
3625.7686,0.7615942909812009,373.4095768003199
3626.6028,0.7647682764074132,344.0760275841593
3627.437,0.7721859170174732,115.39820991199275
3628.2734,0.7811782150469021,140.59931903691577
3629.1082,0.7892463820048126,163.73760824168215
3629.945,0.7954722468150301,113.92168563421122
3630.78,0.8002154790834372,354.60862185942585
3631.6174,0.8044398659443629,109.36064420389769
3632.453,0.8092203930688201,101.151428571701
3633.2883,0.8157606204619868,327.47105957193395
3634.1262,0.8249336758383008,202.88335496730406
3634.9622,0.836419149993041,100.09379488718984
3635.8005,0.8487150999573175,169.33548147434902
3636.637,0.8598581427556,231.8345274337454
3637.4756,0.8690318685122509,98.347253964004
3638.3123,0.8769700081539126,436.99662637124266
3639.1492,0.8855385933438751,175.0274974578568
3639.9885,0.8965666119521056,134.54193467385065
3640.826,0.9109650214844336,105.05466246578781
3641.6653,0.9283290717757269,114.57713137777287
3642.5032,0.9456738058553028,122.05316322367295
3643.343,0.9571534419392768,128.9669059078844
3644.1812,0.9559158228489822,225.87360300464917
3645.0195,0.9388698287409857,92.21265910192542
3645.86,0.9095775755223361,213.98593103622898
3646.699,0.8767303572430721,89.36338071573553
3647.5398,0.8485039028313599,204.57727751463057
3648.379,0.8293574233743654,152.63347231147614
3649.2202,0.819404657918828,229.63560936421393
3650.0596,0.8163246508099345,144.79364707997587
3650.8994,0.8165333952922773,86.94827523586788
3651.7412,0.8164125915871526,581.5838989019106
3652.5813,0.813546570089752,337.6909355322425
3653.4236,0.807778047255453,295.61111058413337
3654.2642,0.8013801507644888,116.1975837107658
3655.1067,0.7977545402563023,164.35401066830485
3655.9475,0.7993970114696252,337.4031259165959
3656.7886,0.8062123963794742,124.25543554316963
3657.6318,0.8158191272430119,107.57146095454488
3658.4734,0.8252599505922307,127.21595401938202
3659.317,0.832764012381351,238.8873395598602
3660.1587,0.8378117047644745,147.0977390705422
3661.003,0.8407331872754662,609.2875458002974
3661.845,0.8423233755174087,413.21868387587955
3662.6875,0.8437016542981975,493.7147252550485
3663.532,0.8457310813580353,210.45263985482518
3664.3748,0.8485224676897944,127.17575961204209
3665.2197,0.8515366612216784,116.17562515992066
3666.063,0.8538197025873672,139.86348185511702
3666.9084,0.8541632029448891,111.54092782790028
3667.752,0.8515106335652672,147.07700691514248
3668.5977,0.8460554821098523,98.48387004770422
3669.4417,0.840022125472216,235.66437691457722
3670.286,0.8366102171855548,93.24852187170406
3671.132,0.8378238351554989,159.017573872927
3671.9768,0.8430586980535301,176.83263357357424
3672.8235,0.8498630683280852,263.57263367112296
3673.6685,0.855701726684036,336.24744369467516
3674.5156,0.859081236334793,194.79740991795273
3675.3608,0.8591002086899452,356.56057070250625
3676.2063,0.8548099220645115,118.8814454507559
3677.0542,0.845319486440238,192.4630876444117
3677.9,0.8310901514706017,131.18628066137268
3678.748,0.8147388960080446,324.244040677324
3679.5945,0.800740256403438,132.67944601727373
3680.4429,0.7928404107701464,447.13900879305123
3681.2896,0.7919899671036429,223.9050299541439
3682.1365,0.7961189874434197,139.25127818755172
3682.9856,0.8023639893364304,274.41997033774106
3683.8328,0.8089538540122712,140.86529955603044
3684.6824,0.8152244238568822,115.4886118784286
3685.53,0.8200829877281851,117.326659606386
3686.38,0.821696959981636,144.0637183552078
3687.2278,0.8187928512451748,252.08949351033607
3688.0762,0.8122423145443857,76.10482497099326
3688.9265,0.8047316453102881,211.57331442184176
3689.7751,0.7987102627149756,256.33836225740134
3690.626,0.7943921425453263,258.0905120818289
3691.475,0.7900086707903033,175.710105749216
3692.3264,0.7835546228510653,686.7539799794228
3693.1758,0.7745635145312155,369.43330091767893
3694.0254,0.7642273757930677,316.4057553096749
3694.8772,0.7545665919337758,182.70004494682726
3695.7273,0.7476087412171611,267.7267912876494
3696.5793,0.7447506616901717,111.14993755497628
3697.43,0.7464873161380262,427.85435257575864
3698.2825,0.7521254062685714,506.7432709435526
3699.1333,0.7602049691381585,144.0450165729083
3699.9841,0.7696514462845133,291.19896067229877
3700.8374,0.7803341620129587,268.986424852622
3701.6887,0.7921772398503031,192.6704309528837
3702.5425,0.8041644446619537,206.34116106367674
3703.3943,0.8141824952339356,187.17133611357679
3704.2483,0.8207401079783049,119.16193173822228
3705.1003,0.8239434192433406,141.4651673467679
3705.9526,0.8249559899405311,113.07364961287689
3706.8074,0.8242212036251763,281.4073336367625
3707.66,0.8209778064167159,115.15983527909646
3708.515,0.8147281856931184,291.8662388983173
3709.3682,0.806993899824387,235.29291832382347
3710.2234,0.8007933547898021,134.13065627554906
3711.0771,0.7984446699948509,70.35783846824664
3711.9307,0.7997344259800085,266.663846993683
3712.7866,0.8023668661156665,698.7287574230065
3713.6409,0.8035626215044586,373.1568635519336
3714.4973,0.8014038786936373,185.44252833794988
3715.3518,0.7954299807336805,128.40360450106255
3716.2085,0.7869035657228562,86.1315104436951
3717.0635,0.7788065172000453,220.09884299591522
3717.9185,0.7745646662468793,362.2732994276846
3718.776,0.7761511907104645,154.5267387332792
3719.6313,0.7826008644666673,217.64264781367396
3720.489,0.7904107633365831,277.621331350203
3721.345,0.7954834058995469,85.19696654831384
3722.2031,0.795464642747847,101.16529623177834
3723.0593,0.7906503645454178,199.4157574135087
3723.9158,0.78338105005308,169.41070546066754
3724.7747,0.7766533497647822,251.5829217176625
3725.6316,0.7730160846179237,126.67417156339746
3726.4905,0.7737397037013587,129.6273712032319
3727.348,0.77858071851884,202.31730324033785
3728.2073,0.7860903354088076,337.8167035167451
3729.065,0.7944562785629441,116.09878768984954
3729.9229,0.8024397670984018,292.15750962283005
3730.783,0.8093768312764352,321.6460399777993
3731.6414,0.81459383658745,117.22241070673154
3732.5017,0.8172578177765315,137.7612880089138
3733.3604,0.8167326347173748,227.83292342246983
3734.2214,0.8131759426084613,235.3369280764431
3735.0803,0.8075292849786194,115.2861513738114
3735.9417,0.800870903237862,230.09186315730926
3736.8013,0.7939953750468892,189.18915613631785
3737.661,0.7872084327222528,310.2024329247504
3738.5227,0.7805252388144956,175.5229996117496
3739.3828,0.7738763166404152,142.16849041284325
3740.245,0.7671287877691222,154.49633899574695
3741.1055,0.7603841612036196,326.6624588386692
3741.9683,0.7540216212717206,180.31482368504842
3742.829,0.7488768679561217,136.87577409295926
3743.69,0.7459362226467517,151.03809834624138
3744.5532,0.7459638525946531,371.94400881950367
3745.4148,0.7490119487184482,235.3260326383455
3746.2786,0.7543265140844159,145.38383940454992
3747.1404,0.7607100013027,224.90377002981717
3748.0044,0.7671729833372427,130.17877080370303
3748.8667,0.773037108058715,111.93651463849018
3749.729,0.7778292031175464,126.7683820070791
3750.5938,0.7810308842043123,305.3484586109748
3751.4565,0.7822377247933252,142.89592703111882
3752.3215,0.7815341120072816,159.28320826621808
3753.1848,0.7793490293841431,206.9032431714901
3754.0503,0.7758558968551873,171.81122205661734
3754.9138,0.7707988218310928,328.06758631511667
3755.7776,0.7642096278904721,354.88729353291626
3756.6438,0.7573789841398595,134.5261690881874
3757.508,0.752716511167158,274.7821079959318
3758.3745,0.7522509136742512,169.78658841097553
3759.239,0.7565231765525271,285.7445318000914
3760.106,0.7646056083550287,288.52969382384407
3760.971,0.7747058163562554,520.9449553719584
3761.8362,0.7847392205551372,104.72648465869032
3762.7036,0.792481445536659,250.84296046026165
3763.5693,0.7960142975730102,196.17315109989775
3764.437,0.79464336490024,239.87234143884154
3765.3032,0.789427294276734,178.55056556307176
3766.1714,0.7830065294298532,120.86060067208648
3767.0378,0.7785966234041252,186.40895370142894
3767.9043,0.7783194444647072,142.08253439344153
3768.7732,0.7821549762915513,198.23011387018028
3769.6401,0.788164615692814,200.06984856553174
3770.5095,0.7941723249450967,121.42274443190786
3771.377,0.7992092522207735,404.1290159431911
3772.2466,0.8037193879495128,96.9463649612095
3773.1145,0.808176109056207,170.89953154630868
3773.9824,0.8119518839009019,139.1874717290905
3774.8528,0.8134623125303098,337.5999922941446
3775.721,0.8115822309197389,131.1499924583705
3776.5918,0.8069176986588893,151.46140121528367
3777.4604,0.8017271110611506,160.94735385464503
3778.3315,0.7984764714777994,219.05239786537726
3779.201,0.7985445440853478,205.07198246289835
3780.0703,0.8017757103732338,209.31421444875735
3780.942,0.8070340412709017,147.3795529004534
3781.8118,0.8127157606064735,172.51484028132793
3782.6838,0.8171088259526622,187.31254252537
3783.554,0.8186022296167522,165.0996008977078
3784.4265,0.8162868341806856,124.05791942911144
3785.297,0.8103027555443378,118.87317974495699
3786.168,0.8015098386224797,183.25668320489672
3787.041,0.7907722597600434,216.3010842504021
3787.912,0.7787711737005486,127.25367423344815
3788.7856,0.7661934856438477,187.09604613003611
3789.6572,0.7543299516905632,211.4990960878089
3790.531,0.7445419767911206,303.9972842244398
3791.403,0.7378577434283585,195.78766454417664
3792.2754,0.7346848738854267,243.20997247734124
3793.15,0.7353079230333027,190.1846971636668
3794.0225,0.7399201415355942,160.35099676191035
3794.8972,0.7479314612279563,379.82042210243316
3795.7703,0.757083518922847,416.3995061472365
3796.6455,0.7638455331250871,127.16698325725898
3797.519,0.7649312526799009,129.51226343211576
3798.3926,0.7594251943744842,152.78967585066897
3799.2686,0.749496423237608,310.33182304722584
3800.1426,0.7393591738542296,220.20250000952515
3801.0188,0.732635370379259,245.03384848758355
3801.8933,0.7305644793080447,139.2726315322389
3802.77,0.731887022480404,190.03617124402533
3803.6448,0.7345953243069825,156.9631773193287
3804.522,0.7377583017369902,117.21135204054653
3805.3972,0.741870775136346,199.11010648933996
3806.2727,0.7477584897196349,357.1526774806812
3807.1504,0.7552190688277907,124.96093740994277
3808.0261,0.7628083738837034,160.77612826089242
3808.9043,0.7690266337396885,247.67489730084856
3809.7805,0.7732054377189983,207.15073213993745
3810.659,0.7756795991118027,225.56739326659454
3811.5356,0.7771385074788447,178.0856583279136
3812.4126,0.7782781318419562,154.05309366387243
3813.2917,0.7796328716509552,204.54052253481763
3814.169,0.781232251722215,145.75471381004763
3815.0483,0.7822029614903532,1033.5345336337157
3815.926,0.7810591204869177,246.04320709182304
3816.806,0.7770173790572558,476.6065250032568
3817.684,0.7711726833731105,143.000474458113
3818.5623,0.766009181172271,293.8143238064565
3819.4429,0.7636227384868223,303.431975380816
3820.3215,0.7643202997787558,89.31261271223794
3821.2024,0.7667416456560581,179.53880922639948
3822.0815,0.7690173872112086,142.65428550436877
3822.963,0.7696807891086782,163.38559357432206
3823.8423,0.7677962485089764,217.15531560831792
3824.722,0.7628190518608691,283.8693536284199
3825.604,0.7545842048688315,242.66962889236035
3826.4841,0.7436964555244192,231.0224371401896
3827.3665,0.7316212299293658,160.98164454438256
3828.2468,0.7205557804726408,483.2291853840791
3829.1296,0.7121864868899004,243.1572812400742
3830.0105,0.7067633675662909,191.13576810780108
3830.8916,0.702726448202922,233.88932037105994
3831.7751,0.6978006167765904,139.0191137271807
3832.6565,0.6905815881967572,164.0620794542687
3833.5403,0.681435196677879,233.20090748497722
3834.4224,0.6724107850950077,262.38325355474825
3835.3064,0.6658056548165603,386.21828683289476
3836.1887,0.662849594733953,345.7486276072911
3837.0713,0.6630356754988614,119.687891597648
3837.956,0.6648769059604539,198.86572034599487
3838.839,0.6671857871312447,364.40587430989996
3839.7244,0.669937718905776,265.9131156080639
3840.6077,0.6739214234373843,187.61227577774724
3841.4932,0.6797165904457388,282.1183974589092
3842.377,0.6868073981969113,119.67858653617455
3843.261,0.6939191238198661,269.62897142625945
3844.1472,0.7001112363637813,285.4318677416559
3845.0315,0.7057019713493601,253.91846117641026
3845.9182,0.7122341651680473,356.7512709328663
3846.803,0.7211528401093708,320.4558595829615
3847.69,0.7326817760424191,544.1947589127057
3848.5752,0.7453337573623622,217.71540571610032
3849.4604,0.7568745746818107,179.93545505898487
3850.3481,0.7655026546816476,191.96721382208813
3851.234,0.7706471348580659,189.58929290508388
3852.122,0.7731507822371835,173.05451141810056
3853.0083,0.7744827993789614,148.9808173494793
3853.8967,0.7758250919535365,206.17876590541755
3854.7832,0.7773295799281179,187.52048045171227
3855.6702,0.7782405041256466,194.38900074178636
3856.559,0.7777865322040154,113.45524551831335
3857.4463,0.776131047242413,265.78174365881443
3858.336,0.7743503026392963,261.0249757567908
3859.2234,0.7734705554405462,172.04167696282155
3860.1135,0.7736108910625644,206.9171506933489
3861.0015,0.7742948359991195,209.17543681552434
3861.8896,0.7754488570504338,144.7138041930982
3862.7803,0.7778077011388278,254.7511527148138
3863.6687,0.7820474566175012,195.06511061508084
3864.5598,0.7875187045393832,268.349880294794
3865.4487,0.7917345225442729,135.40387797976123
3866.34,0.791613019495696,114.28207040319164
3867.2297,0.7854770785322638,216.7826630635205
3868.1213,0.7743964312370412,220.34008005251243
3869.0112,0.7616946029064032,279.5931169370823
3869.9014,0.7507349053719928,153.48612967058426
3870.7937,0.743142810936295,162.89741948766903
3871.684,0.7384633388907447,368.693449597081
3872.577,0.7349461897510176,334.15945216308506
3873.4678,0.7309016469651366,174.5695258741982
3874.361,0.7255659179563756,247.75343702200442
3875.2524,0.7194613945301956,197.15082976671243
3876.1438,0.7136555337365,438.76292185071935
3877.0376,0.7086715872898921,186.6928886255735
3877.9297,0.704038273126751,233.214301416652
3878.8237,0.6988166740281858,230.27719343389444
3879.716,0.6925221451747777,239.99903796967556
3880.6108,0.6850773942617353,216.56814002475187
3881.5037,0.6764246796728932,222.85902270125115
3882.3965,0.6663426353292539,178.28003578092816
3883.2917,0.6550895685108956,400.68875944920194
3884.185,0.6439448712936017,240.17326506050287
3885.0808,0.6345316763953485,423.5170098686895
3885.9746,0.6279575893236246,3292.2149966941483
3886.8706,0.6240590605587562,161.82379303818072
3887.765,0.621957921496487,382.9939413771121
3888.6592,0.6208613115832088,447.8124997229062
3889.556,0.6204827332041,335.9274574812624
3890.4507,0.6207234355183071,235.17142231204554
3891.348,0.6213026610956865,280.96488168818274
3892.243,0.6219108206967947,260.108788253328
3893.1406,0.6227320964746224,408.76681964354094
3894.0361,0.6247003225175667,261.7002626937891
3894.932,0.6291648859161107,684.5604284152022
3895.83,0.6370660135884715,577.6991296809821
3896.7263,0.648015542582885,202.80337926570334
3897.625,0.6602714407061535,124.08103334159509
3898.5215,0.6713766736557202,276.6427794243963
3899.4207,0.6798449519553212,201.11293273247463
3900.3176,0.6859946742940877,266.48205876998435
3901.2148,0.6918602596781676,319.05308629433875
3902.1145,0.6995889205521016,240.87890995170338
3903.0122,0.7097186646449984,154.89587862822054
3903.912,0.720892947660163,213.6479495197079
3904.8103,0.7309279195232916,260.3738608773689
3905.7107,0.7388197909336893,248.5017220783223
3906.6094,0.7453723486908496,253.52852078035042
3907.508,0.7524365768179471,169.94146856211594
3908.409,0.7611962502532291,212.1563927498333
3909.308,0.7711546068921231,234.894461008336
3910.2097,0.7808520542483631,144.90260168879252
3911.1091,0.7892595731764926,144.87374559076673
3912.011,0.7969954084421036,153.71731940696037
3912.9111,0.8055281915652649,268.3605327816194
3913.8113,0.8156067308769056,766.2823125375446
3914.7136,0.8262677507451489,135.33143555106523
3915.6143,0.8355610259791273,155.52744259483052
3916.517,0.8423576159897511,126.08640598020982
3917.4182,0.8469321294006183,147.0690649485395
3918.3215,0.8502816146649721,204.25623452141858
3919.223,0.8527698481585784,167.5197223623196
3920.1245,0.8538850614187679,119.36775418575928
3921.0286,0.8530726208280974,214.24148907614813
3921.9307,0.8507160468591907,122.94577779425222
3922.835,0.8481268675122655,160.7526950723451
3923.7373,0.8467104131401153,181.07805031408301
3924.642,0.8470457735536776,151.5548855741947
3925.5452,0.8486124908779811,119.59499987452845
3926.448,0.8501200452264084,143.39331413340244
3927.3535,0.8502398942316431,133.81952717088095
3928.257,0.8483725394394805,184.64645994546925
3929.1628,0.8449497400097438,201.3356686366145
3930.0667,0.8409892553019187,245.43568373036
3930.9731,0.837158252013295,221.02873930585088
3931.8774,0.8333699186292364,167.5774237199209
