wavl,flux,ivar
3566.9744,3.3497636558313126,22.544926845569915
3567.795,3.339735701970484,20.10175650748105
3568.6177,3.3229682032857664,22.77517294574934
3569.4385,3.3070075860246844,43.27394947559825
3570.2617,3.2997133280224418,25.760373912111234
3571.083,3.3055240274709567,29.110377826658777
3571.9065,3.3224434106559255,18.25320619481502
3572.7283,3.3421885682862063,33.92784180978278
3573.55,3.354606292864294,23.45612631385127
3574.374,3.353478199834729,43.60878913483508
3575.1963,3.3399231698879057,31.418620827764332
3576.0208,3.320406303816634,24.680513670709377
3576.8435,3.3016074234355397,38.724121370044294
3577.6682,3.2859589396518247,38.693661071348764
3578.4915,3.2718928886167298,18.033536810039354
3579.3145,3.2567752605820237,19.242240515869184
3580.14,3.2402420598499866,24.185351328871434
3580.9636,3.225376398884003,22.541405781123263
3581.7893,3.2170132564863985,29.228939344555386
3582.6133,3.219363255778516,29.413979867371644
3583.4395,3.233556813904743,44.890599566104996
3584.264,3.2566104359513366,23.75328992883704
3585.0884,3.282721674351043,25.058813610506665
3585.915,3.3060305607591602,32.3142520583716
3586.74,3.3230690752794096,23.00097790005378
3587.5671,3.3336937450405206,32.269365646810925
3588.3923,3.338948149787197,33.807083657574985
3589.22,3.3390522049111317,27.02891270535465
3590.0457,3.333050278751577,28.859351054139676
3590.8716,3.3207532630483576,33.56522558635252
3591.6995,3.3044417785816136,24.83436478864852
3592.526,3.288604977218511,27.273911229539856
3593.3542,3.2775570233158833,19.709240841333845
3594.181,3.2736387512162235,39.51512445972257
3595.0098,3.2763184292798266,35.72885870261208
3595.8367,3.282807661038646,19.07972728832508
3596.6638,3.28935653762838,20.17156738210831
3597.4934,3.2923908700761872,28.999564410939975
3598.3208,3.288913947752784,52.53294311728099
3599.1506,3.276752034357359,16.914787230031155
3599.9788,3.255636501857717,33.114052852844644
3600.8088,3.228210708698706,21.294273882574835
3601.6372,3.200164184021441,25.00987482448688
3602.4678,3.1777169544082957,27.33599107213245
3603.2964,3.165535164572076,35.305953131830776
3604.1252,3.1648105153209958,35.57900655358332
3604.9565,3.173617449344762,25.536498324963908
3605.786,3.1881772720832036,20.211918275462445
3606.6172,3.204897249335686,31.046933934441103
3607.447,3.221111826455843,32.467767895002225
3608.2788,3.2352263422279575,23.06597994368297
3609.109,3.246260748657925,32.72531794736521
3609.9392,3.2542678704637233,21.69854058699479
3610.7717,3.2603223667018275,23.353466253300265
3611.6023,3.2661753525547046,34.045179006147
3612.435,3.273594813066337,25.071060410894994
3613.266,3.282910926110188,47.43438433670199
3614.0994,3.291618604413976,16.43631008339929
3614.9307,3.2940130005560295,25.316631348202158
3615.7625,3.2838101379565448,26.934547443661064
3616.5962,3.2580972600368567,20.547285001890106
3617.4282,3.2202240263400794,37.47651369881646
3618.2625,3.178110591075737,30.871917661498284
3619.0947,3.1408864137830173,36.31542401356059
3619.9292,3.114486279825373,26.57385235400008
3620.762,3.1007732150082044,29.816404918681812
3621.595,3.097113290482014,25.122691368403377
3622.4302,3.0977145005628626,26.630815692492973
3623.2634,3.0959104217103586,22.531725253412194
3624.0989,3.087410329742159,32.567425471885294
3624.9326,3.072323072123735,43.82730563888401
3625.7686,3.0539567057746284,52.202439392421574
3626.6028,3.036252128224572,54.98724306979098
3627.437,3.021811838838354,37.97355049608475
3628.2734,3.0127183342472668,22.04711001129071
3629.1082,3.011847463862995,35.84355037729801
3629.945,3.0218761040681974,29.331619960478534
3630.78,3.0418769633471046,110.64957575655606
3631.6174,3.064960878707113,24.30107447755226
3632.453,3.0801939814801647,34.80021191873359
3633.2883,3.079634268892622,25.278569418856858
3634.1262,3.0634845095573393,34.27218396806342
3634.9622,3.0397917448948513,24.420465121460122
3635.8005,3.0184450139371153,45.317480779140226
3636.637,3.006062874029066,25.557961150083766
3637.4756,3.00401936735304,38.037388593951086
3638.3123,3.010053375497407,42.62226008454926
3639.1492,3.0195469540042517,54.58387804472274
3639.9885,3.02618929971852,41.575283870627686
3640.826,3.023694983199181,33.339683947096766
3641.6653,3.0097029630559162,47.87475522854609
3642.5032,2.988833455085847,38.23031035135111
3643.343,2.9710199726330973,24.684029432613556
3644.1812,2.96590581066643,35.63289884099227
3645.0195,2.9766739188652096,49.3304982815462
3645.86,2.9986914572422494,31.344564714378798
3646.699,3.0225188593421657,37.8169306825128
3647.5398,3.0396832937326455,33.86186634658085
3648.379,3.0463173100351226,40.41270153702689
3649.2202,3.044165854768245,27.29485864257656
3650.0596,3.0384857250152493,36.17928323818615
3650.8994,3.0348784203959696,37.783099539742004
3651.7412,3.036346370234203,24.853230266975913
3652.5813,3.0415414082754393,42.046839324588205
3653.4236,3.045277907473776,48.24379347959625
3654.2642,3.0413449137554855,54.172934894915
3655.1067,3.026455048750488,28.602691592846405
3655.9475,3.002820224612967,26.724243239627928
3656.7886,2.976963963277991,38.18289146255663
3657.6318,2.9557949297501205,25.964354379022645
3658.4734,2.9429892793822905,40.92840041305181
3659.317,2.9384005865337537,40.06338976633175
3660.1587,2.9412438888768713,23.829893711932876
3661.003,2.952366442554848,31.04027056654016
3661.845,2.972842497332456,26.31780414045213
3662.6875,3.0007059779768275,34.22001399189907
3663.532,3.0296566808219563,30.24680545621413
3664.3748,3.0516563790854203,61.79182274184534
3665.2197,3.061317123655217,25.896729933550724
3666.063,3.0568992933804147,36.50357021098862
3666.9084,3.0391045197884776,33.57334270257989
3667.752,3.010265843878315,23.39157565462466
3668.5977,2.9750966638573444,27.824555685584375
3669.4417,2.941775458304675,34.91983033464323
3670.286,2.918580632207284,35.5878610407465
3671.132,2.9092372745878605,55.19483859241895
3671.9768,2.9103830118514935,27.424012410955815
3672.8235,2.914246662920184,50.04786713329993
3673.6685,2.914438768955095,39.91780437539998
3674.5156,2.9096752598913693,27.6433075899742
3675.3608,2.903079349023351,29.23747454819767
3676.2063,2.898920031697317,44.3120588629884
3677.0542,2.9002072527070113,29.688594491705732
3677.9,2.9076850816494986,42.763017275393366
3678.748,2.9192353081606597,30.3701341527983
3679.5945,2.929405557115071,27.669764754061255
3680.4429,2.9313069075967384,34.54118843371742
3681.2896,2.920583727292847,26.364848087481658
3682.1365,2.898791260814993,37.557287433752066
3682.9856,2.872471353013266,31.515688108963133
3683.8328,2.8489620239967537,32.87167726427591
3684.6824,2.8319245948581697,26.092631834806287
3685.53,2.821351501348088,39.570782607778106
3686.38,2.8156584586616336,49.03150615294953
3687.2278,2.8140991235912813,37.163357253003404
3688.0762,2.8166300563695947,52.57167663725329
3688.9265,2.8225298567242785,74.1981263979404
3689.7751,2.8294562212150702,35.31689575890891
3690.626,2.8344257764623677,46.280603743438775
3691.475,2.8355126177902923,37.98665094262975
3692.3264,2.8327951499554302,39.298905740579656
3693.1758,2.827691316666545,38.12289606537876
3694.0254,2.822054356716167,36.54356339805029
3694.8772,2.8182710224132315,34.891334685027644
3695.7273,2.819462653271674,35.08249752480369
3696.5793,2.8280909538180525,43.50860434019566
3697.43,2.8434056471734745,30.531708185320575
3698.2825,2.8604573392033137,26.115743223583465
3699.1333,2.872086432016289,28.351001516384613
3699.9841,2.873498826797656,29.48296662431292
3700.8374,2.865189863788082,38.53950525302537
3701.6887,2.8524862120422294,36.0662361926807
3702.5425,2.8416143900561304,28.545037317180217
3703.3943,2.8359687983474804,40.2328473486251
3704.2483,2.834691352131795,24.04007051798891
3705.1003,2.834593515476682,29.446485144134655
3705.9526,2.832886001707711,53.03143135480833
3706.8074,2.8286402715482737,38.1268849482837
3707.66,2.8224408343153797,44.5314531211746
3708.515,2.815133383463626,42.480995243068904
3709.3682,2.8072879570192186,34.956067513888534
3710.2234,2.7993104234568618,40.79960301048392
3711.0771,2.792082012203471,49.08328983599929
3711.9307,2.7866039904647715,47.375526330602725
3712.7866,2.782975905077716,34.63218750608406
3713.6409,2.7798314786499425,52.537781742484086
3714.4973,2.775190721333079,31.292374330006602
3715.3518,2.7681204085454802,28.703155218819102
3716.2085,2.759188889757098,39.18517402976081
3717.0635,2.749791982114102,49.89646689875663
3717.9185,2.7410185173634973,49.01484563024934
3718.776,2.73339731704212,61.401543589811894
3719.6313,2.727162062595658,39.052746581530805
3720.489,2.722380035205939,32.56724336347825
3721.345,2.7192800114182236,57.73332795285054
3722.2031,2.7181548507479523,53.48872305530515
3723.0593,2.7190004854371086,37.42554519991707
3723.9158,2.7211840756963053,37.25490788330851
3724.7747,2.724020045358031,29.869738483498757
3725.6316,2.727596767155039,28.64883506475834
3726.4905,2.7325126307720953,46.02028446073311
3727.348,2.738355760486511,51.08659775514764
3728.2073,2.743289471730573,36.32482541855372
3729.065,2.7455193590703066,40.653937522300616
3729.9229,2.7450319553103335,33.29879870218236
3730.783,2.743123215913587,66.6084056961907
3731.6414,2.740725266053394,51.873991152319064
3732.5017,2.7378651624790082,44.145438459374866
3733.3604,2.7348591780343154,35.065321167375366
3734.2214,2.732980119357708,43.14526255879763
3735.0803,2.7333619696718077,48.72813090124959
3735.9417,2.7353153291161654,43.904479637385386
3736.8013,2.7363426749824584,31.872162895866058
3737.661,2.7339903064677107,42.70006092301847
3738.5227,2.7274725826766226,47.98806499327456
3739.3828,2.7176438636448887,45.3878470707956
3740.245,2.7054358845360715,41.68070034265092
3741.1055,2.6909554973327965,41.40372718447425
3741.9683,2.673616570161307,52.07164898847172
3742.829,2.6537981430243165,38.9323593452735
3743.69,2.633656937757055,72.01275700598475
3744.5532,2.617181911132691,36.56255545796336
3745.4148,2.608898314712384,46.75458475387024
3746.2786,2.6112556614382556,37.65477450710512
3747.1404,2.622713247236439,60.12805211271694
3748.0044,2.6378251213039534,31.499000144446704
3748.8667,2.6498271130660513,65.53517280733546
3749.729,2.6545866649840852,38.80837586897024
3750.5938,2.6523528972598576,49.202182237798326
3751.4565,2.646649886593432,56.43934143027025
3752.3215,2.6413766913608487,40.06936176121196
3753.1848,2.638753953627764,66.34689005556713
3754.0503,2.638997587772544,66.20246689128766
3754.9138,2.6413390872856084,110.8024883696865
3755.7776,2.6450807179052793,37.730370867507766
3756.6438,2.6500953341146865,41.02761139087338
3757.508,2.6565431347604735,54.486193920350196
3758.3745,2.6643232530520606,36.12602949518188
3759.239,2.672614527909391,43.83095280948032
3760.106,2.6805221907975945,34.005201783774474
3760.971,2.6877369290099287,34.27513513751951
3761.8362,2.6946351199272174,53.09901079803625
3762.7036,2.701067943105864,31.05523049922351
3763.5693,2.7052763007780998,38.89977064478859
3764.437,2.7043531290174796,47.60909489297571
3765.3032,2.6960374064656882,32.79833237762254
3766.1714,2.6806767342417395,52.78750083767546
3767.0378,2.661882914010753,39.58451180059837
3767.9043,2.6447188989846415,43.58283198048054
3768.7732,2.6330419786953834,36.52266506376249
3769.6401,2.6277008368082826,33.269345859975104
3770.5095,2.62648205816841,57.13351808517042
3771.377,2.6258396952090095,42.368383887408704
3772.2466,2.6225605715828038,49.52053777502125
3773.1145,2.6150254649009064,31.545363396845623
3773.9824,2.60384500912853,44.55473866433563
3774.8528,2.5916883610159305,39.751158274138575
3775.721,2.582153359891046,53.71850336737154
3776.5918,2.577888117806445,45.851384602238554
3777.4604,2.5800707073416054,34.09265872678385
3778.3315,2.588914817149728,57.14700607163557
3779.201,2.604231460310693,52.64318437054422
3780.0703,2.6249678512330963,44.600197974669115
3780.942,2.6482076998980943,48.91829613368785
3781.8118,2.6693185650238287,34.76618979822223
3782.6838,2.6845169743223063,37.23487728020577
3783.554,2.6927820746375666,46.928759002182716
3784.4265,2.6962546076818197,50.51097859535998
3785.297,2.69796974532926,47.75575840432177
3786.168,2.699553118706801,59.313207613301564
3787.041,2.700136873276869,34.43465124484992
3787.912,2.696842745212132,39.135502485159655
3788.7856,2.6862846357244536,48.79796728751138
3789.6572,2.6668419170232163,28.601224761006108
3790.531,2.640200644556138,63.42168952694411
3791.403,2.6114071136200003,39.2943730721699
3792.2754,2.5858317633662646,35.50382677560777
3793.15,2.5663020840531807,40.55768710092967
3794.0225,2.5519679614233723,66.63571900366202
3794.8972,2.539069110106687,55.885521882402344
3795.7703,2.523573306978079,46.97913898246758
3796.6455,2.503177409163732,45.391599676497286
3797.519,2.4787353356051747,40.97053751715153
3798.3926,2.4533776719124303,48.31643762131561
3799.2686,2.430900833592737,59.53610839117051
3800.1426,2.4145713905769437,96.60345313927144
3801.0188,2.4064476424181356,44.12936439564389
3801.8933,2.407701925196086,63.96536666131014
3802.77,2.417879058349488,57.38918063622371
3803.6448,2.434170846974331,50.692325244781806
3804.522,2.452327263392073,50.14099313673639
3805.3972,2.4688507167422027,40.96290493340375
3806.2727,2.4835549413655236,53.11409373158893
3807.1504,2.4991855522241275,70.97789762715071
3808.0261,2.5186217354472418,64.86625084926328
3808.9043,2.542495345391229,37.618889990703266
3809.7805,2.568540051176728,32.78911572706897
3810.659,2.5939854868022416,46.573075838582085
3811.5356,2.6170846713941325,56.47563886064379
3812.4126,2.638010698833279,38.3303423037995
3813.2917,2.657840009176443,30.861457861840428
3814.169,2.677099731871258,40.87804286818641
3815.0483,2.6948794094366733,35.93026387628663
3815.926,2.7081565058483807,33.09581605974841
3816.806,2.71333987599174,38.36356236676745
3817.684,2.7084097069810715,45.95505562227644
3818.5623,2.6946492959333384,41.67699312348848
3819.4429,2.675920022299958,48.346597955856765
3820.3215,2.6565139508695292,48.249690578267675
3821.2024,2.6385497597904397,42.99779682706916
3822.0815,2.6218543100546525,41.74638407262097
3822.963,2.604946070766974,36.30658079426115
3823.8423,2.5867057325667586,50.24792350651913
3824.722,2.5661216647909457,59.42214364482664
3825.604,2.5419063928728876,36.151763908724526
3826.4841,2.5135575601398465,39.98390922199253
3827.3665,2.482795826208024,57.2796703249555
3828.2468,2.454215049328199,64.6504503513056
3829.1296,2.4317132914550204,51.33715168112456
3830.0105,2.415360188156496,48.845490147691216
3830.8916,2.4004703237452967,65.77358722191406
3831.7751,2.3808727876556226,46.622004304977196
3832.6565,2.3526109477785866,120.16563723757562
3833.5403,2.3148021562204453,60.86630426388956
3834.4224,2.26960100239148,50.71992034120497
3835.3064,2.221035043212116,66.69087408151452
3836.1887,2.175837389133241,51.813469951536696
3837.0713,2.1420875430836475,162.19581640956378
3837.956,2.127286173249037,80.87477197989298
3838.839,2.135349171741853,62.2230086827562
3839.7244,2.1648698095586103,68.43049091744862
3840.6077,2.209756548146248,59.473912761155816
3841.4932,2.262200042331885,75.83362488251169
3842.377,2.3145556454420855,42.57731510471286
3843.261,2.361734820556669,44.15953550405899
3844.1472,2.4011705271837127,93.53545253894973
3845.0315,2.4321176346410467,39.410843097865786
3845.9182,2.455636230555022,39.859594339712366
3846.803,2.473661120429856,51.7141301813396
3847.69,2.489280172250462,45.79369855306287
3848.5752,2.50571537787207,44.3051734694764
3849.4604,2.52534176648347,56.52107400102244
3850.3481,2.5484504278905993,58.385176888687525
3851.234,2.5728896956733323,43.44900564380424
3852.122,2.595598241114818,36.56801591951961
3853.0083,2.613682036286526,34.515750477169114
3853.8967,2.625666192011083,42.38507662198059
3854.7832,2.631113494743607,48.49294973368482
3855.6702,2.630569315344008,42.02436923274155
3856.559,2.625504652235539,41.926306355502604
3857.4463,2.6187242049836965,56.14221450604882
3858.336,2.614011098174651,37.93810650112929
3859.2234,2.6146883885124566,42.2415292896772
3860.1135,2.6213263392180406,66.21300159167208
3861.0015,2.6305707054752157,44.06168504735605
3861.8896,2.6366360358101173,46.69274626339378
3862.7803,2.6345497964904054,43.96725971830555
3863.6687,2.6231748454867425,40.626818488702426
3864.5598,2.605702722919546,35.84204008050695
3865.4487,2.5878776896641926,37.63730038443866
3866.34,2.574586177702421,47.83910074222854
3867.2297,2.567891092170787,30.663402612123562
3868.1213,2.566413609912889,69.94747799446003
3869.0112,2.5667612970835285,44.36445762797558
3869.9014,2.5653575730657403,40.2263092423565
3870.7937,2.55981894259529,34.17351518237007
3871.684,2.5494321355706706,47.99197486957585
3872.577,2.534703383257336,54.34640209445373
3873.4678,2.517078509214356,49.2407975014971
3874.361,2.4983114537946816,64.97130557680548
3875.2524,2.480143534946417,55.19453999947583
3876.1438,2.4628386202900434,63.88737179851824
3877.0376,2.4445501718050866,47.75518018161298
3877.9297,2.422280996957983,62.33397439920088
3878.8237,2.3936501833420416,55.851855535380835
3879.716,2.358797771985705,65.49875561694311
3880.6108,2.319479791519587,42.04983635429767
3881.5037,2.277936819708315,54.9226520371333
3882.3965,2.2348185962530844,68.20586405172304
3883.2917,2.1893263118035327,77.3865417627303
3884.185,2.1405725189956804,51.22265192904749
3885.0808,2.087799571517772,55.095338773443956
3885.9746,2.0317543462959504,69.55335907988531
3886.8706,1.973577963671652,73.14096969003563
3887.765,1.915838331884365,93.95079717666351
3888.6592,1.862049765627428,121.53971041904431
3889.556,1.8171989820357957,86.35206563787435
3890.4507,1.7870460783484328,83.3749979311928
3891.348,1.7752580459691103,144.81159241794234
3892.243,1.7821232839453187,99.30975955429932
3893.1406,1.8043897279327,120.61407205791136
3894.0361,1.8372330995155288,79.13161759039251
3894.932,1.8771834508362506,56.151449918962186
3895.83,1.9230866769566057,94.93049707174707
3896.7263,1.9742454103451466,81.27273621359434
3897.625,2.0288272625401884,65.95762709342709
3898.5215,2.082450337121066,60.66502587915241
3899.4207,2.1317202096225203,47.03518744476821
3900.3176,2.175836132840399,76.7575269031244
3901.2148,2.2175167770691426,94.87231182060432
3902.1145,2.2598713878639285,72.83764400423905
3903.0122,2.303435214402085,57.020439217134566
3903.912,2.3462703261739417,57.271694387258215
3904.8103,2.3846668789358447,59.7417220598079
3905.7107,2.416171222710184,38.90006722099537
3906.6094,2.4406987985717796,47.13340105126431
3907.508,2.4612161178711003,46.656315609621664
3908.409,2.481925185202949,39.05958116564629
3909.308,2.505819575958863,48.1026435883459
3910.2097,2.5336747412369247,52.49491840306133
3911.1091,2.564075825649105,46.82203951371431
3912.011,2.5954653028825008,27.14886684056893
3912.9111,2.6264186657617463,83.96556825578345
3913.8113,2.655747041561469,49.30267422922439
3914.7136,2.6816831452566805,33.52913833642774
3915.6143,2.702174717825,45.55276196617034
3916.517,2.7165315084299873,32.990729780978754
3917.4182,2.7256577525884653,36.81951414830687
3918.3215,2.731486577925747,40.811569581908415
3919.223,2.73547188340416,40.51260336822346
3920.1245,2.7380811585804645,48.845917141379964
3921.0286,2.7390491192141493,36.98416312361531
3921.9307,2.737945432212702,40.05390458776807
3922.835,2.7344574074963126,35.52870010157474
3923.7373,2.728648218490352,38.226044323406754
3924.642,2.7214463994843694,36.659968743097146
3925.5452,2.715161052073663,38.241126514105154
3926.448,2.7127592032941457,38.37851430355555
3927.3535,2.7163013332879755,36.63161948588777
3928.257,2.7253614444656464,35.09884482881898
3929.1628,2.7369097821959096,36.99929245097852
3930.0667,2.7465574703041664,49.06524732281886
3930.9731,2.7508208959789657,44.44793464054025
3931.8774,2.7484699742903285,66.45996176264516
3932.782,2.740725115601004,31.4163184522857
3933.6887,2.730189619828293,42.313750119712054
3934.5938,2.71981848558059,44.02759546466743
3935.501,2.7118122715757873,47.614769928248805
3936.4062,2.7068210736270735,48.75102269827145
3937.3142,2.7031832261504887,41.23235488016155
