wavl,flux,ivar
3566.9744,13.63542367888654,8.671541485618656
3567.795,13.706190760766392,8.793484551346564
3568.6177,13.709691248701533,7.831628257040972
3569.4385,13.665350884460919,11.375291792362962
3570.2617,13.597524092406728,10.817741767652405
3571.083,13.52621344686163,8.575207369391523
3571.9065,13.462481600236412,10.62265563088385
3572.7283,13.409520835687724,10.746117160986097
3573.55,13.362449612698228,9.725725552760263
3574.374,13.31230882065946,10.569345637045402
3575.1963,13.252509570728144,8.37799513095797
3576.0208,13.182114580658107,11.604506690926174
3576.8435,13.105854590239678,10.11687310477466
3577.6682,13.02888821052086,9.722807873181036
3578.4915,12.955602655160254,11.077272932999767
3579.3145,12.887916139749711,11.62942738510087
3580.14,12.82497963291075,11.656954363458285
3580.9636,12.763647878392586,10.415610916896119
3581.7893,12.700272599524812,12.318313449749313
3582.6133,12.63771220725985,10.546632732772055
3583.4395,12.588545827491995,13.206608791614098
3584.264,12.573657957132738,10.886860458237466
3585.0884,12.611313849618375,11.846767643458978
3585.915,12.706215022265171,11.61283618668015
3586.74,12.842510538031371,11.023516320284086
3587.5671,12.989235441117769,9.92619090738018
3588.3923,13.108779635977578,10.046709616061387
3589.22,13.171822474128097,9.850275467512066
3590.0457,13.164595989295707,9.682711294688366
3590.8716,13.093381873934817,8.867929453307395
3591.6995,12.979268593951245,12.7426593681454
3592.526,12.850551683662493,10.554235463917827
3593.3542,12.731669305670879,10.66545378071038
3594.181,12.639245758361671,10.226759293412231
3595.0098,12.578854691487825,13.020511936415138
3595.8367,12.54833792348613,11.26485516399457
3596.6638,12.539212280279726,11.081075657667222
3597.4934,12.540092163561106,10.933421564007862
3598.3208,12.539321161952136,11.181930070438533
3599.1506,12.52793494356581,9.68750540067082
3599.9788,12.502861075628784,10.983566955295554
3600.8088,12.468900454752042,12.007907025565505
3601.6372,12.437220266640857,13.408364381681938
3602.4678,12.41696131349912,12.048566820471706
3603.2964,12.407315251751607,12.988175222055895
3604.1252,12.398266171579392,11.4126720293374
3604.9565,12.383202893924834,10.450682643974366
3605.786,12.370423517012682,12.11816510727084
3606.6172,12.379753806600151,13.057298076462855
3607.447,12.426920662316805,11.812909202128335
3608.2788,12.510786783124319,10.683439939564762
3609.109,12.612572992471069,10.600076906866011
3609.9392,12.706897398921082,9.607839105119384
3610.7717,12.771802876138358,10.63533321779193
3611.6023,12.794813052982041,9.224970439646256
3612.435,12.775936436115826,10.573012989582912
3613.266,12.725510753681723,12.412766530072481
3614.0994,12.6587252876764,11.187244499629843
3614.9307,12.58931946621642,9.92110449546642
3615.7625,12.523438576259984,11.005848178418367
3616.5962,12.460315500628205,11.28823095102142
3617.4282,12.397107820281896,10.840023742603499
3618.2625,12.333079453167533,12.225048540171258
3619.0947,12.272444089248788,11.235229448554472
3619.9292,12.220219995414945,10.997608151031606
3620.762,12.1787994586102,13.286895235629585
3621.595,12.145448231482835,11.847775018885931
3622.4302,12.11582892180068,12.145423117048905
3623.2634,12.088549107737808,10.516294960773857
3624.0989,12.065819500851903,11.040084626259825
3624.9326,12.051280136758042,12.594334216982563
3625.7686,12.046309605857518,12.242708897015449
3626.6028,12.048924011456917,11.23562980911941
3627.437,12.054217893493547,9.420480531373181
3628.2734,12.05615139283328,11.072893129585728
3629.1082,12.049792689181247,12.570096059776029
3629.945,12.033151569160346,10.24576239393856
3630.78,12.00754936624412,11.742159799904819
3631.6174,11.975945632369262,12.048701339267348
3632.453,11.941846380666158,11.886232683297274
3633.2883,11.907831402403216,11.99384926516609
3634.1262,11.875067808267024,13.171284454414437
3634.9622,11.842727710129825,12.495969394357662
3635.8005,11.807447766874615,16.370557393969044
3636.637,11.766425889022038,11.206113909657429
3637.4756,11.720063199442816,13.590760125832293
3638.3123,11.67359933173436,13.498539522232505
3639.1492,11.632933155248805,12.239841588245932
3639.9885,11.600268939758552,14.02081853268577
3640.826,11.572655038358569,13.133063135212794
3641.6653,11.544084563898199,12.442883241393933
3642.5032,11.510189240317416,13.402409756943772
3643.343,11.469792449140792,12.838436838007297
3644.1812,11.424702579390052,14.394180639515564
3645.0195,11.377039446666142,12.506575455548708
3645.86,11.328039718370734,12.897337758764776
3646.699,11.278680967872416,13.463723689258611
3647.5398,11.23047192972472,14.35805360279907
3648.379,11.187428941504345,14.920256944482926
3649.2202,11.153942398993307,12.894977750328458
3650.0596,11.131782369084158,13.494022477404734
3650.8994,11.116487558657846,14.803895430224106
3651.7412,11.099266560375238,13.092642454322965
3652.5813,11.073278091733231,13.460289287792795
3653.4236,11.039257445047312,14.410654130961856
3654.2642,11.005981617859867,12.088309447337833
3655.1067,10.983596778054274,14.584185300658183
3655.9475,10.977426466961647,15.038329557244653
3656.7886,10.986097422101977,14.390425925275178
3657.6318,11.006035851435326,13.029433170708922
3658.4734,11.036374498897349,12.33622980645137
3659.317,11.07994857073162,14.332372309943764
3660.1587,11.137792167114494,13.455780885984368
3661.003,11.204490079196104,16.353249110947367
3661.845,11.267452653771397,12.24855051421548
3662.6875,11.315077966815672,12.903460175078022
3663.532,11.343032376509283,12.163206532194257
3664.3748,11.35476683471589,13.95664115064752
3665.2197,11.356218236847429,10.883045956577373
3666.063,11.35077524074921,13.692330690989115
3666.9084,11.340075233119874,11.70859314801109
3667.752,11.32754634310646,13.405724347339623
3668.5977,11.318760987825138,12.499341808590115
3669.4417,11.317795725901549,14.174265839190067
3670.286,11.322724869704688,15.252518391778107
3671.132,11.325491752203243,14.13026262547509
3671.9768,11.316794311935405,12.847645748241547
3672.8235,11.292633364035595,13.51467059289742
3673.6685,11.257309643759692,12.86783290447328
3674.5156,11.219839287037635,14.975489135819505
3675.3608,11.188407507977045,14.668511560507874
3676.2063,11.165907308420026,15.01374194964129
3677.0542,11.150944202210583,15.502800234132712
3677.9,11.14081111540004,13.09071725396729
3678.748,11.133129460498862,15.000074709833026
3679.5945,11.125924508219244,14.195688092348115
3680.4429,11.116812765324642,14.367214937950797
3681.2896,11.103688165742096,13.859547438014307
3682.1365,11.086114285943935,14.890452599954601
3682.9856,11.06648646008745,16.419036410263182
3683.8328,11.049821349193248,13.452160315673181
3684.6824,11.041486823926004,15.738111388219096
3685.53,11.044907266538367,13.130203808934
3686.38,11.059707806301855,12.518608925762306
3687.2278,11.08192713924201,13.947651306393455
3688.0762,11.106436365436247,15.191577046504658
3688.9265,11.129490077878954,14.946621103874893
3689.7751,11.149743883740674,13.61815909532196
3690.626,11.167798569237583,13.91176279261814
3691.475,11.184737343261236,12.45012002669079
3692.3264,11.20242761627559,11.941520730380416
3693.1758,11.223024745125086,13.357103914265386
3694.0254,11.24722725219867,14.422241474580288
3694.8772,11.271451103026529,13.422901983698047
3695.7273,11.28784075145598,13.750231576281458
3696.5793,11.289062397869776,13.080634801583965
3697.43,11.273535362314488,13.164903044803756
3698.2825,11.247127284096436,15.396828498891471
3699.1333,11.219586455162007,14.158481591107615
3699.9841,11.197854605403666,14.25231308247819
3700.8374,11.181996954580265,16.179474661407905
3701.6887,11.165934853115868,12.912219236045587
3702.5425,11.141800885329214,11.807360537568126
3703.3943,11.105612832652563,13.549735094100296
3704.2483,11.059126446706513,15.982360042719701
3705.1003,11.009046370981528,13.624328780646328
3705.9526,10.962600046482626,14.560870994279101
3706.8074,10.924469189684245,14.994243953602119
3707.66,10.895455461254013,13.195537816165919
3708.515,10.872414369084723,15.021263682431982
3709.3682,10.850957134575598,15.328929900847756
3710.2234,10.827110001041143,14.633280854896963
3711.0771,10.799115718975749,12.891215745632463
3711.9307,10.767447006533304,14.935063386356369
3712.7866,10.73405098830394,14.933632381308813
3713.6409,10.700968269253499,14.257301622505674
3714.4973,10.668010829033962,15.2383857693734
3715.3518,10.633093086681301,15.026986679674579
3716.2085,10.59356550524193,14.189230699156958
3717.0635,10.55006142562489,13.328985877415187
3717.9185,10.507385782121569,14.01495588647199
3718.776,10.472502697141216,16.7863947065021
3719.6313,10.449990416929847,15.304589126098175
3720.489,10.437962683797258,15.724199316980648
3721.345,10.429647335059087,15.98977952706339
3722.2031,10.418138491089344,17.523762335272306
3723.0593,10.401123898264812,13.292490302026982
3723.9158,10.380736070463534,15.667752749965715
3724.7747,10.360200352918852,13.696629015440235
3725.6316,10.341622314146854,17.478829799893234
3726.4905,10.326158413633557,15.07703436464723
3727.348,10.315169212949494,18.64407158846613
3728.2073,10.30858508055462,15.600736707481799
3729.065,10.303001990494115,13.906898494396936
3729.9229,10.291944428629892,16.022195855064258
3730.783,10.26923261820474,17.407115417545228
3731.6414,10.233354899762878,17.25018622469261
3732.5017,10.189279769730454,17.69848226402426
3733.3604,10.147506138956317,18.920523960700116
3734.2214,10.118115496342876,19.49667217429708
3735.0803,10.105253929820734,16.082065162401328
3735.9417,10.104256025380659,16.058909357685685
3736.8013,10.105984416827795,16.87407485742396
3737.661,10.10389407635672,15.823985555376803
3738.5227,10.098064328875072,16.84547467960877
3739.3828,10.09289006307986,14.667283543133392
3740.245,10.0910330953855,18.96381573984684
3741.1055,10.089794249995474,16.355879960351995
3741.9683,10.08277391442851,16.863867046386915
3742.829,10.064922382830511,18.620404899632344
3743.69,10.035966792113635,16.583243601718145
3744.5532,10.000101726022987,17.04352608602234
3745.4148,9.963841603868884,15.39237359216559
3746.2786,9.93301138001709,19.78717251575307
3747.1404,9.911850884516747,21.216912944343637
3748.0044,9.901590745049774,17.022228058655585
3748.8667,9.90064112817954,18.867634676527473
3749.729,9.905077466274916,17.59041971521018
3750.5938,9.910166684895156,18.384402540158902
3751.4565,9.91193723247165,18.055888905148016
3752.3215,9.908895716844825,19.188805088575275
3753.1848,9.90298681564831,17.86385856787565
3754.0503,9.898912806335993,18.359429646191455
3754.9138,9.901605221998906,16.49783228171388
3755.7776,9.912883710709666,18.24378850638819
3756.6438,9.929868164416858,16.734823159425606
3757.508,9.946070410602292,19.537174327600933
3758.3745,9.955168282973014,18.22248351973513
3759.239,9.953860537483257,19.3293864822487
3760.106,9.942703502066106,18.25774556661896
3760.971,9.924626714687978,19.77529498361536
3761.8362,9.902765431346362,18.505679913489956
3762.7036,9.879305750280004,17.325662049768464
3763.5693,9.855519025490889,17.742946476358636
3764.437,9.831846378557415,17.653248368539113
3765.3032,9.808773343460695,17.491785328909256
3766.1714,9.786501993116767,19.02263833470749
3767.0378,9.76508447615663,16.207360850640637
3767.9043,9.744260686821498,19.620865640865595
3768.7732,9.72426303578465,19.138547417118716
3769.6401,9.70624170326475,18.626554516590456
3770.5095,9.691106769011549,18.204610334699403
3771.377,9.678928786712087,20.75680580696742
3772.2466,9.66896492325715,17.161346643589617
3773.1145,9.6613583092164,18.589720344323872
3773.9824,9.657714058433267,19.237803877717067
3774.8528,9.659816420737238,15.766822422773243
3775.721,9.666935673915567,18.95068595819803
3776.5918,9.674879329838548,18.378058939217564
3777.4604,9.678323928560028,18.290841318205608
3778.3315,9.674858972788385,20.46721718142422
3779.201,9.666312892727156,18.510286460185284
3780.0703,9.656475338624226,20.657892841542303
3780.942,9.648231839041946,19.135749497984776
3781.8118,9.642910573913529,17.592719437533972
3782.6838,9.64077246737547,19.972693844453193
3783.554,9.64122889828451,16.73747101216661
3784.4265,9.642685085803173,17.096801502490553
3785.297,9.643135902937596,17.45156368086555
3786.168,9.640751012838887,17.672929961808588
3787.041,9.633354327275763,19.435088933535045
3787.912,9.618054767511266,19.520013750151605
3788.7856,9.592413680765267,19.997948043436338
3789.6572,9.557135937126535,19.66130845034151
3790.531,9.51601291569798,19.82254977100676
3791.403,9.474019709237457,19.112329744128093
3792.2754,9.43376670825631,18.69316399281343
3793.15,9.395335056158546,21.52708537507985
3794.0225,9.358238812868741,20.520834932358106
3794.8972,9.322147917274723,21.78638360714389
3795.7703,9.28742360621849,19.50237142426723
3796.6455,9.253925665101963,19.527507069274485
3797.519,9.221952553878282,20.557520540647804
3798.3926,9.192650142107196,20.36913404315064
3799.2686,9.168764950827432,18.387596030369444
3800.1426,9.154358549444003,21.620397215407106
3801.0188,9.153084889079848,21.43025482532544
3801.8933,9.166754102220018,19.061246513998675
3802.77,9.194106449930242,23.03465535607515
3803.6448,9.230499797982738,17.37609999504519
3804.522,9.26965640066285,21.364865222961512
3805.3972,9.30520738379832,18.65713789930254
3806.2727,9.333607087274343,20.93299435964315
3807.1504,9.355054806691856,21.931977214672916
3808.0261,9.373065867258688,22.70887686210228
3808.9043,9.39282856984433,22.842799786331135
3809.7805,9.41784704678516,19.648135469157307
3810.659,9.447879796641967,22.138015824870283
3811.5356,9.478367030295402,18.33963151701434
3812.4126,9.503910652340679,17.35923260179041
3813.2917,9.522050253076076,21.912012018643985
3814.169,9.534337127789097,21.14465076611781
3815.0483,9.543510791159386,21.42038518385188
3815.926,9.549103071828664,20.550516994049048
3816.806,9.54692995894771,17.93429422899792
3817.684,9.532519229160552,17.65589233734421
3818.5623,9.5049854118186,17.42087277646965
3819.4429,9.467331535676418,19.955470209957262
3820.3215,9.42403001556272,19.428785363689737
3821.2024,9.377385930626666,22.162879459633693
3822.0815,9.327775047339621,19.78581344393935
3822.963,9.274192656785289,19.347646397289413
3823.8423,9.21623115213282,22.534998950134106
3824.722,9.152967425952781,19.75550032378869
3825.604,9.083048786090831,19.30603776740261
3826.4841,9.00645255284869,21.026167215660777
3827.3665,8.924821734909841,25.302297235295946
3828.2468,8.84264677111201,22.97999309167409
3829.1296,8.763519981958671,20.588318177837245
3830.0105,8.689634175786173,22.145105116265405
3830.8916,8.620001901436972,23.63107135795173
3831.7751,8.552049017671287,23.400701400836954
3832.6565,8.483602629082915,24.09495509253425
3833.5403,8.413336865195117,23.218336383729188
3834.4224,8.343433042064452,23.82653154680952
3835.3064,8.278092996982267,25.21648827712627
3836.1887,8.223019202979176,25.61337699817365
3837.0713,8.182754768869463,22.680860174331876
3837.956,8.160933953026351,25.145967071080634
3838.839,8.16082925696223,25.290781210103926
3839.7244,8.184878669892,24.96656199751239
3840.6077,8.233130967901278,24.19163680362742
3841.4932,8.302422393841622,25.968144216409875
3842.377,8.386049737402967,23.501782146908216
3843.261,8.4767481340757,22.222328977717556
3844.1472,8.568168043925784,26.837435241570287
3845.0315,8.65495482763246,22.594321024468716
3845.9182,8.734626326743811,24.222120123263633
3846.803,8.806815542224935,22.7344030936347
3847.69,8.87540419146311,21.313090673006744
3848.5752,8.945487451469601,24.505821851361283
3849.4604,9.020662656959923,21.78985406888041
3850.3481,9.099529261668474,18.975047026432772
3851.234,9.175057985569959,21.381696234562686
3852.122,9.238943102555522,21.368853616369694
3853.0083,9.283864685984607,19.86089929963737
3853.8967,9.307346844064895,19.97230909889657
3854.7832,9.312264223657019,21.74161061399076
3855.6702,9.307044410003543,21.354829959593943
3856.559,9.302897613982624,20.89353457366601
3857.4463,9.309327909011444,20.731001651875793
3858.336,9.329305079403657,20.555615855948165
3859.2234,9.357137538627807,21.118877705992677
3860.1135,9.381883336252951,21.051314910187482
3861.0015,9.393604327649319,21.422194231764866
3861.8896,9.38950511688121,18.42161940262462
3862.7803,9.373854066044313,20.90180430184611
3863.6687,9.353489716864614,20.057982961941825
3864.5598,9.332220191819015,19.614420157255875
3865.4487,9.309464972914279,19.26706836072692
3866.34,9.281556260269195,21.27972572917897
3867.2297,9.244885125300105,21.597129339549966
3868.1213,9.197124123605622,18.737510596556582
3869.0112,9.138762287630689,19.66454260083097
3869.9014,9.07259533685465,20.539166268415496
3870.7937,9.002784284901526,20.011542714232053
3871.684,8.933077214982138,21.5058907659064
3872.577,8.863816799074097,20.609440816446067
3873.4678,8.793411096784558,22.241237390003565
3874.361,8.718663620850528,20.879090100158507
3875.2524,8.637986899778147,26.3580264895773
3876.1438,8.551185468091417,24.852157934278857
3877.0376,8.46013840967227,24.87562641784352
3877.9297,8.36887807197285,25.55911235614626
3878.8237,8.280158035473585,25.431879064491103
3879.716,8.19445627785055,21.344184268902318
3880.6108,8.107238570571917,26.42187337434851
3881.5037,8.011957029470045,26.210110312533303
3882.3965,7.902166179314988,25.045334235357362
3883.2917,7.775454960528505,30.087527431259304
3884.185,7.6357201559857915,28.426424970939603
3885.0808,7.488883826880029,33.58957326929864
3885.9746,7.342207102417293,39.41196313150791
3886.8706,7.199703987501915,30.795055747374064
3887.765,7.065925718866521,35.19830988236202
3888.6592,6.9464595347649,36.4952613706128
3889.556,6.850415412721454,37.971363565449344
3890.4507,6.789573769886309,38.872617855567746
3891.348,6.7727581767698055,37.03993638327232
3892.243,6.8027085959308975,39.09088436895315
3893.1406,6.874474374541813,36.76347845778007
3894.0361,6.977079382793402,33.86217044955332
3894.932,7.098591179823065,33.96199819812197
3895.83,7.228869839419531,32.19059704218891
3896.7263,7.359656909761045,37.447971964332424
3897.625,7.4868386041961354,30.59679538469789
3898.5215,7.607713145559709,32.53906355125194
3899.4207,7.723389590540876,33.99784760985757
3900.3176,7.835470950432814,26.25000075418931
3901.2148,7.946786754061715,29.985400385385393
3902.1145,8.058878560642174,27.764169403958615
3903.0122,8.170880999882263,27.861226367002985
3903.912,8.282516036849682,25.40013723711649
3904.8103,8.393387199329798,24.88935582863524
3905.7107,8.505043764591562,24.19241858398836
3906.6094,8.617719342489597,23.696660674132126
3907.508,8.730683755141136,23.22041285921003
3908.409,8.841724217740044,22.332672307917193
3909.308,8.947752196540694,23.506938799712223
3910.2097,9.047876189474245,20.535188381703794
3911.1091,9.141673848023196,21.83177115413815
3912.011,9.230351360900544,20.158891737626256
3912.9111,9.313717499796358,20.78450873011622
3913.8113,9.391057436788156,16.745339790032524
3914.7136,9.460802412444982,20.50793310107766
3915.6143,9.52107686481329,19.456839124750804
3916.517,9.571968732708285,18.17402027019176
3917.4182,9.615091992911331,20.677454499759666
3918.3215,9.653569594030234,18.781646944581443
3919.223,9.68903717212423,18.525718085163977
3920.1245,9.720712582299164,18.25166501191775
3921.0286,9.746124030873675,17.375223272508205
3921.9307,9.76418481160208,18.343276483327344
3922.835,9.77800880018087,17.862202746321984
3923.7373,9.793502630842735,19.907071857777677
3924.642,9.815653330728772,18.0293427851699
3925.5452,9.84448275744607,18.93844277191088
3926.448,9.875138556013532,17.5490236556933
3927.3535,9.90118720471133,17.48229448329904
3928.257,9.918397392339072,18.058959723768726
3929.1628,9.92681024196932,17.222086223330553
3930.0667,9.928832702834319,17.74603878963558
3930.9731,9.926488634105377,17.92466347510133
3931.8774,9.919503424947687,16.541638640198368
3932.782,9.905471122124034,16.472822224445515
3933.6887,9.88144563355584,17.914010377780343
3934.5938,9.846114788858436,15.856027829466752
3935.501,9.800534407935766,17.609101231717464
3936.4062,9.74830141369422,17.998741868230823
