wavl,flux,ivar
3566.9744,5.390222586758618,34.0432407297502
3567.795,5.381777769200763,30.746387454882022
3568.6177,5.375548389360267,19.033267016432006
3569.4385,5.369319173670362,27.23525801517651
3570.2617,5.360485666283464,30.776212172993976
3571.083,5.3480521550237325,18.41731021641428
3571.9065,5.333104749888414,29.213114403753814
3572.7283,5.318416872874447,34.9863033114833
3573.55,5.306787533422977,33.58228282620055
3574.374,5.3000401018542505,28.18485707659415
3575.1963,5.299021066476118,29.166041631587692
3576.0208,5.303984652050287,32.4569980683761
3576.8435,5.314444858101617,28.192561025695547
3577.6682,5.328457556680302,25.634756559055855
3578.4915,5.342192215548538,27.35579039718478
3579.3145,5.351207363816717,23.490979707363863
3580.14,5.352346822386838,26.927749801760523
3580.9636,5.345286235458913,22.28029981974633
3581.7893,5.3322739963800005,40.82286508290766
3582.6133,5.316144481691343,23.252945733968577
3583.4395,5.297916737402072,29.1158771430531
3584.264,5.276758507331531,21.252225774532643
3585.0884,5.251436171917111,23.775627671852252
3585.915,5.222391656390741,26.605609904527082
3586.74,5.192449782049431,42.57142007706801
3587.5671,5.165155898485494,33.48211825673517
3588.3923,5.144057108105854,30.239697383760888
3589.22,5.1320361252282325,28.544391968366224
3590.0457,5.131894257053607,25.300894705068675
3590.8716,5.1450627610516495,47.50827419787567
3591.6995,5.169783285065563,24.128181594705474
3592.526,5.199919683421805,29.28963186851335
3593.3542,5.227223955799721,32.35245657450809
3594.181,5.244688637535492,24.786943960698817
3595.0098,5.250077585981894,23.276320704948795
3595.8367,5.2463640501740585,22.63561998856965
3596.6638,5.239949748397403,27.859250233682804
3597.4934,5.236875515966559,25.039683747281067
3598.3208,5.239201218548621,20.772799939530717
3599.1506,5.24367243040035,27.507393671745806
3599.9788,5.243791064854453,25.303979068908646
3600.8088,5.233938835655808,26.96233635344298
3601.6372,5.213079781918989,24.759498344890766
3602.4678,5.1858219369564145,21.489694334629764
3603.2964,5.16071615700001,22.253393015076206
3604.1252,5.1452050041900455,32.74766120166511
3604.9565,5.141807286913509,20.021470231569836
3605.786,5.147667123246709,28.577871027193222
3606.6172,5.1578840698867525,48.60537200236241
3607.447,5.168991396242398,35.928047495833034
3608.2788,5.179712029816338,27.648227861390843
3609.109,5.189036484792259,34.014564457090714
3609.9392,5.194909138167227,26.75909562535169
3610.7717,5.194495099023578,24.865157367571936
3611.6023,5.185948759360734,25.62746267928476
3612.435,5.170043119822163,24.771484492471288
3613.266,5.150860187256773,29.917529585079116
3614.0994,5.134264032256396,21.212670602086014
3614.9307,5.125266677965892,40.221059427702016
3615.7625,5.124859482736408,29.759839664787343
3616.5962,5.12989713105196,32.52887009822538
3617.4282,5.135741338080002,31.250298394654575
3618.2625,5.1396191082959515,30.128170323597768
3619.0947,5.141420750834907,35.667911958836065
3619.9292,5.142196435907313,28.93902477568587
3620.762,5.142316088520227,29.978445295770413
3621.595,5.1411973725181825,35.027188413080104
3622.4302,5.138392717050412,33.62824907233553
3623.2634,5.134950379596431,35.77217974385042
3624.0989,5.133788159712808,24.10001006187923
3624.9326,5.138772231514345,28.197441030466937
3625.7686,5.152721055258657,29.699438058432737
3626.6028,5.175231398826921,27.981592392245954
3627.437,5.201932825809284,25.926946940446033
3628.2734,5.225124077181296,36.544795231337005
3629.1082,5.235655659501597,33.281753334341694
3629.945,5.226720223817516,35.70308527993925
3630.78,5.19800111256962,24.03583445776511
3631.6174,5.1575601659113195,36.42823732841999
3632.453,5.118888888281449,37.40153511729791
3633.2883,5.092447685042836,24.580371238218895
3634.1262,5.08024966582857,44.80548563627242
3634.9622,5.0768822962923945,24.86423814043801
3635.8005,5.075237435691733,32.80916056653806
3636.637,5.071671807196279,27.681059331114767
3637.4756,5.066633247340679,32.85781422796959
3638.3123,5.062530573503398,31.729392514581654
3639.1492,5.061477609190539,36.420413131059725
3639.9885,5.064234186608276,30.56278920417872
3640.826,5.069571238234809,31.789585864291446
3641.6653,5.074458642758971,27.765201753456473
3642.5032,5.075594689779477,24.08512096117696
3643.343,5.071873579711931,21.848008388137426
3644.1812,5.065389388640457,24.515412011568998
3645.0195,5.059712661697405,23.864243793561215
3645.86,5.057002056755548,27.80641768554939
3646.699,5.056538534268031,31.782809078393402
3647.5398,5.05567858269666,32.424324656396664
3648.379,5.051994177536522,26.196777018253254
3649.2202,5.044611543364766,42.197381348488605
3650.0596,5.034452882523878,29.768960540554563
3650.8994,5.023610888096524,36.311110934538526
3651.7412,5.014681650821896,31.651592393323494
3652.5813,5.00996999854552,32.37526447522931
3653.4236,5.010531226841571,24.54329094439759
3654.2642,5.015608535313163,30.934842874696184
3655.1067,5.022652466940345,24.476703369970892
3655.9475,5.028359184677496,26.524522863859904
3656.7886,5.03037076568143,25.833625093861592
3657.6318,5.027641338296169,31.568856725891674
3658.4734,5.019255686254888,28.692295011361406
3659.317,5.003579107552471,27.17572918114887
3660.1587,4.980161152215575,30.684697180207223
3661.003,4.95192701052604,41.756116608698875
3661.845,4.925093895289007,38.83968076951181
3662.6875,4.905065392577664,37.4441942580228
3663.532,4.894223059411547,40.072904350412784
3664.3748,4.89269964703637,25.052715376585716
3665.2197,4.899765421048141,33.080773462938566
3666.063,4.912972079865173,28.881552721222114
3666.9084,4.9267938807076055,32.17795252934956
3667.752,4.934384392879211,23.636625442188997
3668.5977,4.9326752325187595,32.962411889516076
3669.4417,4.924841647826344,36.01183105171525
3670.286,4.917353350756199,29.26346020889549
3671.132,4.914563855748518,27.793970924443833
3671.9768,4.9162380275594595,38.72309791918977
3672.8235,4.919300855735105,27.94119989809016
3673.6685,4.920772127440369,40.394549897160424
3674.5156,4.919016643789333,35.76637784292636
3675.3608,4.913358460793755,28.317087288746524
3676.2063,4.903531694096157,27.27915761791392
3677.0542,4.889575115916154,23.846201878563527
3677.9,4.872084237384754,34.390396307216704
3678.748,4.851822613150025,29.61469792788793
3679.5945,4.829883980576858,38.39068583750159
3680.4429,4.807572289971334,36.72317121040172
3681.2896,4.787626175176006,32.873009433412854
3682.1365,4.774043320294984,35.3872630839543
3682.9856,4.77025547158232,39.83917721757739
3683.8328,4.775856742019976,35.87038423733222
3684.6824,4.785638774172261,36.31009061514406
3685.53,4.7925845435843595,38.92258659309983
3686.38,4.792509615966523,26.340680650063494
3687.2278,4.786201966211843,28.411776847546818
3688.0762,4.778435530782619,32.67389658315957
3688.9265,4.775312338834139,43.97417263983311
3689.7751,4.781606561495545,38.52496505809402
3690.626,4.798946262726671,35.96815199507044
3691.475,4.825037206080733,29.81826930442791
3692.3264,4.854474933318303,32.36267323221556
3693.1758,4.87982075819463,32.33283683146406
3694.0254,4.894432084257241,33.36416536673294
3694.8772,4.894742328303351,36.50399082707359
3695.7273,4.881884283602388,30.00995935113455
3696.5793,4.860846285882348,29.550876130441203
3697.43,4.837755370154582,35.67831312924455
3698.2825,4.816620134957946,26.02057897687995
3699.1333,4.798728939321536,36.79719335174932
3699.9841,4.783609200296552,29.660194647429062
3700.8374,4.770660065300081,32.973896859986695
3701.6887,4.7592175317988925,32.15234505475978
3702.5425,4.747560185043015,32.88087426935196
3703.3943,4.733738784167346,41.27863126573318
3704.2483,4.717409047950816,34.4213450631766
3705.1003,4.7012971138286614,34.48684272629821
3705.9526,4.689284051744067,38.07422339389065
3706.8074,4.683327420083145,39.46687178038434
3707.66,4.681777663682383,35.4634799239685
3708.515,4.680738769910484,32.39637841906709
3709.3682,4.677218819303635,32.95209990204955
3710.2234,4.671016867362839,44.27948925234102
3711.0771,4.664314936235901,31.70800943241919
3711.9307,4.659608470920199,36.35783213486349
3712.7866,4.657757104420567,33.35834163894253
3713.6409,4.6570024527224465,35.30987105892809
3714.4973,4.653463451720865,34.92557070141073
3715.3518,4.643370771559116,28.64266448829459
3716.2085,4.6256948343886455,30.29649253540467
3717.0635,4.6035413155058595,28.711110394465162
3717.9185,4.582237918435479,38.54349972570308
3718.776,4.565962837916512,30.32740232412313
3719.6313,4.5554607981947495,37.999646933714345
3720.489,4.548463634642004,39.472469437488236
3721.345,4.542924855460524,29.23247400627354
3722.2031,4.539107579150198,43.76527188671338
3723.0593,4.539014810374244,32.07631884060745
3723.9158,4.543826678398051,33.596860043924615
3724.7747,4.552597471098225,44.93893205797611
3725.6316,4.563168762951962,42.40999278607056
3726.4905,4.5742165510627855,35.00414071457287
3727.348,4.585683104044881,30.489107702294906
3728.2073,4.597937730366184,42.74054464022805
3729.065,4.6100588205126565,31.953696877445946
3729.9229,4.619143697891031,33.433159234675266
3730.783,4.620841079891582,33.229094342188546
3731.6414,4.6117457777242326,31.754553478238183
3732.5017,4.592060726077471,38.80524885262064
3733.3604,4.566391549197798,33.2923788835171
3734.2214,4.541405941547806,38.306521033520134
3735.0803,4.52330375638259,35.210004410891344
3735.9417,4.515285369299822,44.658593670102974
3736.8013,4.517143901963856,40.57971467065918
3737.661,4.525522046616058,38.10219383194545
3738.5227,4.535668425390803,40.66118042307423
3739.3828,4.543208240327671,38.842553196780734
3740.245,4.5452871889546875,45.24192277240492
3741.1055,4.540688644060728,34.311547457150525
3741.9683,4.530216141307073,36.99363652410127
3742.829,4.516890311553161,30.854605402912547
3743.69,4.504369962992344,43.485294696195936
3744.5532,4.494631514888525,36.448508844056775
3745.4148,4.487138130400199,44.20622852344885
3746.2786,4.480224950991175,35.14913508633709
3747.1404,4.473272863260953,35.63938980960929
3748.0044,4.46672364097902,47.73230176876134
3748.8667,4.460810442507734,44.988041578359734
3749.729,4.454814888147635,34.89708673637793
3750.5938,4.448376579233736,48.45138521697507
3751.4565,4.44313984211362,37.2873984074847
3752.3215,4.442171180548281,50.55097391028434
3753.1848,4.447311469526543,38.94365303233939
3754.0503,4.456682218180239,30.56719588906015
3754.9138,4.464919208794473,34.21639261427289
3755.7776,4.466543567201192,40.66382156258708
3756.6438,4.4596052817126095,30.294093105937
3757.508,4.447266693297271,39.10405597395098
3758.3745,4.4357538417341695,42.454153411517844
3759.239,4.430586497904052,41.26217214273963
3760.106,4.433092023615434,44.84583954165268
3760.971,4.439839854801268,34.22194146073719
3761.8362,4.444990422864568,36.04261356546053
3762.7036,4.443965097101572,43.51583266345353
3763.5693,4.435889819754662,39.486215040725526
3764.437,4.4230291284271335,45.703680847101616
3765.3032,4.408261084558054,40.96004385966532
3766.1714,4.392746704191322,36.27866001537464
3767.0378,4.376099033498562,45.66691697480396
3767.9043,4.357523575192764,34.12910072693655
3768.7732,4.337116440326581,43.944104869309996
3769.6401,4.31658053396734,36.72519195522884
3770.5095,4.298810749014189,45.606551872852634
3771.377,4.287503441665496,39.00886404688549
3772.2466,4.285202201991835,40.039987500651655
3773.1145,4.291770675406562,39.55397667767928
3773.9824,4.3038827562652235,43.56633023259859
3774.8528,4.316805116244664,46.3794716458481
3775.721,4.327440783638862,45.68704689005668
3776.5918,4.337222497801844,37.678319334861555
3777.4604,4.351493636805645,50.33718828704201
3778.3315,4.375729262640045,35.35596771656812
3779.201,4.410151105412104,36.514039086903495
3780.0703,4.448342381543825,39.80634408670424
3780.942,4.480537267646478,37.72790006890472
3781.8118,4.499206533419066,35.99574944322485
3782.6838,4.5031726628166435,42.11205070493427
3783.554,4.49616539248409,45.50069500452035
3784.4265,4.4826337532046425,38.23787877747398
3785.297,4.464508969511753,40.2403119841516
3786.168,4.4413608500918125,37.53359771188217
3787.041,4.413411745693859,34.42218154182446
3787.912,4.383825196409164,41.18776255136328
3788.7856,4.357070071978788,42.88726642583505
3789.6572,4.3361605468123505,39.052199586373625
3790.531,4.319744913674612,41.62660551380677
3791.403,4.302994878621606,39.40859210625888
3792.2754,4.280122988792542,43.68272785165063
3793.15,4.247584688341656,42.92291101011257
3794.0225,4.206186128623969,42.14686721622995
3794.8972,4.160451123359504,40.22404358278175
3795.7703,4.117636575432674,44.87629497938092
3796.6455,4.084296296406654,50.71169376574487
3797.519,4.064458129458372,52.6476355115177
3798.3926,4.058042361307523,56.2916648598867
3799.2686,4.0624153603778534,54.37226933835793
3800.1426,4.0748850832472625,47.627900314399504
3801.0188,4.094896381390596,55.004000920956805
3801.8933,4.123569509697453,40.19027192226748
3802.77,4.161622399561766,52.72431746199307
3803.6448,4.206305212087788,49.46814772178716
3804.522,4.251840539722708,41.784588331586505
3805.3972,4.2910813255451465,38.54095794392614
3806.2727,4.319628361846683,43.77382656659285
3807.1504,4.33709947671046,40.44052651881489
3808.0261,4.346494950495129,30.79448965247926
3808.9043,4.352483052690232,41.16009075979254
3809.7805,4.359137695316476,46.98617553121744
3810.659,4.368727053140881,40.24970488407429
3811.5356,4.3810898959107405,31.624912841298848
3812.4126,4.394024276824256,40.37498164442021
3813.2917,4.403881070386204,36.86937881253341
3814.169,4.406685851953573,36.95166024876939
3815.0483,4.4000502972862705,35.99731728539238
3815.926,4.384540955766067,36.93082358004575
3816.806,4.363163452237506,49.7347814742686
3817.684,4.339600190770124,38.9607577679367
3818.5623,4.316410505318358,49.81365790535369
3819.4429,4.295377521182559,41.36485440548222
3820.3215,4.278294290686796,38.314445781136435
3821.2024,4.2657673215333425,48.78628808714907
3822.0815,4.255956368567236,49.156215300056736
3822.963,4.2445278054298,39.10331902712682
3823.8423,4.22760308127653,38.35490178827768
3824.722,4.2044068446027065,47.89646272331464
3825.604,4.177316738475665,50.00695130654822
3826.4841,4.149358534423608,63.003116355577596
3827.3665,4.121049620247137,40.65466835828442
3828.2468,4.090720293552128,40.99769489989253
3829.1296,4.055627882301006,50.589529817276386
3830.0105,4.013948247968896,41.12855796460449
3830.8916,3.964405923751752,48.56178086201923
3831.7751,3.9065867135450647,45.43534625954867
3832.6565,3.8425283347258246,54.28912777046691
3833.5403,3.7770289520155367,45.49571409377577
3834.4224,3.7190144540032435,63.47613732123977
3835.3064,3.6781229865540555,71.9216677278048
3836.1887,3.66161268035978,65.01357144238642
3837.0713,3.670297143480156,81.11982786894517
3837.956,3.698780053823134,69.4247769092615
3838.839,3.738582292226689,45.16699790118974
3839.7244,3.7834543608295013,63.5521979521943
3840.6077,3.831066616872065,52.02791063329951
3841.4932,3.88223168500121,51.80777635672747
3842.377,3.936784662800629,47.365058052747905
3843.261,3.9928641802548124,51.77392441005333
3844.1472,4.04767332697909,47.843462760934905
3845.0315,4.0987654663236235,46.78706692489629
3845.9182,4.145294308956397,35.022510178222014
3846.803,4.186368218776711,37.59535928444836
3847.69,4.221570047688168,47.09776725194642
3848.5752,4.2503728170058555,42.414267230831626
3849.4604,4.272917624480607,41.9509552272713
3850.3481,4.2897965519203085,43.21577036253732
3851.234,4.302085243232964,39.157845263397704
3852.122,4.311526457697899,45.95842764784765
3853.0083,4.31941719578877,44.099693075755994
3853.8967,4.325562234839094,40.29429830217365
3854.7832,4.3278915023126645,37.04103500814641
3855.6702,4.324166680309263,34.02472856486534
3856.559,4.3142406190129785,42.46588410013061
3857.4463,4.3013035572575395,41.54328544236133
3858.336,4.2908157314027795,38.45022473931731
3859.2234,4.288476345865606,39.626651452585726
3860.1135,4.29777226365431,52.48042262657622
3861.0015,4.318483836349514,39.87139625952876
3861.8896,4.34661934976235,60.53021035220781
3862.7803,4.375606990028579,35.64428873252689
3863.6687,4.398128432512779,36.58463702240965
3864.5598,4.408961466797262,40.096666824461494
3865.4487,4.406201439657497,37.765242332223345
3866.34,4.39154701737938,41.11115598418441
3867.2297,4.368692962777829,37.618989968778905
3868.1213,4.340806006620223,43.397867547993265
3869.0112,4.309467201161571,39.50734836561838
3869.9014,4.274758955795332,42.40933581154957
3870.7937,4.237020979322366,34.48332168273335
3871.684,4.197929290012623,53.73027896513501
3872.577,4.158752547508061,40.30578019142487
3873.4678,4.1195080492489975,37.25843454814972
3874.361,4.0784549130988665,46.99839449304922
3875.2524,4.03504357248399,56.29876621688876
3876.1438,3.9906819359871197,42.77493918512001
3877.0376,3.9477778675220185,42.843668117522
3877.9297,3.9073865081214105,49.56473544017773
3878.8237,3.8672471721760866,43.12432005975079
3879.716,3.8238782130053934,45.7191914412177
3880.6108,3.7742878988418496,54.872223535615746
3881.5037,3.717976298761788,82.47652216554795
3882.3965,3.655510121004534,54.077158766610005
3883.2917,3.587443865354783,56.278014173173986
3884.185,3.5140105094302876,58.64614868188065
3885.0808,3.4338433885512485,69.96527893825267
3885.9746,3.3465859776176705,54.377403983441205
3886.8706,3.2538110212888056,65.81960328192557
3887.765,3.163264506067755,85.81162642348491
3888.6592,3.087877418342055,81.97952222109978
3889.556,3.0429247853110684,104.22560255225257
3890.4507,3.040014513499045,103.94271068732583
3891.348,3.0812404668053346,83.99068827083394
3892.243,3.158292662124285,93.56014323487504
3893.1406,3.2568528574983335,65.51398883645139
3894.0361,3.3605412272757933,61.29713282080291
3894.932,3.4572570039888286,59.790755733885746
3895.83,3.5407723515294864,55.40495864519852
3896.7263,3.610362458117042,51.166059495231316
3897.625,3.6702823326272207,66.15268679514563
3898.5215,3.725388455806116,50.18781380932794
3899.4207,3.7798173712588023,66.04627973216625
3900.3176,3.834493486884233,50.54443575826603
3901.2148,3.888438101492979,53.69032507497673
3902.1145,3.939746759274158,50.979983585478855
3903.0122,3.987126561253763,45.54731952127552
3903.912,4.031835755112286,40.30786073202684
3904.8103,4.076071617211764,53.45685946954664
3905.7107,4.121597634168317,42.57427683020075
3906.6094,4.167198214255389,58.341293667488394
3907.508,4.209912854091779,34.01933686377468
3908.409,4.247457372097108,45.733519960540264
3909.308,4.28033012640932,39.5391104992463
3910.2097,4.311974015781144,36.582617044889425
3911.1091,4.345172735637608,64.30221354408955
3912.011,4.3798633095172965,31.596176639133517
3912.9111,4.412074388712085,43.68760696279665
3913.8113,4.436694345957149,40.0424058757493
3914.7136,4.450313911116356,36.71126958598153
3915.6143,4.453156865095832,37.27282622669541
3916.517,4.448906673545728,35.37037820766878
3917.4182,4.442468491471496,46.08997743020246
3918.3215,4.437651368675113,41.730841584901086
3919.223,4.4361776163799815,37.83910338898949
3920.1245,4.43793529877085,43.562116141898265
3921.0286,4.442159847102772,42.335169957516214
3921.9307,4.448550458075421,41.38334592579639
3922.835,4.457913926760047,34.07179985200658
3923.7373,4.47158372623214,35.75868502652124
3924.642,4.490313241093666,36.528286411594706
3925.5452,4.512565529494125,38.111096914882665
3926.448,4.534306189589623,36.64113535158846
3927.3535,4.550386940969679,32.211602397449724
3928.257,4.557231399439512,42.02704857826788
3929.1628,4.554973008053174,37.28177583437733
3930.0667,4.5462981946475365,35.609147601124675
3930.9731,4.533608018932061,39.821804686451216
3931.8774,4.51761732651233,36.71744058213559
3932.782,4.498255982123126,42.353133154048706
3933.6887,4.4767979185741735,40.10775445189326
3934.5938,4.456418902195632,39.16326631545085
3935.501,4.4401167765279155,34.40374804452329
3936.4062,4.428973278462164,39.990361253850416
3937.3142,4.4214715517486,47.279620933643464
3938.22,4.415038128876755,35.794158354855206
3939.128,4.407282878469293,37.69324311238897
3940.0342,4.396521465027734,42.391401804726925
