wavl,flux,ivar
3566.9744,18.319168490864126,2.7296625506443624
3567.795,18.267784342845165,3.0717944070768395
3568.6177,18.214066504657698,3.256954808449914
3569.4385,18.16792550322104,3.8193938799103044
3570.2617,18.129346142220697,3.0111728676064105
3571.083,18.089806031527647,2.571181281410986
3571.9065,18.040704359774136,2.7340790516963507
3572.7283,17.984948532230327,3.2297241126360965
3573.55,17.93803052199288,3.184388938072064
3574.374,17.919276547583056,2.974266456761286
3575.1963,17.939271706393214,3.568613941267232
3576.0208,17.99255193745705,3.5925601942715306
3576.8435,18.059487049045206,3.1016443612987006
3577.6682,18.116653195253914,3.3663784803825942
3578.4915,18.14717808448126,3.135362847935868
3579.3145,18.14812997696974,3.4393734312813957
3580.14,18.128590395643457,3.1315264667145954
3580.9636,18.10336323249315,3.0705514863376777
3581.7893,18.085584552544553,3.0391258539867123
3582.6133,18.082504833374742,3.0352680173595608
3583.4395,18.093385220674868,3.265684605159135
3584.264,18.11031512238634,3.226939347099079
3585.0884,18.1221710180137,2.857970749783286
3585.915,18.119996513385658,3.0916629743723854
3586.74,18.100334596640522,3.0572192313405964
3587.5671,18.063952167912507,3.2598924408717385
3588.3923,18.012941710623124,3.021225159741765
3589.22,17.9485671148361,3.8752560658838506
3590.0457,17.873713499630114,2.9956534980031906
3590.8716,17.793395104657424,3.4019280728558763
3591.6995,17.714495231138613,3.350442193104023
3592.526,17.643385210016653,3.3108475717527632
3593.3542,17.58245132893991,3.125225989634904
3594.181,17.531344416686657,3.2458867053053044
3595.0098,17.487566804802622,3.330892996892526
3595.8367,17.448585132628057,3.31871828100163
3596.6638,17.411429877341426,3.000869851042533
3597.4934,17.374538392025897,3.2975141179335323
3598.3208,17.341155088974727,3.4152980978085745
3599.1506,17.32018060247656,3.624856568207002
3599.9788,17.322611907872925,3.2843295208852186
3600.8088,17.3524321096921,3.623538169599791
3601.6372,17.40070666594098,3.5167901503811936
3602.4678,17.449356041285103,3.3237497963091127
3603.2964,17.480888301585832,3.170521902470966
3604.1252,17.488697151646278,3.4429889249518437
3604.9565,17.479113183048895,3.0116028001920694
3605.786,17.46776154693216,3.2580376856981617
3606.6172,17.471382473403764,3.8038468386248603
3607.447,17.49809994505485,3.1965433868568454
3608.2788,17.540113457294858,3.8388413625911086
3609.109,17.57457405215771,3.2245610611359727
3609.9392,17.575964579183232,3.408755277974503
3610.7717,17.53055658198632,3.2676034112660743
3611.6023,17.444719191062575,3.4560555130357984
3612.435,17.339788053747554,2.9775632102703327
3613.266,17.241694912142805,4.211819286174632
3614.0994,17.167346813100234,3.0248784037395886
3614.9307,17.12073876080755,3.6300583815956338
3615.7625,17.094860463048665,2.895197462794615
3616.5962,17.081272278218453,3.2462321081004206
3617.4282,17.07679456126475,3.6152040290246465
3618.2625,17.083310020746044,3.4914079090032883
3619.0947,17.102394692889145,3.2483843714652862
3619.9292,17.13032324895383,3.210380541214851
3620.762,17.156562283113836,3.135614461640242
3621.595,17.166781232774,3.4949541682116787
3622.4302,17.147392100647142,3.398557212476121
3623.2634,17.092132920411206,3.7636078376145683
3624.0989,17.00706215258936,3.637309653491401
3624.9326,16.91237781596627,3.4011710850843393
3625.7686,16.83413836126999,3.870335550647129
3626.6028,16.792971317015926,4.778167347534262
3627.437,16.791469600148837,3.3494299727330255
3628.2734,16.81348289324607,3.3932851960209347
3629.1082,16.83358056998431,3.3990936797422044
3629.945,16.831789875317398,3.8232652555226694
3630.78,16.802378984068845,3.505332536611998
3631.6174,16.752728681685355,3.920984840490992
3632.453,16.696233245954286,3.5751447049861245
3633.2883,16.643478606564702,3.267252310819996
3634.1262,16.598527939292694,3.8057250541483056
3634.9622,16.560202746984807,4.093446749076842
3635.8005,16.525217010271675,4.088807375451173
3636.637,16.492650323677662,3.657028352365266
3637.4756,16.46373679857827,4.248494153533276
3638.3123,16.43988162070686,3.5104097118904605
3639.1492,16.419425205437545,4.080867640664987
3639.9885,16.398364736260586,3.8015385933479844
3640.826,16.373924217793647,4.113741806546553
3641.6653,16.34700661343085,3.6739143673231407
3642.5032,16.321899007624506,3.331302049897201
3643.343,16.302020265871995,3.8777821188827253
3644.1812,16.286393339090132,4.091756116663322
3645.0195,16.268502173478634,3.9515572292484507
3645.86,16.239621826099192,3.1265803395232106
3646.699,16.19419981247031,3.7463609313159263
3647.5398,16.132663998840183,3.38471810999335
3648.379,16.06170257967102,4.010008463624933
3649.2202,15.989831433308655,3.7362357334756875
3650.0596,15.924687395495743,4.203955710226206
3650.8994,15.869360052074331,4.240895154739961
3651.7412,15.8235631390418,4.0182779740742305
3652.5813,15.786915687908188,3.949256783505693
3653.4236,15.761358887946212,4.259436831013362
3654.2642,15.751047038719655,3.424264985363717
3655.1067,15.75713837962776,3.9235487912434164
3655.9475,15.773653979525186,4.392771413676423
3656.7886,15.788615561208648,4.190127538440193
3657.6318,15.790655508911069,4.2499069314714415
3658.4734,15.77594251646147,4.96114208280402
3659.317,15.749642268391266,4.4162148305650835
3660.1587,15.721622852537717,4.026792479345314
3661.003,15.699973838222995,4.460728132821762
3661.845,15.687965882050433,4.2805971178445015
3662.6875,15.683761041883677,4.310507154436785
3663.532,15.683132901300551,3.841499669970718
3664.3748,15.68213075718874,4.208087995518827
3665.2197,15.67825409032683,4.041991560277538
3666.063,15.669822387563409,4.661126492004377
3666.9084,15.655195814312439,4.3117709323974545
3667.752,15.63371791897901,3.8336539055329073
3668.5977,15.606391577133715,4.519471432370051
3669.4417,15.57563130763522,3.777878831192597
3670.286,15.543568602222104,3.487743831207481
3671.132,15.512447932237299,4.134275446768868
3671.9768,15.485596577718493,4.038687578581725
3672.8235,15.465487958373727,4.02424763161166
3673.6685,15.450862297786465,3.5895994107268674
3674.5156,15.435745226585915,4.287933210677109
3675.3608,15.414097773109766,4.168649303108755
3676.2063,15.384978745382792,4.341145068920406
3677.0542,15.353162565861037,4.602648721200552
3677.9,15.324187287302532,4.568128584776169
3678.748,15.298347861273626,3.925797981422869
3679.5945,15.271869155109293,4.090446379150727
3680.4429,15.241969001625229,4.824350796539447
3681.2896,15.21115965730788,4.334728133245
3682.1365,15.184727347081596,4.1891849859106145
3682.9856,15.166262140848564,4.443108386227718
3683.8328,15.15570560914843,4.7219813106261155
3684.6824,15.150662791152298,3.978413792598829
3685.53,15.1488291498844,4.488450539421959
3686.38,15.148380949894266,4.635213957064693
3687.2278,15.147690126695018,4.509694703390574
3688.0762,15.145888181484906,4.526810243825289
3688.9265,15.144166391383452,4.256429852338657
3689.7751,15.145700713187772,4.364502091181608
3690.626,15.153254345066747,4.685226755176128
3691.475,15.16634673281148,4.943656843306933
3692.3264,15.180813262518036,3.9729452874271405
3693.1758,15.190460346809925,4.406003518074112
3694.0254,15.189646527866499,3.970590980606315
3694.8772,15.17452514226577,4.810972837697749
3695.7273,15.144255165855185,4.649015176979618
3696.5793,15.10182574319061,4.360878013289515
3697.43,15.054636304209447,4.13286489717584
3698.2825,15.011151221476831,4.512841162442887
3699.1333,14.976609815133083,4.432390920843919
3699.9841,14.949045670241269,4.605316333107703
3700.8374,14.921288281752744,4.730510438792199
3701.6887,14.886486400755286,4.235004337929232
3702.5425,14.841734897096767,4.507147819870269
3703.3943,14.789087183640191,4.970617200937694
3704.2483,14.732642607242546,4.681425012276052
3705.1003,14.678118337264,4.68107919049123
3705.9526,14.631672208100209,4.717674545653631
3706.8074,14.599617913475234,4.990826486228811
3707.66,14.586072165780088,4.600590094743954
3708.515,14.589783927209282,4.79082804333682
3709.3682,14.604261419749308,4.834471934324409
3710.2234,14.620617282629048,4.624152405107991
3711.0771,14.631130595715765,4.899767638720301
3711.9307,14.631360996923918,4.245721977066149
3712.7866,14.619419188492143,4.517609424176328
3713.6409,14.594680433936198,4.340316660201087
3714.4973,14.557307926750395,4.506453552999779
3715.3518,14.510203124974849,5.319562816863159
3716.2085,14.459668459809983,4.997975878259623
3717.0635,14.415322609492794,4.615888865809852
3717.9185,14.386181203845295,5.599957111943521
3718.776,14.37772525300129,4.815514399795008
3719.6313,14.389759733264178,4.66535661580651
3720.489,14.416016755236273,5.108490774407953
3721.345,14.445715228466886,4.861659351882231
3722.2031,14.46764811129935,4.490423310337849
3723.0593,14.474221406235666,4.566558751133163
3723.9158,14.464624772967497,5.057253740670856
3724.7747,14.444058224315887,4.8880551069971006
3725.6316,14.420683844534338,5.16083378046281
3726.4905,14.400500813424252,4.585519587682321
3727.348,14.383612106530245,5.161568723749752
3728.2073,14.363049201414926,5.170586005067166
3729.065,14.329498027091955,4.591242160658287
3729.9229,14.278773154146055,4.519398246525205
3730.783,14.21664271464271,5.078553722252897
3731.6414,14.15594104060551,5.223873176245724
3732.5017,14.106185401732013,5.229808730518112
3733.3604,14.06790895153322,5.089467218425491
3734.2214,14.034075545678666,5.261247050259849
3735.0803,13.998895466613677,4.637341245911275
3735.9417,13.962417676390826,4.969584560239969
3736.8013,13.929384636372198,5.167791971735606
3737.661,13.90291474262082,5.631763443370342
3738.5227,13.881906925114807,5.847410363951201
3739.3828,13.863503264682576,5.211668575007942
3740.245,13.846663734570766,6.132690258969083
3741.1055,13.833352338259624,5.5268478912863115
3741.9683,13.825714020327162,5.562070170846613
3742.829,13.823641953902067,5.471678717007216
3743.69,13.824007677248416,5.604923036370843
3744.5532,13.82203284577285,5.798005520296233
3745.4148,13.813770379722708,4.5466694249179
3746.2786,13.799095819867256,6.371831687603044
3747.1404,13.783608321077791,5.4149482132718765
3748.0044,13.776556613877975,5.105885507152604
3748.8667,13.78564410880187,5.458500448472277
3749.729,13.811306413985935,5.267389991204445
3750.5938,13.845293916924367,5.080693656560208
3751.4565,13.873924603659049,4.806445136347467
3752.3215,13.885261672841144,4.816794247870156
3753.1848,13.874130388407327,5.180105027946391
3754.0503,13.843617975589565,5.300772188831888
3754.9138,13.802250768992385,5.729252727951049
3755.7776,13.758728321781765,5.420706658562157
3756.6438,13.718859188057664,4.972395907931676
3757.508,13.685727152322787,5.002688889370404
3758.3745,13.66015660570115,6.229885874706126
3759.239,13.641226223069282,5.734373586661644
3760.106,13.62468116311609,5.765096729582323
3760.971,13.604100725374419,5.3708150791370715
3761.8362,13.574323233664682,5.5050112863398075
3762.7036,13.535561372537618,5.51137683014601
3763.5693,13.494326629375639,5.561717747451126
3764.437,13.458950920315537,5.310730812428782
3765.3032,13.434747945091575,5.504370399055045
3766.1714,13.420668055483786,5.602975869628413
3767.0378,13.411293397767603,6.015118112466533
3767.9043,13.40051357567402,5.347276810060916
3768.7732,13.38440323098186,5.4615449484169645
3769.6401,13.362114010220623,5.946024916692247
3770.5095,13.335483079498086,5.904191922817835
3771.377,13.308805160897892,5.7150693439483975
3772.2466,13.286083367795769,5.874941038692114
3773.1145,13.268605365227755,5.17749230753825
3773.9824,13.254332810061857,5.554782483454942
3774.8528,13.241528865031269,5.8258518326257045
3775.721,13.232215030836082,6.229076997949603
3776.5918,13.230938142121447,6.147805523789039
3777.4604,13.24026783747854,4.80233309391463
3778.3315,13.257448376606693,5.642623296200515
3779.201,13.275299849227407,5.898754441234269
3780.0703,13.286425216198749,5.589770269699234
3780.942,13.286770331303849,5.362066725701424
3781.8118,13.277191614737049,6.151055967063293
3782.6838,13.262030022874855,5.476799654142884
3783.554,13.245413829176252,5.831664193157672
3784.4265,13.227615404956751,5.336653720933598
3785.297,13.206077502274884,5.151168560830877
3786.168,13.179617141395859,6.142313663176791
3787.041,13.151519988790897,5.681836458697142
3787.912,13.127085130796647,5.221259101137257
3788.7856,13.107715908108595,6.109456442370265
3789.6572,13.089766061289572,5.5138178599932
3790.531,13.068088716474307,5.420683305668308
3791.403,13.04091792016798,5.833340132501361
3792.2754,13.009641665532294,6.550043685838071
3793.15,12.975815061348237,6.103253405426086
3794.0225,12.939704553168047,5.6332454913124534
3794.8972,12.900952031376255,6.284309649804323
3795.7703,12.860993041831636,5.637552031671099
3796.6455,12.822360012672709,6.06528299174276
3797.519,12.788121949727055,5.673493752830362
3798.3926,12.760198459798122,6.46353770322025
3799.2686,12.739074614388276,6.242897299210919
3800.1426,12.723705200105274,6.441984906781407
3801.0188,12.711560612803734,6.015306238947172
3801.8933,12.700302288209498,5.917133066063296
3802.77,12.689500231143365,6.49790138206256
3803.6448,12.68222310081233,6.076946611802034
3804.522,12.684141759039354,6.750608763376177
3805.3972,12.70024812410026,6.503526756159915
3806.2727,12.730415264340154,6.690703502904485
3807.1504,12.7669307182988,6.416684751611868
3808.0261,12.795566546566375,7.077748959041078
3808.9043,12.801732054773819,5.909850670503379
3809.7805,12.777617377168117,5.7360177598504185
3810.659,12.727637861421972,5.64139025600544
3811.5356,12.668086753149817,6.261999576605125
3812.4126,12.619063715766288,6.191576313926946
3813.2917,12.594945381072982,6.276994167290096
3814.169,12.598081173083544,6.33383482566973
3815.0483,12.619130711147275,6.026827053939574
3815.926,12.642914178643194,6.237221019993805
3816.806,12.65516899047201,5.96553794647722
3817.684,12.646441610467427,6.3440693638160965
3818.5623,12.613831860682735,6.404354868829141
3819.4429,12.560524691637276,6.3677991690139795
3820.3215,12.495298528974804,6.293228363415629
3821.2024,12.429549416613483,6.574841472010286
3822.0815,12.375588047726739,5.468315782967891
3822.963,12.34219607695008,6.300097272436725
3823.8423,12.331850607297778,6.6013333120265925
3824.722,12.337614080691065,6.678614604783754
3825.604,12.345078926277072,6.161213160141602
3826.4841,12.339195242488554,5.823521410963062
3827.3665,12.313213117525372,7.192654033615827
3828.2468,12.272445234053729,7.4056301311731225
3829.1296,12.228948595340823,7.035287130541882
3830.0105,12.193436071232668,6.947286523435957
3830.8916,12.169341001322728,6.554396019857495
3831.7751,12.154591584631667,6.5665332421151446
3832.6565,12.146377890283896,7.162033002355024
3833.5403,12.144052928151714,6.8321549376449555
3834.4224,12.148374349218873,6.648391626601716
3835.3064,12.158102177215671,6.682415227550988
3836.1887,12.167949935588341,7.169069371332454
3837.0713,12.170374144985368,6.4272742084743015
3837.956,12.159744349383383,6.988728921462002
3838.839,12.13609033145,7.014818185013222
3839.7244,12.10498548430798,8.092929280450377
3840.6077,12.074313492701972,6.652662733454042
3841.4932,12.04913090924194,6.923708687699085
3842.377,12.030044478436222,5.898975686629945
3843.261,12.014507003911564,6.73474757667195
3844.1472,12.000685392806512,7.111976518546651
3845.0315,11.989785626762002,6.8531326517404665
3845.9182,11.984894041245617,6.772969542578992
3846.803,11.987993469687877,6.819807225455826
3847.69,11.997289517815013,7.146121613861551
3848.5752,12.0072779114138,7.605556974044591
3849.4604,12.011360173589939,6.929174179338827
3850.3481,12.004552733008092,7.225589298924272
3851.234,11.985206475694143,6.307803298351845
3852.122,11.955212145797464,7.365297595158467
3853.0083,11.919692815539712,7.005917347336339
3853.8967,11.884532417330336,6.892155286907191
3854.7832,11.854429276253216,6.051049676879914
3855.6702,11.83086175037211,7.715720160771271
3856.559,11.812843836308659,7.395748728193669
3857.4463,11.798214034976816,7.570214938100302
3858.336,11.784095336287498,7.268099218022661
3859.2234,11.767201504366227,7.254690426956771
3860.1135,11.744060194715427,6.619888003758889
3861.0015,11.713389384492274,7.100234635526361
3861.8896,11.677823049603077,7.784978334339234
3862.7803,11.64382685321112,6.903217746030322
3863.6687,11.618550458742462,7.611386338976099
3864.5598,11.60488767492823,8.212634700031959
3865.4487,11.60009243421363,6.801086870768548
3866.34,11.597477332049168,7.711816150176278
3867.2297,11.59103920154657,7.928592348092433
3868.1213,11.579116325580907,7.781903917914399
3869.0112,11.565059448053146,7.841591857995289
3869.9014,11.553988132564326,7.520067339119593
3870.7937,11.548337470132681,7.9280990246531164
3871.684,11.545608051255018,7.394753105338896
3872.577,11.540633617061694,7.63392715404673
3873.4678,11.53068511607203,7.108221658964706
3874.361,11.517977139070112,7.906092843418224
3875.2524,11.507351395782567,8.235997014177096
3876.1438,11.501126358937094,7.852104788691327
3877.0376,11.496873696699154,7.785534223304191
3877.9297,11.489565873048857,7.236023539871866
3878.8237,11.47530497795394,8.007420723830663
3879.716,11.453219394919111,7.556912552293395
3880.6108,11.424327786676255,7.029935140247177
3881.5037,11.390653895952916,8.63490716024933
3882.3965,11.354470119264478,7.6394362989421305
3883.2917,11.318356121197338,8.40229383204567
3884.185,11.284693033979966,7.7557265798744925
3885.0808,11.253976356545527,7.964054983130952
3885.9746,11.225220011695336,7.781157067238205
3886.8706,11.196168001288441,8.714886783044749
3887.765,11.165139479820722,7.5549819613484805
3888.6592,11.131647603981127,8.747720146410328
3889.556,11.096913015859572,7.962723935765651
3890.4507,11.063716425442168,7.522374746539544
3891.348,11.034740950085425,8.232062308988898
3892.243,11.012106713312017,8.781138952437248
3893.1406,10.996384659344173,8.948084178047345
3894.0361,10.987677610783141,8.249903567709481
3894.932,10.986369656883593,8.085232918087874
3895.83,10.99357632590804,9.16610463606575
3896.7263,11.009610626123166,8.546044507371656
3897.625,11.032298705761674,8.546911309790849
3898.5215,11.056536467108677,8.234659039925814
3899.4207,11.076952314755735,8.260407490186296
3900.3176,11.09033204609369,8.803461917453498
3901.2148,11.097167791361555,8.537484063210881
3902.1145,11.100137383157243,7.453437769768313
3903.0122,11.101852716644208,8.4102969109035
3903.912,11.10369276945156,7.780982910587087
3904.8103,11.106279375086416,8.739139704390649
3905.7107,11.11032702886041,8.195951735928592
3906.6094,11.116139567024613,8.89211152457143
3907.508,11.122536176945097,8.533691072231239
3908.409,11.126923570110641,8.088626422391362
3909.308,11.126913998935114,8.242718779585866
3910.2097,11.121733199466549,8.374156493057473
3911.1091,11.11184934513191,7.974519778180363
3912.011,11.097660275129275,8.536913449698242
3912.9111,11.079453838316617,8.074880694301921
3913.8113,11.058143938377157,8.232740527888557
3914.7136,11.036108897592579,8.54582357008719
3915.6143,11.016941305605705,8.631023604569029
3916.517,11.003499528507787,7.81619868619067
3917.4182,10.996449698902085,7.906394575171031
3918.3215,10.993608775749108,7.980897493480725
3919.223,10.991490096295362,7.891730795426078
3920.1245,10.987139058246383,7.33945225707358
3921.0286,10.978943406557566,8.353080807874425
3921.9307,10.9665837355502,8.04823102103828
3922.835,10.950960406555241,8.499583741715695
3923.7373,10.934674748584506,9.307517167534238
3924.642,10.921154515908373,8.042589446090304
3925.5452,10.913306230018819,8.360238083266323
3926.448,10.911699986501548,8.419170791092288
3927.3535,10.914143822714433,8.60844739229822
3928.257,10.916303617701764,8.055386031969876
3929.1628,10.91332560248319,8.079908536665107
3930.0667,10.90146807298385,7.822908076410925
3930.9731,10.878860121439006,9.298596273989604
3931.8774,10.846203211457656,7.789988843680581
3932.782,10.807103695049168,9.31137231800713
3933.6887,10.768579787613724,8.527132373888737
3934.5938,10.73949992637261,9.864991239027479
3935.501,10.725709867815187,8.915190671055234
3936.4062,10.726754729241195,8.93370550167607
