wavl,flux,ivar
3566.9744,0.4852267341056591,1116.808340719114
3567.795,0.4875609835273911,1107.966762390101
3568.6177,0.49030494508492384,2373.658088341419
3569.4385,0.49275476839445076,1247.8736593201202
3570.2617,0.4942046782906425,894.7479279354475
3571.083,0.4940070401189621,1026.621458927701
3571.9065,0.4920119664401359,1055.944079213368
3572.7283,0.48884015210072174,1283.8650316168053
3573.55,0.48563255985019804,1194.1085629312702
3574.374,0.4834631480476955,1399.3182190808027
3575.1963,0.4827862727085786,1075.4520635685603
3576.0208,0.48322237549623465,1051.936382507886
3576.8435,0.4839472530168441,1428.212208515675
3577.6682,0.48438173273444424,817.810489531257
3578.4915,0.4845983327310991,2039.3195075077808
3579.3145,0.48506712146138276,1359.6117760539848
3580.14,0.4860087504382031,888.2055220925909
3580.9636,0.4870389167972047,693.3534794779728
3581.7893,0.48748917375834133,1207.8258857377555
3582.6133,0.48704075439009753,1543.1798294766452
3583.4395,0.48611549988764546,1031.0966849060899
3584.264,0.4856793555245167,1391.735607956991
3585.0884,0.486604452026387,1026.73656144869
3585.915,0.4891141430158014,1925.0076209776585
3586.74,0.4926533828259316,1533.1993437537317
3587.5671,0.4963401962739682,802.5456373359215
3588.3923,0.4994501472459572,1364.2292125080478
3589.22,0.5017527180727815,1401.9738228780095
3590.0457,0.5033585247082951,1144.3299584834238
3590.8716,0.5044849007163213,1105.1939347384398
3591.6995,0.505132171492335,1021.4210264818805
3592.526,0.5049050364336289,916.6102986056592
3593.3542,0.5031166631785482,894.4810558183199
3594.181,0.4992602205071334,1239.1957875368719
3595.0098,0.4935644989431229,1232.414658620873
3595.8367,0.48731224219591035,769.8500834705815
3596.6638,0.4823023802214742,890.1171850308913
3597.4934,0.479960748193454,940.5936842994377
3598.3208,0.4805544845593908,1980.512951138693
3599.1506,0.48314552467141,1240.3649723866465
3599.9788,0.48635172175772756,887.920054661626
3600.8088,0.489310138867316,1175.7977197545158
3601.6372,0.4920415945787932,738.4800045309277
3602.4678,0.49517578288727754,1037.8649860978164
3603.2964,0.4991477235877009,2827.7974271362523
3604.1252,0.5036626093159599,904.1352868734232
3604.9565,0.5076667726989738,1122.3348090056877
3605.786,0.5098779156958018,1061.1822402651842
3606.6172,0.5095803692330544,1066.2873313682994
3607.447,0.507003953622964,1091.076235271275
3608.2788,0.5032052499472575,1075.7407480979318
3609.109,0.4995508038939639,1012.148289025316
3609.9392,0.4970333014987136,1814.7976639607778
3610.7717,0.495949003321585,1192.4180923980828
3611.6023,0.4959551313889201,1194.2797411063848
3612.435,0.49643520826160237,764.4907199712669
3613.266,0.4969914367361937,1191.900279898745
3614.0994,0.4977588028771411,1056.487245962593
3614.9307,0.4992414038908027,953.2862371307148
3615.7625,0.5017247290475856,957.8978403573291
3616.5962,0.504712993108791,1181.2174908484126
3617.4282,0.506958774667683,1382.3544359236287
3618.2625,0.5072034841451233,805.1825194400321
3619.0947,0.5048938866976062,746.4741251781529
3619.9292,0.500390968531021,1157.35469136022
3620.762,0.4947175174683785,1977.2678856730695
3621.595,0.48909573325546146,769.5863577963474
3622.4302,0.48466626180145184,1228.1281601393498
3623.2634,0.48223916029952457,1329.5738373790443
3624.0989,0.48206346994820837,1125.597009854914
3624.9326,0.48398281093804973,1222.4354383829173
3625.7686,0.4876468815814874,971.9738476875962
3626.6028,0.4924583756671331,933.6035553536475
3627.437,0.49744723594336726,1348.150819313026
3628.2734,0.5014125979109653,793.587611956019
3629.1082,0.5034758352933842,1777.8048641099062
3629.945,0.503590119420947,903.3271226258252
3630.78,0.5023914606327532,970.1569546588001
3631.6174,0.50078174919642,811.6580634341148
3632.453,0.49966059148370445,1732.8043023326632
3633.2883,0.49975125106430546,1766.4149438121462
3634.1262,0.5013628247108249,1531.0740307641236
3634.9622,0.5040664612787111,1372.5654225310855
3635.8005,0.5068126670690912,948.5271706737474
3636.637,0.508547575274534,998.7173896768599
3637.4756,0.509054908047084,809.8643844940144
3638.3123,0.5091114097420175,1473.749027272031
3639.1492,0.5098070356751667,915.7525221767486
3639.9885,0.5115354072474049,935.4987721365212
3640.826,0.5135388359876564,999.3997652087635
3641.6653,0.5144646857421711,927.9291679963699
3642.5032,0.5133820722492217,1010.0579881897795
3643.343,0.5105135312265994,686.3279837497251
3644.1812,0.5071374868605392,698.9760880570788
3645.0195,0.5047588676438554,1646.7270151197504
3645.86,0.5042944085806522,859.0462946941029
3646.699,0.5057280387388486,948.783780916008
3647.5398,0.5083516593910772,1007.5238887232608
3648.379,0.5112347542661965,986.8379593688389
3649.2202,0.513637593771237,735.6328137033744
3650.0596,0.5151121745364706,848.145851486133
3650.8994,0.5155111189116944,614.7401264256844
3651.7412,0.5148143752324743,931.3553157529904
3652.5813,0.5130193753209208,1407.9620601466113
3653.4236,0.5101864531829674,1066.5119785149989
3654.2642,0.5067035581371823,626.4285739056606
3655.1067,0.5033272723785909,995.6872419579299
3655.9475,0.5009434939468078,1583.6949262703754
3656.7886,0.500032331363245,862.5584750839705
3657.6318,0.5004331695581444,948.8553313337791
3658.4734,0.5014622620678616,1073.3983401307678
3659.317,0.5023425807445923,969.797793646109
3660.1587,0.5025927874002037,1041.2461725452042
3661.003,0.5020977782940188,878.44296980838
3661.845,0.5008185679496084,1412.637571988671
3662.6875,0.49857336839599203,1277.0997881897697
3663.532,0.49526867253829693,650.4480561260594
3664.3748,0.49135530157855783,1147.127119979461
3665.2197,0.48780561925399146,946.2097301102702
3666.063,0.4856751009621023,935.241773849606
3666.9084,0.48549675600857,810.7163862558003
3667.752,0.4871358587684087,1327.940046115193
3668.5977,0.48989411709182085,744.3070501283275
3669.4417,0.49263676543478957,1567.2977184052106
3670.286,0.49410272488925433,729.995348086301
3671.132,0.49349261815998563,902.3892125230454
3671.9768,0.4912037240757348,945.1294490875802
3672.8235,0.48889219740909645,1471.0781268042876
3673.6685,0.488517429608726,1497.4025117509418
3674.5156,0.4909183146311003,1648.185260786238
3675.3608,0.4951439278298144,945.26287434906
3676.2063,0.4990760947796609,1502.8494167771123
3677.0542,0.5007019126994754,1319.686517336777
3677.9,0.4991590041045655,1167.1361853753615
3678.748,0.4950556748464905,1189.724597310611
3679.5945,0.4901009791067816,898.3950698157942
3680.4429,0.48621141069793156,1581.3000422843645
3681.2896,0.4846004134817749,1334.3020412613175
3682.1365,0.48505632328291437,991.7096423091061
3682.9856,0.4861115258136733,1057.0675255489075
3683.8328,0.4859917964964743,1246.863899843752
3684.6824,0.48388692525001875,1392.942410947911
3685.53,0.480627586910359,1083.9639965648516
3686.38,0.4781511879093732,1496.176005932563
3687.2278,0.47814717127893647,1722.6790878099123
3688.0762,0.4808037320238419,842.5517047338732
3688.9265,0.48481883211828214,1627.6057129067474
3689.7751,0.4884470979025271,1239.0403253749216
3690.626,0.4906980242512888,1234.036947870143
3691.475,0.49152837428550183,2025.0910761919556
3692.3264,0.49131545466757004,1247.0710273291627
3693.1758,0.4902351844142383,824.7479520319195
3694.0254,0.4881886268699144,1537.0289705310263
3694.8772,0.4851574290359104,1019.7522875639809
3695.7273,0.481561793378637,1389.146101617393
3696.5793,0.4781345400903723,1240.0470131404538
3697.43,0.47555895708787355,980.114002551847
3698.2825,0.4740882563132525,860.2044382771079
3699.1333,0.47365709233316666,1298.5524600290473
3699.9841,0.47417636726383117,1375.7583238224813
3700.8374,0.4756909649609003,1138.2999976042306
3701.6887,0.4781213427476972,2130.567440794339
3702.5425,0.48097775451030916,919.0209523999
3703.3943,0.48339009445164144,1665.5571059640745
3704.2483,0.4847037062675986,1198.341125258388
3705.1003,0.484950165261091,1024.3909027884658
3705.9526,0.4848114019136628,1471.5688796865168
3706.8074,0.4850493874901482,1215.1723065213348
3707.66,0.4859762476170544,832.6393366031406
3708.515,0.4872861936393929,1430.639750750939
3709.3682,0.4882216820283217,1043.3931019752624
3710.2234,0.488059940515226,1228.0330338701742
3711.0771,0.48666103599788696,807.8037713894537
3711.9307,0.48468814472911964,1090.0267818161146
3712.7866,0.4832121190725894,1953.3910295879332
3713.6409,0.48304490047205895,934.8306653854406
3714.4973,0.48428084086047274,1787.10452920333
3715.3518,0.48631678403183365,1308.793963830483
3716.2085,0.4881914244215177,926.6485143478524
3717.0635,0.4890119629314513,1945.4096840510024
3717.9185,0.48844688160020283,837.3326947348835
3718.776,0.48692538000533125,1068.5255269164354
3719.6313,0.48543388144925653,1602.1331550729299
3720.489,0.48492602062889273,1127.2486506782063
3721.345,0.4858432246748402,823.3676890983287
3722.2031,0.4879746838729845,1177.353733429204
3723.0593,0.49064486728579526,1557.7817018944195
3723.9158,0.4930832496070469,1356.0272521459076
3724.7747,0.49471795097091964,1442.706022257643
3725.6316,0.49535060363426253,2007.2936243461404
3726.4905,0.4951602158430145,863.331636153973
3727.348,0.4944770574783322,1359.6333629511537
3728.2073,0.4935683881981155,1460.6391275423107
3729.065,0.49262802541127565,1448.2378461720414
3729.9229,0.49189289341532083,831.8845708258517
3730.783,0.49166270210743585,1212.0654448818082
3731.6414,0.49209690012062474,896.3592069804647
3732.5017,0.49305874064420874,965.3442479939213
3733.3604,0.49425571822165504,875.0438674060027
3734.2214,0.4955260507372851,1019.9980788883482
3735.0803,0.4968262255803684,628.9363468903348
3735.9417,0.49798703699638097,973.573994883618
3736.8013,0.4985592020783235,1145.3057247671522
3737.661,0.4981155624707688,1025.7602064922396
3738.5227,0.49664735990713965,975.0719973414307
3739.3828,0.49465926106340663,1166.9497150699146
3740.245,0.4928006021994036,1115.812103776197
3741.1055,0.4914821651105015,1603.6236877973745
3741.9683,0.4907155907563672,1078.1095210753485
3742.829,0.4903034491902487,1129.0125967571175
3743.69,0.49006631861388333,1066.0870653751176
3744.5532,0.49012037689182925,834.4979905033471
3745.4148,0.4914731172443292,1641.2200516301486
3746.2786,0.49731169709612394,950.0917160538669
3747.1404,0.5144627515148682,1178.8147761036016
3748.0044,0.5533883501305965,1464.704208571836
3748.8667,0.6228970137344482,1528.2714757804495
3749.729,0.7206842711375818,2941.2555995078947
3750.5938,0.8250029949286081,1357.4954958964872
3751.4565,0.8980613210012666,1985.4427829054973
3752.3215,0.9083444881536961,1164.7351449771854
3753.1848,0.8517404929065311,825.565404937428
3754.0503,0.754885926860148,1699.6466972501617
3754.9138,0.6566855539131544,1025.8137115533002
3755.7776,0.5836106415749266,1224.025134232127
3756.6438,0.5417676221159469,1399.1792744655484
3757.508,0.5236554503883658,1228.859771349502
3758.3745,0.5184074887610017,571.5026516510375
3759.239,0.5184352779130895,1104.831462279834
3760.106,0.519823959601251,1044.8919894689834
3760.971,0.5207373592634675,1454.9176644032195
3761.8362,0.5202511391972091,877.4303787396035
3762.7036,0.5180968820687967,922.7676964846162
3763.5693,0.5146487266770009,1531.1915498351123
3764.437,0.5105038549996975,1195.6541383210117
3765.3032,0.5060645287275121,1112.5536860725942
3766.1714,0.5013987768441084,1485.1951004764267
3767.0378,0.49662215822185557,1125.0174061671619
3767.9043,0.49210893265411404,1166.1698769766615
3768.7732,0.488476150666129,1143.2876798841037
3769.6401,0.4863433573083976,1266.4250940296529
3770.5095,0.4860536161889443,880.9713280063169
3771.377,0.48767532316572637,2134.0364527079773
3772.2466,0.4910538177966121,1098.0450253981733
3773.1145,0.4957818597394129,1364.9518598984748
3773.9824,0.501184351145802,972.7834755010422
3774.8528,0.5063761960883532,702.3721612816043
3775.721,0.5104797167754325,1003.4690161309513
3776.5918,0.5129818370534287,1043.3786316110993
3777.4604,0.5136694218262564,1261.1249636354116
3778.3315,0.5125374204084355,1240.1105649243964
3779.201,0.5097731263248932,1599.6819741645663
3780.0703,0.5059243470166496,925.7192030029101
3780.942,0.5018617100192477,654.7725849994347
3781.8118,0.4984057078759002,815.7398918850031
3782.6838,0.4958711668941461,741.5949330665951
3783.554,0.4942113512356069,1273.8080379442588
3784.4265,0.4933451428041517,1352.6561134221288
3785.297,0.49327531554478127,1769.6513275641496
3786.168,0.49377859281616926,1062.2567644286137
3787.041,0.49429615726811926,886.5158779985663
3787.912,0.4943108360734638,1408.9126909836746
3788.7856,0.49383490025598414,913.4149329934552
3789.6572,0.49338062825980533,1485.3663901435973
3790.531,0.4934145864066208,1294.0754190879488
3791.403,0.49385224586564486,1086.1701213133942
3792.2754,0.49399412407633286,1202.903759891007
3793.15,0.4928872780413177,998.8195425751518
3794.0225,0.4898901659100936,773.2293773459221
3794.8972,0.4850970799404718,948.0021640724017
3795.7703,0.4794628181853854,1422.1961684730888
3796.6455,0.4743174329224044,1325.1320622611947
3797.519,0.47081640775793887,988.9452856579653
3798.3926,0.46941028259152123,1020.8470129685563
3799.2686,0.4698678461596839,1178.0670056289334
3800.1426,0.47155049925633624,1391.240830489872
3801.0188,0.4737957981327376,1374.625188995493
3801.8933,0.47614672780949713,961.9003870714878
3802.77,0.47845371481296395,1519.4827121370508
3803.6448,0.4807647259115883,1258.7209706287329
3804.522,0.48327905515774644,784.9962398548538
3805.3972,0.4862475198764821,1161.897471510907
3806.2727,0.48991910483561946,1578.3500494540076
3807.1504,0.4943005122270592,981.0387117258449
3808.0261,0.49889001717841497,1967.538586820056
3808.9043,0.5028085847500664,907.5598255575778
3809.7805,0.5051827175430688,736.4936264908144
3810.659,0.5058108712018818,961.1110151519381
3811.5356,0.5053677794085502,1994.28701396502
3812.4126,0.5050541487463073,1007.3350928185746
3813.2917,0.5058358554858904,1045.566964551184
3814.169,0.5078610523255411,878.5488770541033
3815.0483,0.5105068651148191,1003.9305187716486
3815.926,0.5128806654822738,1881.3929840621295
3816.806,0.514430650574489,1079.4387787691871
3817.684,0.5151489088929591,926.2959924657907
3818.5623,0.5154323805423557,929.1427610541908
3819.4429,0.515631286651686,1007.8917081364348
3820.3215,0.5156310253324177,999.4807681495766
3821.2024,0.5148130402412158,903.535365411345
3822.0815,0.5125246522201695,1052.1343393709597
3822.963,0.5086617444311925,860.1091914142283
3823.8423,0.5038954408371351,947.5670360595897
3824.722,0.49921032363080253,1321.2923911478185
3825.604,0.4953145688466704,1760.0691931019355
3826.4841,0.49231217902293134,1161.8922129434468
3827.3665,0.48968614958331813,862.7029642247318
3828.2468,0.4866636445871789,1321.7355355774678
3829.1296,0.48251800305162323,1178.3833829854168
3830.0105,0.4769304057106161,1266.4249086530976
3830.8916,0.47005882412003236,1492.3214335280013
3831.7751,0.4624878799521077,1139.6604601232889
3832.6565,0.4550617151825044,1001.6382713245828
3833.5403,0.44847276686259796,1199.06232076842
3834.4224,0.44327574154086197,2463.520938168968
3835.3064,0.4398410183569008,1134.8722432201946
3836.1887,0.43856740017819945,1622.1743969079293
3837.0713,0.4397781614195829,2135.836833666504
3837.956,0.4435560873842062,1924.0860727122608
3838.839,0.44958807457611144,1470.3249328382456
3839.7244,0.4573944478441764,1481.702719748962
3840.6077,0.4664496792884221,790.7548372928676
3841.4932,0.47627412999477436,1111.7265153549738
3842.377,0.48596158863222405,1238.066107407604
3843.261,0.49423409254691786,721.4685778946058
3844.1472,0.49988146070146616,1390.3090448153478
3845.0315,0.5025975242625286,1188.0454937127686
3845.9182,0.5034766296782227,705.0869089554246
3846.803,0.5044271622251597,1469.155214998635
3847.69,0.5070704661642804,872.2924998315478
3848.5752,0.5118073019844821,1445.0612788456053
3849.4604,0.5178344323352292,1242.1668404541608
3850.3481,0.5239179517376066,946.6004917084113
3851.234,0.5291983063084148,860.3754179767375
3852.122,0.5336159050469972,1193.0513483748384
3853.0083,0.5375341742373718,763.125332804963
3853.8967,0.5413591696599575,762.7945413791584
3854.7832,0.5451324997802135,1166.2834519134758
3855.6702,0.5485354656175945,892.5555210235343
3856.559,0.5510813128647316,879.2243862755595
3857.4463,0.5524898226141692,848.194260299147
3858.336,0.5529067249026846,1112.6530196236392
3859.2234,0.5526669946408623,793.3834090188168
3860.1135,0.5519243637770026,910.1502040728228
3861.0015,0.5505342284174366,830.2302466583809
3861.8896,0.5482863105950805,956.0490207641042
3862.7803,0.5452000127971782,1153.366863165784
3863.6687,0.5416028491893066,836.17855991486
3864.5598,0.5379097672299333,1007.7611669717217
3865.4487,0.5345811672811708,987.4429684862049
3866.34,0.5320408269023967,985.2929146651423
3867.2297,0.5306516769367261,1089.124667613634
3868.1213,0.5304193849152025,913.0519748091923
3869.0112,0.530826599824286,712.8917862357172
3869.9014,0.5309467360559139,713.6414225569711
3870.7937,0.5298544616636389,709.5058875767763
3871.684,0.5270743913661535,1219.9444612689765
3872.577,0.5227502594193635,1058.740033618593
3873.4678,0.5175612958257316,850.4405894131315
3874.361,0.5122908623894767,1389.7175527780985
3875.2524,0.5075796241862596,1109.4890048762902
3876.1438,0.5036867009612976,1411.3957615484194
3877.0376,0.5005555828130472,824.491564918657
3877.9297,0.49787092490467544,1266.579038013943
3878.8237,0.49502350598154254,1585.5798350459238
3879.716,0.49130968445882034,969.171663225006
3880.6108,0.48619668729399534,1151.6719404313358
3881.5037,0.4796156137906762,1088.9807436437247
3882.3965,0.4717451719940708,1196.289870318733
3883.2917,0.46269774937400837,984.7451102011565
3884.185,0.45246040414264227,1362.143798772295
3885.0808,0.44090963219376683,1289.5058180775022
3885.9746,0.42833501796424023,2045.8463051368349
3886.8706,0.4154246658948313,1530.4576101308485
3887.765,0.40345292802507055,1346.80944561141
3888.6592,0.3938423205465873,1681.8585208344468
3889.556,0.3879451177953845,2142.2411602287875
3890.4507,0.3867783666226506,1752.1441001937706
3891.348,0.3906703784335476,2894.532939484635
3892.243,0.39906348702115957,1607.8055904086868
3893.1406,0.4106169987149303,1695.1432537223689
3894.0361,0.4234391188462032,1219.7939994349376
3894.932,0.43590347752953035,1593.8670685721218
3895.83,0.4469887094968124,1381.8622003942348
3896.7263,0.45623778940895654,1379.8650668381433
3897.625,0.46373498555121273,1240.3052317960419
3898.5215,0.46977855445764877,1148.7459155945176
3899.4207,0.4750080926515909,1069.1059144582475
3900.3176,0.4801728880414511,1934.8989861721993
3901.2148,0.48600778862359545,1043.403792956828
3902.1145,0.4929936180519849,902.8929627138202
3903.0122,0.501242143690046,1257.5350876493362
3903.912,0.5106020801584288,1142.6497121487716
3904.8103,0.5204602724664978,1042.7612833407163
3905.7107,0.5299786949427079,948.7226032859163
3906.6094,0.5382754297564578,873.8050078900116
3907.508,0.5449733990860167,887.5542151967358
3908.409,0.5502311353663943,843.190961501245
3909.308,0.5544564849150503,687.5300635372942
3910.2097,0.5580967671575182,867.7683925006646
3911.1091,0.5615222208214607,826.619801441747
3912.011,0.5652016847332078,585.3721319584995
3912.9111,0.5695309366582095,1022.6624769454477
3913.8113,0.5745519428874613,909.8663915677756
3914.7136,0.5797176370141809,643.4411694876031
3915.6143,0.5840673666367436,1089.4264643921915
3916.517,0.5868208301061393,815.3289390082081
3917.4182,0.587708411313685,856.4428483785938
3918.3215,0.5870615964901973,1393.7710844648477
3919.223,0.5855906691668561,822.1578365967425
3920.1245,0.5841187104264736,988.9665630048777
3921.0286,0.5833585209441594,1016.4785037240621
3921.9307,0.5837773545726868,804.1482568597281
3922.835,0.5855719430522207,851.5745810459324
3923.7373,0.5886791249440113,763.752502209292
3924.642,0.5927420345685936,925.1007809319425
3925.5452,0.5969801783000808,604.1356071036657
3926.448,0.6003873701622466,699.3895321508396
3927.3535,0.6020658900067741,632.0364469958962
3928.257,0.6015500679086232,818.2859733114651
3929.1628,0.598978911821968,733.3543102969891
3930.0667,0.5950680954501024,829.7588558754185
3930.9731,0.5908258257341628,868.4923354218901
