wavl,flux,ivar
3566.9744,5.4558054904508415,13.21743122755769
3567.795,5.501386911773578,10.545003345733996
3568.6177,5.534290365500081,9.487912994023938
3569.4385,5.5509184847095225,10.520786493409906
3570.2617,5.549960998129519,11.207954803258684
3571.083,5.533362156294622,9.726979352334062
3571.9065,5.505000723195492,8.472874472002058
3572.7283,5.468333125215696,11.259970026184828
3573.55,5.425231890730164,9.147481056739771
3574.374,5.377711287387951,9.256792676615312
3575.1963,5.329534509465126,11.291176599737303
3576.0208,5.284084721452327,9.04090058993724
3576.8435,5.243392472173603,8.173941569532102
3577.6682,5.2077828686276595,10.639956201862475
3578.4915,5.178490632492371,12.856303513261018
3579.3145,5.157166204143858,11.283136891841496
3580.14,5.143888346835209,15.183731410088821
3580.9636,5.135713119585534,14.028256681174772
3581.7893,5.127822794147098,8.790099460190767
3582.6133,5.117130556349645,16.35425727854236
3583.4395,5.1049442718254445,11.925990909852327
3584.264,5.097481261055762,10.903435530244597
3585.0884,5.102873537702634,11.236976031008883
3585.915,5.126401131152203,13.693001904209186
3586.74,5.165679409904612,17.41122794782125
3587.5671,5.21039387465527,12.185478635306389
3588.3923,5.246220498394636,9.6799802774122
3589.22,5.262852027877719,8.912621282201316
3590.0457,5.258446577929081,10.66909853214147
3590.8716,5.2395174767872925,10.824441941664993
3591.6995,5.215540396569622,13.995765308088767
3592.526,5.193569609628927,11.814900212075536
3593.3542,5.175280130503584,11.129862764368148
3594.181,5.158520561624482,10.703158912284616
3595.0098,5.1401386435509355,11.963904862082188
3595.8367,5.119058492861057,12.470181943044059
3596.6638,5.096927086564502,9.56440287784543
3597.4934,5.077426446562923,8.527595892357757
3598.3208,5.064475257509593,13.927088494523446
3599.1506,5.059776626113472,12.792222937373278
3599.9788,5.062037024414324,13.001534229541402
3600.8088,5.0676098197321595,14.697884981853111
3601.6372,5.072142585710729,12.15961088888907
3602.4678,5.071157015570119,15.247747321817979
3603.2964,5.059499443925977,14.013746675505185
3604.1252,5.032777370768166,8.267167847443528
3604.9565,4.99197336893739,16.756642799499165
3605.786,4.947766400970551,12.63779522981754
3606.6172,4.916913066274364,18.802910220685938
3607.447,4.913560166093446,15.642820808187158
3608.2788,4.940136378210856,12.020802184584564
3609.109,4.985775523055777,12.244033236686237
3609.9392,5.0323138007200985,14.077511470552537
3610.7717,5.062583898657396,11.53683371550751
3611.6023,5.066772969492515,11.436636642209615
3612.435,5.04507344311811,18.82475363047517
3613.266,5.005590023437782,14.49086423619954
3614.0994,4.95986405099329,12.54494580993016
3614.9307,4.919288204527965,12.523339339657209
3615.7625,4.891059408230027,10.350567123045835
3616.5962,4.8769713285770635,13.648004623117284
3617.4282,4.874013572428024,13.412892468643836
3618.2625,4.8767967072685225,10.570219733053891
3619.0947,4.880041105663094,11.576935546538579
3619.9292,4.879806999568755,10.438450550293478
3620.762,4.874385771287054,13.15934642023971
3621.595,4.864926950997065,13.561920443104867
3622.4302,4.85411670937797,10.45450553152765
3623.2634,4.843123814905843,19.063147428951325
3624.0989,4.8296767781330034,12.538318405942736
3624.9326,4.81076572265916,10.55051040338312
3625.7686,4.787004406274653,12.4955706321376
3626.6028,4.764857625688969,16.026429661623908
3627.437,4.753033506086469,14.381818267207873
3628.2734,4.756867245470656,18.796927883353092
3629.1082,4.774278079013021,11.921010767684022
3629.945,4.796594588120341,11.124903941154457
3630.78,4.8130632175514245,13.482385394064991
3631.6174,4.81686701005441,10.580517784444229
3632.453,4.808309847570069,10.430988176286283
3633.2883,4.794347349201448,16.089451918464647
3634.1262,4.784132420283391,13.768016521255204
3634.9622,4.783565742403665,15.440029567814518
3635.8005,4.792054178451186,15.26475206957487
3636.637,4.803893018751677,14.161867250050955
3637.4756,4.812445450040064,11.23140166892781
3638.3123,4.813401062170935,16.333326493408077
3639.1492,4.806151890882715,12.610277106700387
3639.9885,4.793142594393636,14.832778010369111
3640.826,4.778309807926301,12.829423856709157
3641.6653,4.764277160494332,15.361684411379283
3642.5032,4.7508279817139405,15.313239935292787
3643.343,4.735677595930515,14.06423861492372
3644.1812,4.718108474430856,16.400905563914296
3645.0195,4.7012068263972715,14.737715373106742
3645.86,4.690675302894556,12.98840571260015
3646.699,4.6906502352688815,13.04509158368005
3647.5398,4.699952158873837,14.80837376967194
3648.379,4.711931796606745,13.581307158497538
3649.2202,4.717901681169068,11.528738665248126
3650.0596,4.711791104210354,9.72092917363948
3650.8994,4.693790995729588,14.908551513034244
3651.7412,4.670615491279746,15.164217201229363
3652.5813,4.652621422112316,13.273999901816222
3653.4236,4.648060953013374,19.726617884230322
3654.2642,4.658182919167743,14.771157057441966
3655.1067,4.675655836065529,10.910312499446624
3655.9475,4.688484127135612,15.446471953451104
3656.7886,4.687435484274133,15.657829440284226
3657.6318,4.671018607247297,12.724738168833111
3658.4734,4.645416453413241,23.57101375065325
3659.317,4.619528985178452,16.27868642703333
3660.1587,4.600477803906191,16.160398911225737
3661.003,4.591423540862566,15.285864806541689
3661.845,4.59286541318811,13.098013039687139
3662.6875,4.603693076290814,16.190740210071983
3663.532,4.621485357299049,33.97708872731982
3664.3748,4.642273443535349,13.826149799700225
3665.2197,4.661835769967333,19.924369347532306
3666.063,4.676844080494275,15.296989236048285
3666.9084,4.685847775833696,11.285457924785833
3667.752,4.688774678235121,13.887651224684978
3668.5977,4.686802420172249,13.573949770033444
3669.4417,4.68201585274383,16.3713598205579
3670.286,4.67639647807321,14.15381709437019
3671.132,4.670139497399192,13.164398192075542
3671.9768,4.661008139008561,18.770125150842304
3672.8235,4.646107421276511,13.26084249581393
3673.6685,4.625664377612257,14.98433837670934
3674.5156,4.604714613840074,13.654323025392543
3675.3608,4.590991149322378,22.16527447005118
3676.2063,4.589145282077691,15.175773748855178
3677.0542,4.5975318906348175,12.465862465705099
3677.9,4.609904916527263,16.644657578487294
3678.748,4.620904950573347,12.493357108836449
3679.5945,4.629259329698941,17.193037973346843
3680.4429,4.636647036272542,18.20635365996438
3681.2896,4.6437243487439215,10.626496186082559
3682.1365,4.648284539298257,13.000506271262378
3682.9856,4.646768963388777,14.274765491151395
3683.8328,4.63757259739727,14.447993620056042
3684.6824,4.6229595871170845,12.468521438266688
3685.53,4.608373018111631,21.56330544834238
3686.38,4.598965412840482,15.60731643215244
3687.2278,4.596417476123384,11.660120720901341
3688.0762,4.5977616230443665,11.062815998179198
3688.9265,4.5978556808175925,13.108977808489252
3689.7751,4.593426501094088,15.759273445489429
3690.626,4.585916199666643,13.795724614930887
3691.475,4.5811647719299415,17.312201967144787
3692.3264,4.585721402621855,15.403165045193019
3693.1758,4.602047533573921,22.680055269470824
3694.0254,4.625776459153543,12.096134325532343
3694.8772,4.647329250462255,12.331846900735886
3695.7273,4.657062470882943,17.572502825858383
3696.5793,4.651076695563041,10.516156145560707
3697.43,4.6329905278644015,16.405651992021834
3698.2825,4.611235334660889,11.032368278133786
3699.1333,4.594057784459908,14.082730948057414
3699.9841,4.584758381216003,11.65794980803389
3700.8374,4.5809476654118875,12.957517212402305
3701.6887,4.577738465807652,11.492056884043562
3702.5425,4.572333425411167,12.771903020121622
3703.3943,4.565881754157817,19.676388373770926
3704.2483,4.560630269307617,16.09531396853524
3705.1003,4.556093856995078,14.301822075219253
3705.9526,4.548430024796164,14.599709497665149
3706.8074,4.533898844808425,16.431619361864687
3707.66,4.512728182606207,14.2673039185
3708.515,4.489106117013663,14.596402053476522
3709.3682,4.46851455945584,16.655961224791653
3710.2234,4.453952312958425,17.92187240564803
3711.0771,4.445131191565192,12.640030680581638
3711.9307,4.439338722122586,17.11748913420601
3712.7866,4.43337674287158,14.54109252151224
3713.6409,4.425220566409883,12.703238686563797
3714.4973,4.4149294879231356,13.30258496765272
3715.3518,4.4044387482904215,11.089866459003328
3716.2085,4.39526028922121,15.637769859772948
3717.0635,4.386368742708409,17.66281813468397
3717.9185,4.374099645439255,22.079390185269784
3718.776,4.354998906543642,13.91594317043302
3719.6313,4.329084746376894,19.251850634431623
3720.489,4.299848241565026,18.044357197919044
3721.345,4.272110994440188,15.727157282460682
3722.2031,4.248535992314562,22.659661680193175
3723.0593,4.229400118286686,10.97871919369515
3723.9158,4.213844828880117,15.042980301106196
3724.7747,4.201845846896676,16.37687240812228
3725.6316,4.194274152569913,16.928377361152652
3726.4905,4.191442051388831,16.81256270052469
3727.348,4.192330020383224,21.2698716469853
3728.2073,4.194793365957878,16.962326295363518
3729.065,4.196760040159065,15.653759200534104
3729.9229,4.197559181764946,12.885421210209172
3730.783,4.198343091857007,17.913211572122254
3731.6414,4.201183990225951,21.235397355142602
3732.5017,4.2074149967991055,17.653111669240587
3733.3604,4.2163853383346,18.41423768583169
3734.2214,4.225713339646325,15.434019812070412
3735.0803,4.232309984128808,18.176600476444616
3735.9417,4.233738388991512,17.170003172318342
3736.8013,4.228724976414305,16.455168012203593
3737.661,4.217430956752705,20.39492428705126
3738.5227,4.201308702765068,18.84921084350963
3739.3828,4.182772838906889,19.32057275654969
3740.245,4.164122124874068,15.58401103513743
3741.1055,4.147289926728768,18.977883676195283
3741.9683,4.133297368180253,17.5782984663413
3742.829,4.122316920860831,20.547011544806978
3743.69,4.1131434064745935,18.85413895881944
3744.5532,4.103751917471923,16.28269055954633
3745.4148,4.092681286522524,18.928539124350948
3746.2786,4.080012935926971,22.80223195047103
3747.1404,4.067411859641113,15.847091227537067
3748.0044,4.056626227476701,17.052047634750956
3748.8667,4.048470770118273,19.149268535944785
3749.729,4.042248799295721,20.717944665660934
3750.5938,4.036409636540129,14.606748091355442
3751.4565,4.029812364163468,16.557049140431335
3752.3215,4.022698221181726,19.152735411064914
3753.1848,4.0168237659451345,28.33219053283953
3754.0503,4.014233774978394,20.800493271336634
3754.9138,4.016065719783865,25.894521606193805
3755.7776,4.021973859543107,19.9985211431421
3756.6438,4.030468794826183,21.292046766724585
3757.508,4.039398225682944,21.052298351832675
3758.3745,4.0467026937252015,15.174810347816917
3759.239,4.050851760609409,14.938182433188224
3760.106,4.051360201828168,17.178328953361977
3760.971,4.048593149054308,25.577183390378167
3761.8362,4.043222993317792,22.692758394956
3762.7036,4.035788854572235,21.087315307955794
3763.5693,4.026973791362859,18.13875390537307
3764.437,4.0177785481004085,23.08292875110686
3765.3032,4.009118581209529,16.23856267090393
3766.1714,4.000518360508849,20.174118139059598
3767.0378,3.9900693876098794,16.419015246759248
3767.9043,3.9761160063336285,19.952502212542708
3768.7732,3.9596990705952777,23.92184427421924
3769.6401,3.945135677065183,18.152561732603875
3770.5095,3.9372467008876804,20.7211116295172
3771.377,3.9383135449169484,18.04572889291005
3772.2466,3.946819326642876,13.5841067045381
3773.1145,3.9590567632603912,21.55465508512757
3773.9824,3.9713540738769653,19.747100890858587
3774.8528,3.9806168116400586,17.56157984454834
3775.721,3.9838636306349806,22.860060459959378
3776.5918,3.9790527075500224,16.18323278021474
3777.4604,3.9667979328011485,22.197902255591742
3778.3315,3.950652537873578,26.93764816994033
3779.201,3.935159953136004,25.36586702853707
3780.0703,3.923108916349875,18.087582345057108
3780.942,3.9151690203808016,17.467972872303744
3781.8118,3.9108677720386256,24.114096541598702
3782.6838,3.908937308881429,20.879200722755094
3783.554,3.9072655228415165,16.708311310556297
3784.4265,3.903481982670985,17.900904081413557
3785.297,3.8967493833755644,22.742550309077718
3786.168,3.8889058389393787,26.25153586438931
3787.041,3.8834419131724474,24.31829623406177
3787.912,3.882665291311289,17.170312991919094
3788.7856,3.8854292151365692,17.122171322866343
3789.6572,3.88766385512564,17.017406078670035
3790.531,3.8849456237437976,25.295287068493614
3791.403,3.8746940046194642,19.47286218054221
3792.2754,3.8566173795662646,27.287966478232782
3793.15,3.832128431406674,20.285215432104216
3794.0225,3.8042535441890633,20.513703242938575
3794.8972,3.776977331363662,25.305441889929547
3795.7703,3.7546384010964826,28.50375109822059
3796.6455,3.739499245660702,22.05006995019373
3797.519,3.7309045962451743,24.56505420362911
3798.3926,3.7262499546606054,23.25203723367947
3799.2686,3.7241027048820707,17.517086177580733
3800.1426,3.725927022260896,21.821840639703073
3801.0188,3.734519276421899,28.65691571282011
3801.8933,3.75047727801892,28.922058902908315
3802.77,3.7704079720368058,19.198470009588
3803.6448,3.7881241187511914,26.364806098959555
3804.522,3.798465334441099,21.90271784625801
3805.3972,3.799751660725023,17.321972035230672
3806.2727,3.7944096932488076,20.355828245942558
3807.1504,3.7872816599414394,18.079963761593362
3808.0261,3.78330208883162,24.67843027102262
3808.9043,3.785072917120773,20.837437575967968
3809.7805,3.791761910954967,21.9090262618028
3810.659,3.8000531400408164,24.30572907910249
3811.5356,3.8066582994205,18.843126235292168
3812.4126,3.8107252622749437,20.59277118877461
3813.2917,3.813837777359896,24.783302094243798
3814.169,3.8179655293808317,18.767579899315844
3815.0483,3.8233651635973764,27.5596421989991
3815.926,3.8280448716400395,22.91967796185002
3816.806,3.8291206943648803,18.494973922499984
3817.684,3.82459315159457,22.784204306577582
3818.5623,3.8145720337426594,21.43186204084894
3819.4429,3.80100004496413,22.25803874765155
3820.3215,3.7862133833021576,22.864972899131782
3821.2024,3.7709167917066044,19.7617990474266
3822.0815,3.7541667042854314,19.299472593225214
3822.963,3.734548567839613,20.778495626989802
3823.8423,3.712115382602718,24.662447090100237
3824.722,3.6882730955794325,20.984966423795715
3825.604,3.6647444211637343,26.58799286723541
3826.4841,3.642528555412147,19.387784266618045
3827.3665,3.621293498499481,24.1866447931611
3828.2468,3.6006258434792637,26.617708573942174
3829.1296,3.580582720367501,23.955060413095772
3830.0105,3.5622950783109912,19.66221617030144
3830.8916,3.5469663186222,23.029381469768072
3831.7751,3.535262621095611,28.773922340918368
3832.6565,3.5270667514709797,24.403477542832306
3833.5403,3.52141622491319,21.342928022019066
3834.4224,3.516874165062245,26.86895339713306
3835.3064,3.511599286602714,22.975879466891868
3836.1887,3.5039035572624995,28.364884872998058
3837.0713,3.4929446564916433,22.225041663777244
3837.956,3.4795321240124246,35.503078541847685
3838.839,3.4666646299979273,19.041340406475285
3839.7244,3.4588023716378062,26.082335672104215
3840.6077,3.4601620298796165,31.75470866473156
3841.4932,3.4721528357504736,27.166210871296165
3842.377,3.492337584966557,26.90117986420092
3843.261,3.5162195886905967,24.842408086522394
3844.1472,3.540140670156633,31.325066687165048
3845.0315,3.562686235720268,24.463159879435636
3845.9182,3.5843185813876217,19.8159787246391
3846.803,3.605098901518714,23.934492699912095
3847.69,3.624075026883658,25.529934563215843
3848.5752,3.639424281845018,18.43234003294733
3849.4604,3.6501915880436697,26.637005481740076
3850.3481,3.6571438694852496,26.804943925462233
3851.234,3.662492840423732,24.16780396563214
3852.122,3.668811326200942,19.277403553513476
3853.0083,3.6775754204393434,21.51570910893776
3853.8967,3.6883539260874523,24.52906186336376
3854.7832,3.6984461510156903,20.25411303555848
3855.6702,3.7041869803797387,17.50543199979509
3856.559,3.7031292000446303,20.278255111568967
3857.4463,3.695890814197166,22.569096937893885
3858.336,3.685570540178152,26.200396433689164
3859.2234,3.675430825726911,31.601885328519767
3860.1135,3.666849745328284,21.779895063307183
3861.0015,3.659896709545495,21.417666259290296
3861.8896,3.654702383653848,22.8532210019102
3862.7803,3.651937614952366,25.4225690215037
3863.6687,3.651502228848331,23.392631844085678
3864.5598,3.651354747541718,21.486426791961286
3865.4487,3.648326428562201,26.877166336796023
3866.34,3.640152823289324,25.204009099731408
3867.2297,3.6268222503210263,24.317811153072412
3868.1213,3.6098815329079197,21.822025765901298
3869.0112,3.5911195722254816,23.261094985608317
3869.9014,3.5712410773527026,27.9433117985504
3870.7937,3.5498119480914,29.554767491218428
3871.684,3.525988730121326,32.79145158581566
3872.577,3.499073576648547,23.42113171324984
3873.4678,3.4697851522970193,23.180198593958227
3874.361,3.439736086718566,25.44254086206137
3875.2524,3.4109784689740086,30.360009750306897
3876.1438,3.384231127880192,27.563541072821288
3877.0376,3.3586261087802733,31.692271456388525
3877.9297,3.332502409466696,26.86799693998652
3878.8237,3.304061118213743,30.223108226825204
3879.716,3.272628538033206,38.70975074881756
3880.6108,3.238367140394989,26.923381220601723
3881.5037,3.202522227107225,29.532193421840873
3882.3965,3.166252104418409,26.49987227740385
3883.2917,3.130326851137934,35.33739957467898
3884.185,3.0953486404961583,27.661587276127054
3885.0808,3.061494645969089,31.77959683699182
3885.9746,3.02962313166731,27.83468795110591
3886.8706,3.0007162905936853,25.58287763866051
3887.765,2.976218646844336,41.331830957312704
3888.6592,2.957279301049983,39.3480399743326
3889.556,2.9448924026348675,41.31430632531685
3890.4507,2.940145726265462,39.219691379517705
3891.348,2.9443016140672316,37.83477375684829
3892.243,2.958770693255133,35.023316250849035
3893.1406,2.9844890817600565,42.00045504937504
3894.0361,3.020501986475131,33.33552653328017
3894.932,3.063831620244856,32.94875776296624
3895.83,3.1100436764178876,35.645194782555535
3896.7263,3.1544768336131357,32.984484258423144
3897.625,3.1945032564230518,43.242617309514586
3898.5215,3.229234707371918,32.505094341515814
3899.4207,3.259961468880743,32.48219678668792
3900.3176,3.288406002873971,24.873736456032503
3901.2148,3.31606479166426,31.597459842030393
3902.1145,3.3429777232455145,27.089839464424134
3903.0122,3.367622131726565,32.721793874354105
3903.912,3.388608852209678,25.538403484607713
3904.8103,3.4058100087069296,24.970538570602365
3905.7107,3.4212018400907698,25.61030071836002
3906.6094,3.4372688997736804,26.75114112145069
3907.508,3.4552500758011777,22.85606493378724
3908.409,3.474276985734994,28.884813653881324
3909.308,3.4924997190220384,24.12518899155029
3910.2097,3.5095166981644854,25.56708573404063
3911.1091,3.5269813455099923,27.628469811648458
3912.011,3.547846126493226,29.489470269135992
3912.9111,3.573766122547516,24.432131380136312
3913.8113,3.6037687656962234,22.643629263740262
3914.7136,3.6342977203753217,20.433452857367545
3915.6143,3.660915276523798,25.863080724528608
3916.517,3.6812272835705597,24.408369517522434
3917.4182,3.695567257524882,21.588072867002587
3918.3215,3.7063499737716197,20.91907673338649
3919.223,3.715829779083034,24.08597732419139
3920.1245,3.7251594342409575,23.37590496070419
3921.0286,3.7345726876423684,21.89672064786989
3921.9307,3.7439468167271244,21.85453570928168
3922.835,3.752870568148611,24.070274840608562
3923.7373,3.760030447311974,23.49338247141249
3924.642,3.763797615245923,16.490537557646185
3925.5452,3.763555566698887,20.162806300374513
3926.448,3.7607222063529937,22.082911790143168
3927.3535,3.7579149913248076,24.89021879621817
3928.257,3.7573052101679285,23.821132760834377
3929.1628,3.7596629791828517,19.048062381973896
3930.0667,3.764539558770572,22.16206861832658
3930.9731,3.770541188301005,24.63059044597605
3931.8774,3.775151752270358,24.15324023941957
3932.782,3.77527301274445,20.776951416328913
3933.6887,3.768473047139669,23.27506973252279
3934.5938,3.7542046475063353,21.358491507731003
3935.501,3.7333874941560676,24.155092190787677
3936.4062,3.7074820037219443,19.314259904132125
