wavl,flux,ivar
3566.9744,11.543284104830715,8.149508042295661
3567.795,11.55620663039415,6.575773393537076
3568.6177,11.554107841709587,6.599440248198533
3569.4385,11.537748574430207,9.442386681450651
3570.2617,11.512009397740885,8.075470524147233
3571.083,11.482871707885462,7.131685058694431
3571.9065,11.454221954206764,8.82895578279038
3572.7283,11.427639492943642,7.601477368078674
3573.55,11.403523063634696,6.966865832194989
3574.374,11.383802491179699,7.181865631699157
3575.1963,11.372877935309727,6.4761311807276085
3576.0208,11.375172711542092,8.33525562762371
3576.8435,11.391845258518918,8.713198475467234
3577.6682,11.41932534922339,7.566874568458172
3578.4915,11.450988800810649,8.408687017656487
3579.3145,11.480922356106555,7.216156990195218
3580.14,11.505367172004467,7.567888642296833
3580.9636,11.521136229161682,8.923770800848457
3581.7893,11.524448060246831,8.08806481006839
3582.6133,11.51180800858561,5.6463979022705155
3583.4395,11.483117738447199,7.801360564223776
3584.264,11.443300738724407,7.944953412448207
3585.0884,11.399541261282994,8.47686578559348
3585.915,11.357061285367195,7.280772424548679
3586.74,11.316821284262431,9.378632508757088
3587.5671,11.275937723494266,6.784739887695852
3588.3923,11.232534473609908,8.624366707517073
3589.22,11.188354841132202,8.416426125720216
3590.0457,11.149045831804292,8.708677293071784
3590.8716,11.118812405930411,7.375962035267032
3591.6995,11.096820061125099,7.23272196604484
3592.526,11.078075335046842,8.394838968801192
3593.3542,11.058193731514876,8.155437325525487
3594.181,11.037768825474435,11.055401824463877
3595.0098,11.021192988353745,7.438050375759622
3595.8367,11.013344509774875,7.4724037288873495
3596.6638,11.017367082136351,8.497065468875933
3597.4934,11.035511758366715,8.807257937933336
3598.3208,11.068159014234858,9.789015212403008
3599.1506,11.110112140476724,7.788629983512144
3599.9788,11.146543746544221,7.108024408547935
3600.8088,11.157877892001476,7.232035911616775
3601.6372,11.131304306925692,7.626865040514965
3602.4678,11.071058325331002,8.846773539284769
3603.2964,10.997710374932232,8.789426844868299
3604.1252,10.935612669014208,8.407847803721074
3604.9565,10.901249779348943,8.146629849841732
3605.786,10.89789689079276,9.191107469077295
3606.6172,10.916396062626024,9.40911005257714
3607.447,10.940896835681533,5.881923354179234
3608.2788,10.957091299219687,8.848718848118681
3609.109,10.959522132866281,8.934465404144614
3609.9392,10.953620598274126,8.179777381770263
3610.7717,10.949660295379106,7.8011886295276085
3611.6023,10.954299539003292,8.550856487424518
3612.435,10.966491276275178,8.586289889203218
3613.266,10.979883968963819,8.903786343700363
3614.0994,10.98808651940265,8.751144330208323
3614.9307,10.987524921704168,9.061960659812701
3615.7625,10.977211561968211,9.284711365042387
3616.5962,10.956460422905014,9.232127250442987
3617.4282,10.923706358420027,8.896651848479866
3618.2625,10.8768309151264,7.925046313451394
3619.0947,10.816115160598788,7.261784144224729
3619.9292,10.745232363879406,8.585055526398156
3620.762,10.672477226557401,9.664540064030424
3621.595,10.607889555496707,10.973630994527142
3622.4302,10.560861144477684,10.454655088176779
3623.2634,10.536876697075437,9.505450695591183
3624.0989,10.534429023323739,9.222852994827658
3624.9326,10.546419307565046,8.742579179036264
3625.7686,10.564406519376359,8.581572447777944
3626.6028,10.583087385001834,8.30838725873008
3627.437,10.601339115559863,10.885270179418008
3628.2734,10.618684046340947,8.622388388946646
3629.1082,10.631350439345418,7.964638076255743
3629.945,10.632367169381023,9.688390253336252
3630.78,10.615105444258656,8.081790283550848
3631.6174,10.577485580192539,10.81222257112667
3632.453,10.524047905339986,7.4546692648954505
3633.2883,10.463857659954199,7.908336448170718
3634.1262,10.407479098047277,9.705324057899492
3634.9622,10.364610811463933,11.333196157851921
3635.8005,10.341198674293652,9.80600533571036
3636.637,10.339004832006601,9.15734663126438
3637.4756,10.354269065947804,9.620319126641167
3638.3123,10.3781286170528,11.463967685661057
3639.1492,10.399283691423745,9.4687294374499
3639.9885,10.407837315892367,9.6478704473364
3640.826,10.398486946718,10.051962303592314
3641.6653,10.371600415366233,9.846774429951253
3642.5032,10.332642626926704,8.782828245567153
3643.343,10.290147751236674,11.148682409887382
3644.1812,10.253324934302581,10.607412948756561
3645.0195,10.22774437787047,12.20170571668029
3645.86,10.213773734140199,8.951534198254347
3646.699,10.207982203147406,11.653296479448365
3647.5398,10.206037437465254,10.456691101321526
3648.379,10.204681286360726,9.899975392885516
3649.2202,10.20132159264476,10.774085093307823
3650.0596,10.193118765478578,9.38971668919554
3650.8994,10.177314737761563,9.913797481273338
3651.7412,10.153286597639584,11.171034370798496
3652.5813,10.124565934520355,11.257656097473228
3653.4236,10.097509727122421,10.21731060486051
3654.2642,10.078046605085296,11.15903039126042
3655.1067,10.067735523456847,12.080537077646639
3655.9475,10.063804944602817,9.488297761814746
3656.7886,10.061721268250917,9.285394582823614
3657.6318,10.058112542405546,10.260447657381095
3658.4734,10.051373206455352,9.924750660514237
3659.317,10.040819005417427,9.758628403333795
3660.1587,10.026813722781936,10.695411185825327
3661.003,10.011298759723514,9.690228364040411
3661.845,9.997552120626185,10.149587850086677
3662.6875,9.98789932046774,12.221063022071423
3663.532,9.982439418923839,11.373914767877682
3664.3748,9.979419203489128,9.096271985726215
3665.2197,9.976352111097812,11.279173921158192
3666.063,9.970693501526863,11.734667740637704
3666.9084,9.960182615771057,9.08980530921888
3667.752,9.944245290661721,11.762231592892977
3668.5977,9.925178708855716,9.921842277937353
3669.4417,9.907928340482936,10.128592729971606
3670.286,9.896836827558438,8.653591863351004
3671.132,9.89259123422623,11.631712610583847
3671.9768,9.891693936719781,9.167846924400953
3672.8235,9.889407139780241,10.078226185363857
3673.6685,9.883615124162585,8.85645618385189
3674.5156,9.875575825702445,10.015004405728302
3675.3608,9.867032798452138,11.372406372034023
3676.2063,9.856660271605184,11.284027848015121
3677.0542,9.840165474406326,8.797601145034767
3677.9,9.814245630090518,9.159393142138896
3678.748,9.779864615884021,10.939130968779882
3679.5945,9.742416617821554,10.127953078912848
3680.4429,9.707135697168992,13.046369076001026
3681.2896,9.67636219786227,11.82371517310678
3682.1365,9.649421405371196,13.875450273562489
3682.9856,9.625511736033342,9.795823179246897
3683.8328,9.60507312310809,11.843132726197284
3684.6824,9.588575499848812,10.208426196914822
3685.53,9.576404289012801,13.12615143304445
3686.38,9.569458255031746,11.209266485499437
3687.2278,9.569897753152214,11.416828092229986
3688.0762,9.579340682054827,12.81334771402586
3688.9265,9.596350059516633,10.100788114782413
3689.7751,9.615272226871681,10.299107064206648
3690.626,9.628244518294817,11.726635156995744
3691.475,9.62836763314472,11.470865955924861
3692.3264,9.61310021265513,10.233041777327003
3693.1758,9.585458622948787,11.886312494432524
3694.0254,9.552159578529649,9.462226760441311
3694.8772,9.520348602461278,13.221640203453617
3695.7273,9.494992425856223,10.860754507596926
3696.5793,9.477088239439254,12.125305374495097
3697.43,9.464308082954174,10.394978407438387
3698.2825,9.452403752093428,9.247610791277573
3699.1333,9.438287964829547,11.814458058439616
3699.9841,9.421824565550175,10.648535171559713
3700.8374,9.404999397778754,11.8274766943395
3701.6887,9.389293969274698,10.53948496526209
3702.5425,9.373923356623257,10.840246048233274
3703.3943,9.357747610147426,11.106863766211067
3704.2483,9.341637782962833,10.806626432040558
3705.1003,9.329382915481775,11.034350263096096
3705.9526,9.325026713797863,13.201335270627071
3706.8074,9.329703632171205,10.163707235021798
3707.66,9.3398256437814,12.257554547484348
3708.515,9.34840792112167,12.436331118042842
3709.3682,9.348367723071673,13.668611863054684
3710.2234,9.336142296832575,11.016893856488027
3711.0771,9.312923483278944,12.686890485700083
3711.9307,9.28291961545293,12.101061600015797
3712.7866,9.250706665437724,11.171192043140609
3713.6409,9.22028301320334,11.339423038171597
3714.4973,9.194545945659344,10.93415002395409
3715.3518,9.175736830167835,11.888758224117467
3716.2085,9.164463920199486,12.141223128885024
3717.0635,9.160131323854465,12.688946569209987
3717.9185,9.161391369520224,11.466772382591621
3718.776,9.16634302330618,13.470551610932418
3719.6313,9.171869378387926,10.787619290509632
3720.489,9.174223946830717,11.328070843357379
3721.345,9.170951886580813,12.414275786700983
3722.2031,9.16228575457527,12.595583520742181
3723.0593,9.15044414579502,12.470068549101686
3723.9158,9.137991326016401,10.981535879570316
3724.7747,9.12750351134612,10.561385801738156
3725.6316,9.121833967413254,13.491129752810316
3726.4905,9.123051864767943,11.833870539336594
3727.348,9.130662514429757,10.221433508132442
3728.2073,9.140497684616898,12.093082398299149
3729.065,9.145529895807051,12.04521606058561
3729.9229,9.138761061715357,10.18981419232978
3730.783,9.116480939970472,11.92900528264596
3731.6414,9.080856552598707,11.173736274586286
3732.5017,9.039132940588129,12.833583923694098
3733.3604,9.000823159503312,12.585541782304748
3734.2214,8.972694238634324,14.91629808507202
3735.0803,8.956825897794378,12.126224690542522
3735.9417,8.95077971726161,15.463264412523902
3736.8013,8.950962193776597,12.747192007352119
3737.661,8.954924022406841,12.59078403559734
3738.5227,8.96138748946333,13.509234738629171
3739.3828,8.968218729431483,12.361271881005342
3740.245,8.971543255854797,13.332905859787465
3741.1055,8.967379760795348,14.7033079046727
3741.9683,8.954412556186988,15.282088250986867
3742.829,8.934937358416626,13.128793121658955
3743.69,8.91298556685323,12.84934529152327
3744.5532,8.891952480030216,17.058998818766096
3745.4148,8.87339362038231,12.445085972352077
3746.2786,8.856791068156355,12.13018599916236
3747.1404,8.84107889971281,14.207590476069662
3748.0044,8.825130644565835,18.37747488095436
3748.8667,8.807537747316013,15.496346373175735
3749.729,8.785961418708803,13.352884032795393
3750.5938,8.759241018257585,15.453298705950122
3751.4565,8.731067238287434,13.217721347378665
3752.3215,8.709754139368389,14.332167942571251
3753.1848,8.703562288509442,15.251710263457
3754.0503,8.71363342768275,13.160562075173207
3754.9138,8.73178226826187,16.20564124005787
3755.7776,8.744944698438882,12.251139802684959
3756.6438,8.742830666675317,15.688489532177833
3757.508,8.723767870109757,11.065063603425635
3758.3745,8.694729424892957,13.823149947845177
3759.239,8.666458228717005,13.860877147012713
3760.106,8.646526567007589,13.250744527369907
3760.971,8.636349675284979,14.252863060560964
3761.8362,8.631750563346875,19.51319219925885
3762.7036,8.626650181721095,15.18353832936756
3763.5693,8.616375097253965,15.746544353929991
3764.437,8.599526315762974,12.608242178662966
3765.3032,8.578670893779918,12.70438743062171
3766.1714,8.558834204386732,11.696599322935725
3767.0378,8.544518887492455,17.014821777887704
3767.9043,8.535894371606002,13.922893055306632
3768.7732,8.528405221083876,12.601513314365288
3769.6401,8.516326384855146,13.714756448885591
3770.5095,8.497186246214632,12.854313714728079
3771.377,8.473604958005756,13.737561112039497
3772.2466,8.450803757267176,11.045330795843604
3773.1145,8.433871445817722,12.718007123063897
3773.9824,8.425672558846117,15.237712175343143
3774.8528,8.426776900574003,13.899086226415031
3775.721,8.435559543648566,13.898548665832058
3776.5918,8.44855468633614,14.754650035070364
3777.4604,8.461096828935782,13.309482476408451
3778.3315,8.469214139029011,12.382585841829698
3779.201,8.471267372562547,13.282863094437722
3780.0703,8.468582930243759,14.730616642504
3780.942,8.463707970234502,12.924797327535678
3781.8118,8.458249977592907,13.003931621487379
3782.6838,8.452066542382411,14.577824392651777
3783.554,8.44435111033555,16.400212952716426
3784.4265,8.43465572190089,14.607950546236573
3785.297,8.423314787103896,16.32249781923675
3786.168,8.410950807783466,15.397860796494804
3787.041,8.398133572243017,16.724869750349743
3787.912,8.385086959993547,14.862077332998231
3788.7856,8.371203759477831,13.365439632559852
3789.6572,8.355432857216796,15.471443297394321
3790.531,8.336438282488023,14.906285231227743
3791.403,8.313326641506626,15.492157314880737
3792.2754,8.285625696241846,13.593783945684619
3793.15,8.253553661225032,15.926340380623579
3794.0225,8.218391737301044,15.36490568220995
3794.8972,8.182014992161745,14.942479637040455
3795.7703,8.147604856555107,15.657581094493292
3796.6455,8.1186615082597,17.596382881911172
3797.519,8.09825475299111,16.614165447088975
3798.3926,8.08687820429881,15.458196195677889
3799.2686,8.082490232484831,16.89655542993426
3800.1426,8.082541532698928,16.74856628642688
3801.0188,8.086662177109712,13.104966176120973
3801.8933,8.097332814835571,15.569492541166749
3802.77,8.117593992841158,16.674936268484423
3803.6448,8.147336589144318,15.281096547170307
3804.522,8.182105656215775,15.42816293663426
3805.3972,8.214129023503759,17.159606879419925
3806.2727,8.236361546050217,14.35703712157342
3807.1504,8.245068326789497,12.46030309402509
3808.0261,8.240775224308488,17.438837753566002
3808.9043,8.227298650716614,14.097953470974206
3809.7805,8.209773650964635,15.866499013494124
3810.659,8.192442089055868,14.237001634548097
3811.5356,8.177760631762235,15.892860656587173
3812.4126,8.166365244461181,18.029567813761382
3813.2917,8.158531222957047,17.0110280856598
3814.169,8.155129337705157,14.51758425580546
3815.0483,8.15679404030883,19.097846787316406
3815.926,8.162173148031997,15.700968173384677
3816.806,8.167197806699699,15.437841351741808
3817.684,8.166658783138915,13.737826489961911
3818.5623,8.157101852937743,16.08505828106951
3819.4429,8.138320334725403,14.776073817040754
3820.3215,8.112947137695397,13.655872150098475
3821.2024,8.08421246766214,16.541679646038062
3822.0815,8.054697024994812,15.625333142312984
3822.963,8.024983600172959,16.854906266840253
3823.8423,7.994215228601553,17.26017123893199
3824.722,7.960623808740841,15.439261137869968
3825.604,7.923403898135284,15.690808957287551
3826.4841,7.884244592460769,17.655689260132924
3827.3665,7.84614885733161,15.59823638365221
3828.2468,7.811771465135291,16.392049877070004
3829.1296,7.780267576397831,17.257709146369642
3830.0105,7.747914147204296,15.279565264414725
3830.8916,7.710657613376142,16.553597119145373
3831.7751,7.668224667917851,16.667296480527597
3832.6565,7.625540735642029,15.912342288496932
3833.5403,7.588973581186883,18.356420055604122
3834.4224,7.562985859382878,20.041618255149338
3835.3064,7.548011525330342,17.206618462991266
3836.1887,7.5428202866314376,17.301392858752312
3837.0713,7.546530641467141,23.421967418010787
3837.956,7.55869267681166,17.671997153407784
3838.839,7.577407709103205,16.34396043607978
3839.7244,7.59914767951197,16.069608725857112
3840.6077,7.620518687102454,18.44838839775159
3841.4932,7.640932635700693,18.068937852262025
3842.377,7.661793190189732,17.490592249608415
3843.261,7.683681121064738,16.272986273488193
3844.1472,7.703782164744566,17.92856242673287
3845.0315,7.717242536666522,17.9753234416876
3845.9182,7.722081114224013,14.62501377386468
3846.803,7.7222453935899935,19.215458993396208
3847.69,7.7262068426064,23.062221429815132
3848.5752,7.741583558405889,16.634565398468062
3849.4604,7.77058062978871,16.340880356114926
3850.3481,7.8093553774967095,17.60850778507922
3851.234,7.850189785533726,15.93029626109592
3852.122,7.885676325880186,15.257107963285097
3853.0083,7.910419049298548,15.264130152716309
3853.8967,7.922278370005359,17.73735965882336
3854.7832,7.921060206577676,16.179582482715432
3855.6702,7.907823441407132,17.665597086517916
3856.559,7.8847862057156854,17.315242676858592
3857.4463,7.8561754863719475,15.244625195815388
3858.336,7.827575988273267,15.341076865949
3859.2234,7.804795514439517,16.492746368332977
3860.1135,7.7912295263479185,18.839025095980134
3861.0015,7.786887934871793,19.86779109477387
3861.8896,7.788292610770337,15.767477698844452
3862.7803,7.790608437645554,15.72907277196987
3863.6687,7.790016883906401,17.899431575270434
3864.5598,7.785038302053604,16.625184542799953
3865.4487,7.776128613697241,17.617566765260133
3866.34,7.76409904125885,19.854582825293928
3867.2297,7.748823727192091,16.8364790153138
3868.1213,7.728542846198434,18.40040605669882
3869.0112,7.701169425375445,18.432673047466178
3869.9014,7.666033950870562,16.770976717790415
3870.7937,7.625411775749503,21.404842857126418
3871.684,7.584442765914075,16.70145544710083
3872.577,7.548144828835351,17.36446790214368
3873.4678,7.519345989370162,18.691913028603395
3874.361,7.496466943747737,19.733357983898475
3875.2524,7.474704867886983,19.46307095945252
3876.1438,7.447842942685391,18.445316246253498
3877.0376,7.410904910102162,17.211159051916372
3877.9297,7.362248723849755,19.14450502853876
3878.8237,7.303339702633005,17.555016931201322
3879.716,7.238632787345896,18.075742253316946
3880.6108,7.1729077384033815,21.69619762334745
3881.5037,7.11051723997104,21.367381466354786
3882.3965,7.052708449989428,19.65396259511141
3883.2917,6.997460918114863,21.951113830681564
3884.185,6.9409486767578805,22.351318231100084
3885.0808,6.879072908585149,21.822211192080196
3885.9746,6.8110974191636355,20.129767676188028
3886.8706,6.739350414057757,26.47964796961376
3887.765,6.669690495887482,25.701060515114627
3888.6592,6.608971141848865,23.1194413638404
3889.556,6.563989195929712,26.286946879402663
3890.4507,6.5400589583238204,25.983686424449143
3891.348,6.5386696205589665,26.422469769851215
3892.243,6.557450863857914,23.17299761677289
3893.1406,6.59155177565353,21.878821604739173
3894.0361,6.6357078488584165,20.37576662613104
3894.932,6.686366313781031,23.585862664339846
3895.83,6.7412133348444945,22.90784616034635
3896.7263,6.79767818845855,23.43991196982934
3897.625,6.854031231920724,20.982180092382286
3898.5215,6.909841665909117,20.366486954320624
3899.4207,6.967978180800592,20.11716941917938
3900.3176,7.031508065599676,19.80649425784258
3901.2148,7.101219166072573,24.484271941021234
3902.1145,7.173272801385743,19.60153810537503
3903.0122,7.2405177423763165,20.23153842927656
3903.912,7.297819590055422,16.987325585285895
3904.8103,7.343747060880272,18.542635116937717
3905.7107,7.3811832696436825,23.653808482657677
3906.6094,7.413950341809668,17.374510582909217
3907.508,7.44521022164582,19.561700854023076
3908.409,7.476793398668474,22.21532378850154
3909.308,7.5099083023475925,16.686512325147767
3910.2097,7.546519436928559,18.37426205207113
3911.1091,7.588233303411163,18.21091951898795
3912.011,7.635049616218249,20.33163948529101
3912.9111,7.682643947880597,19.748393184781133
3913.8113,7.723952163261835,16.204250187307373
3914.7136,7.753019717870445,16.944395000370623
3915.6143,7.769202209120451,14.211991089696403
3916.517,7.7779057391828585,15.981079105740578
3917.4182,7.7860518765626585,15.971756014837938
3918.3215,7.797445137728341,15.255545767032094
3919.223,7.811153823422114,18.28854316261223
3920.1245,7.824025783266434,18.321168091289703
3921.0286,7.833952309849296,16.60359160226492
3921.9307,7.841331466047391,16.102581725689703
3922.835,7.848147941262908,15.293811008128465
3923.7373,7.855551213862791,15.317112112984193
3924.642,7.862673233278593,17.56458093501987
3925.5452,7.867049340916248,16.841844721112697
3926.448,7.86646699273959,16.68767703610577
3927.3535,7.860420612504914,15.030499675575207
3928.257,7.850472147932079,14.79653984705021
3929.1628,7.838792884296316,19.6825783793605
3930.0667,7.826307726276133,16.321839306338493
3930.9731,7.811710176847358,17.300496642638763
3931.8774,7.793267923690959,16.418878511127065
3932.782,7.771145202986461,15.509311581870266
3933.6887,7.748487002187763,17.770519741049455
3934.5938,7.729692379031082,19.107607613180484
3935.501,7.716951410597546,14.908708444457227
3936.4062,7.709106411666927,17.504838318022042
3937.3142,7.702702994729858,17.641369218043376
