wavl,flux,ivar
3566.9744,2.9842140081265107,367.53804982058693
3567.795,2.98374090170683,316.43685309782535
3568.6177,2.9772641254386505,360.7897272486173
3569.4385,2.9670767056801712,349.0267296811799
3570.2617,2.956040918632541,306.7999756203249
3571.083,2.9470567351985557,363.40505890009285
3571.9065,2.9420766486580443,403.67553505779676
3572.7283,2.941435133406698,359.2757579743375
3573.55,2.9435172946227772,368.05496352804
3574.374,2.945669594081763,418.6289829941363
3575.1963,2.9455985751030744,379.0546174641247
3576.0208,2.942422339846643,370.0418840478473
3576.8435,2.936734148301227,382.0483217117015
3577.6682,2.929822830253861,411.2458318551738
3578.4915,2.922879035855846,388.0256488900398
3579.3145,2.9164455968580314,361.6133244362237
3580.14,2.910515302884162,376.63457308332835
3580.9636,2.9048729612255193,420.01932469539764
3581.7893,2.8993032875544134,387.6209596948455
3582.6133,2.8941393421927866,357.67533346462943
3583.4395,2.8905482896342796,324.64526725272265
3584.264,2.8903221103025336,406.5358678713535
3585.0884,2.8946949116099554,376.91850515568984
3585.915,2.9033241584524987,405.7897521911968
3586.74,2.9140586719995514,349.8735186008843
3587.5671,2.9239745872537273,399.88545681513614
3588.3923,2.930410279765933,364.42919894891264
3589.22,2.9320604514094795,376.83258570788155
3590.0457,2.929312452521401,383.64068897814394
3590.8716,2.9241654958159025,364.79542537819674
3591.6995,2.9193170655614127,423.9784790322509
3592.526,2.9168531477295816,391.2218063709459
3593.3542,2.9172236876951665,403.8158989314774
3594.181,2.91944622247337,365.78095764244915
3595.0098,2.922114972722014,362.8465023497794
3595.8367,2.924221646265934,400.41816562245697
3596.6638,2.9252868567663435,374.47452863469874
3597.4934,2.924916109738319,358.9877919852637
3598.3208,2.9225608460579413,383.3270275822047
3599.1506,2.917795384334969,369.5509062565892
3599.9788,2.9109628120028295,365.9590798596262
3600.8088,2.903244660652224,435.7809616553611
3601.6372,2.8961104792373633,420.2116643317813
3602.4678,2.8903024962618686,395.8989060656791
3603.2964,2.8857579705936565,355.1218506734638
3604.1252,2.8820529173792244,363.28346020890234
3604.9565,2.8789682005051342,377.6696249032716
3605.786,2.8764960601433214,339.3412582994039
3606.6172,2.874574608408268,393.13805594574194
3607.447,2.8730643843356543,439.0224141643502
3608.2788,2.8716341558568717,395.8936415937579
3609.109,2.869622429257298,385.4412594721833
3609.9392,2.866194532142414,355.72114038712147
3610.7717,2.8611063533763303,400.7959001935537
3611.6023,2.8553890895068994,411.5256137776904
3612.435,2.8507387293246187,407.5884991317008
3613.266,2.8481132631617108,412.5082122682332
3614.0994,2.8467158258642287,359.160474755748
3614.9307,2.844829891086552,377.332050271369
3615.7625,2.8415556011170877,392.8838960235161
3616.5962,2.8377500075575197,406.36857261768574
3617.4282,2.835305376808316,424.16741464316874
3618.2625,2.8355637463875922,408.7115447320007
3619.0947,2.8384727417669553,378.9171172930328
3619.9292,2.842880220845807,389.1043583378252
3620.762,2.8473515082728063,348.4300024286709
3621.595,2.850913251972225,385.88472005272035
3622.4302,2.853302558837139,377.15211803196496
3623.2634,2.854995036853667,397.66010324157077
3624.0989,2.8570738631836416,361.6197740641901
3624.9326,2.8607061566557612,388.8282639976607
3625.7686,2.8665321216901356,412.20438099819285
3626.6028,2.8741875059584494,383.08993912742585
3627.437,2.8825637417023113,443.3054330455971
3628.2734,2.8903216459390597,398.0549972477412
3629.1082,2.896196824934763,415.91772698781756
3629.945,2.899169850347998,433.3882602246432
3630.78,2.898514346515222,370.82499834381946
3631.6174,2.8944058140554083,429.73417304874624
3632.453,2.8884331921275974,399.7572477610648
3633.2883,2.883114779379846,441.18956980112955
3634.1262,2.8805138079334394,405.4292754901845
3634.9622,2.8809301998379078,376.746332953466
3635.8005,2.8827957540242783,423.8854225250176
3636.637,2.88389273037595,422.97771760525995
3637.4756,2.8827413492989207,390.35788073884777
3638.3123,2.8790806715809354,352.8789914528352
3639.1492,2.8734258469482272,390.2459556270462
3639.9885,2.8664415561056056,392.3241944045873
3640.826,2.8588410796097747,412.6431503513113
3641.6653,2.8514837018717567,361.4384682808786
3642.5032,2.8455968559198954,417.1555314860489
3643.343,2.842266577420408,429.8476927103225
3644.1812,2.84196599168737,384.5929802886785
3645.0195,2.844382129299954,384.481793747622
3645.86,2.8488421745269097,609.7726519249419
3646.699,2.854612289407472,433.4545063910808
3647.5398,2.8610382620313835,413.4527633803169
3648.379,2.867429237041117,400.7385245033885
3649.2202,2.8732554676569717,367.3657695198961
3650.0596,2.878192504702241,438.81556759147276
3650.8994,2.882355168821,389.3714400916739
3651.7412,2.8862408529238066,421.4999657069721
3652.5813,2.8904009366764485,432.5762096154585
3653.4236,2.894885988604336,413.46452316169143
3654.2642,2.8987289756172543,385.8725942415946
3655.1067,2.9003105702729077,414.8757741043714
3655.9475,2.8983527323734335,409.07123289425664
3656.7886,2.893039190214253,352.86280667545003
3657.6318,2.886167281505739,427.1034921129983
3658.4734,2.880202732201469,410.2158657945862
3659.317,2.876707947655564,389.9255128480935
3660.1587,2.8757207355303906,375.3008292612497
3661.003,2.8762225114113322,370.79580077282776
3661.845,2.8773171120066108,402.76630890204206
3662.6875,2.8790343583038975,395.7102025473917
3663.532,2.8822334841427684,417.277667595244
3664.3748,2.8877070864749803,384.181921085099
3665.2197,2.8952917669779983,374.51868294760146
3666.063,2.903562394329074,339.87943617314085
3666.9084,2.9107494813855728,400.8336414799634
3667.752,2.9157334373830484,362.4180112996902
3668.5977,2.9186496225794034,395.9404031536096
3669.4417,2.9203051763540926,351.54706250657097
3670.286,2.9214375874121226,367.8452946556708
3671.132,2.922384129825424,361.90242551289606
3671.9768,2.9233593164214344,415.09556508029743
3672.8235,2.9247093645671027,382.3679550137834
3673.6685,2.9266805332311496,407.169410160028
3674.5156,2.9290862224931646,387.4213995342343
3675.3608,2.931290728976146,363.37253716103726
3676.2063,2.932660445539463,397.9158399563488
3677.0542,2.932919072187487,366.1524247699329
3677.9,2.9322579088474847,375.9918796744515
3678.748,2.931248928656718,381.25960409271903
3679.5945,2.930646566061623,374.24436620816624
3680.4429,2.9309961058485934,389.08918509656746
3681.2896,2.932224164524354,360.52920268325494
3682.1365,2.9335431166139734,369.2735342501842
3682.9856,2.933788130032546,374.8783144915358
3683.8328,2.931948309036319,398.47068231334123
3684.6824,2.9276462126768554,356.1693963090324
3685.53,2.9215549385476813,370.5132510590454
3686.38,2.9153277108241458,330.6937681675841
3687.2278,2.9109999377453937,406.0398981764568
3688.0762,2.9097483052596074,388.2080085023403
3688.9265,2.9113743051923078,345.5316614496811
3689.7751,2.9147909038445228,364.3998623347196
3690.626,2.91908618675869,398.54463789397954
3691.475,2.9239182155488423,394.7029549806418
3692.3264,2.9291903812095677,367.16593309435183
3693.1758,2.93437233288343,383.26544294394006
3694.0254,2.9385011866624877,368.16433718725665
3694.8772,2.940610531483166,372.2620478878463
3695.7273,2.940331159159702,393.90870470619325
3696.5793,2.938186989037337,318.29246630001484
3697.43,2.935400072669282,382.82572084884885
3698.2825,2.93331351311535,369.0761378039825
3699.1333,2.932723790472502,369.55045162288053
3699.9841,2.933389153850895,349.7921100194886
3700.8374,2.934249189920048,333.5859661668466
3701.6887,2.9342431784287384,375.3454062849547
3702.5425,2.933143598168121,428.02282193380734
3703.3943,2.9316464750588778,375.53569448217837
3704.2483,2.930689419416088,358.34669181098826
3705.1003,2.930722489029231,368.03404196761323
3705.9526,2.931417086233028,351.94203488826855
3706.8074,2.931847808280919,368.4230607132204
3707.66,2.930846929156869,366.2133448459018
3708.515,2.9275011978453156,357.31734556554323
3709.3682,2.921741596960822,382.7302262980834
3710.2234,2.9145356883266236,398.3092254801414
3711.0771,2.9075614226323006,366.0555200113923
3711.9307,2.90225814951991,379.48243379577656
3712.7866,2.8992725803856225,359.3199205262992
3713.6409,2.898541131195758,354.2481873520799
3714.4973,2.899640638981905,378.6471878878495
3715.3518,2.902000250045791,379.7721060839253
3716.2085,2.904868742890159,370.8082836793417
3717.0635,2.9073355317095477,446.22322950885
3717.9185,2.908641667943272,362.6653382549582
3718.776,2.9083894210311794,386.1969302542916
3719.6313,2.9065956713527914,393.382591444848
3720.489,2.9036237624300623,386.850423562683
3721.345,2.9001802027397123,397.1383951789868
3722.2031,2.897215071374539,362.63800969454644
3723.0593,2.8957464286075174,403.3704690418117
3723.9158,2.896357522364763,406.86326014981194
3724.7747,2.898816846543118,352.46262982680537
3725.6316,2.902060073381709,373.0720183632976
3726.4905,2.904815389783753,366.25675403610217
3727.348,2.906268839752159,372.9759990689964
3728.2073,2.9063802775634864,398.55690176800516
3729.065,2.9055822007497856,374.58693946369146
3729.9229,2.9042928877954175,407.9209936306707
3730.783,2.902614312103105,378.9677255441077
3731.6414,2.900418929211932,376.8238001007692
3732.5017,2.8976671869164243,391.7197686017234
3733.3604,2.8948326888930906,390.8056320780597
3734.2214,2.8929950042090296,375.4888798524422
3735.0803,2.893539533069322,397.8348161520612
3735.9417,2.8973885812066307,411.48861266522965
3736.8013,2.904306536721084,377.99936026610857
3737.661,2.9128809094094925,374.3132305434248
3738.5227,2.921139923311676,405.94706064011984
3739.3828,2.9272973787781384,363.03055763457644
3740.245,2.930388396497896,370.07327838721295
3741.1055,2.9302532355686783,366.18454509224006
3741.9683,2.9274231341899175,408.2071918140921
3742.829,2.9228599116986387,418.62228025120885
3743.69,2.9176502908592528,372.77779442892967
3744.5532,2.912768675950642,356.943729148506
3745.4148,2.9088883951907385,398.328336843526
3746.2786,2.9060682942163405,379.7129259561487
3747.1404,2.9037699589668677,409.96673101532303
3748.0044,2.9011681993442773,359.40799925027244
3748.8667,2.897869084039706,328.0220313958442
3749.729,2.8942758869393828,379.59344540425286
3750.5938,2.891353904907802,383.3660521905595
3751.4565,2.890032243393866,374.92183447413476
3752.3215,2.89075740123474,348.0140691761125
3753.1848,2.8935308059264853,414.23163384436896
3754.0503,2.8980618534845948,376.89197917796645
3754.9138,2.903766561141265,354.3806026199892
3755.7776,2.909879033145851,375.506225172208
3756.6438,2.9155731827674596,370.22929318628485
3757.508,2.920141727365811,359.57808289184203
3758.3745,2.923298658059483,387.9454606995376
3759.239,2.9251668379155844,346.8606601353842
3760.106,2.9262018406168995,329.0605735129337
3760.971,2.92688616667268,359.2502474048382
3761.8362,2.9275633323861814,354.2342330736404
3762.7036,2.9283984355044073,348.2426369220521
3763.5693,2.9294028467623425,374.61157191392334
3764.437,2.93041599423764,371.5439215049091
3765.3032,2.931019650140819,401.4219068916643
3766.1714,2.9305973882550806,367.3024662503884
3767.0378,2.9286062475680095,381.34697487561965
3767.9043,2.9249539451551256,376.26603611834605
3768.7732,2.920165693915531,370.7922686515378
3769.6401,2.915272223324394,399.02691493970747
3770.5095,2.9113817137642513,401.136803461579
3771.377,2.909491993101148,412.97222107949324
3772.2466,2.910226559649714,389.71032500378834
3773.1145,2.9136360879316228,352.33281952072775
3773.9824,2.919032443461036,380.0845846412146
3774.8528,2.9251576849866745,375.4246823022436
3775.721,2.930586729084333,386.3038865089143
3776.5918,2.934375530735665,374.3629139140839
3777.4604,2.936273118823492,396.7588610344199
3778.3315,2.9367750091524862,398.3929972583954
3779.201,2.9367308279501168,362.50607500765267
3780.0703,2.9369435920538325,357.2997407561559
3780.942,2.9379821157955046,399.29920486026106
3781.8118,2.940285500137622,365.7672702527715
3782.6838,2.9443142776212516,391.44799854275306
3783.554,2.950319279459432,404.1845455022676
3784.4265,2.9579609375841414,400.00818568731
3785.297,2.965884283268032,348.6099105126867
3786.168,2.972112610881388,349.9021608956649
3787.041,2.9747603824216227,329.71478430375385
3787.912,2.972810095969598,349.68640479618745
3788.7856,2.966371170646584,390.3356792432283
3789.6572,2.9563944528948323,353.298990436538
3790.531,2.944040697917296,363.2712150444332
3791.403,2.93047502142026,371.40186583994625
3792.2754,2.9164742286683274,368.16384085416956
3793.15,2.9024057888954213,385.6367782728682
3794.0225,2.8884073557711805,361.7314592237341
3794.8972,2.8744505205634447,364.52782071704104
3795.7703,2.8609935478220256,426.0715004546399
3796.6455,2.8489925863269656,383.5349688960432
3797.519,2.8400672206927546,376.5827166777278
3798.3926,2.8358379130753066,402.60175515770084
3799.2686,2.8373386580077633,399.8853707024721
3800.1426,2.844465567495815,376.3673436188415
3801.0188,2.856157342861382,390.5755238113195
3801.8933,2.870948001610355,404.50557842639034
3802.77,2.8877703536394437,399.948766536657
3803.6448,2.905743755538309,380.20519259925504
3804.522,2.924103591311588,369.6501339519168
3805.3972,2.941635570736891,372.92326356489315
3806.2727,2.9572816794242778,376.7838406271639
3807.1504,2.970489454655895,394.94371400155967
3808.0261,2.9813371483545628,371.46915379548426
3808.9043,2.990445828947368,352.3078105835697
3809.7805,2.99831010216901,337.01270871282804
3810.659,3.005251587324276,370.82641288349475
3811.5356,3.01128466854734,368.9889630435962
3812.4126,3.0163275092305146,343.1012571776535
3813.2917,3.020218677877665,331.6078564224407
3814.169,3.0227614347248437,339.6234027182817
3815.0483,3.023816148482751,357.9393027081529
3815.926,3.023240699705532,347.77471304509066
3816.806,3.020859849074491,355.53870767997614
3817.684,3.0164306860180377,389.05221419887494
3818.5623,3.009650883064205,362.04267680415103
3819.4429,3.000352509377243,342.6450911895681
3820.3215,2.988912822914675,397.8398576650419
3821.2024,2.9761673750425213,378.39502703203885
3822.0815,2.9632582423504936,414.84522812206546
3822.963,2.9508729450520335,347.32915164222356
3823.8423,2.939174980335391,358.28922983740574
3824.722,2.927658979911246,430.0285192599522
3825.604,2.915434993648504,377.4325574798987
3826.4841,2.9015457262054283,363.28073844636197
3827.3665,2.8850677882878863,366.21177594000955
3828.2468,2.865697585220423,398.72140596313824
3829.1296,2.843445357251605,377.2083223595684
3830.0105,2.818707959128114,433.814194898343
3830.8916,2.791679122855609,417.3687085629959
3831.7751,2.7627137050405315,415.54727160857215
3832.6565,2.7330406129625215,404.24413862776026
3833.5403,2.704423357967613,492.20755285200096
3834.4224,2.679486105427707,444.2386142760875
3835.3064,2.6607770561906863,484.90417640855145
3836.1887,2.6508260909768406,445.83508787984965
3837.0713,2.651414235540239,501.82812963898607
3837.956,2.663185325929043,519.3824312681791
3838.839,2.6850249852722547,426.55947758846344
3839.7244,2.7144814399282686,465.80296272670023
3840.6077,2.7482092102055082,395.32212121111843
3841.4932,2.7834484039096687,396.48599789513884
3842.377,2.8180764664648255,408.71394299513264
3843.261,2.8512502924009078,401.0389629290532
3844.1472,2.8827720113054633,391.30459602923605
3845.0315,2.9123527745287316,391.52380453382636
3845.9182,2.939924757227541,362.87379271499555
3846.803,2.965356505629198,368.0838863174731
3847.69,2.989340026351126,372.4053896899524
3848.5752,3.0127397833736,347.19043065539813
3849.4604,3.0363171918439886,359.53236053198117
3850.3481,3.060089177513619,355.0223935791645
3851.234,3.083275463787646,319.05802547856393
3852.122,3.10531576069549,284.53291508406886
3853.0083,3.1258560631080696,328.8572185367943
3853.8967,3.145119723794121,355.07401364852524
3854.7832,3.1631622345921655,344.24766627659017
3855.6702,3.17993527233397,325.61280258625874
3856.559,3.19509611931259,303.32560249435284
3857.4463,3.20805439475045,333.18412649001164
3858.336,3.218204978924288,330.5184520035308
3859.2234,3.2247285813071875,302.2380985665974
3860.1135,3.2270904395965077,308.6333622006681
3861.0015,3.2254847463805203,337.0644378824924
3861.8896,3.2212337082088167,308.64910591420744
3862.7803,3.2162927305427713,304.45284095056525
3863.6687,3.2122235057194373,319.7006869056682
3864.5598,3.209160719794591,307.73682979422955
3865.4487,3.205858766140154,292.66995902380074
3866.34,3.2005231619709047,303.05960833861303
3867.2297,3.1920311441615876,307.8317122222274
3868.1213,3.180312519927363,300.4653557770916
3869.0112,3.1660655442885006,328.8991134086429
3869.9014,3.149799153053185,305.89931182804213
3870.7937,3.131448612668812,365.5152168550202
3871.684,3.110685026806089,329.4445151417109
3872.577,3.0870398227073967,348.6128233347431
3873.4678,3.0606431972391452,355.22730048150447
3874.361,3.031816072612998,327.8700448611214
3875.2524,3.001387788910991,372.5840952520989
3876.1438,2.9698959489152092,374.3921695182904
3877.0376,2.9375423904831406,363.26411035964816
3877.9297,2.9045218636715746,366.1392039192458
3878.8237,2.8706858074962827,384.90163146157124
3879.716,2.8361029742415034,386.64655951781083
3880.6108,2.8002501463213956,414.1990169064181
3881.5037,2.762455979161721,446.75533170159616
3882.3965,2.721440899806503,451.99711596571785
3883.2917,2.6760577681804834,440.6354449800492
3884.185,2.6264886783045767,428.7135539042055
3885.0808,2.5739862306619616,480.87322501598226
3885.9746,2.5216153916744157,540.6079394616493
3886.8706,2.4724465409260747,536.0205363183348
3887.765,2.4299058874107557,581.3814128056597
3888.6592,2.3971000274698326,536.7691971007883
3889.556,2.3773161305890596,571.1930996139008
3890.4507,2.3733703658790404,663.6910770864329
3891.348,2.3860966241004506,613.7836276988713
3892.243,2.413892457532008,507.1556149997389
3893.1406,2.453784601338768,533.7855495211243
3894.0361,2.502178291574356,526.8117396406593
3894.932,2.5562603712750973,524.8849201920963
3895.83,2.6136461594155613,493.7631778639234
3896.7263,2.6715837419309416,470.82493361914686
3897.625,2.7279816307769247,407.30846553960595
3898.5215,2.780856287567093,438.2818318518447
3899.4207,2.8301681573774027,402.2152560349233
3900.3176,2.8767963010269417,382.1540316208067
3901.2148,2.9226488515466293,402.276293028502
3902.1145,2.9689362863166364,398.52650371379383
3903.0122,3.015107179410655,343.4204384587493
3903.912,3.0599307577955894,371.91583214516686
3904.8103,3.1016230572943098,318.96090446918276
3905.7107,3.139479054314985,333.5764803478975
3906.6094,3.1734632897590824,327.88455614082727
3907.508,3.2045516674344534,325.3600511897374
3908.409,3.233943123415873,307.1457984226913
3909.308,3.2623556621299747,298.15921664173095
3910.2097,3.2902623118660856,282.1999835010885
3911.1091,3.317493695385166,279.6277716795241
3912.011,3.344104640815316,275.55142543285433
3912.9111,3.3700251623985635,287.2097019456139
3913.8113,3.3954562896573584,266.682735709034
3914.7136,3.4205310743870294,255.70364025809937
3915.6143,3.445018603531305,271.2258722447105
3916.517,3.4687220449605807,281.4897452039627
3917.4182,3.49112723299071,260.3034168243599
3918.3215,3.511826847447957,275.13432750028886
3919.223,3.530114063344368,251.2877792527324
3920.1245,3.545434544092931,257.7845441840723
3921.0286,3.5575569970463716,244.40172522180492
3921.9307,3.5668758256328403,246.3748329601814
3922.835,3.5745702501948364,244.65769846338557
3923.7373,3.581883380568828,227.83555550939096
3924.642,3.5896076609022787,262.5647237169424
3925.5452,3.597587526131456,247.9440448010924
3926.448,3.604988849184116,242.65913923089036
3927.3535,3.6107448369644324,246.86035013596103
3928.257,3.6139764042623668,255.0083803262992
3929.1628,3.614226013446964,256.65036004077797
3930.0667,3.611190078581682,251.74800271710075
3930.9731,3.6045313681399973,238.86812404774926
3931.8774,3.5941990604953906,260.242727807629
3932.782,3.580932669056777,245.5844955547029
3933.6887,3.5665742365726225,234.65908858479852
3934.5938,3.5534573541465924,279.4699349748786
3935.501,3.542714736537808,249.60478109212772
3936.4062,3.5335100923464706,249.1140856313118
