wavl,flux,ivar
3566.9744,21.149943942329806,2.2714640690686236
3567.795,21.261576397823813,2.6680992342100573
3568.6177,21.316372318913867,2.754052596554956
3569.4385,21.309994468734264,2.715296551410195
3570.2617,21.25214858377152,2.3580642486608037
3571.083,21.16171219806889,2.4568396389527534
3571.9065,21.059632807368697,2.5694007775103866
3572.7283,20.96356622205964,2.559491890843564
3573.55,20.881676973453303,2.702920165347761
3574.374,20.8140693515912,2.5015604875627657
3575.1963,20.75771438530706,2.4886274616131505
3576.0208,20.709047688731353,2.9038978822147503
3576.8435,20.66540734284911,3.258050933275186
3577.6682,20.622706064446387,2.9958780602291015
3578.4915,20.575703364955377,2.4192376490438643
3579.3145,20.518037750595543,2.8419680010695316
3580.14,20.44329970359954,2.474562592206288
3580.9636,20.347307339167767,2.4513837481250444
3581.7893,20.22901971262752,3.0620454225407148
3582.6133,20.09499063720288,2.6595955780826555
3583.4395,19.959326871347745,2.7030895120640093
3584.264,19.845886715062704,2.8256061160754116
3585.0884,19.78145171914239,3.4883975215514695
3585.915,19.786954495537653,2.830040485273675
3586.74,19.864531085209446,3.129803891171345
3587.5671,19.99111610466785,2.9735073076450456
3588.3923,20.123477536884593,2.493128423984502
3589.22,20.21798623668588,3.19994010549864
3590.0457,20.246645877273927,2.700267305283067
3590.8716,20.206943257744097,3.0353122640951473
3591.6995,20.115765935117352,2.6476632481124907
3592.526,19.99912296118812,2.7711165162237132
3593.3542,19.87986834300848,2.6815358140637056
3594.181,19.7743431893728,2.850666246685415
3595.0098,19.69146195714898,2.9803897889077913
3595.8367,19.63719558584051,3.217645399828341
3596.6638,19.61213948517034,3.025411802522873
3597.4934,19.60865145186217,2.6244395220831374
3598.3208,19.60966160650974,2.901318180095115
3599.1506,19.594267374733025,3.2766137133380187
3599.9788,19.54790025971349,3.0523992755523124
3600.8088,19.470451089580997,3.3292494811579796
3601.6372,19.378377231107766,3.0394139496372987
3602.4678,19.294695124896535,3.045579132759302
3603.2964,19.23653551733597,3.074863915533597
3604.1252,19.206648727670178,3.072624798300434
3604.9565,19.200925797593726,3.4389575075651693
3605.786,19.219856002554724,3.198035485979421
3606.6172,19.270893546561474,3.1213160796261814
3607.447,19.3585451793912,3.260494616380258
3608.2788,19.474948630415025,3.0297930308525474
3609.109,19.597328534799527,3.2690661457537322
3609.9392,19.697241967253607,2.8692929589586735
3610.7717,19.749923899596123,2.8511620290799637
3611.6023,19.742878441814902,2.756065535614633
3612.435,19.681137773389054,2.8490451257613634
3613.266,19.58563159747335,3.4494984664374564
3614.0994,19.48350323843652,3.1142613075582406
3614.9307,19.397111800393283,3.0666039885300975
3615.7625,19.333341465716877,3.516457221599309
3616.5962,19.285033200970744,2.9859203870354105
3617.4282,19.239528265980187,2.9833642129496245
3618.2625,19.187462418224403,2.850623706551202
3619.0947,19.12771222368336,3.087418153440509
3619.9292,19.064567900896655,3.2145516888287826
3620.762,19.00515234820467,2.9882595781908075
3621.595,18.9552733393007,3.3097444493069776
3622.4302,18.917139726316837,3.5074689121060705
3623.2634,18.887622322459737,3.277921984929407
3624.0989,18.859442888286605,3.4494984429961337
3624.9326,18.827927082757018,3.315343275328229
3625.7686,18.79541560316484,3.1753114041289248
3626.6028,18.769641919968596,3.387749675009896
3627.437,18.755446133018648,3.265826833460868
3628.2734,18.749893718181216,2.884581850849796
3629.1082,18.744399809718423,3.121296249692175
3629.945,18.73091632603823,3.373416496669104
3630.78,18.706809019377204,3.4140054316920057
3631.6174,18.675352967514893,3.2885239163502247
3632.453,18.643851364903593,3.2508342010965494
3633.2883,18.618782302072635,3.1673271364506994
3634.1262,18.601968413345165,3.3490831253180695
3634.9622,18.589919145395545,3.0119871068929713
3635.8005,18.576976214618778,3.042596220410485
3636.637,18.559921749190682,3.4410757395347487
3637.4756,18.5387720885444,3.2519095978951698
3638.3123,18.514738096805374,3.219609735394453
3639.1492,18.486953289936718,3.3429864673565444
3639.9885,18.45165359040554,3.6765349818548727
3640.826,18.404443085070643,3.2665943676912
3641.6653,18.343900957828502,3.089519708351374
3642.5032,18.27625633596638,3.204098735256006
3643.343,18.21326593819715,3.4709518294418276
3644.1812,18.165818793489777,3.4130505273427922
3645.0195,18.134846110365338,3.230799669405949
3645.86,18.110783465060155,3.182420069369965
3646.699,18.081173225720494,2.997562486806127
3647.5398,18.03982673435331,3.3923689854206267
3648.379,17.99060404517256,3.7541447403146653
3649.2202,17.941681161636673,3.2366322377552725
3650.0596,17.898636650855497,3.6063749263758185
3650.8994,17.859837171478905,3.1675520741293406
3651.7412,17.819220129737012,3.2457470332185943
3652.5813,17.77208007990673,3.585444115184234
3653.4236,17.71885720324527,3.2284110743809693
3654.2642,17.66661836066291,3.5646792069021185
3655.1067,17.625462814253286,3.853698758915632
3655.9475,17.605423750652488,3.3318805944662886
3656.7886,17.612233502534274,4.05665365674245
3657.6318,17.645429035993203,3.3018573395751467
3658.4734,17.697333430363656,3.651218289657322
3659.317,17.75540268539331,3.7752431525324286
3660.1587,17.805212549276217,3.253379723445292
3661.003,17.836154521945602,3.5515542014667956
3661.845,17.844790106634374,3.6987552830483708
3662.6875,17.83686823686487,3.6229887213254712
3663.532,17.823895426299647,3.312423984049239
3664.3748,17.81670837038139,3.6892056774826534
3665.2197,17.8187502523015,3.5867729241013224
3666.063,17.824764939988118,3.688110386672399
3666.9084,17.825866970015696,3.7023788524269072
3667.752,17.81667010953387,3.255627720504233
3668.5977,17.798628318002745,3.9280324808542795
3669.4417,17.77803458492023,3.6926382110989655
3670.286,17.76060883449254,3.2330775529955638
3671.132,17.74733784440829,3.643562799093803
3671.9768,17.734199418677466,3.257611774686103
3672.8235,17.71608349108305,3.934544931407405
3673.6685,17.692296807912918,4.071291789465892
3674.5156,17.667701638506035,3.233088599656339
3675.3608,17.648937062040496,3.733544863766678
3676.2063,17.637630737037107,3.9492222040574485
3677.0542,17.628201307844233,3.28903812854007
3677.9,17.612321128334628,3.187373638388316
3678.748,17.585994255137535,3.478864192303285
3679.5945,17.552880794971617,4.263728202512488
3680.4429,17.520305925812934,3.7192359816108302
3681.2896,17.494316798230763,3.9871078495918857
3682.1365,17.476493009619396,3.4040020356515366
3682.9856,17.46455884885204,3.9363678882924997
3683.8328,17.454601910968442,4.012359428929822
3684.6824,17.44460654134667,3.9660082215817747
3685.53,17.43784299136848,3.4740886536333098
3686.38,17.441370885177484,3.904162282381911
3687.2278,17.45995064639863,3.692543142237077
3688.0762,17.490558091858357,3.6135207892790993
3688.9265,17.522821312763227,4.144048094302665
3689.7751,17.54445503760929,3.831173345825171
3690.626,17.548066188405997,3.6674411262898743
3691.475,17.53419308113587,3.1693529414755965
3692.3264,17.510534925952733,4.231119042670195
3693.1758,17.487751861533766,3.9994344619446656
3694.0254,17.47362048607702,3.4578163005307228
3694.8772,17.46996589096411,3.8683491692840923
3695.7273,17.47278912205005,3.9242400798062618
3696.5793,17.47447681978761,3.9486937577381194
3697.43,17.466457486180904,3.7460096344346363
3698.2825,17.442120819299788,3.46784890646652
3699.1333,17.39997079012112,3.62716090548693
3699.9841,17.344086402724265,3.998310507595046
3700.8374,17.28144190693161,4.078143630061893
3701.6887,17.218733464607972,3.7648456968573196
3702.5425,17.15929782541464,3.748718990434718
3703.3943,17.104718200490055,4.236683055490661
3704.2483,17.05474972538548,4.256440474551429
3705.1003,17.009478542262677,4.010009868346949
3705.9526,16.96939336859609,4.251886032724327
3706.8074,16.935884247216467,3.8150934713490847
3707.66,16.909657814419116,3.8707058244501575
3708.515,16.887288102269203,3.8453063266159626
3709.3682,16.8609254167384,4.087268434520545
3710.2234,16.82152534481901,4.13307322564061
3711.0771,16.766232383818345,4.33350910515278
3711.9307,16.701896717958856,4.51296137445605
3712.7866,16.641607992395674,4.3086471212647135
3713.6409,16.596640023598518,4.6297114156524835
3714.4973,16.568877111483076,3.8929384744585898
3715.3518,16.552191399574355,4.225600983528853
3716.2085,16.53771647314909,4.377413864827301
3717.0635,16.51972135679556,4.379168878517798
3717.9185,16.496866883926586,4.392779204480365
3718.776,16.470429722970586,4.644480364589314
3719.6313,16.441763647539865,3.9173170653017753
3720.489,16.409928220919834,4.076393184707472
3721.345,16.372612051896283,4.233902055929864
3722.2031,16.328148912119197,4.521800920356915
3723.0593,16.27883531933878,4.876735556946724
3723.9158,16.22996871517521,4.090775200741158
3724.7747,16.18702217187764,4.7466672117996875
3725.6316,16.1526596357644,4.690076838913114
3726.4905,16.12507219176768,4.246639830776288
3727.348,16.100440406701306,4.080089484388543
3728.2073,16.0757247447421,3.9771829869744657
3729.065,16.051610100142224,4.403183879540593
3729.9229,16.031420069041285,4.532858671189323
3730.783,16.01730599273154,4.478176437541823
3731.6414,16.006749382202116,4.731035563774757
3732.5017,15.993368430631014,4.138720547959624
3733.3604,15.971988131364892,4.416313494281552
3734.2214,15.941705159875767,4.527562189100465
3735.0803,15.904902386206688,4.554807631717864
3735.9417,15.863079913757517,4.106215271250044
3736.8013,15.816828924557084,4.241095611865891
3737.661,15.767874069385929,4.748284199972297
3738.5227,15.721613321156735,4.328826964664193
3739.3828,15.686074636068671,4.3665573579766646
3740.245,15.666947500207897,4.4331545712876315
3741.1055,15.664477857869617,4.857137237115906
3741.9683,15.672587512514118,4.653329593645739
3742.829,15.681631001238495,4.632705511357647
3743.69,15.682409180986685,4.895883275144784
3744.5532,15.669136843864772,4.1716813881555135
3745.4148,15.64089395419927,4.643941578590257
3746.2786,15.601036012357671,4.590493407972176
3747.1404,15.556268013163669,4.676925228749636
3748.0044,15.513738944471624,4.987241880009396
3748.8667,15.479223795882556,4.780253657788626
3749.729,15.45426497031469,4.70067132047924
3750.5938,15.435980777459438,4.811696868118085
3751.4565,15.4192309263043,4.3907107023808924
3752.3215,15.400237400632307,4.671999475181326
3753.1848,15.379745426587183,4.183349797934656
3754.0503,15.361459618457076,4.997383501970799
3754.9138,15.347926124018835,4.450050636192426
3755.7776,15.336966577412316,5.23604148498768
3756.6438,15.323257352795277,4.429683830616708
3757.508,15.303038434090547,5.330484640680342
3758.3745,15.276742446218398,5.595512269267232
3759.239,15.247861046099915,5.159460558403531
3760.106,15.219030621242277,4.561157067210647
3760.971,15.191414674229918,5.012127165836676
3761.8362,15.165891774939338,5.071573606085516
3762.7036,15.144545291432587,4.558858912501726
3763.5693,15.129103884883898,5.148196266205172
3764.437,15.117971134263309,4.864028436267748
3765.3032,15.106734699781027,4.601727447343996
3766.1714,15.09177086616657,5.294193006376248
3767.0378,15.074359900538512,5.2806153417562305
3767.9043,15.060689947760064,5.2864657215201944
3768.7732,15.057969597859577,5.107521170453556
3769.6401,15.068805562146926,4.876985501093318
3770.5095,15.087902703864714,5.172251276838501
3771.377,15.103701593909259,5.038976753572783
3772.2466,15.10465246978544,4.95600735366213
3773.1145,15.08502215350029,5.342763994641398
3773.9824,15.047234892096727,4.795584466258256
3774.8528,14.999999971810883,4.971437141210287
3775.721,14.955291153176226,5.20905736025753
3776.5918,14.923227046496274,5.488918172997633
3777.4604,14.90892440964957,5.70864145426802
3778.3315,14.910059093107861,5.07877761349058
3779.201,14.919480761664133,5.013669252159705
3780.0703,14.93005449395203,5.298788180563644
3780.942,14.938192697728125,5.536753755717993
3781.8118,14.943014710576355,5.159460149393716
3782.6838,14.943019550730718,4.594295671834769
3783.554,14.93424605748616,4.801310418448412
3784.4265,14.912536091608922,4.710468675936292
3785.297,14.877931675235263,5.2853016955950824
3786.168,14.835974105499355,5.753216839724358
3787.041,14.795131625745883,6.2464795756801905
3787.912,14.762634398332867,5.032887988790864
3788.7856,14.740753986375424,5.312481800753872
3789.6572,14.726673055212148,4.767591864307918
3790.531,14.71306851903573,5.4148079965219775
3791.403,14.691340193306626,5.363666255800362
3792.2754,14.655697256639467,4.711390292774157
3793.15,14.606333839579976,5.3695998366696465
3794.0225,14.549157537146096,5.61200599183198
3794.8972,14.490756214106824,5.732719597434922
3795.7703,14.435732330620306,5.748636605240435
3796.6455,14.385604465098435,5.549772002951911
3797.519,14.342338564214248,6.016695415398541
3798.3926,14.309309438829322,5.26964090013404
3799.2686,14.290460746787371,6.0122534889902495
3800.1426,14.287319729280942,5.2028922634312345
3801.0188,14.297062101754154,5.689987083564324
3801.8933,14.314011678118273,5.761347255697084
3802.77,14.332483504032203,5.518043474462088
3803.6448,14.347767282663455,5.334106407871032
3804.522,14.355955518921787,6.034561512924867
3805.3972,14.354037531924059,4.820990423682826
3806.2727,14.342532616996444,5.33766987296883
3807.1504,14.327322311356587,5.05607461635858
3808.0261,14.317743632066474,6.245376944278999
3808.9043,14.320675686101652,5.375746808246964
3809.7805,14.336081780334968,6.0134195284764544
3810.659,14.357547453052144,5.34268912797757
3811.5356,14.37660672960815,5.202646316018208
3812.4126,14.387249481587075,6.350401360143211
3813.2917,14.38661230441365,5.3826176498115235
3814.169,14.373632098321586,5.14008948033506
3815.0483,14.348069429112721,5.414249446760936
3815.926,14.311421218454836,5.2085688845253015
3816.806,14.267195225296026,5.580625538525778
3817.684,14.220624255857926,5.991802323878073
3818.5623,14.175750521206698,6.165554367268149
3819.4429,14.13371376677204,5.351445913830485
3820.3215,14.092975622995048,5.656179003004876
3821.2024,14.050295730365068,6.213584119099057
3822.0815,14.003452147755679,5.966070765251847
3822.963,13.950861029286646,5.778592494056988
3823.8423,13.891528703985077,5.938840013121488
3824.722,13.823938936693207,6.319106196661706
3825.604,13.747982099039893,5.6423609427335
3826.4841,13.667828135057244,5.907851769611339
3827.3665,13.590639494391741,6.249406835689332
3828.2468,13.524658799536484,6.418014700197897
3829.1296,13.473065665511767,6.604132481424944
3830.0105,13.432755608820218,6.275009330599086
3830.8916,13.395401301029125,6.525020212900917
3831.7751,13.353194959495708,6.503246901367915
3832.6565,13.303984102291654,6.451493172522866
3833.5403,13.251598990374147,6.669398209959
3834.4224,13.203911342353177,7.3016138366248
3835.3064,13.167418698540233,6.57716887526969
3836.1887,13.144820565912632,6.485220174879037
3837.0713,13.134075902145453,6.49728792892816
3837.956,13.130884232049713,6.303898088391305
3838.839,13.131925925727531,6.163099309583201
3839.7244,13.137341990759397,6.688036198284525
3840.6077,13.150090217638418,6.363060364695435
3841.4932,13.1720945035009,6.403697794205713
3842.377,13.200414948963019,6.138860327934327
3843.261,13.229038543954466,6.31515229255818
3844.1472,13.254691324746453,6.834479067856666
3845.0315,13.280599742363545,7.58081973387411
3845.9182,13.31406255527088,6.988655524054954
3846.803,13.358985762983973,6.49087135732482
3847.69,13.41266857107417,6.791556451716945
3848.5752,13.467332915179592,6.129021917281546
3849.4604,13.516360635567747,6.350924652023493
3850.3481,13.557293277543867,6.040186684813776
3851.234,13.590401085697804,5.807292227348491
3852.122,13.615798892678576,6.155911031199574
3853.0083,13.630791120152056,7.046730892136317
3853.8967,13.632200563794871,5.388147374682593
3854.7832,13.62022343637686,5.737719818831547
3855.6702,13.600749913783392,6.184034289437553
3856.559,13.582877302908464,6.615841419659876
3857.4463,13.57341217006139,6.04879890422943
3858.336,13.572599976442909,6.882648379864013
3859.2234,13.575371469605633,6.45624618865555
3860.1135,13.575967666025331,5.67610940481715
3861.0015,13.571252380858299,5.882542886308358
3861.8896,13.560043473214048,5.480139098757302
3862.7803,13.540926544838406,6.038291610566195
3863.6687,13.512586582157006,6.2038465029162655
3864.5598,13.47514351610293,5.7560961498124525
3865.4487,13.430755111634157,6.465837072819858
3866.34,13.380673030406172,6.272357477693216
3867.2297,13.325326913335546,6.980239869967457
3868.1213,13.265478907530524,6.297456585941469
3869.0112,13.204689793796934,7.328912681733238
3869.9014,13.14635437842271,6.7809794927251685
3870.7937,13.090562488779652,6.93108139577991
3871.684,13.034123721688877,6.80449466667739
3872.577,12.973055965808978,7.038472762197442
3873.4678,12.906989619252206,6.501181256551593
3874.361,12.837933226048527,6.315821464214203
3875.2524,12.769023030666046,6.9300067778126735
3876.1438,12.701203509126982,6.739867016072883
3877.0376,12.633751053337228,7.339439127729193
3877.9297,12.566623449126139,6.762045207695573
3878.8237,12.500558568061658,7.035067634557282
3879.716,12.436729694978023,8.161050188541411
3880.6108,12.372571017806845,7.680847896158821
3881.5037,12.30193942221979,7.5865176821280365
3882.3965,12.217140341453879,7.720763495166025
3883.2917,12.114246233531272,7.944843315624666
3884.185,11.997032504802068,8.037625881424233
3885.0808,11.874018088458708,7.76095945656191
3885.9746,11.75682034121152,8.597585696906549
3886.8706,11.654185092140153,7.625955463964159
3887.765,11.572514168661417,8.52873314501342
3888.6592,11.514749684170335,7.728544298793536
3889.556,11.482353554655553,9.439209102993674
3890.4507,11.475950161254266,8.835201713005702
3891.348,11.494989888101307,8.382849086865168
3892.243,11.537886306734924,8.916319959224776
3893.1406,11.602080982266855,8.553202150644582
3894.0361,11.68223619208087,7.9798848162842395
3894.932,11.770947310748983,8.094735155659349
3895.83,11.859818948912618,8.9757021963716
3896.7263,11.941763575373923,7.741036501579264
3897.625,12.015018544136733,7.008732103859424
3898.5215,12.081892109108187,7.93672308657638
3899.4207,12.148435093129224,7.957379693311369
3900.3176,12.220182969633955,7.324074379342949
3901.2148,12.30113572542647,7.661745719703955
3902.1145,12.39195787166056,8.061899162491496
3903.0122,12.488849914936651,7.882736366045081
3903.912,12.585990277192513,6.723942016415243
3904.8103,12.676163468968415,7.119288344140569
3905.7107,12.755103731857389,7.160026401712422
3906.6094,12.821350587020804,6.5288025172987165
3907.508,12.877149089406872,7.062379338903112
3908.409,12.926720000872985,6.923503831657982
3909.308,12.974548175127792,6.874595209455638
3910.2097,13.024495074602909,6.063737147891591
3911.1091,13.077371018526996,6.510444058017869
3912.011,13.131394819031799,6.757859559620627
3912.9111,13.181895914817284,6.283909148251844
3913.8113,13.224036042659192,6.847351464944929
3914.7136,13.254781891765028,6.206760113384014
3915.6143,13.274519913399475,7.110804476293356
3916.517,13.28740498362054,7.102927133394014
3917.4182,13.298801843108325,6.892893805289416
3918.3215,13.31265285161726,6.719020881631659
3919.223,13.32931201456804,6.26448679228295
3920.1245,13.345596404898107,6.2437703162475024
3921.0286,13.356250688921943,6.46581732726985
3921.9307,13.356788064866713,5.95587512851445
3922.835,13.346493277660612,6.5972388577512895
3923.7373,13.329175581474349,6.241533467247361
3924.642,13.311026142247282,6.241770135118567
3925.5452,13.297859684956224,6.5032243430591405
3926.448,13.292765129534766,6.275226284316944
3927.3535,13.295551938593052,6.743485028964144
3928.257,13.303006770754193,6.1381703699233165
3929.1628,13.310581910558684,6.0674894973958775
3930.0667,13.314725586478914,6.822616048095905
3930.9731,13.314078371467538,6.086440609900117
3931.8774,13.307989176557674,6.731337430499777
3932.782,13.294472716581067,6.251725346529108
3933.6887,13.270137851789505,6.000898110168377
3934.5938,13.232371427073318,6.441689105073953
3935.501,13.180474562591204,6.248575286200991
