wavl,flux,ivar
3566.9744,9.487493978801075,14.70633179211748
3567.795,9.469171900885375,15.755061106179284
3568.6177,9.449365832340208,14.622973864027426
3569.4385,9.43752880715273,16.448241638966284
3570.2617,9.437401904829352,14.728761614457442
3571.083,9.446731398748748,15.344270951177158
3571.9065,9.45941592451762,20.396874074204465
3572.7283,9.468811172787762,15.051093474172658
3573.55,9.471002116362412,14.621453387504047
3574.374,9.465667457721585,14.401171530036683
3575.1963,9.454747105486643,17.053113565510245
3576.0208,9.440201732057936,16.540301857396635
3576.8435,9.423412349014109,14.478032560429982
3577.6682,9.405580546986146,13.98175143460213
3578.4915,9.388308517421892,14.21991762976207
3579.3145,9.37203004541172,13.189643017640414
3580.14,9.35460704475607,14.035621200245227
3580.9636,9.332877294407538,11.937918263292891
3581.7893,9.307035146478677,13.06761958023004
3582.6133,9.284882635885822,14.94794306838294
3583.4395,9.279329150569552,14.731721208708942
3584.264,9.300473431550468,15.00609507729625
3585.0884,9.347175253340668,13.56428470690605
3585.915,9.405886126769559,15.95151990145303
3586.74,9.456834800206657,13.012670487603078
3587.5671,9.485427473776433,14.388911294907333
3588.3923,9.488026416982592,18.25063586213542
3589.22,9.470832011010486,15.197932757791053
3590.0457,9.44262152603003,13.324684403172904
3590.8716,9.40874158342139,14.319026876245246
3591.6995,9.370762994601508,15.542977207935378
3592.526,9.3297878515634,16.747485721372144
3593.3542,9.288065980594627,14.936051125604605
3594.181,9.249219637797697,17.84774742173354
3595.0098,9.215772899702332,16.102239178123362
3595.8367,9.188699358344735,16.590975189557092
3596.6638,9.167070992948023,15.958391121142864
3597.4934,9.149486409563805,14.288564695540915
3598.3208,9.134707546276442,16.684020898722736
3599.1506,9.120145774570341,14.936337073329165
3599.9788,9.10025994434126,16.431748842849125
3600.8088,9.067099778849522,17.582133639752236
3601.6372,9.01700446619875,12.214440076970275
3602.4678,8.9579140225531,14.36486324245461
3603.2964,8.911245073702345,20.462873948845285
3604.1252,8.900729551007542,19.790602280016202
3604.9565,8.938352498020858,15.98451551446821
3605.786,9.015661631959706,19.40838845771447
3606.6172,9.109136805867376,13.47531167543048
3607.447,9.191979563872033,14.47562085800317
3608.2788,9.247571064438056,13.318244964471694
3609.109,9.272658810627378,19.221091810847188
3609.9392,9.274063830223882,16.660002697266844
3610.7717,9.260458868880848,16.10952935116244
3611.6023,9.23825527463471,18.616781912629367
3612.435,9.211741016865329,17.205497959830033
3613.266,9.185317834979653,14.412403177373017
3614.0994,9.162978644650421,13.926190022064878
3614.9307,9.14727506775575,13.712053140315264
3615.7625,9.138204692739324,15.614664348205512
3616.5962,9.133894116427168,16.253779321444636
3617.4282,9.130946121669309,17.52700185658645
3618.2625,9.124503618141805,17.299033193461106
3619.0947,9.109410440831489,15.731529131629804
3619.9292,9.082577514233783,17.24896334257791
3620.762,9.04575530624341,18.81923209154429
3621.595,9.005247751636945,13.682181578754212
3622.4302,8.969232090555499,20.661827539521255
3623.2634,8.943817599988188,15.513731673066
3624.0989,8.929540094215065,18.229839652672908
3624.9326,8.922719932787604,13.999851541338112
3625.7686,8.919666856131633,19.086763175617442
3626.6028,8.920674249127032,15.121858703410377
3627.437,8.928456131540395,16.116295454553658
3628.2734,8.94290259319586,18.34257217962344
3629.1082,8.958415504751892,13.529189432336047
3629.945,8.96797374829286,15.317721012618941
3630.78,8.968767338191265,18.96980542298175
3631.6174,8.963844013734265,15.599413619535534
3632.453,8.95879213612531,15.209137024056849
3633.2883,8.958456734395282,14.897024848562689
3634.1262,8.966517578484014,16.87438690547665
3634.9622,8.98514027130371,19.5091226669694
3635.8005,9.012707255917837,13.406343496598009
3636.637,9.040919148937549,14.299800529502043
3637.4756,9.057018171466709,14.737875614084027
3638.3123,9.049941844056123,18.21940072203409
3639.1492,9.017446458798922,15.668505857366178
3639.9885,8.967362119820818,14.28937930927547
3640.826,8.913325815504107,15.099086164141431
3641.6653,8.866262218518417,17.38130092046791
3642.5032,8.830602936296149,16.38442432335599
3643.343,8.804438423173703,20.88503366801405
3644.1812,8.784627438912485,16.715071857743713
3645.0195,8.770545045705216,19.82627483729182
3645.86,8.765395986279053,18.149557236713868
3646.699,8.773588672719825,19.159006845560604
3647.5398,8.796289641514724,18.23678563076883
3648.379,8.828523319954076,17.407332901281297
3649.2202,8.861092011072246,19.266823979146352
3650.0596,8.885114298737014,15.694747271070488
3650.8994,8.897077896685875,16.053282665553915
3651.7412,8.898874190378622,25.06977053108234
3652.5813,8.894526802299524,18.337631648461134
3653.4236,8.886683695003343,18.532681129097334
3654.2642,8.876247403858288,14.298705856114475
3655.1067,8.8640633133902,14.786620512083978
3655.9475,8.851864742413579,18.29050405456297
3656.7886,8.840675838566781,19.30676344774037
3657.6318,8.829780153188718,17.632255504598916
3658.4734,8.818342533209393,15.291339289694022
3659.317,8.808011383496494,13.765192747639798
3660.1587,8.80348654264483,21.50852335808553
3661.003,8.80921982187443,15.865717635902502
3661.845,8.82537632983336,17.272698405478103
3662.6875,8.846462258029218,16.616800872418782
3663.532,8.86365856892105,19.017328892128376
3664.3748,8.869381250211777,13.907193362285653
3665.2197,8.861573520049609,13.162457323644883
3666.063,8.844458906303142,18.667315013507622
3666.9084,8.825541799694072,16.736735708691462
3667.752,8.811589841507434,23.331220196050843
3668.5977,8.805840996599105,20.801803788831535
3669.4417,8.808363412964498,16.51323064080744
3670.286,8.816916730455377,16.38189996470598
3671.132,8.827374339950184,19.3405794946289
3671.9768,8.833861105861976,13.668636926524867
3672.8235,8.83056942260348,18.445608881377712
3673.6685,8.81465988550891,18.299270545754723
3674.5156,8.788117759893266,14.254196120089762
3675.3608,8.757090725549181,17.34726526080603
3676.2063,8.728273359980047,19.568971850453927
3677.0542,8.706164113200595,16.831308096494272
3677.9,8.692112677848437,18.28392999087019
3678.748,8.684435968702001,21.46388987262889
3679.5945,8.680092111879175,20.13429719005876
3680.4429,8.67633926254316,17.508550558421433
3681.2896,8.672285980273784,18.371030692138433
3682.1365,8.668448163761107,15.624910060573713
3682.9856,8.664859824924015,22.23349528639287
3683.8328,8.660044961648259,18.113556283977942
3684.6824,8.652340802184758,15.695783423959773
3685.53,8.642325073128962,20.484682148499253
3686.38,8.633129376814253,18.015221400715987
3687.2278,8.628676618975025,17.596464797400277
3688.0762,8.631179252399917,20.959780354041495
3688.9265,8.640478804058418,16.253453306170286
3689.7751,8.654909625160375,16.504242190539895
3690.626,8.673080102308267,18.430898520930782
3691.475,8.69446052231462,18.13905067759887
3692.3264,8.719080008613506,16.715591083192997
3693.1758,8.745294111541035,22.99635013566685
3694.0254,8.768442783822959,20.342368459596802
3694.8772,8.781079875911104,15.247197006465248
3695.7273,8.77689179507818,13.849913352468493
3696.5793,8.755932816939659,18.679730401701274
3697.43,8.725747102685954,17.258179542265005
3698.2825,8.69591128207797,17.900014125388118
3699.1333,8.671478793522079,16.566055864949977
3699.9841,8.650572711017986,18.61377920024164
3700.8374,8.62882639799931,15.311966033772961
3701.6887,8.6048543916587,23.065397867763068
3702.5425,8.58098197856453,17.105664350329857
3703.3943,8.560766946476189,16.160822153813186
3704.2483,8.545445439368267,21.142951484845263
3705.1003,8.533638586016568,17.976847532879685
3705.9526,8.522156969243028,17.601801547960633
3706.8074,8.507465305986653,19.278506446192004
3707.66,8.486952444879948,16.44149556472014
3708.515,8.459672217140591,16.550499482444117
3709.3682,8.427676634339107,20.06516527716535
3710.2234,8.396106482315101,17.142130708899483
3711.0771,8.373338740486398,17.18788846967494
3711.9307,8.368135385716293,16.77853864384033
3712.7866,8.385521493986175,15.124569384761955
3713.6409,8.422503906382731,18.206150010557085
3714.4973,8.46823825331084,15.149308871739118
3715.3518,8.507901263994425,16.282390398561844
3716.2085,8.529692520699383,20.919784398102287
3717.0635,8.528800803612482,18.637030261454807
3717.9185,8.509230618484356,20.83112347304338
3718.776,8.481518798893465,14.576181138090123
3719.6313,8.458242963757446,18.34573647910056
3720.489,8.447559951083502,14.928438804979507
3721.345,8.450063580642178,18.627894500617295
3722.2031,8.460204873192971,16.715537149540925
3723.0593,8.471437289323491,21.051943351392644
3723.9158,8.480227267891808,15.824345801849889
3724.7747,8.485511826757818,16.17267590658043
3725.6316,8.485783664938678,15.342084465663714
3726.4905,8.478288823821067,15.732633098642376
3727.348,8.461810397221935,20.171029228301997
3728.2073,8.439668556544921,17.43620699277608
3729.065,8.419224728469066,24.063421861380153
3729.9229,8.407063120400682,18.703201289543742
3730.783,8.40505434498492,19.598967553042748
3731.6414,8.40975873094071,16.659844914282576
3732.5017,8.414978676357228,19.80624730144522
3733.3604,8.414887014017031,18.82456472468036
3734.2214,8.406298862575731,22.17758009560534
3735.0803,8.389901342952685,20.780392554181073
3735.9417,8.36989055972985,19.46038344504552
3736.8013,8.352294691089046,21.63462590466197
3737.661,8.341686460984297,18.515022506082936
3738.5227,8.339372101774652,19.78544274687621
3739.3828,8.343434926211474,18.586751383941618
3740.245,8.349969715565953,17.737787589266876
3741.1055,8.354009331613737,15.983177756661796
3741.9683,8.350377928860635,18.94491638978945
3742.829,8.3355549764365,20.272305802263087
3743.69,8.310397385088985,22.377894150086274
3744.5532,8.281028822509919,18.282321830556793
3745.4148,8.256388170052977,17.47843870624193
3746.2786,8.242745781088772,21.343687676379346
3747.1404,8.240554258884227,18.553806134924038
3748.0044,8.244515074450549,19.904762056262975
3748.8667,8.247220294422368,20.112656692241092
3749.729,8.243553421346727,16.53702241832512
3750.5938,8.23333122679388,21.387515522872885
3751.4565,8.221015861756433,20.73588301175689
3752.3215,8.212280040271969,23.604850499985872
3753.1848,8.210250217400558,18.24717984892933
3754.0503,8.213587317392843,19.69606541461192
3754.9138,8.218266880195896,17.6722738804918
3755.7776,8.221409056663157,18.430966871772885
3756.6438,8.223599380403737,18.112560621129838
3757.508,8.227391442404159,20.6420230977651
3758.3745,8.233549304386502,20.064141213203815
3759.239,8.239126389490092,17.271014305258863
3760.106,8.239864609639062,16.614692517762744
3760.971,8.23398834433187,19.44092357473497
3761.8362,8.223500553073443,20.78153778000057
3762.7036,8.212039641071824,16.023923907315552
3763.5693,8.202278454232518,21.056687659344945
3764.437,8.194819394219241,20.25399484931443
3765.3032,8.189123757357745,18.594888397595316
3766.1714,8.18443447587297,19.67107876736382
3767.0378,8.180155718567118,21.86430053691785
3767.9043,8.17527676435787,23.650616212115665
3768.7732,8.167987191388047,20.701434586868135
3769.6401,8.156378906182177,21.26019596524281
3770.5095,8.139760023271139,20.82097421859085
3771.377,8.119913704119291,25.12094760819532
3772.2466,8.10040694474675,22.585416997985792
3773.1145,8.085497004801796,19.538059769948465
3773.9824,8.078437172597091,20.834429642003855
3774.8528,8.081166881096017,20.13508110875641
3775.721,8.094473461679094,23.159741133187683
3776.5918,8.118197971595448,21.472706654588123
3777.4604,8.150236371606857,24.06145556468621
3778.3315,8.186485775420186,22.462731691796435
3779.201,8.221266536094971,19.46646244862359
3780.0703,8.250119020400456,22.89747856756204
3780.942,8.270981096817001,20.688055103243503
3781.8118,8.283845690304712,23.451729797486433
3782.6838,8.289940325507478,18.801425930564584
3783.554,8.290247250889067,18.030532952945215
3784.4265,8.284673549223282,20.572512821785697
3785.297,8.272298745913977,17.204592528470016
3786.168,8.252918881888794,20.212866404105913
3787.041,8.228005542114317,19.09371428084423
3787.912,8.19958556395917,19.46105646745321
3788.7856,8.167612852359653,14.967139017329567
3789.6572,8.130444446245157,15.808664494659592
3790.531,8.086389576481631,18.897381374266608
3791.403,8.036260697179635,20.30223155326324
3792.2754,7.982274303104956,22.35387957640144
3793.15,7.926571486172587,22.969418261230224
3794.0225,7.870871177449898,22.97452729874902
3794.8972,7.816517981394816,23.597831527591314
3795.7703,7.766889611855691,21.138241299722388
3796.6455,7.726694638555628,20.597414744856575
3797.519,7.70179671075523,28.248754259917057
3798.3926,7.696941846896077,24.226568642453966
3799.2686,7.71429657302788,20.30255531961402
3800.1426,7.7511720909196855,23.18587976559836
3801.0188,7.799866196358635,22.70805301974514
3801.8933,7.849565987902486,19.621428728783464
3802.77,7.891646702560728,22.60947469135997
3803.6448,7.9219012138121165,20.37471144731455
3804.522,7.940914858420704,25.0656779304621
3805.3972,7.9516473228522475,16.695738378175545
3806.2727,7.959055792345178,22.527296814377983
3807.1504,7.969576558482385,22.010950404599786
3808.0261,7.989101765967563,20.668997268505635
3808.9043,8.020072282895168,20.70356971495972
3809.7805,8.05965902002168,21.44744786843783
3810.659,8.102267823746958,20.798086142563847
3811.5356,8.142527810687914,16.426519602000315
3812.4126,8.17847745952243,22.196651303064378
3813.2917,8.21108936997616,16.927756003710275
3814.169,8.241772810797983,21.59961573111987
3815.0483,8.270341586903765,17.920585553360688
3815.926,8.29346757037936,20.222004145046807
3816.806,8.306215546743784,19.342675830430345
3817.684,8.30361177750548,20.291686267943096
3818.5623,8.282257571123438,18.385621223372727
3819.4429,8.240648309207188,19.459341685549912
3820.3215,8.180477372481024,22.377695918522758
3821.2024,8.106764811408711,19.126360159256002
3822.0815,8.028458830340051,23.39365808052309
3822.963,7.954438274723827,21.24707582677379
3823.8423,7.891189487163518,20.01905301711388
3824.722,7.839557143165194,20.75030985365047
3825.604,7.795746685010227,22.548694411004057
3826.4841,7.753321024060873,21.95028205402809
3827.3665,7.704844512285905,19.42644501050441
3828.2468,7.645560127811121,22.43485280314265
3829.1296,7.574453520517996,28.303385549542284
3830.0105,7.494875978806267,20.396142677615646
3830.8916,7.410221057257582,28.282101800890217
3831.7751,7.321566092962226,25.15313273515361
3832.6565,7.228889429825834,23.719543636230608
3833.5403,7.132807512729606,29.40097510818992
3834.4224,7.039396870589322,27.854613669817525
3835.3064,6.958272894188674,30.959354346836736
3836.1887,6.901260805023533,24.69879575972404
3837.0713,6.877903844577663,28.103192286859848
3837.956,6.893943894959631,33.37370420966127
3838.839,6.94926767470413,27.83744550975831
3839.7244,7.037537192876028,31.878941161985182
3840.6077,7.146330147800895,30.070348351308134
3841.4932,7.26237566459176,22.047642114408088
3842.377,7.37476104931479,24.988999688936115
3843.261,7.4802155850364125,24.173544358275603
3844.1472,7.5821115815901114,21.70115164855595
3845.0315,7.686180284747947,23.778386172948117
3845.9182,7.797256049866789,26.192616753869796
3846.803,7.9133565879709185,24.010077561642962
3847.69,8.027195060635773,21.35450186017958
3848.5752,8.127535445878195,18.545001121262892
3849.4604,8.206734658553813,16.97816833442808
3850.3481,8.263895249568975,20.990403080056282
3851.234,8.303869360857266,16.538214787276225
3852.122,8.333959636423927,20.93059779154421
3853.0083,8.358769402595353,17.446615116322725
3853.8967,8.37900238124051,19.863980128271727
3854.7832,8.391921051920232,19.04971291181306
3855.6702,8.394749539686211,25.221445489217754
3856.559,8.388126786459365,18.798437166681616
3857.4463,8.378040223451773,20.290997506597666
3858.336,8.373341944224778,18.404143381790924
3859.2234,8.38027197069295,20.296901157044484
3860.1135,8.398156547213274,17.97890566295408
3861.0015,8.420140968571472,19.11132810203668
3861.8896,8.438523990053254,16.589504629615973
3862.7803,8.448921824420363,20.58453794308808
3863.6687,8.450374030397436,17.69430548193962
3864.5598,8.442493020831124,19.40348888061464
3865.4487,8.423107066036907,19.27803062102076
3866.34,8.388728383062144,19.280040189139132
3867.2297,8.33753057990907,19.855419600300266
3868.1213,8.270409175861232,18.451795183053324
3869.0112,8.191412622160689,20.03940809538094
3869.9014,8.105792460112832,17.299677939666445
3870.7937,8.019999984924738,19.6909708778074
3871.684,7.941449884609829,20.799635893029752
3872.577,7.874240918201103,21.18986996313608
3873.4678,7.8171502529811505,22.17290660648871
3874.361,7.761869320128074,23.34485272031199
3875.2524,7.698408646728501,19.09080600422521
3876.1438,7.620188272904421,21.426192432837674
3877.0376,7.527556070180993,31.232433714211723
3877.9297,7.427042090099448,21.942188607429877
3878.8237,7.325364042046584,20.597918851287087
3879.716,7.227326104237764,24.398586946670264
3880.6108,7.132915815258296,25.639432424382136
3881.5037,7.039481245477576,26.071953874767026
3882.3965,6.941097506535634,25.54221337859224
3883.2917,6.830770895482977,24.23435237020884
3884.185,6.70394635122143,31.352245441733682
3885.0808,6.5591016490804614,27.208504880619063
3885.9746,6.401539298229055,36.53629609238863
3886.8706,6.240224515265083,37.68652066040953
3887.765,6.089186590363493,36.0186070388003
3888.6592,5.963363704661781,41.84188178467619
3889.556,5.877525736687245,40.75201610526332
3890.4507,5.843410570584626,50.20475414179775
3891.348,5.864806294053933,35.84058100255948
3892.243,5.936567116476325,38.71117714649442
3893.1406,6.047392824341538,36.85535411182466
3894.0361,6.183316675565345,32.57632386131185
3894.932,6.33344226901481,31.257585285562904
3895.83,6.490040221127112,37.49399804542781
3896.7263,6.646288675182614,28.76072811355855
3897.625,6.798323146322447,29.986433803343598
3898.5215,6.942301811111627,28.613188719032163
3899.4207,7.077446293791489,28.801342915487954
3900.3176,7.202528555334145,26.974215663457645
3901.2148,7.318182409584528,22.03705673428552
3902.1145,7.4255441945767435,26.62558338529535
3903.0122,7.525576884383311,22.046689905070796
3903.912,7.62120221691984,24.14135578763903
3904.8103,7.715978478026372,24.02020392136294
3905.7107,7.815164302961877,23.13271062555668
3906.6094,7.921256053575831,20.87352324979845
3907.508,8.032503815393577,20.751200666129257
3908.409,8.142495443909473,19.573716425631254
3909.308,8.243160935419004,17.241049073683655
3910.2097,8.331005895321871,19.561366981465294
3911.1091,8.406927599872162,16.935274181965738
3912.011,8.475890917790236,18.175871619363445
3912.9111,8.541709216260283,16.887621630475355
3913.8113,8.605783460675127,16.872379034134326
3914.7136,8.66659953578722,18.308109264260743
3915.6143,8.720840897809524,17.00493200381306
3916.517,8.76566158375146,16.85379169387053
3917.4182,8.798178676591164,22.092745993455324
3918.3215,8.816831205543423,16.10510665296878
3919.223,8.823035739840313,16.080962378407573
3920.1245,8.823765500305885,15.659896410395879
3921.0286,8.829852219867073,15.96386562816126
3921.9307,8.850068564611316,17.415645428803295
3922.835,8.885730074785457,16.450439655528644
3923.7373,8.930102407592676,15.068178871841504
3924.642,8.9734634125356,15.502690291883662
3925.5452,9.007058707363038,15.72884450618681
3926.448,9.026031594473523,15.860741137322691
3927.3535,9.029195984009636,17.814177035221732
3928.257,9.018309099958355,18.859544622765387
3929.1628,8.996931241871822,15.786388064206887
3930.0667,8.969499324455018,16.097812051656444
3930.9731,8.940265230123831,16.6710135947465
3931.8774,8.91324084136129,16.919768290449714
3932.782,8.890968039763127,16.024577428145687
3933.6887,8.874284649105677,18.766356527808306
3934.5938,8.862491286761479,19.132288472973467
3935.501,8.853690896829361,15.95355995707292
3936.4062,8.84542888699396,15.975200514271004
3937.3142,8.834609382820172,15.714965550395585
3938.22,8.817935907528417,16.54730893566358
3939.128,8.792365854021325,18.08319275149832
