wavl,flux,ivar
3566.9744,5.423770794261256,16.170791288354028
3567.795,5.4130409249297164,12.437153560450616
3568.6177,5.399004705691943,24.791212039739165
3569.4385,5.379903433767802,14.004677977567535
3570.2617,5.355722182269615,16.96458990837794
3571.083,5.330562193779843,16.0251721979671
3571.9065,5.311426559443161,20.888985917628748
3572.7283,5.304766794284801,16.367112329524705
3573.55,5.311560312062625,17.901630450120056
3574.374,5.325947837838629,13.716081093029398
3575.1963,5.337796936871433,16.42534252260524
3576.0208,5.338145596632704,16.980477269921483
3576.8435,5.3235221843836875,14.66412941828875
3577.6682,5.297420084840425,10.259126461286256
3578.4915,5.2684605212627975,20.821376527069802
3579.3145,5.245619927342334,26.92138274361301
3580.14,5.23440386475879,22.531951953680146
3580.9636,5.236222265922821,23.14502545403172
3581.7893,5.250354238938333,15.368271616138635
3582.6133,5.275690997488958,24.254034749267507
3583.4395,5.310180245208686,16.07117925576497
3584.264,5.348341746775661,15.253633991588933
3585.0884,5.381574856660422,20.930582434953973
3585.915,5.400995915340257,18.09303760946723
3586.74,5.402279205811632,14.114353659874947
3587.5671,5.389069685440822,11.498162543501468
3588.3923,5.371000956372568,28.74976069049831
3589.22,5.357148123794801,14.077918494345914
3590.0457,5.350529525178031,15.167251014468578
3590.8716,5.34748981879695,16.561438490723457
3591.6995,5.342712214457015,21.67471453360928
3592.526,5.334930542759859,20.3286778611405
3593.3542,5.329139420625783,14.329196935476878
3594.181,5.333847247727508,16.738041073248052
3595.0098,5.354596656278397,12.853711065779194
3595.8367,5.387934689087409,19.15715491374618
3596.6638,5.421105721450528,16.728166261786004
3597.4934,5.437733198032306,15.143970386507378
3598.3208,5.4262549305134105,5.868307880774549
3599.1506,5.385682517047907,20.94316493221792
3599.9788,5.3257302915833975,15.504346807071032
3600.8088,5.261520908408284,27.922846578182867
3601.6372,5.208085716876809,20.143246952362823
3602.4678,5.174075398632218,14.910323794795303
3603.2964,5.160974687301268,19.889938241177177
3604.1252,5.164905562244185,28.280295230380162
3604.9565,5.181219974135736,14.570916130174487
3605.786,5.206403974410976,15.6017262199526
3606.6172,5.237330559339533,20.162453561330867
3607.447,5.268701549024435,22.140109003662023
3608.2788,5.2939862280631855,19.63923146053399
3609.109,5.3087326316137045,18.22888210581274
3609.9392,5.314157510378876,19.73086404776774
3610.7717,5.315430034988716,12.848384337753782
3611.6023,5.316740393996545,18.15851390438908
3612.435,5.317867730434429,16.718852376384845
3613.266,5.315219215537981,18.46723896143103
3614.0994,5.305380944103701,14.70499121399699
3614.9307,5.28787444862015,19.253277678819487
3615.7625,5.265613796747931,13.22053593935621
3616.5962,5.243890358345894,16.690896062801936
3617.4282,5.2277326950199265,20.347480392101467
3618.2625,5.217938391178111,15.203270900215548
3619.0947,5.210103459265194,16.15847036442202
3619.9292,5.198114819079441,16.52116528217234
3620.762,5.180109049435245,29.544160416765614
3621.595,5.1596205337871845,32.60328024462438
3622.4302,5.141018510613373,20.04253716138569
3623.2634,5.125053337583327,14.940379118480374
3624.0989,5.109461428644631,17.180216311863262
3624.9326,5.093399055055789,21.832998348838224
3625.7686,5.078243064669415,14.936411965744892
3626.6028,5.064865153894879,13.196918251620211
3627.437,5.050904388820615,14.430187166782952
3628.2734,5.032492691109812,13.575332747290352
3629.1082,5.008633955627094,28.642961443680605
3629.945,4.983501452158252,16.09503712786644
3630.78,4.965198542947153,21.263106860203703
3631.6174,4.960361420961998,18.892935896795866
3632.453,4.969907792496761,16.84588412320931
3633.2883,4.988617660585829,14.47483300333885
3634.1262,5.009591890695909,17.1529921365127
3634.9622,5.02877133300122,19.594555551757065
3635.8005,5.046290074410722,19.054112030446472
3636.637,5.063433692584316,23.80578202044729
3637.4756,5.080643593129455,15.784811428920024
3638.3123,5.097032274449562,17.784756248059285
3639.1492,5.110902537168876,16.02759105536545
3639.9885,5.1187160499747675,18.328796219712846
3640.826,5.115137818899931,16.230751477704075
3641.6653,5.096182359297339,11.894973606606237
3642.5032,5.063261799577518,15.294236154361164
3643.343,5.023531016010819,18.22007470745295
3644.1812,4.986743294926486,22.774672060681773
3645.0195,4.9603744797894915,17.557567153994757
3645.86,4.948501702120964,15.382265194398464
3646.699,4.952562109556087,18.360393467071766
3647.5398,4.971470609987589,11.549620771394723
3648.379,5.000749166188224,30.07349352586608
3649.2202,5.033439531199045,16.65036219112503
3650.0596,5.063215681150759,19.3748777006318
3650.8994,5.088728994285401,16.37359311963234
3651.7412,5.112958631812968,20.918564980479438
3652.5813,5.138487226740331,19.63515590106591
3653.4236,5.163695240278186,23.718047515702466
3654.2642,5.182487220330462,12.167940399175393
3655.1067,5.188049413222362,11.970898705662538
3655.9475,5.175871927416316,25.865033239098192
3656.7886,5.145998703426246,10.70213884658988
3657.6318,5.103925719481488,21.38929542439954
3658.4734,5.060268733298206,16.773239771252932
3659.317,5.0267407695831094,20.20965668197998
3660.1587,5.012289927955203,29.983256896640533
3661.003,5.019545288255454,17.664567492217152
3661.845,5.04465314637141,22.727406533284437
3662.6875,5.0790315993239625,22.455790038765137
3663.532,5.1117804995831895,13.469741302461788
3664.3748,5.131894001756128,15.90111028744252
3665.2197,5.131469947629797,13.537998223171336
3666.063,5.108429250290803,15.767335349327617
3666.9084,5.067997026095897,19.440713973586888
3667.752,5.021138406716305,17.409078983558647
3668.5977,4.979124010614966,18.576970655064688
3669.4417,4.949894499403949,19.56010252095903
3670.286,4.935335159444398,18.12054790245931
3671.132,4.931848353627207,16.33417359999778
3671.9768,4.93193163756016,18.757195087245467
3672.8235,4.927365402445013,20.220408411753734
3673.6685,4.913213323138551,15.618951909976483
3674.5156,4.890112378490574,19.17715543813593
3675.3608,4.863993173470873,29.387421557739504
3676.2063,4.843024598368445,13.80902598252165
3677.0542,4.834845714977921,25.24816053062135
3677.9,4.843870336590576,24.274842877074313
3678.748,4.868896844591676,26.563086051915167
3679.5945,4.902338871471609,18.41407475407361
3680.4429,4.933448759792694,22.928581431457026
3681.2896,4.953112174296817,16.856447019764293
3682.1365,4.958294136670264,24.919799643224753
3682.9856,4.952012356458059,28.42382610475238
3683.8328,4.941040747944181,21.716388290725057
3684.6824,4.932678910810876,15.329935710164479
3685.53,4.932088659974763,24.584528054463853
3686.38,4.940059062317564,19.01333170368174
3687.2278,4.952866098116686,18.357205805479545
3688.0762,4.96510462202747,21.4151696385999
3688.9265,4.973536678508287,15.455820048769462
3689.7751,4.978783604928292,17.04752097331654
3690.626,4.98353125387825,15.242055486649626
3691.475,4.989046481636193,18.020147646904984
3692.3264,4.993709052157327,17.856680220427144
3693.1758,4.994100149828829,21.01648904175189
3694.0254,4.987442498769931,16.383759822921917
3694.8772,4.973226587341537,18.329445141496002
3695.7273,4.953785329572623,20.657700882181416
3696.5793,4.933178338018776,13.99266125034754
3697.43,4.915659133553959,27.4017835202182
3698.2825,4.903231253561981,15.733363520997221
3699.1333,4.894435688415041,26.288726474154487
3699.9841,4.8844958200079365,16.02080662569888
3700.8374,4.868064686579386,18.9226533280211
3701.6887,4.843064146221493,18.81679217214832
3702.5425,4.812093614974479,18.05735257311724
3703.3943,4.781234827538523,18.18933039055858
3704.2483,4.7562899393989015,17.557704054515575
3705.1003,4.74151027328213,19.78435272208869
3705.9526,4.739134390429472,19.607215453193103
3706.8074,4.74978054324835,21.61009239147833
3707.66,4.77129446296109,24.559432222682343
3708.515,4.7981797701936815,18.967619875956146
3709.3682,4.822541703698651,17.902592014145217
3710.2234,4.8382357610639914,17.486590523533053
3711.0771,4.843720996790934,22.99678958849363
3711.9307,4.841790004959761,23.95895876525406
3712.7866,4.835718074644855,15.424816217862285
3713.6409,4.826616896778464,20.24973108277092
3714.4973,4.813982739861596,22.372723967168902
3715.3518,4.798030658816804,14.809729742299735
3716.2085,4.7800182333480645,22.884769268161914
3717.0635,4.761561390918539,20.881420271799144
3717.9185,4.743922267257901,18.006611207016068
3718.776,4.728397423403567,20.84973570603827
3719.6313,4.71599844839109,42.10236933622193
3720.489,4.7063381992048035,25.844771405139014
3721.345,4.698445405275892,14.602524334323972
3722.2031,4.692285008770023,28.77392940040603
3723.0593,4.689410268986468,19.150823301987295
3723.9158,4.691431549359618,18.814336436349276
3724.7747,4.698398489098677,22.10072607798644
3725.6316,4.707924295128347,19.7819755135671
3726.4905,4.7154982977817,30.733837969581263
3727.348,4.71580393580669,21.25586265667976
3728.2073,4.705844244166219,18.483530418175835
3729.065,4.688022711691551,16.03698602650247
3729.9229,4.669850200400928,20.89658886457909
3730.783,4.659573769278064,28.371024086626605
3731.6414,4.660939429307104,26.504286765227842
3732.5017,4.671566704077305,18.454078862308673
3733.3604,4.685809853614023,29.53852654573064
3734.2214,4.6984825653894156,23.520240431355873
3735.0803,4.70628880219467,19.611486900403637
3735.9417,4.7084211557410605,17.61078871066973
3736.8013,4.706434862160697,20.64290422805229
3737.661,4.703277497643758,23.601838960177485
3738.5227,4.70113786613882,19.438737149387016
3739.3828,4.700395194270469,25.26651632762089
3740.245,4.700765281822246,20.635925297395545
3741.1055,4.702871255078491,19.04108314695626
3741.9683,4.707895452509073,16.768796548450332
3742.829,4.715853539307996,22.453988110566076
3743.69,4.724907904321297,26.19254381383886
3744.5532,4.732077280503189,30.400621228754435
3745.4148,4.73448085938468,17.975754204516736
3746.2786,4.730850631592585,20.98794339755414
3747.1404,4.722483553958046,34.27612332692111
3748.0044,4.712411225485108,16.69125011169948
3748.8667,4.703102388227272,15.620966201884876
3749.729,4.695012087364821,19.80904127396216
3750.5938,4.688410959495819,24.49506503458076
3751.4565,4.68583606015509,20.99216543758801
3752.3215,4.690931394267015,16.210855979022007
3753.1848,4.704134025675606,29.00702092965068
3754.0503,4.720348037506974,24.50247884588504
3754.9138,4.731873244122199,15.516162466926527
3755.7776,4.73433941184789,32.76373961996687
3756.6438,4.728749219674034,29.15274026804112
3757.508,4.718695627985749,32.98360004362412
3758.3745,4.706138235485967,23.62887348669554
3759.239,4.690742665620204,24.618401448847163
3760.106,4.6721715054438695,23.450688833440555
3760.971,4.6527832458158125,20.52379893754535
3761.8362,4.6367261424731865,36.61516320505102
3762.7036,4.62718127205974,20.70181587175588
3763.5693,4.624012303729399,31.5367690798199
3764.437,4.623796302774422,22.265436077250744
3765.3032,4.622192462779509,23.20849211341039
3766.1714,4.616626880634239,22.01277366978168
3767.0378,4.607928398209112,22.45742740265341
3767.9043,4.599486188559005,21.23935060545612
3768.7732,4.594214612126827,19.740509448070025
3769.6401,4.591739113843941,19.341603985986904
3770.5095,4.5887374902866185,17.908645450504164
3771.377,4.582486585936483,23.896153840919737
3772.2466,4.573400309777178,21.55751283205821
3773.1145,4.564287301176264,18.71621205859427
3773.9824,4.557567932254659,28.64575225282085
3774.8528,4.554147478461349,21.997964404110043
3775.721,4.5544000022456785,15.176705507709915
3776.5918,4.5593065938491595,31.4682202369915
3777.4604,4.5699491838701665,22.73814339778138
3778.3315,4.5856775014148194,21.18365563835839
3779.201,4.602479649493242,26.055887431596307
3780.0703,4.614401459729533,25.74675462621823
3780.942,4.617414254696612,17.950908776320254
3781.8118,4.613495660406009,27.274926439267883
3782.6838,4.610682983738295,21.65158902270313
3783.554,4.617610645416811,28.31197688506582
3784.4265,4.636520153581086,29.707445743726865
3785.297,4.660708316001903,29.477739658866128
3786.168,4.679375683219187,16.807428493547583
3787.041,4.684865838200181,18.931521625158453
3787.912,4.676518587503375,19.768967135728595
3788.7856,4.658348514681147,21.166146715224002
3789.6572,4.634086529283197,26.741667953299956
3790.531,4.604600921085324,22.958532112336492
3791.403,4.570615312376178,17.57932683919735
3792.2754,4.5353027770653105,29.209551533144765
3793.15,4.5039073267016825,19.061671272206063
3794.0225,4.480247618157642,39.65919876272249
3794.8972,4.463736619369864,24.089026517244555
3795.7703,4.451282675441198,35.177395737809015
3796.6455,4.44057886221693,18.304450859358923
3797.519,4.4325994617482865,18.560997672249606
3798.3926,4.430755540258456,24.193373293163773
3799.2686,4.438315322656897,20.715258513546026
3800.1426,4.455086600873784,23.657136418668657
3801.0188,4.475784519254673,25.445942863029842
3801.8933,4.4915795944217605,18.183226747315835
3802.77,4.495929657488578,22.747942306410025
3803.6448,4.489739414262629,25.417159481417563
3804.522,4.481566931434695,33.84538785116063
3805.3972,4.481774534105794,22.474897432171215
3806.2727,4.495454400684671,27.800031984347136
3807.1504,4.520390218892399,19.200687516440794
3808.0261,4.550284459074313,22.249054024630027
3808.9043,4.580130204892732,22.307988965658403
3809.7805,4.607463187693577,25.744805660019892
3810.659,4.631571024197468,28.771958977597237
3811.5356,4.651652909399833,22.489079259376005
3812.4126,4.66728687337397,21.29129916832637
3813.2917,4.67814041694112,20.655404467916416
3814.169,4.682968317980773,21.892399390939104
3815.0483,4.679740672760386,14.196080818407435
3815.926,4.6677132048673515,17.915714200812065
3816.806,4.6494436492875915,20.67508755900369
3817.684,4.6299696653794715,43.800506132434165
3818.5623,4.613053022726063,19.793105485297154
3819.4429,4.599103562900461,24.452463694227454
3820.3215,4.586569604806249,20.07242485062336
3821.2024,4.5743488717713365,25.708547621162047
3822.0815,4.562654132547799,27.823868564194875
3822.963,4.551049188513994,23.1749973136006
3823.8423,4.537387521711606,25.710482714392885
3824.722,4.518816353686329,19.43780806534103
3825.604,4.4941100279277615,27.45517679404111
3826.4841,4.464618009582762,25.570354630653476
3827.3665,4.432374805626652,23.182439579982358
3828.2468,4.3988334148988075,21.518271872183394
3829.1296,4.36369056560199,30.076999293303977
3830.0105,4.326160407284102,25.020832864122603
3830.8916,4.28537095192281,20.711793806007197
3831.7751,4.241454723996177,20.66818809952976
3832.6565,4.196360611590669,31.692372612701348
3833.5403,4.152881460109748,29.514963308905493
3834.4224,4.114854688023678,27.276479236861206
3835.3064,4.085467643475591,25.744037068998182
3836.1887,4.06705049094918,53.72821414677324
3837.0713,4.060105766021847,26.97819807128247
3837.956,4.063593846548586,26.168342156673784
3838.839,4.075234511073907,35.87260579411055
3839.7244,4.092466330385261,29.646562450012716
3840.6077,4.113658551269276,30.360262114984142
3841.4932,4.139835105036197,33.19365704712618
3842.377,4.174120724252734,25.768852699688225
3843.261,4.219241156888078,30.203647057326585
3844.1472,4.273436255028635,22.875622036585167
3845.0315,4.328861949564646,26.163612459029736
3845.9182,4.376521984716367,26.02062411141968
3846.803,4.411510058274501,25.848752808326175
3847.69,4.436437921511839,34.90134906355528
3848.5752,4.457372142229689,25.215149466926174
3849.4604,4.479053521521755,15.461902808503249
3850.3481,4.5027619868295945,18.80112527784248
3851.234,4.527535889139235,20.42846095510212
3852.122,4.551643613544369,27.39751205147077
3853.0083,4.571254163743647,15.962374605341193
3853.8967,4.581041664300414,17.197795229551964
3854.7832,4.577475252322225,17.27465270638631
3855.6702,4.563109467743404,20.872716267189244
3856.559,4.546016578036426,23.823940612812155
3857.4463,4.534890238842171,20.50575933887073
3858.336,4.5340161707132,31.346932619629335
3859.2234,4.542527249184593,28.967596962001707
3860.1135,4.556328876001204,21.28961383819685
3861.0015,4.569961632132493,25.67747208041723
3861.8896,4.578007326188268,20.19296889527192
3862.7803,4.575949404459912,23.478886060159898
3863.6687,4.561710568216989,22.612116788774028
3864.5598,4.53702565839814,16.825474135097043
3865.4487,4.5079569896933975,23.808273805070634
3866.34,4.482080677502702,23.548055061616154
3867.2297,4.46475252118321,24.6711848868043
3868.1213,4.455672045864056,25.31735246045144
3869.0112,4.450210948085083,22.158216956034828
3869.9014,4.443270806661877,22.243693040780876
3870.7937,4.432463867833744,25.289714004505022
3871.684,4.418171645036817,27.6551626549035
3872.577,4.4016050849309245,25.31958289591744
3873.4678,4.384150884392819,27.10412152815551
3874.361,4.367347052182689,21.13744996202989
3875.2524,4.353196685322525,26.380307993108303
3876.1438,4.342678507321103,24.751106297148752
3877.0376,4.334403742178308,35.24997979668216
3877.9297,4.324553772636784,27.566079297201313
3878.8237,4.308670557806205,22.321074850672755
3879.716,4.284417420266492,26.521169152204486
3880.6108,4.251925544731129,33.32477551910507
3881.5037,4.212239179051656,32.12417959300232
3882.3965,4.164423864514645,25.640220977578657
3883.2917,4.105693505414153,24.309080853144913
3884.185,4.034424091891884,27.725832299698624
3885.0808,3.951445088215951,25.036351801062224
3885.9746,3.8619263537391,29.261954427845936
3886.8706,3.772968313447663,35.37555938284512
3887.765,3.694217395736668,41.01883561466514
3888.6592,3.6355674097113484,32.282130206637895
3889.556,3.6061056232863717,38.84351118001405
3890.4507,3.6112304882198734,32.18989003295854
3891.348,3.64943660285946,49.25085699952189
3892.243,3.7116375621707065,28.060607127255917
3893.1406,3.784783967958938,34.754258750835746
3894.0361,3.8557083239117853,36.94066146169014
3894.932,3.916658554245772,31.322631254911816
3895.83,3.9659513808031615,40.693615334846584
3896.7263,4.006241260276376,25.29857218550843
3897.625,4.042491921073107,34.954517930372006
3898.5215,4.0783810735057955,31.59130877275793
3899.4207,4.11530650973954,25.445406312515246
3900.3176,4.151383683662063,31.57852326931884
3901.2148,4.183846239866811,20.031162644478073
3902.1145,4.21150767869686,32.70102142837072
3903.0122,4.236335406045359,33.225087297865485
3903.912,4.2628831575488215,28.7652677826201
3904.8103,4.294814378272441,22.569111301062144
3905.7107,4.332952232960091,28.433033662233584
3906.6094,4.374292648119119,21.010870681291475
3907.508,4.413864997164103,20.387375745673182
3908.409,4.446522113235037,30.024093348594235
3909.308,4.468715104336227,23.724708867852478
3910.2097,4.480527172126015,18.098334898465083
3911.1091,4.485810408220995,25.186852294143076
3912.011,4.4910804836411495,26.378913940982983
3912.9111,4.502139017337344,27.716047803526408
3913.8113,4.52106931938829,25.38756891238092
3914.7136,4.545498331120581,20.723246641278802
3915.6143,4.570023944505054,20.666280468394028
3916.517,4.5889629845211735,23.615619199468696
3917.4182,4.597958999905591,23.311563276055512
3918.3215,4.595770382954102,19.070267413307604
3919.223,4.584740560577246,22.957357149988205
3920.1245,4.569661961646202,23.814053876956184
3921.0286,4.555265092076304,20.94973073011506
3921.9307,4.544491073594469,23.804090523045527
3922.835,4.53824117420866,23.859551582933307
3923.7373,4.536523673166181,18.158022533229126
3924.642,4.5387282756807314,19.558525519430333
3925.5452,4.543408344681398,22.560788340056636
3926.448,4.54843872902362,21.7251354163904
3927.3535,4.551872911169836,23.533847341798257
3928.257,4.552597242416245,22.330163883297093
3929.1628,4.55020486586155,30.130738869635373
3930.0667,4.54435201739278,27.44812514659668
3930.9731,4.534607023494399,18.58144276315181
3931.8774,4.521330176446222,23.99805430941846
3932.782,4.506407509061251,22.95733283958258
3933.6887,4.493430858129597,28.979640691460467
3934.5938,4.486721328688251,31.02414910394693
3935.501,4.489145196790534,18.26344194380896
3936.4062,4.50002605884975,19.1992125723427
3937.3142,4.514354409819145,26.61054541139024
3938.22,4.524347424488193,19.422806068376865
