wavl,flux,ivar
3566.9744,1.2102835094161408,165.74950577342622
3567.795,1.2034837468064614,173.28942382744827
3568.6177,1.19284424355807,258.83654344167024
3569.4385,1.1805387253116568,154.1958656230273
3570.2617,1.1695510420717428,196.89367003609536
3571.083,1.1623377997652022,205.7215928085938
3571.9065,1.1596968690184006,207.92449549491013
3572.7283,1.161045022594767,233.59080514772273
3573.55,1.1650783516013796,189.46621809469494
3574.374,1.1705025435503025,212.11999669515134
3575.1963,1.1763247954723905,194.79997237467364
3576.0208,1.1820776903588146,275.6182335456946
3576.8435,1.1876808314826923,179.5670845459592
3577.6682,1.1932785278416584,231.15020280219932
3578.4915,1.198668067114552,190.84277900784207
3579.3145,1.203035129256766,287.9882681529201
3580.14,1.2050823532255666,157.2882918686638
3580.9636,1.2037113864143256,212.51867882889883
3581.7893,1.1988366929794791,170.24100493188476
3582.6133,1.1917050242230622,236.70057991865545
3583.4395,1.1843510901483578,204.11976434838903
3584.264,1.17874809180541,256.3741379950699
3585.0884,1.1758939197514837,287.05423446785846
3585.915,1.1757231387403186,176.0422060826602
3586.74,1.1774140842268157,226.6182051478108
3587.5671,1.1797491009286212,219.86058991983268
3588.3923,1.181342758130934,222.48701898966286
3589.22,1.1810220970161642,266.91902865409475
3590.0457,1.1783164266358792,192.32320171411942
3590.8716,1.1738381740256336,185.93110138316587
3591.6995,1.1691719301726236,163.1054461020919
3592.526,1.1662600186173522,242.38892211663457
3593.3542,1.1663655926558234,274.01516336884794
3594.181,1.169284342150269,261.8424033334741
3595.0098,1.173175565605509,265.7490633242782
3595.8367,1.1752375426182078,294.44519123819657
3596.6638,1.1731500498902112,267.8467443877225
3597.4934,1.1663816530661852,164.4937777453867
3598.3208,1.1568386943612055,277.53115370253835
3599.1506,1.14790919103135,232.85805700604737
3599.9788,1.1427775802923008,268.37611385861237
3600.8088,1.1425684624030663,186.877018104213
3601.6372,1.14611676856104,249.89425823155403
3602.4678,1.1511151533402257,236.67263225029328
3603.2964,1.15551557898438,206.79819108314425
3604.1252,1.1582157592729745,173.78413346687944
3604.9565,1.158839431510787,237.27829700327763
3605.786,1.1575944333637753,211.58404558640754
3606.6172,1.155376882824872,219.3222237331447
3607.447,1.1536176925040436,253.33385126882598
3608.2788,1.1534807909832128,258.23271674588034
3609.109,1.1549764841725574,228.42793954900256
3609.9392,1.156800404215712,224.47801389233956
3610.7717,1.1572252420961964,344.6694694962825
3611.6023,1.155373854911395,200.0151642102302
3612.435,1.151791582620641,193.21830197042252
3613.266,1.1478745798195424,276.1917185467272
3614.0994,1.1446881190950846,267.5464016431722
3614.9307,1.142448192510524,460.5596617493047
3615.7625,1.1407709963292842,287.84788672372395
3616.5962,1.1393174320909538,241.28053002527744
3617.4282,1.1380482061932173,254.14546451250214
3618.2625,1.137035536240179,248.82846174167085
3619.0947,1.1362656608860446,293.33569113163935
3619.9292,1.1355790842307194,249.65529486642643
3620.762,1.1346911668837947,282.10294461038364
3621.595,1.133072113103586,299.4763665705924
3622.4302,1.1299207641554956,191.32974377363405
3623.2634,1.124601468739597,216.22484163933416
3624.0989,1.117336009793676,222.350340122788
3624.9326,1.1097925551240353,233.91796531023817
3625.7686,1.1045402007029177,241.00873966195223
3626.6028,1.1038595456673752,201.63794419469647
3627.437,1.1083643119252315,241.5448526112467
3628.2734,1.1168190060718215,249.27344079584063
3629.1082,1.1268480689047433,212.2861682197539
3629.945,1.1361105664122881,179.16967052904653
3630.78,1.1426454245510729,252.9700061629845
3631.6174,1.145183171162428,288.2354635048508
3632.453,1.1433436962548766,214.1231338410767
3633.2883,1.1380866067022533,216.71065277389894
3634.1262,1.1314337742818914,211.7157721288921
3634.9622,1.1255517239639174,172.44200011354235
3635.8005,1.1215644416357775,245.03820515714793
3636.637,1.119455269225504,199.90947184278153
3637.4756,1.1187459284604284,170.37183290188364
3638.3123,1.1194341338576554,210.92077773470942
3639.1492,1.122021114640107,238.10991184514145
3639.9885,1.1266723717563187,274.63470678467337
3640.826,1.1323758467446712,270.8234897612446
3641.6653,1.137307113091331,218.9759708061143
3642.5032,1.1398246066287552,209.2589180647712
3643.343,1.139281884192275,231.41320413873675
3644.1812,1.1359137461107853,285.35982343113756
3645.0195,1.1305238350650773,177.73344088404613
3645.86,1.12438443491151,292.8922892686045
3646.699,1.119044241502561,369.6824668450776
3647.5398,1.1154868537084046,208.18934044311058
3648.379,1.113577488181164,366.40593131461304
3649.2202,1.112253456360292,224.89998360417215
3650.0596,1.110564947490993,301.52444694919984
3650.8994,1.1085096787475919,207.39573466678033
3651.7412,1.1071436447922005,267.9409124226322
3652.5813,1.107895631893637,269.9913955189449
3653.4236,1.1114676867132904,228.7482352308641
3654.2642,1.1169787727814662,355.7718403214516
3655.1067,1.122094259016116,185.08230988558478
3655.9475,1.1240437260750815,217.71914028239513
3656.7886,1.1211846623955781,185.125364921141
3657.6318,1.1139236703750066,214.70748801708015
3658.4734,1.104751945840709,213.69247354505399
3659.317,1.0969991051473436,210.06325988459668
3660.1587,1.0933881744071539,250.46805124391278
3661.003,1.0948423413118438,231.7515647669536
3661.845,1.1004740573873615,291.83002696649083
3662.6875,1.1083214164867388,237.80727813941235
3663.532,1.1162235338703093,247.7397024433735
3664.3748,1.1223984060650736,360.2518512254987
3665.2197,1.1258965196011859,227.43678667497926
3666.063,1.126550422166424,169.56725922723263
3666.9084,1.1247973020998587,353.6195187226323
3667.752,1.1212690897301894,159.80214109072753
3668.5977,1.1165079969510439,222.45873492794652
3669.4417,1.1111186378154436,291.28209072887046
3670.286,1.1059618882051994,195.57552142296782
3671.132,1.1021485651775218,190.83199478251714
3671.9768,1.1004825525061273,274.62071892852595
3672.8235,1.100781381183513,272.55830150305724
3673.6685,1.1019497024804714,248.38867235028442
3674.5156,1.1027302532303107,246.86705211356545
3675.3608,1.102181987822278,263.97369933990274
3676.2063,1.0987241782327068,233.20603783394714
3677.0542,1.0871641022144811,205.54877219959485
3677.9,1.054831032417664,170.01307995497535
3678.748,0.9794428863842275,204.1037479971298
3679.5945,0.8370344078597803,232.64326841011595
3680.4429,0.6206302174961018,214.49693689696588
3681.2896,0.36704685453950864,287.5794976549816
3682.1365,0.15646144203886392,317.17629641904136
3682.9856,0.07665157514119823,0.979162736181024
3683.8328,0.16507748794900842,253.4409953196476
3684.6824,0.38090136527750484,344.2782952380177
3685.53,0.6336999047346513,262.69130391237405
3686.38,0.845411465183296,203.0503677051508
3687.2278,0.9822984181800747,208.19558541041073
3688.0762,1.0537499867222762,203.00851255747148
3688.9265,1.0847523181957492,372.46014790859283
3689.7751,1.0967288197577199,230.93591405620487
3690.626,1.1018615347407739,297.72526552406464
3691.475,1.1051517302045533,249.5324384885603
3692.3264,1.1082274233513998,241.0546969604308
3693.1758,1.1112856426662363,279.6305149657557
3694.0254,1.1138794502945315,205.58173302219066
3694.8772,1.1152719039150825,251.5246015912616
3695.7273,1.114798488006205,244.52390807034016
3696.5793,1.1122280297349136,329.8313040109901
3697.43,1.108102141110713,224.0991150731149
3698.2825,1.103763445691936,250.2265677225499
3699.1333,1.100807396204726,269.591254826672
3699.9841,1.0999633871973509,245.6004268925629
3700.8374,1.1005822753107435,213.87758268204405
3701.6887,1.101177999603319,238.7122578129666
3702.5425,1.1005882538951584,218.68910626694623
3703.3943,1.0986138641586274,288.96846829684364
3704.2483,1.0956913085743871,219.76624918580114
3705.1003,1.0922281191083414,251.0463332161514
3705.9526,1.0882540135311036,312.9358644607354
3706.8074,1.083695480924676,247.7840226027589
3707.66,1.0788271439782038,306.0239441064266
3708.515,1.0743131948216522,278.9572763585449
3709.3682,1.0710456491908429,285.9581166227912
3710.2234,1.0695515160840885,268.64922804768736
3711.0771,1.0695318490568113,288.17975197824
3711.9307,1.0696757465317208,482.71676142781405
3712.7866,1.068182226264221,292.1304614626328
3713.6409,1.0638470562786388,511.58936092474516
3714.4973,1.057036049739226,257.382432478022
3715.3518,1.049934566815701,250.3360382971362
3716.2085,1.0455033049173024,211.6461173270834
3717.0635,1.0460401417462648,333.76132591060315
3717.9185,1.0518182005405388,264.3853434159588
3718.776,1.0608271171884296,296.7554576650607
3719.6313,1.0693913512735749,271.1500532009851
3720.489,1.0738844518657147,240.51836698315353
3721.345,1.0723308717162365,208.03751553325029
3722.2031,1.065443208188437,285.25707361700915
3723.0593,1.0561958559531934,271.1036646318523
3723.9158,1.0481121022562732,297.66145670977545
3724.7747,1.0436031512870076,248.60370500504595
3725.6316,1.043132949587051,331.59186707161314
3726.4905,1.0454071328047905,218.62089776447743
3727.348,1.0483770532974774,282.52690586418964
3728.2073,1.0503529918211063,308.40158147988086
3729.065,1.0507031633925539,270.9961458930401
3729.9229,1.049960959311742,298.162010815627
3730.783,1.049209255533708,292.68127623540835
3731.6414,1.0491787484920045,313.24344274909
3732.5017,1.0496480167569553,250.23544629255107
3733.3604,1.0496228664112848,335.25790559300475
3734.2214,1.0480569200308132,299.72354617906416
3735.0803,1.0445228809923413,286.16905634964377
3735.9417,1.0393809418326052,282.5081248525783
3736.8013,1.0336312540406771,306.54902971590496
3737.661,1.0284303259671606,346.3425846264502
3738.5227,1.0247618433122418,324.2045194568136
3739.3828,1.023271912830835,247.91500305335776
3740.245,1.0241486157729907,297.79282427679425
3741.1055,1.0270685558094608,339.52180878197186
3741.9683,1.031176815970084,216.458764074623
3742.829,1.0352362765596317,293.2546793968302
3743.69,1.0381728788774105,253.4616110692297
3744.5532,1.0395204214341724,303.2157576756482
3745.4148,1.039555194471313,383.5795678136911
3746.2786,1.0390323994540496,230.25811245908582
3747.1404,1.0386893032158768,266.505822346534
3748.0044,1.0388012857121984,249.20739072219172
3748.8667,1.0389364777008254,283.0747450111149
3749.729,1.0380830642444367,237.46320498780125
3750.5938,1.035318186899186,376.1770938646705
3751.4565,1.0308253082784258,228.93901687975588
3752.3215,1.0262769442042854,376.166624282447
3753.1848,1.0240805269320412,1180.3649412938778
3754.0503,1.0256857733412037,215.65541168155426
3754.9138,1.0305867389466845,259.9404768874854
3755.7776,1.0368265221531787,346.3743755257785
3756.6438,1.04240214007228,365.02425954401457
3757.508,1.0461829653050805,277.6324336715365
3758.3745,1.0479144270381218,339.5164186270167
3759.239,1.0475227826339735,277.51439394822734
3760.106,1.044869256383558,320.5792530129717
3760.971,1.040129828113068,290.3840440977487
3761.8362,1.0342745025746372,253.3605854383291
3762.7036,1.028987647318745,397.50937222186803
3763.5693,1.0258055181417833,267.4183392802088
3764.437,1.0249832881899845,313.6191504529235
3765.3032,1.0253631373861094,278.4772003185154
3766.1714,1.0253252576074279,229.55526907208278
3767.0378,1.0240923202026901,249.4114653926784
3767.9043,1.0222250297332844,294.18048057685206
3768.7732,1.0210323131467305,354.82675798562764
3769.6401,1.0215483210449028,336.66517562918244
3770.5095,1.0238296616822649,310.09382822482536
3771.377,1.0269660602733848,229.16860031073537
3772.2466,1.0296707379903034,262.9718508312496
3773.1145,1.030874266554135,331.5102100470939
3773.9824,1.030174149870949,233.47820667441414
3774.8528,1.027921693942497,258.56252326142504
3775.721,1.0250918624451433,299.1143969836164
3776.5918,1.0227692199081366,237.61344449722583
3777.4604,1.0216448997782293,323.5477266865026
3778.3315,1.0217760062151795,235.85064631497838
3779.201,1.0228860706700353,282.7632425132911
3780.0703,1.0246799813873482,329.9722028565537
3780.942,1.0268089427282305,232.59872242493662
3781.8118,1.0285915973807969,318.98126848884834
3782.6838,1.0290865771759081,234.8760666118975
3783.554,1.0276231097341841,249.37749137486048
3784.4265,1.024457884345044,289.30760576445044
3785.297,1.0208986568090899,234.54458234097984
3786.168,1.0185505305261555,401.00083333495104
3787.041,1.0183391281936907,295.6391697510366
3787.912,1.019985860303348,254.11079749930028
3788.7856,1.0223516984714525,278.9063836569897
3789.6572,1.0241916666380178,327.3865312805138
3790.531,1.0247118291738926,351.1675467520828
3791.403,1.0235409250330723,349.6528194958896
3792.2754,1.020527305080993,237.08815228561184
3793.15,1.0157137238523095,298.25603434824836
3794.0225,1.0096530152149072,204.0541316770351
3794.8972,1.0034755815715997,257.8515264851452
3795.7703,0.9986252507802046,325.80417760966947
3796.6455,0.9959722927165522,311.3824919897138
3797.519,0.9953201540842095,294.273652847192
3798.3926,0.9955758229951159,306.2050611457948
3799.2686,0.9956357188685345,445.42679664199403
3800.1426,0.9950858028376377,397.3258250758634
3801.0188,0.9942009612784124,280.41037251248576
3801.8933,0.9934727989515173,381.06909416687546
3802.77,0.9932700638399207,310.5052201781663
3803.6448,0.9938985040885633,339.9702531129836
3804.522,0.9957252878614817,390.06052314724195
3805.3972,0.9990372533962738,270.96560872387926
3806.2727,1.003737007369131,274.7376079696672
3807.1504,1.0091126293208141,291.75025867745995
3808.0261,1.013945763544547,213.2785162863667
3808.9043,1.0171562914344114,306.40603988722995
3809.7805,1.0182951168289536,282.87355826942877
3810.659,1.0177063190570894,289.5655410688864
3811.5356,1.0161136366610504,379.4778590103062
3812.4126,1.0142538347743117,295.9391354021429
3813.2917,1.0128716080429447,290.84170300464496
3814.169,1.0128032928979398,341.3234355446734
3815.0483,1.0146915528432017,431.7445537312009
3815.926,1.0184804243867054,295.3962641156472
3816.806,1.0232300523494617,270.2281162306592
3817.684,1.0273788743749195,285.41181709274593
3818.5623,1.0294208024478249,273.34459985408995
3819.4429,1.028388098430327,257.076844990898
3820.3215,1.024163506467468,287.0211724880158
3821.2024,1.0174838658409429,371.1346263741814
3822.0815,1.0097871065272732,252.21142737074504
3822.963,1.002648419472967,339.0838189531245
3823.8423,0.9973386834088495,447.3624338406128
3824.722,0.9942762687516539,311.38481756086696
3825.604,0.9930007922770204,271.4341222756105
3826.4841,0.992392238627761,349.8520054605892
3827.3665,0.9910589339505356,301.10749858757663
3828.2468,0.9878279198119579,211.1470537954846
3829.1296,0.9821625570874438,314.6680296528062
3830.0105,0.9745253423126676,414.1921362736316
3830.8916,0.9661574841117516,269.17476944078896
3831.7751,0.9585219478147032,302.4036050593922
3832.6565,0.9526857417024126,350.1740388463079
3833.5403,0.9489032589155697,297.6023422298198
3834.4224,0.9469640640732202,463.6540570907947
3835.3064,0.9465076312383832,466.4837994563545
3836.1887,0.9472010014738823,313.7024703745505
3837.0713,0.9485736904999468,359.7330355896548
3837.956,0.9499423111815004,401.32684954642497
3838.839,0.9506703638155775,347.5324460725484
3839.7244,0.9506625935143048,276.94457523193637
3840.6077,0.9505863679666905,413.61328728115717
3841.4932,0.9516387010030758,275.93358593220034
3842.377,0.9550087215157613,330.61221629684263
3843.261,0.9613599970184922,313.1076176151399
3844.1472,0.9704553415438982,342.9706489696277
3845.0315,0.9809173878462808,353.2108906399548
3845.9182,0.9907165358353273,284.55644250688226
3846.803,0.9978778321203118,328.3704558034034
3847.69,1.001649941736231,234.80160114117106
3848.5752,1.0027418158972705,332.25607224629584
3849.4604,1.0028320223290381,342.7199591017335
3850.3481,1.003512450635734,316.4471452388936
3851.234,1.0055710125223722,394.3339102564899
3852.122,1.0089103050100807,283.7596992472178
3853.0083,1.0127792102789324,270.4829554716043
3853.8967,1.016107528828791,353.06207702874946
3854.7832,1.017697501062247,299.3770216179275
3855.6702,1.016721446784597,265.6567329652674
3856.559,1.0132985869062805,298.24249859827694
3857.4463,1.0088478846477935,240.54537586985305
3858.336,1.005490008034014,311.5950597992777
3859.2234,1.004875438673762,322.3526490897087
3860.1135,1.0071862035016927,319.3470758903153
3861.0015,1.0112987727395724,276.61516229607224
3861.8896,1.0157989450585265,310.9286510755772
3862.7803,1.0197840209218718,298.1598344670187
3863.6687,1.0229010405100276,255.397849635836
3864.5598,1.025048715130996,204.12854430756545
3865.4487,1.0260237355780915,327.26524486246205
3866.34,1.0255402757544572,263.248647826787
3867.2297,1.0234082242136213,259.1801559621785
3868.1213,1.0198131455184007,334.5181663474935
3869.0112,1.0154244493973703,327.1974068883497
3869.9014,1.0109871472886875,241.80484244266648
3870.7937,1.006783689539683,284.23613309760236
3871.684,1.0024595712490796,354.3287318739996
3872.577,0.9973227328450293,265.09923353082985
3873.4678,0.9909884683259845,372.28148687086485
3874.361,0.9834386504555964,375.98511798092363
3875.2524,0.9748445781494042,349.4787239329575
3876.1438,0.9651825898722781,381.31739907709044
3877.0376,0.9544554141887647,402.5617302977086
3877.9297,0.9431472794056753,407.40117842052166
3878.8237,0.9320074050736704,402.22866394041995
3879.716,0.9217523075086024,361.7761915384929
3880.6108,0.9125172058035663,385.6952020112731
3881.5037,0.9041410954523715,541.7569451961789
3882.3965,0.8963328998901328,319.87867030257087
3883.2917,0.8888998416427792,314.6992338626236
3884.185,0.8817561435176865,369.5702673401204
3885.0808,0.8747432272980681,707.8221442891253
3885.9746,0.8678050020896396,415.05590936882004
3886.8706,0.8608911240055871,424.97223749660645
3887.765,0.854103013482411,492.3832607226494
3888.6592,0.8476729573156596,369.15421708866984
3889.556,0.8421641521343496,395.68852641109055
3890.4507,0.8385261842313179,473.2163588551735
3891.348,0.8376869643302981,424.05947069824316
3892.243,0.8401210488586898,432.02902325515595
3893.1406,0.8456060279712365,401.34479250570246
3894.0361,0.8533724243445683,433.85791149590045
3894.932,0.862558992397191,432.0088533368269
3895.83,0.872384228490172,343.7582897249298
3896.7263,0.8821229712915605,416.93876292417116
3897.625,0.891429593043248,360.9878054175497
3898.5215,0.9003395632069917,322.3972558400411
3899.4207,0.90936251260535,440.6863578338661
3900.3176,0.918832168673089,407.9878757191622
3901.2148,0.9287035178764038,293.5164494454659
3902.1145,0.9386101383067041,397.8328057931075
3903.0122,0.9482784098198442,375.58446440622924
3903.912,0.9579738547101612,366.555944405331
3904.8103,0.9680859197518858,334.2263689714679
3905.7107,0.978835066177932,284.18707427181397
3906.6094,0.9898807086439093,326.6401351195566
3907.508,1.0006530245381953,284.3667632605652
3908.409,1.0105727305776735,346.64224433038225
3909.308,1.0191304533624623,344.601287546703
3910.2097,1.026154764038356,255.46319227737206
3911.1091,1.0318649817819792,254.45220265795479
3912.011,1.0370452038853162,308.0061447474161
3912.9111,1.0424795224230388,311.70426528782446
3913.8113,1.0484254249009943,284.45169629621023
3914.7136,1.0544449294036504,231.5346789408056
3915.6143,1.059831874303464,324.7000221141556
3916.517,1.064277093819238,256.3400063870013
3917.4182,1.0679383331606889,299.5372463528921
3918.3215,1.0712022755329076,261.0895579774389
3919.223,1.0741369544761017,295.33743669263555
3920.1245,1.0763359932024785,286.9939660712633
3921.0286,1.0772001811105458,238.7715385703365
3921.9307,1.0765716407344998,248.45591928582462
3922.835,1.0751049352590187,395.8458791303699
3923.7373,1.0739541750653825,258.34329873905773
3924.642,1.0739971619595818,331.48469650376865
3925.5452,1.0753109555960492,326.014992898393
3926.448,1.0772930429004308,239.7623747874528
3927.3535,1.0793029623117163,254.84368446721336
3928.257,1.081161437545276,254.51976185091897
3929.1628,1.083098161447006,302.7730194474688
3930.0667,1.0851316799475503,272.91684907390515
3930.9731,1.0867376579328196,267.2543975097799
3931.8774,1.0871667265804246,216.1659027261631
3932.782,1.0861922709401284,257.77638161063874
