wavl,flux,ivar
3566.9744,1.139557463658262,402.65395027537727
3567.795,1.1327326507379596,377.3252711438123
3568.6177,1.1273627359415774,410.7621948799504
3569.4385,1.1232251990426652,405.5007337038824
3570.2617,1.119711630838455,284.2316964682175
3571.083,1.116789172581211,465.7981748564235
3571.9065,1.1149096555726252,475.45246744785726
3572.7283,1.1143665910814469,435.4209976269122
3573.55,1.1149786812151679,412.3665135637321
3574.374,1.1166543421629385,413.98149229795894
3575.1963,1.1198214823453025,472.2429730988627
3576.0208,1.1250003241108344,280.33915972132587
3576.8435,1.1318799326817577,364.18167114965763
3577.6682,1.139315824371896,401.2772902007544
3578.4915,1.1460826849721508,397.70405003630543
3579.3145,1.151846566164017,436.62371886788924
3580.14,1.1571128931850834,474.4465180205889
3580.9636,1.1623457351547997,375.06299898342587
3581.7893,1.1672321725314774,474.5850107820107
3582.6133,1.1706044410607774,288.6726716743159
3583.4395,1.1714659276356592,483.64387585693373
3584.264,1.1699194897870941,406.8790212063866
3585.0884,1.167121845974853,471.47602454181
3585.915,1.1641669172932112,409.98628246607035
3586.74,1.1612863096215886,408.7635883878611
3587.5671,1.1581378121300507,360.20470337263635
3588.3923,1.1547451877843458,474.8523023220361
3589.22,1.1516123610364242,503.9663484502843
3590.0457,1.149130638558902,453.8632511678871
3590.8716,1.1470583747273868,349.2602890492078
3591.6995,1.1449194534892806,339.40125071485636
3592.526,1.1426620494257616,457.59433377143216
3593.3542,1.1407157822058096,483.3425950825996
3594.181,1.139532302166503,408.13817898252927
3595.0098,1.139135404071668,402.4818388057603
3595.8367,1.1392285791239443,404.1648628924675
3596.6638,1.1394863911191624,369.3455350051108
3597.4934,1.1396391877344931,541.1133006606691
3598.3208,1.1393658629277816,351.4000310214754
3599.1506,1.1383984999821066,442.2893567609203
3599.9788,1.1368863924615047,295.81306144542935
3600.8088,1.135478370889511,395.7023885218914
3601.6372,1.1347833265611564,410.4511922434704
3602.4678,1.1345841850581133,378.8212217816629
3603.2964,1.1338042663447192,440.70217230623393
3604.1252,1.1314861524765083,417.95050701290114
3604.9565,1.127894384250893,346.7078703210143
3605.786,1.1246185439786527,652.5530878477027
3606.6172,1.1233332154083637,406.9282122529373
3607.447,1.1245290464556617,386.8114282708471
3608.2788,1.1272519666746459,474.5421864627526
3609.109,1.1300250035144197,358.8477506062956
3609.9392,1.132021306353632,362.2643535837867
3610.7717,1.1334206485030642,460.7802692865244
3611.6023,1.1349423880222962,472.5531806287613
3612.435,1.1372010727669137,377.6188790622957
3613.266,1.1402993589784445,380.71414434036217
3614.0994,1.1438232878024446,392.0528355314641
3614.9307,1.146907858577413,413.2229692995381
3615.7625,1.1486049360473005,396.9664819013151
3616.5962,1.1483168832563793,345.9553748400286
3617.4282,1.1461528021322662,357.35936495297267
3618.2625,1.1427946375158071,448.4051982671475
3619.0947,1.1390336792033706,365.6761654243041
3619.9292,1.1352275901042344,380.1920864835659
3620.762,1.1311906655366306,373.91545483389103
3621.595,1.1263024605926666,369.76030244575725
3622.4302,1.1199638822900888,515.8322957597106
3623.2634,1.1121879291048375,423.7901099288392
3624.0989,1.1037605569179634,491.4011423716486
3624.9326,1.096030782051234,473.4016739388992
3625.7686,1.0899276850392547,376.24223041884926
3626.6028,1.0855216257267806,428.39995307678913
3627.437,1.0821642111933691,388.5463026404974
3628.2734,1.0792947978806782,378.8475997153737
3629.1082,1.076942573874664,437.08857553723465
3629.945,1.0755633690299473,701.4489251442078
3630.78,1.0756650901028426,383.6249737744105
3631.6174,1.0774653735098787,628.324735357031
3632.453,1.0806724852216856,370.62973212060626
3633.2883,1.084363234676586,492.3771233959751
3634.1262,1.087139520202873,671.6738424813259
3634.9622,1.087831364842571,484.8534371540704
3635.8005,1.086390158133579,571.9618090493944
3636.637,1.0839294216969515,377.90530051566043
3637.4756,1.0817264133115496,496.0639656164326
3638.3123,1.0802824404283202,473.28502058556336
3639.1492,1.079291881462207,477.32644843792355
3639.9885,1.078366695002938,515.7290185597342
3640.826,1.0773493908450318,352.50985852358275
3641.6653,1.0758942115112868,402.9115365688524
3642.5032,1.0731466988613472,496.66462555692976
3643.343,1.068153654139974,384.07343270883115
3644.1812,1.060906528980371,429.83233922063584
3645.0195,1.0528710813337203,547.0988347763531
3645.86,1.0465337516560194,496.0732456171983
3646.699,1.044028316748983,500.17969223525114
3647.5398,1.045615997021068,418.58734256957024
3648.379,1.0494172960394086,446.5116696657741
3649.2202,1.052569400926021,459.65552649787674
3650.0596,1.052957784798719,458.600304658579
3650.8994,1.050403552494995,333.96567862220775
3651.7412,1.0465054619395466,395.7043921729809
3652.5813,1.0436219995078306,498.76357239010247
3653.4236,1.0434835712844244,397.32022342894606
3654.2642,1.0463072996982992,513.1443094411217
3655.1067,1.0508054612468312,357.86444978254735
3655.9475,1.0550875940422564,499.09490607930195
3656.7886,1.0579125639109999,470.88945736164465
3657.6318,1.0592088999705984,417.88684616058697
3658.4734,1.0597101968925393,691.2202646278167
3659.317,1.0601290351919637,478.80361881916895
3660.1587,1.060575710315511,484.32891005167824
3661.003,1.0606444848247822,539.5240595444401
3661.845,1.0599100075387236,430.41289641033796
3662.6875,1.058355455099085,500.591454875949
3663.532,1.0564398256031304,433.1412256327011
3664.3748,1.0548897574174625,534.2308758280778
3665.2197,1.0543272980773033,368.2220158960836
3666.063,1.054973682274359,713.2801342617869
3666.9084,1.0565345562026816,503.78051989799565
3667.752,1.0584534695436483,426.7794673260742
3668.5977,1.0603611941112743,508.04611730843493
3669.4417,1.062180313932696,655.4893081033974
3670.286,1.0638735111353008,505.2698070985602
3671.132,1.065174944743479,406.2832098299456
3671.9768,1.0657807260536125,488.1069328649967
3672.8235,1.065765217905493,472.8724559795313
3673.6685,1.0655859149356992,502.5399309296403
3674.5156,1.0656016878851184,469.00971600289853
3675.3608,1.0656078605870856,412.07181808669736
3676.2063,1.0649329991927536,378.76474856818925
3677.0542,1.0629745206776477,513.283723159117
3677.9,1.0596938316710258,512.1875079721979
3678.748,1.0555995293102005,553.1996017309184
3679.5945,1.0514629120935641,420.190638688258
3680.4429,1.0478326115405676,608.8112968046554
3681.2896,1.0448896477940803,469.14513317379124
3682.1365,1.0424784614532419,457.9762695519162
3682.9856,1.040409363336923,442.7032893873378
3683.8328,1.0386449056868672,431.5174510705815
3684.6824,1.0371928233192038,570.81940717158
3685.53,1.0360268721271426,432.1633360906347
3686.38,1.0352130522349965,428.4574418978804
3687.2278,1.035224264014421,415.17135277164374
3688.0762,1.0368411640857438,693.6747325745225
3688.9265,1.0405384295732105,405.20440823547165
3689.7751,1.0458162405032478,553.6219514580512
3690.626,1.0513585830704464,448.5556792052333
3691.475,1.0557960491875003,375.98310307354876
3692.3264,1.0586330263280501,397.61245431347
3693.1758,1.060280999408779,516.8828482322217
3694.0254,1.0615163950001085,489.24165338644895
3694.8772,1.062806398407469,405.16867301752194
3695.7273,1.0641059650412825,571.5417555035748
3696.5793,1.0650950416031384,552.826434195125
3697.43,1.0654435487846472,456.2282240469331
3698.2825,1.0649687082981267,467.181194101047
3699.1333,1.063675292732673,427.3016967368879
3699.9841,1.0617519763381762,458.4703042579777
3700.8374,1.0594957998891301,464.47962288381547
3701.6887,1.0572036166450045,517.7832137661329
3702.5425,1.055072479849701,484.1746532845848
3703.3943,1.053332118259508,493.03585788682733
3704.2483,1.0523205048998914,500.49264661929493
3705.1003,1.0524579810726669,464.9433664428611
3705.9526,1.0539492329351807,465.36363622621576
3706.8074,1.0564705887228307,508.4000455496549
3707.66,1.0590490670817967,507.2331845693026
3708.515,1.0604835168613065,503.3909764814203
3709.3682,1.0599693784094055,562.9742653242553
3710.2234,1.0575827894657213,472.31084754335143
3711.0771,1.05417566289937,434.131721375539
3711.9307,1.0507903613817449,453.6547433677318
3712.7866,1.0481392309944253,519.0507321210001
3713.6409,1.046498648944929,511.91420764692987
3714.4973,1.0458357621651126,518.9538562452358
3715.3518,1.0459690865352573,505.27568275813496
3716.2085,1.0465032526540314,420.65512118973305
3717.0635,1.046824082171115,440.41496259779683
3717.9185,1.046388550976692,412.05797718327426
3718.776,1.045109138275053,414.3728543739737
3719.6313,1.0434411923084774,445.5801214602962
3720.489,1.0419704383242026,602.3752791230976
3721.345,1.0409296094225338,483.4321960026361
3722.2031,1.0400226743816614,627.2270165988566
3723.0593,1.0387397264426907,421.0313423976089
3723.9158,1.0368420725534808,419.4742226484965
3724.7747,1.0347486559078036,566.7442755840685
3725.6316,1.033533530383172,467.51315370109046
3726.4905,1.034338040072766,466.73003003942085
3727.348,1.0375872927598078,510.9022164084548
3728.2073,1.0425527327908326,482.29698642061095
3729.065,1.0475768189866135,537.243410250812
3729.9229,1.0509601254534522,439.9525893127675
3730.783,1.0517352548418366,410.0921104013836
3731.6414,1.0500082645064965,457.1853689905764
3732.5017,1.0466301739159591,493.2976596644182
3733.3604,1.0425184638952103,477.73236814743973
3734.2214,1.038119345559798,441.9685013918752
3735.0803,1.033559236139297,468.0988831834424
3735.9417,1.0289999233455611,417.22680320008664
3736.8013,1.0250643142031286,501.7239025717767
3737.661,1.0227035683616799,477.1269469308264
3738.5227,1.022855614085048,363.33335421181505
3739.3828,1.0259118677488843,577.1533900507836
3740.245,1.0313383489356247,441.0450409647281
3741.1055,1.0376729834888634,409.8425438223501
3741.9683,1.043228126891957,511.72501755622335
3742.829,1.0467508609704028,538.1939591799791
3743.69,1.0478656408096396,468.46128787516705
3744.5532,1.046790541966494,568.6572511479029
3745.4148,1.0440333764271312,477.3790953161543
3746.2786,1.0402946603523904,454.40827822293016
3747.1404,1.0365898562510087,538.9512615219983
3748.0044,1.034095800842653,460.75012908768247
3748.8667,1.0338830418366771,466.95092917368623
3749.729,1.0364886639444875,611.5385284175986
3750.5938,1.0416581130214109,498.1116573519422
3751.4565,1.0481435089406006,468.8966210285223
3752.3215,1.0540009379830233,491.96886880774707
3753.1848,1.0571909666220205,452.83292348835454
3754.0503,1.056686330734733,409.12182061524805
3754.9138,1.0531495927621342,430.5268615320048
3755.7776,1.0487088130913624,525.6030764197967
3756.6438,1.0457298829964157,422.12794226652136
3757.508,1.0454047424555968,536.9942469276108
3758.3745,1.047093242357468,484.44562874555754
3759.239,1.0489972508863712,561.7262674864868
3760.106,1.0495362918405111,542.2739746321388
3760.971,1.0483147808663058,559.8786661405624
3761.8362,1.04608358371925,503.5111875077156
3762.7036,1.043838255075376,543.70151026528
3763.5693,1.0419555283376822,484.2370372676494
3764.437,1.0399726656425725,432.722750778837
3765.3032,1.0372104800557354,376.26474900078347
3766.1714,1.0335084452442342,473.68669141066164
3767.0378,1.0295448899654545,612.3375073422784
3767.9043,1.0263528915093982,452.3338212155005
3768.7732,1.0246112115027544,573.899399365918
3769.6401,1.0242317600762285,483.9605429306014
3770.5095,1.024472831701843,544.3302507789342
3771.377,1.0244138408103511,529.4615234294029
3772.2466,1.0233455939896292,494.9127748001436
3773.1145,1.0209808288168596,579.501884152957
3773.9824,1.0175160287718923,500.29260329939984
3774.8528,1.013572176888689,665.7601008953295
3775.721,1.0100261968554605,568.359730068856
3776.5918,1.0076775273337917,499.27343326832846
3777.4604,1.0071669934942589,654.577476408582
3778.3315,1.0088674892070213,599.5870924181762
3779.201,1.0127512740870035,528.8557710236735
3780.0703,1.0182169253377036,657.633350077936
3780.942,1.024159694876746,481.6127439098667
3781.8118,1.0293396463629576,529.0703497176163
3782.6838,1.0329766383679695,608.8715966472388
3783.554,1.0348365887592974,451.95811367274575
3784.4265,1.035142892882479,400.87977793763747
3785.297,1.034382376707691,530.7294726627038
3786.168,1.0332477573425207,540.43287287491
3787.041,1.032401242162265,471.5758256736188
3787.912,1.0320663561371484,506.46724171714027
3788.7856,1.0318428911410185,469.88524823964593
3789.6572,1.03112469510884,477.12534867805806
3790.531,1.0297501862609668,459.3091811932536
3791.403,1.0282513291453677,519.2098752639944
3792.2754,1.0273876248297331,424.3890918528566
3793.15,1.027461965633046,475.82150042387264
3794.0225,1.0279927932431299,517.2465055848885
3794.8972,1.028047594369272,526.9318434431702
3795.7703,1.0269259408054308,486.80073210762146
3796.6455,1.0246082316733285,450.57110288567816
3797.519,1.0216354536330965,563.2505146451962
3798.3926,1.0185717874800995,453.8120484641282
3799.2686,1.015724875422615,486.06589516199267
3800.1426,1.0133326866212622,535.4758124478681
3801.0188,1.011771160397277,590.2337064958335
3801.8933,1.0115012607546374,551.3126566024516
3802.77,1.0126580773716913,512.1187464454524
3803.6448,1.0148363768159703,506.02297302224906
3804.522,1.0173436457147993,552.2507227814707
3805.3972,1.0196361522124069,526.2118347346244
3806.2727,1.0216702018607484,517.2671938982467
3807.1504,1.023792118831788,546.8416945515439
3808.0261,1.026337595677217,549.5288695778476
3808.9043,1.0293113703035155,520.6498549189135
3809.7805,1.0323371162278132,611.5920608967813
3810.659,1.035072661694219,509.7924032178533
3811.5356,1.0375241160962274,411.827879389356
3812.4126,1.0400779433144476,591.6617904493553
3813.2917,1.0430713652918318,454.5879283578889
3814.169,1.0463266800564315,509.3761856030433
3815.0483,1.049149169503539,465.7598516361664
3815.926,1.0506965459219382,424.5310747806253
3816.806,1.0505509022812487,406.0685794024356
3817.684,1.0488718670386505,467.28707865437093
3818.5623,1.0461239492710501,514.4673054839658
3819.4429,1.0426699681575469,417.0956685714206
3820.3215,1.0386512818766565,501.88770032348725
3821.2024,1.0340689001780607,454.02476130936503
3822.0815,1.0291041783267239,481.9142461716242
3822.963,1.0241713048787764,598.7691650756898
3823.8423,1.0198935003168732,569.4423613049155
3824.722,1.0167702661497755,503.5622827910346
3825.604,1.014979282984058,556.5925954218797
3826.4841,1.0142720903842584,526.7653916375073
3827.3665,1.0140369189418075,490.72910620997106
3828.2468,1.0135398197201377,527.1931867055689
3829.1296,1.0121240496431891,539.6211272490181
3830.0105,1.009388727784387,481.2422343163519
3830.8916,1.0053189780259846,503.97667517181765
3831.7751,1.00040128130766,557.054747743216
3832.6565,0.9955743153267098,574.8221332458841
3833.5403,0.9917972615694421,628.9614569692907
3834.4224,0.9897519530271696,646.8407166851961
3835.3064,0.9895494372184015,682.3447582681816
3836.1887,0.9907230693246658,482.36403846154644
3837.0713,0.9923430029246215,557.460929158626
3837.956,0.9934024797456361,627.331541861417
3838.839,0.9934047443261798,565.0794098919267
3839.7244,0.9928060039981008,514.2198556427854
3840.6077,0.9928188198997884,471.6507152790639
3841.4932,0.9946461657082084,518.1151684914176
3842.377,0.9987473408962619,578.439478988176
3843.261,1.0047280817426487,488.9047163679792
3844.1472,1.0117568417262361,489.6802034794941
3845.0315,1.0189353333371443,426.12992826836074
3845.9182,1.0255725043033137,608.612501029829
3846.803,1.0310775679288027,422.0042487773833
3847.69,1.035222357668794,460.10475243142804
3848.5752,1.0382287193568034,530.8671022421311
3849.4604,1.0408325719952802,449.26090887432434
3850.3481,1.0439562342918096,452.38994317655334
3851.234,1.0482483141461802,510.60749182906284
3852.122,1.053807114890399,523.1476564850027
3853.0083,1.0600368213670344,528.2336903163678
3853.8967,1.065956772293059,501.7630992867695
3854.7832,1.07041539589064,436.19758142794893
3855.6702,1.0725012347674319,444.0792322773358
3856.559,1.0717742794008958,474.2876850828754
3857.4463,1.0685274072514221,532.1363896094432
3858.336,1.0637250227016595,535.452755106195
3859.2234,1.0586434010719807,521.8561647159027
3860.1135,1.054184223327109,536.6152379743511
3861.0015,1.0506180442585833,504.99113263536526
3861.8896,1.0476289148851046,511.6248969519441
3862.7803,1.0448211342644207,507.08343311330793
3863.6687,1.0421028785069895,473.1766186116307
3864.5598,1.0396038208817446,457.6983895673317
3865.4487,1.0373829866204678,476.9887781082883
3866.34,1.03513360212462,424.171066665589
3867.2297,1.0324058282235975,502.74660468591566
3868.1213,1.0289695517972917,441.25739526065433
3869.0112,1.0250091310958944,500.7092561409666
3869.9014,1.020812414582367,489.858136386896
3870.7937,1.0165027924147672,481.25779666735104
3871.684,1.012164114548071,485.5061368498076
3872.577,1.0080637806841186,523.1336541667725
3873.4678,1.0047124132397927,435.37407705700684
3874.361,1.0023508908387018,445.37330865663694
3875.2524,1.000643433075745,550.0373759749843
3876.1438,0.9988158168050807,481.5970403753966
3877.0376,0.9962836315541713,609.8492814947756
3877.9297,0.9930970643988057,532.3476144909774
3878.8237,0.9897035518251261,501.4300054724921
3879.716,0.9864427850693315,581.7766572070279
3880.6108,0.9831984714766164,508.8231690426752
3881.5037,0.9796667177858586,604.6294788932731
3882.3965,0.9756360268981604,518.4239906009274
3883.2917,0.9710432264907026,535.6544116642577
3884.185,0.9658538460063669,606.3624191027689
3885.0808,0.9599686137522734,542.4119264569142
3885.9746,0.9535122383354664,453.3218031031188
3886.8706,0.946801117091051,611.8910685471426
3887.765,0.9403092553851408,556.8923761478619
3888.6592,0.9344243057391679,604.129453763374
3889.556,0.9295417303661625,727.7087255544459
3890.4507,0.9261977405560127,576.5489082641998
3891.348,0.9249092183406716,661.1135963924467
3892.243,0.925957438903677,651.9897739595885
3893.1406,0.9291098065597986,573.8652076115131
3894.0361,0.9336005159308639,584.3448816785809
3894.932,0.9385092967462203,563.0613442484854
3895.83,0.9431670819099337,548.1469312186945
3896.7263,0.9473301750156486,478.26319553725466
3897.625,0.9512463283920872,710.1478187153565
3898.5215,0.9555356622104413,540.085233076167
3899.4207,0.9612007279824323,606.4436868608428
3900.3176,0.9691004521430758,606.4319252554258
3901.2148,0.9793579340996784,517.3204428956533
3902.1145,0.9910109026545012,484.7155990114607
3903.0122,1.0024257344708778,498.1404897891063
3903.912,1.012465655300236,476.40927263351426
3904.8103,1.0208814196830622,532.6756990575219
3905.7107,1.0282878831745346,474.97883310574525
3906.6094,1.035333153905581,505.6689243859254
3907.508,1.0422910120059148,416.7242291549007
3908.409,1.0490118915363902,469.65677569471603
3909.308,1.0552227891431294,454.28511630135506
3910.2097,1.0609024173430175,571.6078944830289
3911.1091,1.066125238734845,494.03794623462795
3912.011,1.0709998138315084,507.5646657918475
3912.9111,1.075506092007535,412.76813041597524
3913.8113,1.079663764151882,477.38658918856873
3914.7136,1.0835464385545055,401.7907269758521
3915.6143,1.0871701252645498,492.87195682880656
3916.517,1.0904522343768204,440.5920725242838
3917.4182,1.093210921407779,450.32001451871196
3918.3215,1.0954020903379864,403.1033401598151
3919.223,1.0971365605360188,469.2345318776216
3920.1245,1.09856544536138,424.86075474501035
3921.0286,1.0996845079295146,459.41159371577123
3921.9307,1.1003778419240695,438.49739639054155
3922.835,1.1006389285573137,381.5455616727708
3923.7373,1.1006207929952536,440.0384046760907
3924.642,1.1004697091607751,430.6724429491013
3925.5452,1.10016918609283,421.9158495598543
3926.448,1.0996255957481835,494.169879044759
3927.3535,1.0988705521500974,447.0835637396479
3928.257,1.0980651526215761,449.73167429978673
3929.1628,1.0972203223499792,431.79792737444933
3930.0667,1.0959821900817457,434.39538538714896
3930.9731,1.0937265253634032,497.10393567299695
3931.8774,1.0899859859537626,441.3337973731802
3932.782,1.0847792067193127,428.02726838846183
3933.6887,1.0787290903272142,383.9117915705541
3934.5938,1.0729539157649945,502.53407173084656
3935.501,1.0685770957546321,481.64463344471096
