wavl,flux,ivar
3566.9744,6.700212030592333,21.415955529605924
3567.795,6.685694570766882,20.005720961595785
3568.6177,6.676558689111581,21.80832041828844
3569.4385,6.670502075734635,16.714173752962424
3570.2617,6.66463732504624,21.099771638744137
3571.083,6.658911874538206,15.931810196975084
3571.9065,6.6564566971666945,18.553616686192974
3572.7283,6.660857865473312,16.605219488111818
3573.55,6.672615030556758,17.33816189662563
3574.374,6.688033941985053,16.386274336162888
3575.1963,6.700582657734682,14.538282756341765
3576.0208,6.703704245465367,19.62161216953229
3576.8435,6.69293000567962,12.166317996679043
3577.6682,6.66763953855691,19.86656475309839
3578.4915,6.6318993318372135,14.888633127307124
3579.3145,6.592844964953236,20.27391366022056
3580.14,6.557861211014701,21.295932044201184
3580.9636,6.532696416640908,18.89412566701412
3581.7893,6.520205203804281,17.985638563758613
3582.6133,6.52065175892497,21.37683824412035
3583.4395,6.531180598533135,19.471735757246638
3584.264,6.546687869375206,18.309524196116964
3585.0884,6.562824639070498,20.079359758335187
3585.915,6.578447339409061,19.806943718467103
3586.74,6.594413358492244,16.2632688829328
3587.5671,6.610136597381025,19.11822154888195
3588.3923,6.621318080424698,20.198667642912955
3589.22,6.622230702072677,15.975926000307986
3590.0457,6.609309335311789,21.63971757738168
3590.8716,6.583541363373821,16.34643611155913
3591.6995,6.550416955753358,18.936025786657204
3592.526,6.51855189266095,19.0673815413566
3593.3542,6.4960333487611095,17.964784963370473
3594.181,6.487100951427522,19.249662442067464
3595.0098,6.489622986282187,18.538386800242904
3595.8367,6.4963106180604475,16.569959164089934
3596.6638,6.498390134513027,16.864342176762424
3597.4934,6.489945222217433,17.62249504044698
3598.3208,6.471215090320207,14.913330764949992
3599.1506,6.448398783942399,17.51743902001235
3599.9788,6.429835333973566,20.75715691730352
3600.8088,6.419630893691636,23.79373771646676
3601.6372,6.415282739238757,19.462042550893234
3602.4678,6.4109692179429905,13.524126063032401
3603.2964,6.403847160931695,27.20747154552466
3604.1252,6.396236030565855,16.480183953422294
3604.9565,6.391799289840976,21.662504199116633
3605.786,6.390151153266288,20.217406743617197
3606.6172,6.385795142793339,17.484253656690043
3607.447,6.372625288000147,22.614151955904152
3608.2788,6.349167524261597,28.064233864849
3609.109,6.320563862691542,16.818471007934928
3609.9392,6.2955372777179415,20.558289881920082
3610.7717,6.281777811012232,20.761235995507676
3611.6023,6.282078419597561,22.000246385037922
3612.435,6.292990529102291,19.871496448601825
3613.266,6.306469002539395,22.487156428304505
3614.0994,6.313146429498821,20.42624488165555
3614.9307,6.305843681476793,20.62266477271877
3615.7625,6.282968460255493,18.161180373356615
3616.5962,6.249591956401711,17.952306167689365
3617.4282,6.215342510631436,21.410616916585184
3618.2625,6.188740740212173,22.995375410291818
3619.0947,6.1736774615494365,20.579929695526424
3619.9292,6.168721384867803,16.300558077607377
3620.762,6.1699939445561665,19.52183842131279
3621.595,6.173358414804026,20.87178203603669
3622.4302,6.175456292176892,16.79179474453696
3623.2634,6.174279874832089,16.992079226039017
3624.0989,6.170016479444053,22.475258497497602
3624.9326,6.165148810050521,24.74085887533552
3625.7686,6.162773745472369,17.594790810086245
3626.6028,6.163994554182672,20.122032973862986
3627.437,6.166217664291213,24.302473965618137
3628.2734,6.164176701956782,20.287883198394923
3629.1082,6.153202182308418,19.085075802178835
3629.945,6.13226366063232,21.664179842564824
3630.78,6.1046928690911395,23.050502415494954
3631.6174,6.07556594922233,27.51009233142149
3632.453,6.049725554355968,21.330629749655618
3633.2883,6.030651031354979,23.608952722028015
3634.1262,6.021173344950021,20.77263462738387
3634.9622,6.022583336443667,23.426431907293008
3635.8005,6.032275700961989,23.43662324348753
3636.637,6.043247478677908,25.291410687882532
3637.4756,6.0474979691318484,25.965866542938716
3638.3123,6.040830931638512,25.434622514224063
3639.1492,6.025432895054009,20.745195418732695
3639.9885,6.008026334977676,21.67656817354963
3640.826,5.995698231791587,20.19036647119067
3641.6653,5.991552882164188,28.400831478376567
3642.5032,5.993539329184511,28.678054846177147
3643.343,5.996081374759443,20.06179417453958
3644.1812,5.993467896267594,20.272299949505054
3645.0195,5.983050971131724,21.673180619320814
3645.86,5.966957006040495,20.388043821945327
3646.699,5.9516321229174975,31.039210791332668
3647.5398,5.943779850401289,27.568753034734165
3648.379,5.945278182589711,22.749645023651574
3649.2202,5.950542076939421,23.243111336348985
3650.0596,5.949628740454809,18.729928365763946
3650.8994,5.935031314837115,20.41783708691866
3651.7412,5.906728979339326,23.60760409368494
3652.5813,5.8723325934869575,23.10235519746356
3653.4236,5.841521058074569,23.076607480655
3654.2642,5.8203413873130305,23.242836735064827
3655.1067,5.807538546542294,21.28542956767502
3655.9475,5.79682317711188,29.437402033904895
3656.7886,5.782036714846607,21.734296977684014
3657.6318,5.762158791200695,23.279927267400872
3658.4734,5.742393899021177,30.21178131377637
3659.317,5.730577289831343,24.640898070813517
3660.1587,5.732954851450905,21.682400177835227
3661.003,5.751245359178538,21.676467818725275
3661.845,5.781860577360487,21.914837952066897
3662.6875,5.817085921411533,27.084200932077973
3663.532,5.847346178235392,23.1294750652342
3664.3748,5.8645413470331516,21.892208106471653
3665.2197,5.8653246442169635,19.23521230271908
3666.063,5.851498522667998,23.931951866993728
3666.9084,5.828543339164133,26.331880393159533
3667.752,5.803336847719221,25.294596320393794
3668.5977,5.781598244128017,19.337447938190994
3669.4417,5.767195843728782,18.229956909896387
3670.286,5.7613939499996105,23.445513328160107
3671.132,5.762787200286614,19.403410215117887
3671.9768,5.7674278575831215,22.46599627775742
3672.8235,5.770585325656304,26.673561733302495
3673.6685,5.769280826945707,22.1099474126534
3674.5156,5.763350282341917,28.812386556329084
3675.3608,5.754085163383031,28.077631060999607
3676.2063,5.74235213163375,20.431773663214173
3677.0542,5.72864157076588,25.1291496962343
3677.9,5.714500316432675,22.859976412722204
3678.748,5.702527633902641,28.37986616712544
3679.5945,5.695133261024348,25.30796659988121
3680.4429,5.6926147034467665,28.816663386338842
3681.2896,5.693143732405877,24.27061920919112
3682.1365,5.6941730905511125,22.22798339810474
3682.9856,5.694176481170352,26.136394322794416
3683.8328,5.693102869980137,22.235834015627947
3684.6824,5.691202131333033,22.221697453374095
3685.53,5.687510073381209,23.215123660830162
3686.38,5.67972114252022,18.324045672646385
3687.2278,5.6661031058727245,27.664945677860608
3688.0762,5.647515927659125,23.027442510293152
3688.9265,5.627882829847395,25.092085509072636
3689.7751,5.612593174952214,21.326554931143505
3690.626,5.60574247677029,19.994700526987575
3691.475,5.6087478130590265,28.030561072677074
3692.3264,5.619745369345985,22.87586673818292
3693.1758,5.633732154925383,24.05924649236284
3694.0254,5.643962656208122,24.49266388836827
3694.8772,5.644752769779932,22.664631072118805
3695.7273,5.63494349709274,27.340274408831537
3696.5793,5.618811017416861,24.441438878127485
3697.43,5.603019897089729,26.781500026227988
3698.2825,5.591433500342573,24.252567450235794
3699.1333,5.582925571928078,22.41371704655515
3699.9841,5.573370608272535,25.707233204014404
3700.8374,5.559935734677056,23.511835034105363
3701.6887,5.543395552919325,26.34427314025413
3702.5425,5.5266665234949555,24.432825265247
3703.3943,5.512657427298202,31.312670248806086
3704.2483,5.502740091256104,26.665819559284405
3705.1003,5.497071426907722,26.20577895555184
3705.9526,5.494380835154546,26.72800507356039
3706.8074,5.491858925769678,30.0236543657632
3707.66,5.486008292233207,28.51727261018435
3708.515,5.474828001517773,26.62602112610939
3709.3682,5.459869428961381,26.107979620809143
3710.2234,5.445544955850499,28.3943243778091
3711.0771,5.436302762905648,25.439993093604954
3711.9307,5.433136335317696,27.015847461947622
3712.7866,5.432949161135573,27.705384907149472
3713.6409,5.43102455202155,25.17404758997367
3714.4973,5.424666784419771,22.521188038128006
3715.3518,5.41499070293212,30.0468804081868
3716.2085,5.405407130741792,27.809535805903913
3717.0635,5.398992053848693,29.282254698901696
3717.9185,5.396873309530969,30.11243098658749
3718.776,5.3989638345880655,22.312023196166628
3719.6313,5.404970473739537,34.555160222677316
3720.489,5.414251268473519,39.79154678397031
3721.345,5.424825770107868,26.75019411309469
3722.2031,5.433673881841112,24.005447030560305
3723.0593,5.437803643533685,29.772183949387863
3723.9158,5.435196963666299,33.065684029863995
3724.7747,5.424715562167795,27.55296308545319
3725.6316,5.40682530692501,28.638766875854113
3726.4905,5.384539225707185,24.592074643537728
3727.348,5.363535882619167,30.141140953476054
3728.2073,5.349475673023609,28.126174201058035
3729.065,5.345339330818956,30.302542156102124
3729.9229,5.3497744678174435,27.521915679687478
3730.783,5.357821730521968,25.362070118840695
3731.6414,5.3629150382064665,24.709330996153664
3732.5017,5.3600709103976465,28.07746910531654
3733.3604,5.3483174362941925,31.10123711118454
3734.2214,5.330572826430732,31.668906602415085
3735.0803,5.311248452745188,28.837650867821985
3735.9417,5.293063547800413,27.447766403391494
3736.8013,5.2765293720909545,26.149636174751247
3737.661,5.260808157669618,28.526626058872356
3738.5227,5.245673119716711,30.329283768063835
3739.3828,5.232589598881641,26.766656908804148
3740.245,5.223702571755716,29.743875600208746
3741.1055,5.219927095277587,27.17717750429965
3741.9683,5.219150959669114,31.20234221626897
3742.829,5.216841188600371,24.916454469152562
3743.69,5.208458554154307,31.713059638592426
3744.5532,5.192131943814514,29.00509457403024
3745.4148,5.17034158414694,25.657109441058886
3746.2786,5.149126429417971,35.457600062277024
3747.1404,5.135876166586227,32.13881001537083
3748.0044,5.135595168788637,31.749720712883406
3748.8667,5.14873245253884,36.78447034320746
3749.729,5.170794157742063,28.211780097860167
3750.5938,5.193954339521563,33.70518466276222
3751.4565,5.209628612850788,29.902635766993345
3752.3215,5.212587091356113,28.552912073344523
3753.1848,5.203519683759818,38.87858270038757
3754.0503,5.188402079782867,32.290040023601684
3754.9138,5.1741797674251,33.971592255787726
3755.7776,5.163937131782605,27.646014776785865
3756.6438,5.156109678940722,26.495622333410605
3757.508,5.147422756886027,27.93904864593281
3758.3745,5.1362606517833616,29.898835034476356
3759.239,5.123943304773557,31.07406076078049
3760.106,5.112935734944748,30.65516973025649
3760.971,5.1047358265441085,30.164603450741527
3761.8362,5.09860129001124,34.02013623032511
3762.7036,5.092370933272471,27.053233718998857
3763.5693,5.084012137203922,41.03452175764081
3764.437,5.072430541354062,27.479995062581402
3765.3032,5.057352747774767,36.27915205569574
3766.1714,5.0384607334980025,27.662039497095417
3767.0378,5.015911496311969,24.6947021269989
3767.9043,4.9915605767391495,32.3692720781754
3768.7732,4.970034659427234,37.7939119701753
3769.6401,4.957468372530772,34.698989862305204
3770.5095,4.957682180783576,31.517909337965218
3771.377,4.969661506149531,32.92906076110471
3772.2466,4.9877832286876025,33.31499742101867
3773.1145,5.004471731536766,30.350657567554652
3773.9824,5.013786151516766,27.472130372183518
3774.8528,5.013369025073323,27.423372208994103
3775.721,5.00484156349766,31.916226262165566
3776.5918,4.992580230950563,29.540940588740774
3777.4604,4.981789817287976,36.06067801596049
3778.3315,4.976025583217609,31.246158603286073
3779.201,4.9758771807242015,32.48362463847292
3780.0703,4.979096609514433,30.914477601799337
3780.942,4.982670611846416,26.23248896829342
3781.8118,4.984929236440751,35.033593668692255
3782.6838,4.986164172741072,32.49795754243695
3783.554,4.987498816973156,31.27978007396779
3784.4265,4.989714530558968,32.55134933682507
3785.297,4.992943271707391,45.20462263326058
3786.168,4.996851357546449,28.55345716646353
3787.041,5.000380413041812,36.30843928660907
3787.912,5.0013831703648775,29.5080068695988
3788.7856,4.997090424998166,28.967472994070626
3789.6572,4.985330541310341,31.41162613854967
3790.531,4.96556054798855,25.81372503296834
3791.403,4.939468873442835,39.58556919448921
3792.2754,4.910157651201783,35.254367119522065
3793.15,4.880814765764784,34.304902423059225
3794.0225,4.853141157691913,39.022930695300886
3794.8972,4.825962979652989,32.57742659329183
3795.7703,4.7969156127342885,34.26436367176317
3796.6455,4.7646626976346464,35.57439619732842
3797.519,4.731668117028055,34.911788717318174
3798.3926,4.703625163855545,45.200002133348775
3799.2686,4.687270774130554,30.601099133999007
3800.1426,4.68736269709856,36.22044285029959
3801.0188,4.704612391910417,37.33857519018253
3801.8933,4.73585572918103,38.477657159473104
3802.77,4.77557625528625,37.377053025941215
3803.6448,4.8165436174069285,32.78743884208037
3804.522,4.85172235997113,29.849746968108963
3805.3972,4.87563797708351,31.520859556439476
3806.2727,4.887285201615151,38.430331290535236
3807.1504,4.890168451895982,29.102365207235003
3808.0261,4.890078071641079,48.41464806323084
3808.9043,4.891509805503351,31.140429466499384
3809.7805,4.8952105537584005,32.89054513838284
3810.659,4.898541766242326,37.995169957963995
3811.5356,4.898094185729964,39.88544314223726
3812.4126,4.892646838561132,36.289449490290664
3813.2917,4.88407869249839,35.695249292981345
3814.169,4.876066229925046,31.650926035607874
3815.0483,4.871727338961326,28.99913414873963
3815.926,4.872457602016819,38.676260678512016
3816.806,4.8777580443072805,38.37266259025289
3817.684,4.885410499256266,36.487161907404904
3818.5623,4.891707053008578,38.74575581608057
3819.4429,4.892230946217196,30.99227608920082
3820.3215,4.8836669914851525,33.90487189893062
3821.2024,4.8655811352459235,31.43369029012644
3822.0815,4.840888848486643,34.14691898608093
3822.963,4.813875558466324,35.22743222157729
3823.8423,4.787969625758771,37.0514474894693
3824.722,4.763589715345637,38.50319680903143
3825.604,4.738544879551104,37.23274227064439
3826.4841,4.709769860892712,30.88792822387374
3827.3665,4.674496212936904,35.80395398217553
3828.2468,4.631885035122295,33.874169696202166
3829.1296,4.5828548305286345,40.695824482007716
3830.0105,4.530664840220186,34.43585285437528
3830.8916,4.47881728647311,41.42599783509784
3831.7751,4.42990426678525,36.59729268793537
3832.6565,4.385708037314424,39.15265308451916
3833.5403,4.34746460426014,45.66095804909608
3834.4224,4.317580862186647,44.71043617045253
3835.3064,4.2981415184761795,52.26891804838053
3836.1887,4.289970916130777,37.11142239488613
3837.0713,4.291883523910196,40.38224051782931
3837.956,4.301583963434236,34.37334635447816
3838.839,4.316285988025584,45.58197319385292
3839.7244,4.333718205453111,58.2393551594175
3840.6077,4.353290970159545,47.56807258431057
3841.4932,4.377456335905015,43.35961233696974
3842.377,4.41001899759681,48.90877056277184
3843.261,4.453015906759957,40.806404745717174
3844.1472,4.504155158559645,39.67663411950846
3845.0315,4.5574390270422205,38.40233515538338
3845.9182,4.607406051515952,42.83366971795011
3846.803,4.650440381400278,35.97375371185059
3847.69,4.6854565260584335,33.57694402064997
3848.5752,4.711941697382001,33.147189831639515
3849.4604,4.730526631406753,38.92491095039823
3850.3481,4.743619678797636,36.7687153718286
3851.234,4.755520660008125,32.119365858350925
3852.122,4.771207313855053,38.67127994615947
3853.0083,4.793740486163835,33.935709586194264
3853.8967,4.822780310846626,30.052017021929448
3854.7832,4.853782798074957,36.651207273699356
3855.6702,4.8799925363393175,33.02520287020854
3856.559,4.89542110808063,32.98107716041121
3857.4463,4.898343506456326,31.189193210534548
3858.336,4.892640891479705,36.49257475930494
3859.2234,4.885242250001675,35.732512237697925
3860.1135,4.881737695870869,38.374044609805914
3861.0015,4.883903056662893,31.603323703763365
3861.8896,4.890374350558543,32.03497146569541
3862.7803,4.898869335771411,30.769161195579837
3863.6687,4.907101362155372,33.34034291944844
3864.5598,4.912735491482314,36.303868112069544
3865.4487,4.9133573946869635,30.38271180049046
3866.34,4.907493200770454,33.608910819018995
3867.2297,4.895284929964465,35.92455403860797
3868.1213,4.8779885910455265,33.02246459619112
3869.0112,4.856894137877471,32.03744868306273
3869.9014,4.831814524544293,27.970975428935642
3870.7937,4.8007606281424,31.94388437923729
3871.684,4.761344769262694,32.53734989747577
3872.577,4.712489666063506,32.30188619397208
3873.4678,4.6568590750484935,41.832136294557884
3874.361,4.599169044525639,35.8247739561844
3875.2524,4.544271168686405,42.20801342158884
3876.1438,4.493406522603047,41.67502725240315
3877.0376,4.444368028894109,41.01625576984318
3877.9297,4.394244674410722,46.3491924194583
3878.8237,4.341430590083729,47.86578407484768
3879.716,4.287293051218048,52.748341064608404
3880.6108,4.233667906118422,47.39700992303013
3881.5037,4.181600007036508,39.41947219201921
3882.3965,4.129694469799428,54.66020483991087
3883.2917,4.075606640769778,57.16302951131478
3884.185,4.018213514564457,53.10828207376144
3885.0808,3.957479385383333,43.53066785395913
3885.9746,3.8950809436935874,65.14105660517052
3886.8706,3.832203953884764,55.097562320802105
3887.765,3.770274499186334,50.43822556537166
3888.6592,3.7107518724760875,59.79584932345268
3889.556,3.6568002708439495,58.45765394636733
3890.4507,3.6142648997110753,65.96429875004169
3891.348,3.5896907856817166,64.06605227916074
3892.243,3.5886138210820544,64.44421661237175
3893.1406,3.612827690376763,64.35778081182477
3894.0361,3.659812896153751,74.23187128625051
3894.932,3.7244153967547318,54.43318993849571
3895.83,3.800821117699805,54.70407701477514
3896.7263,3.8829560423739604,53.22040957023382
3897.625,3.9659644013653996,51.48982587915945
3898.5215,4.044648673861829,50.72686758416206
3899.4207,4.115531736767324,45.55293242945772
3900.3176,4.175774303125798,40.78094924087582
3901.2148,4.2251040890646445,42.10885092013447
3902.1145,4.265677585071529,36.38364635407704
3903.0122,4.302024666864259,49.365581707882555
3903.912,4.340338661905647,41.49000317479149
3904.8103,4.384971267093533,38.750327903878265
3905.7107,4.436841245149524,40.61758060625246
3906.6094,4.492674403916616,35.2872843714058
3907.508,4.548140602728924,37.014569541559005
3908.409,4.600539996911428,37.66978265002359
3909.308,4.649870428395824,41.81628022681019
3910.2097,4.698590524813683,45.04497704470526
3911.1091,4.748044281283602,41.31265013938597
3912.011,4.797552293792235,31.050276165632788
3912.9111,4.843974412432169,32.993301469377165
3913.8113,4.884898888886752,34.607906405160264
3914.7136,4.9201353689680225,35.41160303946137
3915.6143,4.950981730114964,33.57182996370852
3916.517,4.978448503269677,30.559783989621643
3917.4182,5.0010627649819765,33.63101030648952
3918.3215,5.016239568124846,34.52160991934416
3919.223,5.022707997903583,31.644430974486223
3920.1245,5.022795929223719,36.8373812198033
3921.0286,5.021648098830834,32.34660679907245
3921.9307,5.024754510125494,33.37141356268065
3922.835,5.035486322002382,29.036865693862406
3923.7373,5.053850201364725,30.033044194771126
3924.642,5.077002828785108,31.288719851552056
3925.5452,5.100594759908426,26.985347631351864
3926.448,5.121436143664626,25.280884307111993
3927.3535,5.13860541716885,28.43515843642717
3928.257,5.152212260492376,31.00024078677105
3929.1628,5.161583028728858,28.99424993668614
3930.0667,5.1645293965037915,27.91543520443615
3930.9731,5.1593932394556585,31.151499243613763
3931.8774,5.147124981223839,30.94097920692012
3932.782,5.131185493129016,34.258273048565684
3933.6887,5.115427477502471,31.08110080561573
3934.5938,5.101969639219762,29.055546746502838
3935.501,5.089946921371039,27.985232613850386
3936.4062,5.075553391005849,31.62330320366989
3937.3142,5.051197161083717,29.86405721357641
3938.22,5.0049950197164605,33.00918224363422
3939.128,4.921555750594159,33.352139897444346
