wavl,flux,ivar
3566.9744,0.48263108267806804,6275.926200213507
3567.795,0.4857982443083177,1902.7880965278475
3568.6177,0.4901565603590612,1728.703255294679
3569.4385,0.49452309423557306,1115.0931320423415
3570.2617,0.49695329945537386,854.894218589023
3571.083,0.49576607173290194,831.5807608012769
3571.9065,0.49060351197371865,623.9401350634644
3572.7283,0.4827312507050565,1030.21692262903
3573.55,0.47434339387663643,1279.9609306209584
3574.374,0.4674534552721092,1080.544524875977
3575.1963,0.4630208667037013,1191.1000401214553
3576.0208,0.460661099758155,1351.2988293982912
3576.8435,0.4593854428171619,1072.5167569071893
3577.6682,0.4584775939398501,1013.1696298960752
3578.4915,0.45795167601671194,1971.8646857925255
3579.3145,0.4582202573304422,798.608323099296
3580.14,0.4595870767797826,1734.102744553401
3580.9636,0.4620761756066906,778.0154360076651
3581.7893,0.4655998992247544,1733.9939075441512
3582.6133,0.4699285375295716,1199.6346490313674
3583.4395,0.47458802066945355,826.1520528537554
3584.264,0.4787857838640944,761.2349288338728
3585.0884,0.48180496723019933,842.295050985102
3585.915,0.4833430367761945,934.177466278551
3586.74,0.48361652034598956,663.2106940485234
3587.5671,0.4831606458491499,888.7893467566364
3588.3923,0.4824757041490418,1095.879935158229
3589.22,0.48181064907133425,1330.6143367998777
3590.0457,0.4811694351431749,1226.008518109646
3590.8716,0.4803971291615429,1020.9639610547567
3591.6995,0.4792946331574668,719.4047191631662
3592.526,0.47774557721627037,997.2538333346306
3593.3542,0.4757891186803252,1290.6756590986988
3594.181,0.47363432046450565,1446.7733095103029
3595.0098,0.4715642628071999,890.4939159212446
3595.8367,0.4699808626862157,1110.8943718490618
3596.6638,0.46939587540796085,1500.8068756354562
3597.4934,0.47031276640118846,1510.4688165600733
3598.3208,0.47286165608654585,715.01337585438
3599.1506,0.4765374025830512,995.0299619070641
3599.9788,0.48021120804242695,818.2507317422308
3600.8088,0.4826789484812322,1065.1667044441026
3601.6372,0.4832913151449796,666.2140154897246
3602.4678,0.4823969830069703,537.7401413229118
3603.2964,0.48105752725749157,1118.5868101368499
3604.1252,0.4802127498929602,1277.7896176598192
3604.9565,0.48001257385999513,1162.6871795248435
3605.786,0.4799088181011115,1785.7964512630833
3606.6172,0.4793842369805332,1196.8156360668504
3607.447,0.47855041763609646,1363.0154298033196
3608.2788,0.4780000003587815,1166.8179735141234
3609.109,0.4781585176164407,1167.534744265149
3609.9392,0.47886540271049743,1198.8597338355148
3610.7717,0.4797252989241949,737.3350411925394
3611.6023,0.4809548374872048,1134.8050283595767
3612.435,0.4839878368295109,736.851240346951
3613.266,0.4909691742932784,1297.4416547970015
3614.0994,0.5031276522788601,1107.8648540394988
3614.9307,0.5186172132826257,968.6602419224212
3615.7625,0.5323363773149206,860.841950507985
3616.5962,0.5382983312414246,30.792786924885174
3617.4282,0.533540268148856,1119.8414909396924
3618.2625,0.5200159138271587,1907.5731792304962
3619.0947,0.5028113868624121,1704.1530153998478
3619.9292,0.4864633898021075,789.677935458755
3620.762,0.47337784289357565,1126.7226663496228
3621.595,0.4640015097053912,971.9871615385523
3622.4302,0.4580912697527485,907.5301649066953
3623.2634,0.4551459135028833,1097.5095735547527
3624.0989,0.45421762980854025,1774.7645358631341
3624.9326,0.4541576281426776,1420.9496423642343
3625.7686,0.4542743498259579,974.2397215888097
3626.6028,0.45490900192716005,3018.0418506865785
3627.437,0.45713800018741246,1837.7120120166614
3628.2734,0.46173875412702386,1211.9770632649752
3629.1082,0.468303446586508,1263.603172569317
3629.945,0.47548040279519527,1718.3791506766115
3630.78,0.4817602963307465,1066.0908753302856
3631.6174,0.4862857660688153,770.0742158307054
3632.453,0.4886728069451527,640.5157625745971
3633.2883,0.48870510787044036,773.7137695936068
3634.1262,0.4862302596318727,887.6379746261437
3634.9622,0.4816098474914025,619.7862330978602
3635.8005,0.475940116497573,811.8806099100079
3636.637,0.4708442272649073,1218.900842909728
3637.4756,0.4677294960478396,1926.3827442747174
3638.3123,0.46732973305960174,1081.4509927601787
3639.1492,0.4693777722731809,2871.5094757942006
3639.9885,0.4726878164983626,1253.507805241988
3640.826,0.4755626178134889,1590.2453375617815
3641.6653,0.47668174989891315,1124.2662611349933
3642.5032,0.47574379656641813,980.5461570008655
3643.343,0.4734795994621258,952.231352271679
3644.1812,0.4710383114944345,1077.6872435293023
3645.0195,0.4693148005070885,947.6679950622084
3645.86,0.4687346347275467,1008.4795556187715
3646.699,0.46936499051218356,1329.8330722003604
3647.5398,0.47109495960504094,1321.1209570929332
3648.379,0.47368443864282667,870.2264692561116
3649.2202,0.4766833108845258,1487.8615893107356
3650.0596,0.4792713848363898,888.5468016103749
3650.8994,0.48048945357879475,1082.848858590714
3651.7412,0.47974653039472814,838.3249130882239
3652.5813,0.47732578586558966,845.3827095774
3653.4236,0.47427978220457434,1488.4985364830447
3654.2642,0.47185000028241714,1438.5582531042571
3655.1067,0.4708220733635777,834.5540015117341
3655.9475,0.4713655796140433,1081.7025846323888
3656.7886,0.4731353711689443,881.3847384987865
3657.6318,0.47547259083622345,1320.6773151589955
3658.4734,0.47757924763464604,2298.1370114647643
3659.317,0.4788545299379965,613.9418712858813
3660.1587,0.4791395957671776,725.1706258896784
3661.003,0.47871615432020126,2423.907500314297
3661.845,0.4779523723812944,1235.3709806985862
3662.6875,0.47696221774497816,1106.5204436713605
3663.532,0.47559124478675097,994.7290690247551
3664.3748,0.47368602524232273,1322.40195973807
3665.2197,0.4713301332823223,900.9766547179904
3666.063,0.4689084504903711,770.1556610483782
3666.9084,0.46681299966138684,1364.375820155039
3667.752,0.46508927628168456,4410.459767681495
3668.5977,0.46300614797485945,880.8865789324467
3669.4417,0.4584890096712333,1127.436030189167
3670.286,0.4468073731220574,1217.6062130742641
3671.132,0.41910603990606354,1786.857926326919
3671.9768,0.3638829481089301,1316.6150750286774
3672.8235,0.2737235862608214,1396.938554048707
3673.6685,0.1581417809375084,1039.2175391083663
3674.5156,0.048237053156221635,1290.8945372553496
3675.3608,-0.012793438875076604,1031.7925321642651
3676.2063,0.0023774126124002227,863.6946918995513
3677.0542,0.0869572314427034,1259.4370877394788
3677.9,0.20387786439119793,1715.7072842236958
3678.748,0.3127745648034736,1524.623921603485
3679.5945,0.3899814881971929,916.8869928337416
3680.4429,0.4342056449838518,1018.0893842797922
3681.2896,0.45528658787622084,885.028484124385
3682.1365,0.4642764751796712,1036.2813458567557
3682.9856,0.46823522506711596,1494.0489507922623
3683.8328,0.47047628529274466,673.2809390787078
3684.6824,0.4722559183568534,1406.4115975074494
3685.53,0.4738563503744241,2337.8373352742274
3686.38,0.475023262676221,969.4784480231843
3687.2278,0.4751128711523499,797.0983502799095
3688.0762,0.47346827193638724,1422.6770043973738
3688.9265,0.4698876099522776,859.3178597366292
3689.7751,0.46500027486058426,1670.187650016515
3690.626,0.4601479221038046,1054.963249098941
3691.475,0.45695100923459187,1603.8512840026326
3692.3264,0.45648020976348247,1383.7610847607823
3693.1758,0.45873102380451997,1262.1227525770278
3694.0254,0.462590690867849,1247.2830386109972
3694.8772,0.4664044751501532,664.6485112435124
3695.7273,0.46868324549624685,1607.5858494415131
3696.5793,0.4686820059309886,1193.5124363417574
3697.43,0.46646946223766844,1109.86769781847
3698.2825,0.4627041443211128,908.5856771162422
3699.1333,0.4583176786246556,1159.296880519831
3699.9841,0.45414333922614275,1078.9204647618626
3700.8374,0.4507072661709991,1287.9114896099002
3701.6887,0.44817844930919015,1043.2944213719343
3702.5425,0.4464317966096293,1130.8535297889227
3703.3943,0.44533474762542474,2171.7792327351895
3704.2483,0.44481407387343663,909.3583097015171
3705.1003,0.4447611382334066,1560.3331038642839
3705.9526,0.44492507728279584,1613.7080843189458
3706.8074,0.44508294558264216,1191.3071338227999
3707.66,0.4452736500637967,1125.705733255785
3708.515,0.44573977081895183,1423.4724289657381
3709.3682,0.4465280336171614,1495.8554749260145
3710.2234,0.44711373739268134,1144.6322012338696
3711.0771,0.44638995486440103,1268.8804716265354
3711.9307,0.4432827742632559,1136.0935386073293
3712.7866,0.4377750781090088,704.952796743876
3713.6409,0.4316219692609097,921.216287948039
3714.4973,0.4274885336637023,1743.4494534831802
3715.3518,0.42706795376630996,1375.2770062473676
3716.2085,0.42966132827559106,850.8074871452178
3717.0635,0.4328899091198424,2540.465648491562
3717.9185,0.43478818652398604,1640.9943631924123
3718.776,0.43521896445433034,778.4844221060956
3719.6313,0.4355491592504119,1430.5439046378278
3720.489,0.4371443999791782,2364.493670626098
3721.345,0.44006910087839435,1861.7970094821292
3722.2031,0.44308466513902917,874.1991944360632
3723.0593,0.4447113868685486,1627.6347596229057
3723.9158,0.4444599528007553,914.4371115121556
3724.7747,0.44306783101413677,1228.9147252416192
3725.6316,0.44183157720153254,1974.0486604162493
3726.4905,0.44164227814722323,2097.234290235413
3727.348,0.4425528853132297,1474.8529017676867
3728.2073,0.4440313063442707,1132.918274609188
3729.065,0.4455548258655937,1189.5498777885382
3729.9229,0.4469931748809161,998.3158754362581
3730.783,0.44842370467406295,1164.7587977051394
3731.6414,0.4496893842534939,980.9846091578669
3732.5017,0.4502843555778042,1684.9586926433324
3733.3604,0.4497169168670484,1289.867138731175
3734.2214,0.4480472763236524,903.2957666086343
3735.0803,0.44602503812340233,1238.8653648866973
3735.9417,0.44458666514578515,984.3232204913435
3736.8013,0.44419681649072534,758.1064111477
3737.661,0.44449971365378643,861.2485333611232
3738.5227,0.4446422434857095,1203.4062647380952
3739.3828,0.4439319848944497,771.2199141867083
3740.245,0.4423272163322906,2055.7809805057004
3741.1055,0.44041877927355066,1103.9182923998276
3741.9683,0.4389308998850335,1398.5959353767878
3742.829,0.4382589221189017,1115.0329998308014
3743.69,0.4383304708372965,1359.2117432171904
3744.5532,0.4389156320036861,1310.4226708912342
3745.4148,0.43991817933440025,1214.5769267699156
3746.2786,0.4413387940634668,1113.1465293954939
3747.1404,0.44295140495786156,1559.4746702539237
3748.0044,0.44417901943541427,1320.9562932859815
3748.8667,0.44428280613384663,923.6337137625883
3749.729,0.4427799510832949,1598.0166277565395
3750.5938,0.4397184306728321,933.6099023391797
3751.4565,0.4357673689626623,1372.6006072247526
3752.3215,0.4319171255623884,907.726776907924
3753.1848,0.4290932711388483,1102.3531029337396
3754.0503,0.42772419897349234,1374.8516389309991
3754.9138,0.427780296739869,1221.1363156064333
3755.7776,0.4290360974752965,1601.687544029093
3756.6438,0.4313225352330804,1660.4755619437312
3757.508,0.4344501017121659,1603.9281234053715
3758.3745,0.4380814455656188,1263.5597664971876
3759.239,0.441650826483856,2039.4518575423024
3760.106,0.4446347128257808,970.1316255899682
3760.971,0.4467589658869848,1256.8918428899776
3761.8362,0.4481420685294742,989.0803979983374
3762.7036,0.4490570285341498,1292.3571919020242
3763.5693,0.4496018572297976,1090.4564316362173
3764.437,0.44957415708973913,1041.5366278918498
3765.3032,0.4486632650730598,1538.7397912979557
3766.1714,0.44679164373193236,1348.5625574812407
3767.0378,0.44429823989613126,1406.7730177083304
3767.9043,0.4417772312032924,1848.2449705644408
3768.7732,0.4397793611558478,2012.6890330444087
3769.6401,0.43856440268035857,998.1995852338339
3770.5095,0.437966915387643,1066.4059394351996
3771.377,0.4375090461987257,1480.0980839204224
3772.2466,0.436641218339754,1582.8011115305642
3773.1145,0.435094951766519,1646.5262007659069
3773.9824,0.4330826638423596,811.2779287415754
3774.8528,0.43118131710674096,1558.0117012168582
3775.721,0.42993882290118407,960.7264905798467
3776.5918,0.4294466215808665,1425.7591096704052
3777.4604,0.4293286160952805,676.94022588446
3778.3315,0.4290811691782922,1452.963198532355
3779.201,0.4285279620876874,2312.8949982751005
3780.0703,0.4280151538703416,1205.2089425814045
3780.942,0.4282508202024792,1944.804611915561
3781.8118,0.4299028522045514,1103.938540249337
3782.6838,0.4332177526276814,884.756421230968
3783.554,0.4378179370291088,2549.8987803205573
3784.4265,0.44287257964488186,1085.1268108118966
3785.297,0.44730630071058886,1309.7050513823401
3786.168,0.4502111554151891,786.7098393765324
3787.041,0.4510465107683737,1684.3046799995368
3787.912,0.44980382537577646,1116.9701783912467
3788.7856,0.44705703591598706,1284.492701598659
3789.6572,0.44382429474197754,1366.184975631223
3790.531,0.4410401985473546,1069.1436101036822
3791.403,0.43902553951134754,1880.807859444663
3792.2754,0.4373401099293052,1206.1537818823736
3793.15,0.43541175311543945,1184.6181667751148
3794.0225,0.43328746871183066,1504.1064339226905
3794.8972,0.4316901931427809,1829.8953398819444
3795.7703,0.431422688995265,1185.781685054849
3796.6455,0.4326666156655104,1447.612772324781
3797.519,0.43484562528276405,877.2145808995709
3798.3926,0.43702916832879474,936.3129094675949
3799.2686,0.4384389775647799,1515.2673315330937
3800.1426,0.4387109155972877,1110.317445527138
3801.0188,0.43790089615597855,1647.5584393536092
3801.8933,0.4363367658186505,1469.0952519662599
3802.77,0.434466417857208,1395.9154554403538
3803.6448,0.43271367008225153,1021.2564051174834
3804.522,0.4312609322130348,2044.114868836857
3805.3972,0.4300456254477869,862.6365545550058
3806.2727,0.4289397498931017,1149.294109509505
3807.1504,0.4280177124586211,1212.863968232138
3808.0261,0.4276083476652376,1118.216252866475
3808.9043,0.4281188045618925,1098.7602214045735
3809.7805,0.4298132464368574,1829.9116382915688
3810.659,0.432622856181594,2438.245395247016
3811.5356,0.43600424631088064,1331.684928707074
3812.4126,0.4391001750365943,1707.338926486398
3813.2917,0.44110228411774977,1128.8509402455486
3814.169,0.4416588011694117,1984.7416788220748
3815.0483,0.4410593162120046,981.4355639538676
3815.926,0.44002224919140265,1151.5878356023463
3816.806,0.4392580882703383,1408.9187680345374
3817.684,0.4390770985265915,1409.9058914765815
3818.5623,0.4392783039145139,1209.364855197759
3819.4429,0.4394107274390746,1335.0814047757858
3820.3215,0.43912297907545356,1228.1050256054978
3821.2024,0.4383398266273425,1034.6308395766557
3822.0815,0.4372440566779008,1101.5873705154304
3822.963,0.4361801836331204,1396.6157519367723
3823.8423,0.4355586012135814,1287.3915651371274
3824.722,0.4356211837429016,1652.8335002311376
3825.604,0.43620539993135166,1550.2509083623513
3826.4841,0.4367192949447123,1055.012142749748
3827.3665,0.4364922456576853,1246.2950263353
3828.2468,0.435190345625502,2005.3486853965944
3829.1296,0.4329165734338363,1411.0742474468586
3830.0105,0.4300105106535468,1307.5991877359693
3830.8916,0.4267641631953217,865.2767535034974
3831.7751,0.423391967098476,1081.587772685488
3832.6565,0.42014999076138065,1032.6650264563782
3833.5403,0.41728936641619735,1155.2236138125645
3834.4224,0.4149945432638956,927.2740543099342
3835.3064,0.41320766876344467,1282.8131181789067
3836.1887,0.41172583834343124,1411.5001892428754
3837.0713,0.4104038172472113,1578.440207645127
3837.956,0.4093808559715879,1422.8019238884308
3838.839,0.40907925658567657,1434.2222754734455
3839.7244,0.40993556441527507,1474.8264722816702
3840.6077,0.412057802110779,1904.1343264948857
3841.4932,0.4150710509064125,1210.9891738642457
3842.377,0.41822579625784856,1252.14074823016
3843.261,0.42079746131682316,2682.9243495073842
3844.1472,0.42237736419014527,1048.0973762111432
3845.0315,0.4229854253637218,1298.4744739657447
3845.9182,0.4230631034934904,1627.0622591053254
3846.803,0.4233617325071708,1048.263408738367
3847.69,0.4247363054376785,1627.9368590899976
3848.5752,0.42773013538376486,1145.3424585847515
3849.4604,0.4321722469107358,937.5187210965626
3850.3481,0.43710679000233027,2021.9838452109184
3851.234,0.4411989347299282,743.0363284582726
3852.122,0.4435719093594842,1142.8465894422975
3853.0083,0.4442430192658012,1164.4179412467054
3853.8967,0.44404625612426485,989.6635255610769
3854.7832,0.44396817446462333,1247.7402605424222
3855.6702,0.4444964348236649,1153.457746418073
3856.559,0.44541141844553483,880.0254894958973
3857.4463,0.44609082803135164,1086.3880000177921
3858.336,0.4460596229802394,1231.875562048871
3859.2234,0.44534030651843126,1050.046593249062
3860.1135,0.44443197465198647,695.2297965331225
3861.0015,0.4440012436973084,1383.6325121047482
3861.8896,0.4444287229823153,1836.9656897516052
3862.7803,0.44549244821879436,1661.9890955349044
3863.6687,0.4463880711754956,994.5317640610915
3864.5598,0.44622759024615594,1083.445359422126
3865.4487,0.44461929390852156,1359.7352673498015
3866.34,0.4418667950961965,1640.817414690092
3867.2297,0.4387214536928703,1495.6363779392377
3868.1213,0.4359198002174804,1530.544952836825
3869.0112,0.4339685422074323,1220.4733951536127
3869.9014,0.433014748949085,2559.894513169938
3870.7937,0.43288438339967217,1522.5086100661067
3871.684,0.4331955053890259,1210.4769013892742
3872.577,0.43354820786829706,1189.3345550705649
3873.4678,0.4336276965908474,1284.6239825203731
3874.361,0.4331617353524629,1244.1872910452562
3875.2524,0.4318737416471171,1434.5117335477514
3876.1438,0.42956767303601945,1369.6243995782545
3877.0376,0.42623135650683475,1294.648016069068
3877.9297,0.42200622355055234,1650.008085616474
3878.8237,0.41697186223787785,1274.0378021756512
3879.716,0.41126516975137295,1403.2144397101479
3880.6108,0.40525654736580274,2113.834272654742
3881.5037,0.3997099304347513,1758.724834082314
3882.3965,0.3953044917528654,1458.0741876239877
3883.2917,0.3922249814117376,1439.220518238982
3884.185,0.3901409320762345,1397.1198989108013
3885.0808,0.38853692194577655,1967.5445889852342
3885.9746,0.38710348505676156,1752.1785961940475
3886.8706,0.38570976665050016,1983.5849631517221
3887.765,0.3842395463753885,2243.730839024212
3888.6592,0.382477357818033,1670.3080128601796
3889.556,0.3802359254031789,1372.3087016137035
3890.4507,0.3776141929380216,2207.2880557673575
3891.348,0.3751219708681241,1920.3368044831793
3892.243,0.373638214951597,2109.1762044329435
3893.1406,0.3739822950013732,2345.2723142369127
3894.0361,0.37646597532649045,2607.0728607302763
3894.932,0.38072045712550573,1249.883334827755
3895.83,0.3859796063050441,1976.6399290772401
3896.7263,0.3914379982261015,1461.730659012372
3897.625,0.39654670721284285,3493.072099861427
3898.5215,0.40089983123086537,1835.846803072053
3899.4207,0.4043561674086203,1325.405058337837
3900.3176,0.4070774805245661,1589.2642268956126
3901.2148,0.4096382052628077,1153.6897241975216
3902.1145,0.4127745115908156,2753.963468892356
3903.0122,0.4169771628478199,2016.5548763684892
3903.912,0.4222550044669505,1199.945648855011
3904.8103,0.42803327657088414,1574.0935051462382
3905.7107,0.43347333304112656,1188.454044177252
3906.6094,0.4377574600785166,863.0543456262035
3907.508,0.44057081675670207,1082.6363096996092
3908.409,0.442307740546367,1999.827920063929
3909.308,0.4439628578524772,1393.9022879977667
3910.2097,0.44664958776919533,1245.0008199010454
3911.1091,0.4509264006362837,1225.4138592989787
3912.011,0.45654578481140295,1104.528783736503
3912.9111,0.46257322287920355,1043.6605169001762
3913.8113,0.4679938678612587,1119.8613801945462
3914.7136,0.47214303564457094,998.2034282909244
3915.6143,0.47484691235395265,864.0503479690622
3916.517,0.47639345191801347,1272.027136440974
3917.4182,0.4773256745637565,879.6592508944128
3918.3215,0.4783005219128845,1153.2422382606762
3919.223,0.47979749661243193,933.8294415250061
3920.1245,0.48182788127626025,799.6548660212558
3921.0286,0.4838460810803507,781.2759142944936
3921.9307,0.4850538346680482,861.4815789517485
3922.835,0.4849932748199294,902.1508034600251
3923.7373,0.48389293075126305,1203.2894255457531
3924.642,0.4825018432411138,865.9271799201856
3925.5452,0.48152592444521825,991.3044262354243
3926.448,0.48112552884923493,1183.2509335978825
3927.3535,0.4809612956105764,903.3063613585415
3928.257,0.4806409168729077,786.4196479303881
