wavl,flux,ivar
3566.9744,1.9654520965245905,10.321848344632391
3567.795,1.9232687716095502,10.198458834188438
3568.6177,1.8705764371372502,15.298978842689394
3569.4385,1.8121082950613439,3.8995712520866945
3570.2617,1.755090703370272,8.19311816512686
3571.083,1.7082836343390824,12.12480213143903
3571.9065,1.6771760226755275,7.108523991500412
3572.7283,1.6624830823075911,8.898806055566954
3573.55,1.6599440876033613,24.526842517064747
3574.374,1.6634713954674945,22.134869209708775
3575.1963,1.6687871322900938,5.504139006027662
3576.0208,1.6760246509871624,8.320047333071209
3576.8435,1.688661168148404,6.97714317967021
3577.6682,1.7094608271383744,13.725694587144195
3578.4915,1.7365921620350633,5.067901531194185
3579.3145,1.7645639418976702,6.185913580370354
3580.14,1.7882756665425354,4.004362704310206
3580.9636,1.8056838897999483,26.203607109006985
3581.7893,1.8172462054786114,9.260028912297347
3582.6133,1.8229059473748612,9.276520973793897
3583.4395,1.8218967240554376,4.937093985113426
3584.264,1.8152976410189279,7.487243692424727
3585.0884,1.8082128852337267,19.340010649944478
3585.915,1.8078237436619262,14.92157769041367
3586.74,1.818078724087848,21.02376119503573
3587.5671,1.835601923039286,4.71490884307878
3588.3923,1.8504759925219885,5.6194267095777946
3589.22,1.8522573220891094,9.126857646213036
3590.0457,1.8365117722481226,5.291611618663014
3590.8716,1.8079489671821223,4.02652479139331
3591.6995,1.7774503534271822,9.16801134114743
3592.526,1.7555680034698318,17.4311055284566
3593.3542,1.7463391724471091,6.296391009494633
3594.181,1.7469769964961008,27.96279494041017
3595.0098,1.7520888080147592,7.076358660357319
3595.8367,1.758816849108686,8.128635688002195
3596.6638,1.7680835650424682,5.281919207523671
3597.4934,1.781101233848523,3.4961536679593648
3598.3208,1.7947525506317488,7.4476898456197596
3599.1506,1.8009221452730109,8.245295328767083
3599.9788,1.7903445613811402,11.094021711353644
3600.8088,1.7589450647421678,1024.8938826591184
3601.6372,1.7121572930966684,27.501754750335877
3602.4678,1.663509217517832,9.67491325087492
3603.2964,1.6297248220230451,62.944056818043286
3604.1252,1.622392770065562,9.397521441372449
3604.9565,1.6432543401393684,901.8356396156805
3605.786,1.6837816001099657,3.744136340752767
3606.6172,1.73103323877229,3.6399024176494628
3607.447,1.7739970053870886,12.223481786205337
3608.2788,1.8077563461290913,2.3554233711279298
3609.109,1.8310943291565926,12.710470489282528
3609.9392,1.843001862732322,19.341798466894943
3610.7717,1.84087399236024,3.2390278679624154
3611.6023,1.8238236916344222,9.479338073169
3612.435,1.796727667645261,37.4808225488992
3613.266,1.769786401357286,55.06577910300402
3614.0994,1.7517418106295484,16.16340525994668
3614.9307,1.7444927664286656,6.609143139402997
3615.7625,1.743571712383094,9.734886654585106
3616.5962,1.7440482159857842,8.175167843569605
3617.4282,1.7442852111217781,11.560757826568535
3618.2625,1.7449085507643947,4.996203469240251
3619.0947,1.7465144445385197,7.804397067758133
3619.9292,1.7501433939690934,29.41876881640583
3620.762,1.7587978643275213,5.107956396235243
3621.595,1.7757975793134657,7.340857359057997
3622.4302,1.7999698018702428,6.386274349168752
3623.2634,1.822876831345504,5.577610718173444
3624.0989,1.833039890045937,4.15374906161192
3624.9326,1.8230645848786282,79.75134371326268
3625.7686,1.7945891786555603,5.26495982825168
3626.6028,1.7576066976347853,12.747931608911463
3627.437,1.7251845996430766,5.4348737383079095
3628.2734,1.7076928594100642,27.292625787153522
3629.1082,1.7084090644296,13.149247084823772
3629.945,1.722468723264494,312.3094054617631
3630.78,1.740389276310913,9.122535674054848
3631.6174,1.7532145712603442,7.0697937465572736
3632.453,1.7548603859586314,49.79001448375013
3633.2883,1.7426369349887982,3.517510224273976
3634.1262,1.7179611492932156,4.037565334948712
3634.9622,1.68821936898587,9.791719878103699
3635.8005,1.6638399814058016,9.761666246802521
3636.637,1.6511651329161288,19.184024609200407
3637.4756,1.646162463632207,12.062395107742997
3638.3123,1.6381322314287732,7.9772735317190815
3639.1492,1.6196996115367015,20.28524341566562
3639.9885,1.593512843883801,10.885881637570089
3640.826,1.5699545146831548,44.52364511024885
3641.6653,1.5585292739738847,10.733502086363893
3642.5032,1.562061263173247,4.142716833563331
3643.343,1.5761960345985602,74.81739509969687
3644.1812,1.593353932675694,3.269513093944788
3645.0195,1.607338646494024,3.4019964509711755
3645.86,1.6151610617101118,9.507440535761159
3646.699,1.6161588841194936,39.07208502492736
3647.5398,1.6105778143464935,3.9706497648480026
3648.379,1.5994885818127902,6.477144888796195
3649.2202,1.5858325205540693,5.8319966498286
3650.0596,1.5748345238696262,11.77318006250897
3650.8994,1.5718035488970112,22.336989067403117
3651.7412,1.5788126093816433,2029.1424008301724
3652.5813,1.5917269320561762,18.555147180106363
3653.4236,1.6009502360279515,53.80323269846677
3654.2642,1.5965911145899263,10.924167273073351
3655.1067,1.5756927445824929,8.957536732905016
3655.9475,1.5453204252942294,1114.0887586220508
3656.7886,1.517746218031215,3.721243034939743
3657.6318,1.501821196094176,22.69163906503856
3658.4734,1.4973644815643323,67.2768785289354
3659.317,1.4965146729725343,6.385224554906917
3660.1587,1.4901917288596211,81.36079448482097
3661.003,1.4734328498932538,10.963205026486422
3661.845,1.447493449957743,19.93689792560793
3662.6875,1.4188866504544022,20.572373406757166
3663.532,1.3976559371520747,21.628536196993345
3664.3748,1.3944540051902399,76.3978161967832
3665.2197,1.4161156776232475,6.940833697784434
3666.063,1.4613884108799595,7.702813798747169
3666.9084,1.5196317136363893,11.248362935112336
3667.752,1.5736971578509922,6.156896549478629
3668.5977,1.6092748774577652,4.656877532337718
3669.4417,1.6216902990004074,12.905406668826837
3670.286,1.6175733004941844,10.617376223575954
3671.132,1.6081442317753833,83.14047946467608
3671.9768,1.601389671501216,4.250757266217497
3672.8235,1.5985113318688722,24.2014784341805
3673.6685,1.5966527080327568,7.066570535629971
3674.5156,1.5932931982776528,9.88839572643209
3675.3608,1.5877016427683108,5576.400469993269
3676.2063,1.5789302945501213,17.376813650640976
3677.0542,1.5645936990090594,3.178375841907877
3677.9,1.5435209266837147,13.079590949990179
3678.748,1.5193661972412247,15.663673168562884
3679.5945,1.5012953953543169,19.021388506240225
3680.4429,1.4984879328253387,1265.727088147245
3681.2896,1.5138525074170683,30.016013762646114
3682.1365,1.5416255975278859,20.40143723969976
3682.9856,1.5710388194158493,30.127503998580533
3683.8328,1.592145187019978,11.065545168156993
3684.6824,1.6003955231059652,18.765815881863308
3685.53,1.5964361431467784,6.338530750565694
3686.38,1.5840552621565178,6.1910549107925235
3687.2278,1.5681443389695793,3.46622663115235
3688.0762,1.553436638225039,4.750778629307903
3688.9265,1.5439418304964192,32.97590187759756
3689.7751,1.5427089866999357,4.816255870653748
3690.626,1.5520107650035193,197.3555089025906
3691.475,1.572757740480885,6.354891816396041
3692.3264,1.6021071257656345,10.643810639223927
3693.1758,1.6309457923179584,5.449768117188689
3694.0254,1.6468639696414566,12.28478758785265
3694.8772,1.6411886136551985,6.031393823700588
3695.7273,1.6156664672737446,11.314566037703468
3696.5793,1.581604786885103,28.86309052271973
3697.43,1.552620170503613,3.7957498473066194
3698.2825,1.5368195214651799,2.784291346840596
3699.1333,1.5359126620655241,24.84297020263297
3699.9841,1.5483509526481787,3.2523870908016868
3700.8374,1.5720042821956217,8.79501213466115
3701.6887,1.6029556654414265,5.302373591421823
3702.5425,1.6346131762188372,8.53056173660188
3703.3943,1.658509112013922,2.339165975637487
3704.2483,1.6683570407523962,24.184726980254748
3705.1003,1.6623030586370966,8.778553664354718
3705.9526,1.6431573022896928,17.85031050655666
3706.8074,1.6161940587994184,88.68890405095789
3707.66,1.587388192462586,8.445999759520792
3708.515,1.5617726522959727,12.311793203740383
3709.3682,1.5434800219451668,9.757295135140902
3710.2234,1.5342854570062905,11.406661864155001
3711.0771,1.5324489876678908,10.84236910047674
3711.9307,1.5322381906512224,79.99664089866961
3712.7866,1.5262993423007825,10.608598232248182
3713.6409,1.5097615000032711,11.776348123833621
3714.4973,1.4830301488166286,3.973563796198442
3715.3518,1.4516040447907639,16.514556968335242
3716.2085,1.422395721085021,12.853777394357692
3717.0635,1.4012907377414734,7.633940314283144
3717.9185,1.3918673240629145,9.772606884505425
3718.776,1.396005801412229,17.460465695367184
3719.6313,1.4131756932282455,47.7975709850895
3720.489,1.439220019993397,15.555565216543132
3721.345,1.4664053296309256,11.42992959569039
3722.2031,1.4873296120634047,18.604454756432602
3723.0593,1.4989312093240241,11.421006583104793
3723.9158,1.5039202889553773,7.446096562049441
3724.7747,1.507302618674664,5.711551605391166
3725.6316,1.5129293764824798,22.652989820151355
3726.4905,1.5234329051145323,6.2049288218549385
3727.348,1.5413548390856207,24.94318111500467
3728.2073,1.5678161911442958,9.912221471397187
3729.065,1.5985610980874754,20.726408606492527
3729.9229,1.6237687708619448,15.892700242210124
3730.783,1.6330997019712816,4.8803140410969315
3731.6414,1.62310306286631,7.548296216595922
3732.5017,1.6001129999770756,9.120001724062774
3733.3604,1.5756049237199636,9.212415846394068
3734.2214,1.5574555723635464,7.6817674233956055
3735.0803,1.5455488205547652,22.035624207819257
3735.9417,1.5342456234719495,5.4612169330398865
3736.8013,1.5197936234441864,7.064132506098621
3737.661,1.5042449520743428,8.155149386758456
3738.5227,1.4931279148624872,7.007605210545238
3739.3828,1.490015203411892,13.193293379724075
3740.245,1.493633460149377,7.661378061195162
3741.1055,1.500047200676826,9.434658656343313
3741.9683,1.5066793581923257,5.575476804551834
3742.829,1.513846002083363,3625696.901324409
3743.69,1.5229109972551906,23.008128063256645
3744.5532,1.5333865376718854,10.660915443932867
3745.4148,1.542724153869639,4.01412614453479
3746.2786,1.5494758973469882,22.368547514404135
3747.1404,1.5553603073364868,3.9865538429063374
3748.0044,1.5634373982020866,14.216880107384373
3748.8667,1.5736388021194627,17.96411267507008
3749.729,1.581437587681658,4.9874858320735065
3750.5938,1.5813436715988638,14.68213783911872
3751.4565,1.5717940064042624,6.293473956396085
3752.3215,1.5562390087146212,19.70429846487563
3753.1848,1.5401206125945437,7.916795475148218
3754.0503,1.527014595650581,14.022228212071052
3754.9138,1.5177588698315838,37.63771100142773
3755.7776,1.5112409750086073,1163.3533156646631
3756.6438,1.5061538705600979,8.561874554298136
3757.508,1.502403347291548,10.141167210483651
3758.3745,1.5012273783703691,8.348853825683427
3759.239,1.5034913578858773,9.367058621990424
3760.106,1.5075804975489524,17.911138185265564
3760.971,1.5100964534568748,9.063034367909534
3761.8362,1.5095153724719617,6.130940420476309
3762.7036,1.5082815077092888,17.83828741019634
3763.5693,1.5101998934272782,4.043661310364583
3764.437,1.5156673333432624,7.987260161316575
3765.3032,1.5205457841989838,12.172485561245637
3766.1714,1.5204498098464636,4.9438816421821885
3767.0378,1.5156653244919855,8.781949602348616
3767.9043,1.5115444300952319,5.055742829097684
3768.7732,1.5142644685469298,12.424175765897594
3769.6401,1.5263222539055512,13.530215930672814
3770.5095,1.5453026756300816,44.28303664169224
3771.377,1.564976508804257,21.78563769115303
3772.2466,1.5775672566108994,6.976718030106242
3773.1145,1.5758853161360495,4.981884701284248
3773.9824,1.5571523453298959,7.120894999336467
3774.8528,1.5259155136249,6.106542193917859
3775.721,1.4936968144614182,2673.8127113634055
3776.5918,1.4723016997080711,16.20194637142344
3777.4604,1.466709186612684,5.110393447639273
3778.3315,1.4719451704580446,3.7633604608190114
3779.201,1.4784309835555698,4.856083997261898
3780.0703,1.4802843775319978,22.09021756816939
3780.942,1.4788761085515183,55.093271637823605
3781.8118,1.4793695458529263,9.273005937365118
3782.6838,1.4851325489402927,15.291330052671611
3783.554,1.495540321091693,5.568961327172911
3784.4265,1.5075271570233582,14.080559534575029
3785.297,1.5173931669082537,10.878693652949437
3786.168,1.522269243524497,5.5351287996214795
3787.041,1.5212420438644694,11.343268200547458
3787.912,1.5164234424776635,10.453636415255179
3788.7856,1.5121964488922843,39.31907851695681
3789.6572,1.5125527805576258,93.73357428566848
3790.531,1.518257633552552,15.53649941352315
3791.403,1.5261301033882935,27.164307875276904
3792.2754,1.5309924669729535,8.181671223158535
3793.15,1.5289080814947595,18.232882029897336
3794.0225,1.5199047940681918,31.041065129420694
3794.8972,1.5079652290781111,9.65914880598182
3795.7703,1.4982455305997806,19.142430762602842
3796.6455,1.4932934803289997,8.41321189534399
3797.519,1.4919068218904141,18.13689550663862
3798.3926,1.4909132348427638,14.751043933264402
3799.2686,1.4882221592776577,12.49298509356939
3800.1426,1.4842319057142148,6.212136439863274
3801.0188,1.4804988160593175,10.04925624035552
3801.8933,1.4774121910963804,22.847664250776376
3802.77,1.4734254888011133,16.02393369658313
3803.6448,1.4670611567226217,166.9730338148936
3804.522,1.4591293312695646,14.327361192790963
3805.3972,1.4525896099333384,6.955401900568242
3806.2727,1.4496636830606413,33.861725833454
3807.1504,1.449677844090071,10.165243604152264
3808.0261,1.4495564176821847,37.323557593876785
3808.9043,1.4462408940107288,12.07301294342675
3809.7805,1.4386817567918355,9.22946633972925
3810.659,1.4282124433870078,8.823937350019236
3811.5356,1.4182067415570168,10.206546776741058
3812.4126,1.4130433405763712,26.026110107158903
3813.2917,1.4166066192919298,4.679301533959783
3814.169,1.4299448622872315,17.105040915996184
3815.0483,1.4498785259450668,9.0323461475177
3815.926,1.4697951055311482,12.306701454049634
3816.806,1.483400147156996,7.839819287288645
3817.684,1.488085770954478,15.825468935136938
3818.5623,1.4864896023126142,16.42268628925313
3819.4429,1.484577074152961,11.4326342712949
3820.3215,1.4880625765840754,11.814889941046895
3821.2024,1.4990030897919584,12.831277751294126
3822.0815,1.5144390823390126,5.376849927890861
3822.963,1.5280288663701738,19.37338280796987
3823.8423,1.5332301038010472,10.053880493682602
3824.722,1.5270394401403955,5.356694146928321
3825.604,1.5114611750291145,21.501069547210715
3826.4841,1.4922980760115436,6.390161046243144
3827.3665,1.4749552224993148,8.13818032807898
3828.2468,1.461214384830741,57.7775832054956
3829.1296,1.4488275610834929,28.974375366631868
3830.0105,1.4351821626240162,6.917951029834523
3830.8916,1.4203852581317677,12.551101366926293
3831.7751,1.407251120697946,18.165329869555983
3832.6565,1.3985993142907793,7.857502774171521
3833.5403,1.395076632456416,15.355514216520776
3834.4224,1.395909364576878,15.83463363520223
3835.3064,1.400256989854592,32.34852830295027
3836.1887,1.4074540375123397,7.150245691479928
3837.0713,1.4161863090841396,18.05345650135646
3837.956,1.4238998760613713,8.372867565588187
3838.839,1.4273622203971197,8.96049858121444
3839.7244,1.4244279764789298,10.593610664290761
3840.6077,1.4158341235101957,29.02064669814753
3841.4932,1.4058728722960177,11.312780303560032
3842.377,1.4010376999637946,26.481328331744276
3843.261,1.406547551133874,7.438675744628416
3844.1472,1.423460172312423,10.347775717228458
3845.0315,1.4478958909430832,31.47784361926019
3845.9182,1.4732849930994958,44.26064065342394
3846.803,1.4926867203369685,264.5250102089625
3847.69,1.5015342101124125,11.67997116443762
3848.5752,1.4989103412894227,7.927106269331076
3849.4604,1.488193974339523,12.787740468401175
3850.3481,1.4756723100156055,4.140343861870486
3851.234,1.4680505855100248,15.85523951640439
3852.122,1.4692750250923703,19.722761362434163
3853.0083,1.478637299103241,18.03067935870302
3853.8967,1.4910517125828056,27.214029913316214
3854.7832,1.4998917345442047,6.081381119926532
3855.6702,1.5012414744866636,7.863672991593729
3856.559,1.4959922017082645,5.770799198334446
3857.4463,1.4887681332553189,11.976480715427755
3858.336,1.4844900044893525,50.66800677695444
3859.2234,1.4855470523156409,11.046643455793516
3860.1135,1.4908765680459943,42.282756896143276
3861.0015,1.4972448565052554,11.956703641778416
3861.8896,1.5019850531898742,8.025192239367598
3862.7803,1.505334006192359,18.84674605605906
3863.6687,1.5105535643179002,6.0350505419998175
3864.5598,1.5212956712440004,15.348059004697626
3865.4487,1.5377273538378486,14.880379359020818
3866.34,1.5550308509664408,8.44861814389009
3867.2297,1.5650424815810318,18.52838263841393
3868.1213,1.5610710917316448,9.180005425980358
3869.0112,1.542045707385738,14.849951130380681
3869.9014,1.513529861990209,8.235512352646886
3870.7937,1.4847734826305412,23.894013663252988
3871.684,1.4643287745052405,23.19831187906159
3872.577,1.4565710636316491,13.426858044827394
3873.4678,1.4619469227764854,11.638419654684991
3874.361,1.4778853069094973,28.011003054822062
3875.2524,1.4988495158765924,7.10460718056379
3876.1438,1.5166257368239626,14.880690454550134
3877.0376,1.5227440734736932,5.016841584059999
3877.9297,1.513185904903207,10.248038005570042
3878.8237,1.4913629866431566,9.549018282760116
3879.716,1.4659638849355807,22.78439744018026
3880.6108,1.4447658176524891,72.31947363753207
3881.5037,1.430556228845061,10.613505151620968
3882.3965,1.4209869240250586,6.205384624572809
3883.2917,1.4123657030806682,12.433858901552394
3884.185,1.4029665489342866,11.004957914704049
3885.0808,1.3935798694864323,11.929976671818894
3885.9746,1.3861789719248294,24.052979093297687
3886.8706,1.3817143748321337,6.807295043066828
3887.765,1.378968752035763,18.40300951734113
3888.6592,1.3745393596395807,16.260586734710117
3889.556,1.3644594958287102,15.333276559388832
3890.4507,1.3469598529228362,24.53937725473913
3891.348,1.3241043872674494,24.172331115217226
3892.243,1.3012182238509729,8.218649018083923
3893.1406,1.2833620241070662,18.69117647246666
3894.0361,1.2733685165423898,25.959875708368905
3894.932,1.2716938735903875,26.61868440255099
3895.83,1.2782105484976527,40.00428408947556
3896.7263,1.2926189573436107,12.498588692806594
3897.625,1.313795559582227,13.430766204008421
3898.5215,1.3388518680254278,25.858826552239435
3899.4207,1.364054243866551,23.857268784313526
3900.3176,1.3856084877721937,15.766770423698814
3901.2148,1.401310492627749,7.815997211174047
3902.1145,1.4108370088385207,46.253659493128005
3903.0122,1.4156879285904587,13.754813641628658
3903.912,1.4188866396523192,13.420122568770122
3904.8103,1.4240582995945792,15.566976288694558
3905.7107,1.4342228890595745,28.18225924210587
3906.6094,1.450131442276061,8.841046342754128
3907.508,1.4695727376100796,10.975875893102401
3908.409,1.4881418645472286,6.369618085342932
3909.308,1.501369946161277,8.939758900882206
3910.2097,1.5074688351649572,6.725222625900505
3911.1091,1.5081922829216847,15.44835086819967
3912.011,1.5080867663916169,17.628738191157606
3912.9111,1.512373416607272,7.119051837135657
3913.8113,1.524809248844325,75.12655496389652
3914.7136,1.5461224904509638,7.735883647326919
3915.6143,1.5732306749491396,16.464733571674067
3916.517,1.600645879375919,10.78545920328047
3917.4182,1.6223786315865432,11.293654918416664
3918.3215,1.6344353133768525,6.917430848492998
3919.223,1.6352650724170412,7.451152715096498
3920.1245,1.6258342847174732,7.527362133282738
3921.0286,1.6091359739751616,5.3476757190106845
3921.9307,1.590005236708604,12.789565896208018
3922.835,1.5737066071034649,10.080580190899559
3923.7373,1.5642467490959822,8.988965882381471
3924.642,1.5623208087543845,5.674712792734581
3925.5452,1.565385003289028,10.25855148038082
3926.448,1.5693763586902332,15.63913834708429
3927.3535,1.5708522663664006,10.434444821993747
3928.257,1.5679676200064863,13.547937903375148
3929.1628,1.5606262013820833,7.463156664501006
3930.0667,1.5505295456397408,8.244962000892992
3930.9731,1.5405945843038864,8.774232405668709
3931.8774,1.5335220477147977,44.57174977488472
3932.782,1.529559409666068,8.796252345049838
3933.6887,1.5260329531002306,12.78672702802108
3934.5938,1.5192772321533177,11.578591433406622
