wavl,flux,ivar
3566.9744,5.9458286716066615,20.32405975974126
3567.795,5.90953489110957,21.17743965644601
3568.6177,5.881468247668732,19.94944621626648
3569.4385,5.857162643903811,14.407119990441414
3570.2617,5.833623289432227,11.515035569883151
3571.083,5.813621566562246,15.855156546608365
3571.9065,5.803380806338913,20.492159195884412
3572.7283,5.807832829118792,19.066426514520668
3573.55,5.825995251538815,21.891052941407025
3574.374,5.85036620730232,22.507362401500032
3575.1963,5.870217430135486,21.97431674542828
3576.0208,5.878216248156811,15.440861570671782
3576.8435,5.8747295568973605,16.835858593196303
3577.6682,5.867267617077704,17.629124148708648
3578.4915,5.865087823200451,21.973925134964233
3579.3145,5.8734905661904175,18.97176353571943
3580.14,5.891628635914811,24.528162466873543
3580.9636,5.913020114004265,18.86179148178187
3581.7893,5.927858957854956,21.014044530714855
3582.6133,5.925550468074872,20.110975828077418
3583.4395,5.8990388332415575,14.939441464524242
3584.264,5.8492973773463435,12.232132034703742
3585.0884,5.786406324500704,19.562871226617272
3585.915,5.725974037046776,18.866085845215846
3586.74,5.682958367101335,22.32637295020652
3587.5671,5.664767375605782,21.41159065190741
3588.3923,5.669690044958427,34.07241571508854
3589.22,5.688529255464219,18.723002651620668
3590.0457,5.709428491898941,21.4556772117764
3590.8716,5.723155454114217,18.670397746328764
3591.6995,5.725616508919759,20.492871996223975
3592.526,5.71782745260828,18.391819744882607
3593.3542,5.704194663015127,20.30216823266133
3594.181,5.690151054168062,20.235989853891205
3595.0098,5.679171670987177,24.963760676319303
3595.8367,5.671096219913207,20.992767400717334
3596.6638,5.662792696242739,17.19160659275544
3597.4934,5.651804679980484,22.59320017273845
3598.3208,5.639571773334223,19.98407836530201
3599.1506,5.630519332980916,24.16630784787702
3599.9788,5.628174936541938,32.460310498264576
3600.8088,5.6317707366214504,22.604889899212182
3601.6372,5.63750832376588,20.504865535375316
3602.4678,5.64295541902334,25.35768718319872
3603.2964,5.649567969735268,22.98326459745712
3604.1252,5.660611112425826,25.073906111317477
3604.9565,5.676632663363046,18.926138665315676
3605.786,5.693360696739398,20.74823172315924
3606.6172,5.704512980228509,30.846794410413587
3607.447,5.705619482269993,24.82009656357468
3608.2788,5.695984835301847,15.637582562495243
3609.109,5.677533394358537,31.350680479955518
3609.9392,5.6527824102091415,22.009375057278845
3610.7717,5.624024530352516,16.61482538435828
3611.6023,5.593794162672391,27.384715532579804
3612.435,5.564609749821691,21.6532371569034
3613.266,5.539419685381572,21.918871458478584
3614.0994,5.520722209209861,18.19757524291532
3614.9307,5.510473115083773,18.360543813767894
3615.7625,5.5088969769666445,28.603934236262173
3616.5962,5.51385751115506,26.171471072251098
3617.4282,5.5207515279853325,18.990998992591823
3618.2625,5.524258279222445,18.189034241074413
3619.0947,5.520944841897328,20.774211007335694
3619.9292,5.511111328999814,20.924608373250734
3620.762,5.498415965593136,16.43923939761259
3621.595,5.48748753277736,19.46763308787965
3622.4302,5.481681359502106,21.18849718934998
3623.2634,5.482121975564432,26.209747558738172
3624.0989,5.4879788368313,24.921338942250628
3624.9326,5.497117757526513,30.46477607739627
3625.7686,5.506599438182184,22.0337282298262
3626.6028,5.513052633731835,21.47682662199007
3627.437,5.513619421476439,21.23819068884704
3628.2734,5.5066218512469955,24.928239146308538
3629.1082,5.492349108988178,20.074902241848612
3629.945,5.473449766138578,16.364168999925933
3630.78,5.454755150970772,22.568679005009965
3631.6174,5.44086391252677,22.032213370754583
3632.453,5.43393593385501,25.488072490830277
3633.2883,5.432956200919658,18.283189376339955
3634.1262,5.436274380868662,21.932774705815817
3634.9622,5.444087869959999,26.351436540719533
3635.8005,5.458057532186137,26.93580554525424
3636.637,5.477697108441427,27.605347787653432
3637.4756,5.498051297887292,20.652038220604087
3638.3123,5.511054317158513,27.616868541221848
3639.1492,5.511129561604783,23.448590106243493
3639.9885,5.4992486142368415,26.218026651635178
3640.826,5.482558731781642,23.26974700684259
3641.6653,5.468941360430048,27.169327177968995
3642.5032,5.462134919296692,24.123248571691104
3643.343,5.461050170709055,25.041339204455472
3644.1812,5.4636707767659765,19.826623899745517
3645.0195,5.470339420191067,22.42708214711062
3645.86,5.482848630438999,26.35507945514594
3646.699,5.5002493167659345,23.226157215603465
3647.5398,5.51659430109272,24.554502017452908
3648.379,5.522747946422658,19.219085649681684
3649.2202,5.511365586243098,22.185405381784104
3650.0596,5.480412871004691,25.765364718271663
3650.8994,5.4334775345292,18.18938313554965
3651.7412,5.378293597922555,24.2567163081292
3652.5813,5.325433356326822,26.26519476614665
3653.4236,5.285532349885252,21.605730159153083
3654.2642,5.267343733365667,30.136929967204892
3655.1067,5.2739435969576896,35.14848315466684
3655.9475,5.301391831870132,29.408693702261196
3656.7886,5.339914504612384,26.39043752442781
3657.6318,5.37742439346448,26.94976004510011
3658.4734,5.403419863642504,19.29720497954764
3659.317,5.413207455056888,23.87979025469119
3660.1587,5.4089702108647275,23.505668424169983
3661.003,5.3978737753479065,40.50914761282485
3661.845,5.38731117683585,30.05103288415687
3662.6875,5.380699624827441,16.527921168358553
3663.532,5.3769616368836415,20.180654861744213
3664.3748,5.3724852839056645,23.181000340428287
3665.2197,5.363559744187226,21.299371953140074
3666.063,5.3487201950661705,24.0428904558572
3666.9084,5.330026000668565,26.541704780606665
3667.752,5.312404207605853,24.519330263071602
3668.5977,5.299596743412134,24.629429969485535
3669.4417,5.290916400590556,25.023167911041977
3670.286,5.281413642576199,20.084779677897895
3671.132,5.266241190643479,28.79381229610814
3671.9768,5.245011580475397,21.644251586989213
3672.8235,5.222119816195991,31.918618222869373
3673.6685,5.203551875388383,22.202616593916648
3674.5156,5.192005861666343,31.043261759161076
3675.3608,5.185571433649803,26.269640980092344
3676.2063,5.180043112587972,28.74825758887307
3677.0542,5.172829221749434,23.023598985739127
3677.9,5.164297181908025,23.553018354815304
3678.748,5.156101665664463,21.8303284638779
3679.5945,5.149569285705866,24.684643675634938
3680.4429,5.14485307819006,24.31778083960271
3681.2896,5.140459601683215,22.030287586293525
3682.1365,5.132593217797759,22.32630455663755
3682.9856,5.116518371444655,24.666982114091113
3683.8328,5.090582240690829,21.421381864927906
3684.6824,5.058948458449307,29.358623531956965
3685.53,5.030624062308241,28.619253777885387
3686.38,5.013644234808591,31.859376689718324
3687.2278,5.010963782938171,19.576443204592934
3688.0762,5.019418330460777,26.438547059344806
3688.9265,5.032538802990159,23.63573401221838
3689.7751,5.043984938377885,29.459606979805272
3690.626,5.050476927692745,30.95089398582259
3691.475,5.052315007522956,23.963668878741654
3692.3264,5.051895585782555,29.24827693487473
3693.1758,5.050947326849805,23.587470958731384
3694.0254,5.048906881974458,29.217390063159545
3694.8772,5.043748366161885,25.883132836293374
3695.7273,5.034553442727478,26.65768674499432
3696.5793,5.023148322407147,22.03970755157111
3697.43,5.013368596563138,21.186787972867897
3698.2825,5.008120202569488,21.290044475168575
3699.1333,5.0073160253307,26.66906496762051
3699.9841,5.008088238524408,24.191240721936612
3700.8374,5.007181912198571,24.934955081939833
3701.6887,5.003090308594073,25.491982181233727
3702.5425,4.996237764204657,23.855475522602433
3703.3943,4.987866151876289,27.731927822977003
3704.2483,4.9791088224966185,26.19358520606616
3705.1003,4.971199649995428,27.200122822603163
3705.9526,4.964976683071727,27.06196753075063
3706.8074,4.959778855141235,30.19106444257982
3707.66,4.953289692045171,29.48953591787679
3708.515,4.943706549358184,22.72560325953032
3709.3682,4.932691700055165,28.776275466245334
3710.2234,4.9248844742782705,33.68860200137357
3711.0771,4.9240877465873485,23.97152696588314
3711.9307,4.929339218872901,36.13228307313076
3712.7866,4.935144744773149,16.344496143546507
3713.6409,4.935126040597961,31.5260872980057
3714.4973,4.925997915370862,28.790798836587527
3715.3518,4.9089559521091495,38.59890410379577
3716.2085,4.88815243145112,26.6100123006873
3717.0635,4.868358616009882,27.699879107267982
3717.9185,4.852419891926188,34.44929477073836
3718.776,4.840883443059695,24.515016351722608
3719.6313,4.8333888502279,29.24919627656527
3720.489,4.830038398190276,38.76210779726256
3721.345,4.831535059530332,40.4582714342325
3722.2031,4.83770600542802,23.17901188927757
3723.0593,4.846530643777299,34.68009837657194
3723.9158,4.855007581527252,29.33607145611573
3724.7747,4.860930966910441,24.56129092351015
3725.6316,4.8639966944360635,22.403896492349585
3726.4905,4.86533083462058,22.541293077137503
3727.348,4.865654881084937,29.855690341872155
3728.2073,4.863850924711436,33.790250755394766
3729.065,4.8571046008256795,33.410098451684775
3729.9229,4.842913283576419,25.683737540230748
3730.783,4.821737484845472,30.212053248973447
3731.6414,4.798220375033266,29.708084573527504
3732.5017,4.77860571230748,30.525013480928752
3733.3604,4.7669028584551745,30.271438709946956
3734.2214,4.7620480883429455,29.47865061142163
3735.0803,4.759552566027501,26.10290410761403
3735.9417,4.755288596069792,30.782704410935832
3736.8013,4.748062842737598,39.64402119083616
3737.661,4.7385793214047975,30.208339882791172
3738.5227,4.727176355782421,27.36362391785346
3739.3828,4.713493048281998,32.163951209171515
3740.245,4.697623234606622,41.13693104999656
3741.1055,4.681267761636288,26.927778047524257
3741.9683,4.667072817619695,27.214555361394506
3742.829,4.658067186806474,31.376381558702562
3743.69,4.656261851198145,43.13244884453332
3744.5532,4.661392629068539,38.0629266959503
3745.4148,4.670199481308144,32.3615161962433
3746.2786,4.67780740553477,31.641237823644627
3747.1404,4.68002991768873,29.653014936086567
3748.0044,4.675430039515837,32.91764100783622
3748.8667,4.666257576657396,27.121667904050994
3749.729,4.65802711737331,32.0422720275219
3750.5938,4.656829072834683,28.96366579233165
3751.4565,4.664834551860386,28.414553577337244
3752.3215,4.677755543807885,30.493822130251992
3753.1848,4.687561888800563,28.25729660518455
3754.0503,4.689074066315057,28.814519234362304
3754.9138,4.683907055308626,31.848264662241593
3755.7776,4.678382531306273,41.259176028042056
3756.6438,4.677593775937142,30.61856252588344
3757.508,4.681480552906192,25.96657597557456
3758.3745,4.685862748139304,29.10108703293682
3759.239,4.686224410951662,34.315981802340985
3760.106,4.680286996037044,34.375510501670675
3760.971,4.667917691220981,26.25387302573272
3761.8362,4.649944490511708,29.89952816608797
3762.7036,4.6276774143100115,31.808573181994916
3763.5693,4.603173423926869,35.485118581141315
3764.437,4.578701508802937,36.780014166001315
3765.3032,4.5567342813458795,35.55603228534949
3766.1714,4.539372355700951,34.28430356061352
3767.0378,4.528490538549694,28.376670335708074
3767.9043,4.524920068591982,38.27851943663487
3768.7732,4.5279658913421095,30.821095135254605
3769.6401,4.535181411470808,34.4588536224982
3770.5095,4.542887337671266,28.37696959250419
3771.377,4.546741002929668,36.085596816095475
3772.2466,4.542898249386815,36.24956993743878
3773.1145,4.529740337423219,25.697760098496726
3773.9824,4.5094896750798545,32.16814399729909
3774.8528,4.4879003659884775,29.184634463157035
3775.721,4.472012504206935,38.45007851218789
3776.5918,4.466951221545836,41.98134201884913
3777.4604,4.474815420202778,32.74962177876534
3778.3315,4.494340932860007,33.54536278434321
3779.201,4.520632587593956,35.66366441381798
3780.0703,4.545871396771085,30.072600813681767
3780.942,4.561639056059079,34.104928810138624
3781.8118,4.562811242392179,34.38032155245938
3782.6838,4.550576407691364,32.56625494242464
3783.554,4.5314614191029445,34.04608506844843
3784.4265,4.512916474405438,39.46460517586206
3785.297,4.499314611299378,29.402947445720432
3786.168,4.490176879759195,27.28560705123985
3787.041,4.481937610757043,33.061321249893524
3787.912,4.470768402488052,33.15542038271387
3788.7856,4.454648308589244,40.26267380916678
3789.6572,4.434311160364399,37.36430028994549
3790.531,4.411991711988282,31.539543133175805
3791.403,4.3901238034802885,37.681906916216725
3792.2754,4.37017705253512,30.912975752261
3793.15,4.353335963897174,34.39716758484924
3794.0225,4.341224738086456,33.61263513517363
3794.8972,4.335138875614451,39.5590630060338
3795.7703,4.335025008305736,42.167563804573774
3796.6455,4.338874279642064,40.55073282971105
3797.519,4.343645457587401,38.78112667189348
3798.3926,4.346978294520408,34.35632116149776
3799.2686,4.3485188415459435,37.484054056802115
3800.1426,4.350007998999118,35.78136732639315
3801.0188,4.353805126446206,40.47287426321803
3801.8933,4.360587950170044,41.517562525111416
3802.77,4.368368000160604,45.473076663038476
3803.6448,4.373836637395304,33.1510207919471
3804.522,4.375386601517899,37.2962819686613
3805.3972,4.374568618502222,37.69525879913852
3806.2727,4.374782703665491,37.41359853791348
3807.1504,4.378596796838307,34.24047680822017
3808.0261,4.38631138820989,37.6849089594297
3808.9043,4.396425862946386,35.921389144371844
3809.7805,4.406463932112265,34.98716913562679
3810.659,4.414234771343159,34.76134106488104
3811.5356,4.419101832005758,35.206839454383584
3812.4126,4.422814276599202,33.58199033890146
3813.2917,4.427872015587252,37.27142819879792
3814.169,4.434688639895698,26.66594794890413
3815.0483,4.440868148637603,24.71755694388069
3815.926,4.4433972936743125,38.34398116938346
3816.806,4.4414008859295,27.27528985676922
3817.684,4.43624336823322,34.30900663117028
3818.5623,4.429508975922288,32.60262032650762
3819.4429,4.421294032315059,40.09560654834357
3820.3215,4.410362575600557,35.54169944900598
3821.2024,4.395235459500011,40.810780915618096
3822.0815,4.37545695660593,38.93440671955958
3822.963,4.351490015675636,35.57793862870565
3823.8423,4.324760091666927,33.75314299564707
3824.722,4.29693787066022,38.016108344003094
3825.604,4.269450325862823,45.21168958804942
3826.4841,4.242616217199054,37.49252279155776
3827.3665,4.214706893008937,43.446195620580404
3828.2468,4.18384031433287,37.232572633736055
3829.1296,4.1498873828700695,33.36562877584968
3830.0105,4.116111596935881,44.194671325729345
3830.8916,4.086696095147625,50.700602339070755
3831.7751,4.063825888379204,44.290147425427094
3832.6565,4.046403484723886,47.536430676022604
3833.5403,4.031319011721751,36.829576522273996
3834.4224,4.016740929467493,38.77898962662452
3835.3064,4.003192990730947,48.564545074436694
3836.1887,3.9928149865332894,38.76575149298955
3837.0713,3.9872850076297155,34.372723655054294
3837.956,3.9870292140672188,42.711358797900544
3838.839,3.9916561059362157,49.536060573283166
3839.7244,4.001049235836887,49.594706315452
3840.6077,4.016002203840659,35.07481903176712
3841.4932,4.038179865212086,45.57474070209241
3842.377,4.068544048960386,48.389341306989735
3843.261,4.106039797754961,41.70791566783077
3844.1472,4.146859042959095,35.36996871323019
3845.0315,4.1850945920360925,33.91536648001282
3845.9182,4.215508025975432,38.94995790932105
3846.803,4.235030755588935,34.989600396476916
3847.69,4.244716082530814,43.66624471444309
3848.5752,4.249131031711154,44.47400913642882
3849.4604,4.254334729637103,38.0437286238271
3850.3481,4.264592171710763,41.54598277217743
3851.234,4.280317874144543,38.06201943927282
3852.122,4.299054422733783,40.93517765862687
3853.0083,4.317580455274325,31.120845683891552
3853.8967,4.333620341203134,34.465155030181364
3854.7832,4.34491605285513,31.857733035373293
3855.6702,4.348720428642831,30.0867174081321
3856.559,4.342691568962204,41.29657831376518
3857.4463,4.327510948764686,33.940656000837414
3858.336,4.308100629186845,32.68561059392724
3859.2234,4.292188170345592,34.838846226090105
3860.1135,4.2860337153808254,37.027942941290235
3861.0015,4.291468758674209,36.83464773125478
3861.8896,4.305693330236386,34.72793094053443
3862.7803,4.324083548823865,34.465964726516965
3863.6687,4.342449491781183,36.21034649244422
3864.5598,4.357696516713539,29.17156370813612
3865.4487,4.366500156237365,36.53842447275466
3866.34,4.365570550557329,31.73347678487142
3867.2297,4.352991657103478,29.41279027622651
3868.1213,4.3295624225739875,31.47978643517718
3869.0112,4.298606327767752,41.1262938286349
3869.9014,4.264044683933421,29.001814446080097
3870.7937,4.229105154706918,39.71282326581523
3871.684,4.195941141084609,45.191500648748566
3872.577,4.1647387533699485,38.44586070661557
3873.4678,4.134312589399384,43.539965747109854
3874.361,4.102108602552903,29.1745248921142
3875.2524,4.065945621415329,38.21191395995225
3876.1438,4.024241905633381,46.80061033985813
3877.0376,3.9763065026447872,39.98004373099206
3877.9297,3.9229452326611995,31.980231460920308
3878.8237,3.866063860304283,43.282449008940425
3879.716,3.8092303810699293,45.88009163043195
3880.6108,3.7552652057220635,60.88143500423662
3881.5037,3.7057513198856564,58.739636049562776
3882.3965,3.6599652434380086,52.07464151875277
3883.2917,3.6162408112488014,54.261721730669755
3884.185,3.573216974596091,42.81540376402307
3885.0808,3.529603821302786,64.23699730650162
3885.9746,3.4857017007480233,46.49137095265208
3886.8706,3.443279597457301,54.2940326855715
3887.765,3.4061483415735556,55.85622650651039
3888.6592,3.3779727537382653,53.01468457046272
3889.556,3.3609604941926525,53.4945279927435
3890.4507,3.355542582997122,64.81308410380475
3891.348,3.360964015502645,73.92789521187908
3892.243,3.3764698109343074,62.99244248710302
3893.1406,3.4020289335864096,60.13450443563785
3894.0361,3.437809177701943,50.00578654914864
3894.932,3.4835132417997774,64.39119701898419
3895.83,3.536939400446214,51.5437607303147
3896.7263,3.593347245494721,52.02879337029555
3897.625,3.648136041510929,43.477996003117745
3898.5215,3.6981642119633134,44.60484255263231
3899.4207,3.7438334785135443,46.33932768655061
3900.3176,3.7870350854368886,54.80081377977575
3901.2148,3.8303620882361207,51.865034553326936
3902.1145,3.875682959737066,46.21790773320716
3903.0122,3.9234245392482263,43.373381154419604
3903.912,3.972951071790074,50.28649111136532
3904.8103,4.021520580483723,34.36808893923505
3905.7107,4.066053779290662,33.26148910517503
3906.6094,4.104115768054037,38.1641453830234
3907.508,4.135595072912395,41.78457914854259
3908.409,4.1616156999384835,39.08206254880955
3909.308,4.183224720123832,30.631376188112604
3910.2097,4.202029268033386,41.11814741919545
3911.1091,4.220873827080638,39.34643529822169
3912.011,4.243799070289323,40.77092410709427
3912.9111,4.273064086842465,39.5382529457575
3913.8113,4.307414831384438,37.80575330677891
3914.7136,4.342924882567586,33.50895636555678
3915.6143,4.375656525621132,33.66754710625108
3916.517,4.4040767032973065,38.629553942827556
3917.4182,4.428065225947375,32.60603878589739
3918.3215,4.448279332558024,36.41518204484503
3919.223,4.465447576601471,31.10589667937426
3920.1245,4.480670692019744,37.97780008490841
3921.0286,4.494513961719983,34.84934975159534
3921.9307,4.506310882419337,28.09208525301782
3922.835,4.515224072594593,30.610448199634952
3923.7373,4.5216531275852105,34.41573640448701
3924.642,4.527697636925627,26.004687675659927
3925.5452,4.5354153434718505,36.595553416667904
3926.448,4.54518842224755,33.92352258891844
3927.3535,4.555558706103497,31.889235230355155
3928.257,4.564231796358827,33.0016507435462
3929.1628,4.569239311934206,30.50658892634378
3930.0667,4.568976293390568,28.69228470270598
3930.9731,4.5620602212411665,27.04682753986839
3931.8774,4.54741475663432,32.220312084536864
3932.782,4.524755781244503,32.286384613625096
3933.6887,4.495387892191235,32.231044975976296
3934.5938,4.462767019650632,28.76106057345445
3935.501,4.431275792004554,32.31370117901162
3936.4062,4.405305890367461,33.00737019240964
3937.3142,4.387426495060595,32.502807169719645
3938.22,4.37789125611168,37.98705430293606
3939.128,4.373613428723868,37.26810910791245
3940.0342,4.368892424469239,32.84695335700373
