wavl,flux,ivar
3566.9744,2.110084286372478,141.19196788528
3567.795,2.099974760878293,116.83946832536316
3568.6177,2.086722297493077,131.86601376546872
3569.4385,2.0718605001448314,168.23651271738385
3570.2617,2.0572904329298938,128.45775852668493
3571.083,2.0454865900550874,162.2443596007428
3571.9065,2.0385063009907456,102.78939394215175
3572.7283,2.037492997084185,101.32358620540059
3573.55,2.042209524424135,174.8626690382529
3574.374,2.051103857309388,116.76513918586389
3575.1963,2.061421880825902,162.8988892380926
3576.0208,2.070114136421585,108.3727236520481
3576.8435,2.074791896006781,126.7798701299634
3577.6682,2.074626915906896,131.33998970950236
3578.4915,2.0701936408423887,111.9584786122113
3579.3145,2.06289849161043,115.32705023999786
3580.14,2.0543926159312242,282.7491974031235
3580.9636,2.0463802444449604,119.52660118847965
3581.7893,2.040277263443952,131.1172800711426
3582.6133,2.0371356102496163,108.21157702728514
3583.4395,2.0373120897415777,142.21297480575012
3584.264,2.0403112795298597,129.47314408904688
3585.0884,2.04481007161108,115.46503985448234
3585.915,2.0492219579644924,120.55563424164116
3586.74,2.0525223462348223,145.90857012651938
3587.5671,2.0548303297743518,118.1323219981223
3588.3923,2.056964968285914,135.32963141101374
3589.22,2.0595386578590404,158.7398558978632
3590.0457,2.062183211483419,110.23613447952602
3590.8716,2.063582518088995,160.45984740344403
3591.6995,2.062027097130688,113.8262181842143
3592.526,2.056389488131709,117.81928770592344
3593.3542,2.0471058669159072,108.86232647342439
3594.181,2.0366858159686854,153.17094338047175
3595.0098,2.02860999303591,206.23601101750046
3595.8367,2.025418504899965,169.06537599856054
3596.6638,2.027016100996846,118.15237158203868
3597.4934,2.0311849117147056,130.3557937220077
3598.3208,2.035368374638774,127.54733679244139
3599.1506,2.0382120328076563,112.24976867395027
3599.9788,2.0395233550882557,126.30649881624285
3600.8088,2.0396731134284685,119.85039954701473
3601.6372,2.03924538949909,142.82194789630296
3602.4678,2.0390061493428804,129.1253500989184
3603.2964,2.039576896772165,97.45822109538602
3604.1252,2.040932944108894,137.2161487439271
3604.9565,2.0424274129580215,104.24674011887804
3605.786,2.0435037544471517,129.44351490391793
3606.6172,2.0444686918221247,141.89419772445098
3607.447,2.046343065752367,152.5728461328663
3608.2788,2.0498146866712657,116.5416392619808
3609.109,2.054106465986991,140.62926013369076
3609.9392,2.0569919473035405,111.35119640853999
3610.7717,2.055943953440081,122.83534531211939
3611.6023,2.0496525625315116,126.78664553870162
3612.435,2.038676915520653,155.18687185413398
3613.266,2.025179952631539,121.23397347258836
3614.0994,2.0118328706644357,141.50673637498187
3614.9307,2.001150404961311,122.9941803795614
3615.7625,1.994552976395079,158.29430662267492
3616.5962,1.9920583191270254,121.60717872121919
3617.4282,1.9922706234616478,145.16276130203755
3618.2625,1.9930204228381139,117.8750388551276
3619.0947,1.992410007860278,131.80004373706564
3619.9292,1.989628059230488,135.91263534233468
3620.762,1.9850868798961183,125.83734628032347
3621.595,1.9797802418931603,169.24500605586547
3622.4302,1.974462149373813,134.55096664323435
3623.2634,1.9692791801311447,118.8669154074657
3624.0989,1.9638964818883395,155.13612032417865
3624.9326,1.9581111107014797,132.6036956536307
3625.7686,1.9521038521211547,122.27646158519211
3626.6028,1.946595914963209,161.88065613307546
3627.437,1.942500318753003,145.11499909367424
3628.2734,1.9404106826055216,149.24631128754464
3629.1082,1.9399365151611179,188.41087580384885
3629.945,1.9394711223262695,111.81283545250564
3630.78,1.9369497892109386,134.84008053761835
3631.6174,1.93115529664875,134.22880755771928
3632.453,1.922733236086777,141.13246285654017
3633.2883,1.9138579800560533,176.72260681604004
3634.1262,1.906965427047168,133.29614103820558
3634.9622,1.903453202392835,135.1171716243487
3635.8005,1.9031493107647564,134.2817774628261
3636.637,1.9050371336297578,142.28900009109572
3637.4756,1.9081124830652172,170.02354499321953
3638.3123,1.9115774098193308,139.1615095420053
3639.1492,1.9144567177345209,159.4589694795601
3639.9885,1.9152899677708535,137.3877440211388
3640.826,1.9126261923652115,136.40065569049685
3641.6653,1.9059912928453184,183.65663133833522
3642.5032,1.8964384065498125,163.6961513448048
3643.343,1.8859016819026757,155.60424125451684
3644.1812,1.8761855250622312,193.03052352706766
3645.0195,1.8681364521521258,136.04351105652785
3645.86,1.8620584674346528,165.49169903313071
3646.699,1.858416397328696,168.357584096
3647.5398,1.857724453139453,146.12378287683308
3648.379,1.8597574059490798,147.1643819476712
3649.2202,1.8628925368954796,141.65451032826903
3650.0596,1.8646676469469388,140.96207483345233
3650.8994,1.8634454863160101,128.48810777991739
3651.7412,1.859698021040521,168.21501005937924
3652.5813,1.8558358151431589,187.27231073481315
3653.4236,1.8543671805386288,160.99059643539698
3654.2642,1.8560068682779918,138.05106265549836
3655.1067,1.8591951672160671,143.01093208109802
3655.9475,1.8614245683305608,168.10617693474921
3656.7886,1.8611306773342127,121.39250948430853
3657.6318,1.8585020493158662,170.61718234565487
3658.4734,1.8549769760344985,170.66056226607097
3659.317,1.8519990871350729,128.5360147531493
3660.1587,1.850157568227897,207.18676099365427
3661.003,1.8490641861190522,139.46949660678527
3661.845,1.8480928506937955,156.85646598853359
3662.6875,1.8472047580323903,159.7427216587182
3663.532,1.847145391054153,163.41827205208656
3664.3748,1.8487695204229038,159.32892854879145
3665.2197,1.8522261714836936,142.45155537203271
3666.063,1.8567124218134137,189.25058461250362
3666.9084,1.8609262907342727,146.96427942419817
3667.752,1.8635377103616446,180.2567650997484
3668.5977,1.863702435994469,176.42659291421222
3669.4417,1.8613320046126731,151.22756771694324
3670.286,1.8570483210728457,145.57018150270997
3671.132,1.851544477249271,159.0070450472551
3671.9768,1.844957022959778,150.89843055259735
3672.8235,1.8368940911454898,165.8293639310945
3673.6685,1.8274650786771016,179.26016686342462
3674.5156,1.817751927609841,153.4663256661618
3675.3608,1.8094130108577244,192.8233291053054
3676.2063,1.8033752821294267,190.82890844464598
3677.0542,1.7994806645701238,145.44465464571098
3677.9,1.7970989664331531,162.8206677077174
3678.748,1.7959167111576573,187.02202836954
3679.5945,1.7962479822306008,188.3928926539231
3680.4429,1.7985902950475354,154.89402052427457
3681.2896,1.8029674336369312,143.76505749000552
3682.1365,1.808597572179406,165.74172163952852
3682.9856,1.8141888708136755,143.25037257497038
3683.8328,1.8187476374276115,149.69344245246847
3684.6824,1.822326063525672,170.08376387421487
3685.53,1.8256014845258741,188.61914203713448
3686.38,1.8288231106293484,172.42380186292127
3687.2278,1.830985853644399,167.19685121070341
3688.0762,1.8304607916093694,165.4009866739052
3688.9265,1.8264509088863903,154.36552787369104
3689.7751,1.820039775908475,162.03916959580837
3690.626,1.8136213009262605,182.8460574240473
3691.475,1.8094972571731267,154.92184429543977
3692.3264,1.80861188647001,194.28563015619702
3693.1758,1.810436127301821,158.71742609376622
3694.0254,1.813381253706079,174.23120579704025
3694.8772,1.815356263301317,158.63387642131266
3695.7273,1.814382294897725,182.89433322190598
3696.5793,1.8094269672950405,152.70395803269625
3697.43,1.8010946903303493,173.65174738949415
3698.2825,1.7915681103847514,147.91230622148916
3699.1333,1.7838626380927698,181.71249078054447
3699.9841,1.7802374991274372,186.44977296794326
3700.8374,1.7809749720194243,188.48731417773342
3701.6887,1.7840725144831762,174.67746634851056
3702.5425,1.786428179160174,135.2003745298383
3703.3943,1.7857792835752528,177.437089813362
3704.2483,1.782101030775416,177.34801429945713
3705.1003,1.7773698543977217,169.14047687285395
3705.9526,1.7738979092927423,175.05629976664903
3706.8074,1.772721127287289,163.1728305515907
3707.66,1.7731809506385232,164.89043978538325
3708.515,1.7738585591868103,169.48249681682964
3709.3682,1.773888058373361,174.0297676842665
3710.2234,1.7735184879533383,177.65470883282853
3711.0771,1.7736858360183356,181.18802433529538
3711.9307,1.7751288387052913,189.33838220120688
3712.7866,1.777671977618436,209.1460532665939
3713.6409,1.7800202124506177,158.55091104708023
3714.4973,1.7804363288036467,160.5390055413971
3715.3518,1.7779338019740183,167.49562523998088
3716.2085,1.7731407474831153,182.02329736676305
3717.0635,1.7680007854485944,164.06483047363088
3717.9185,1.7643872870847783,183.33970275114575
3718.776,1.7629435363447707,224.83233078522838
3719.6313,1.7628953858180207,169.10896682239547
3720.489,1.762808868849143,152.84715135680068
3721.345,1.7616233483340493,183.60188278223555
3722.2031,1.7591128694571976,170.11327474046524
3723.0593,1.75562033699709,184.8363553085021
3723.9158,1.751420616689971,188.70900716660736
3724.7747,1.74646693620743,170.80391556662187
3725.6316,1.740698051259227,184.9531629063874
3726.4905,1.7343368657216296,200.67571618573095
3727.348,1.7280309777000118,168.53092307113891
3728.2073,1.7224241387001749,224.17861742876303
3729.065,1.7179641059878024,168.233610676408
3729.9229,1.714894690289955,185.69277053156674
3730.783,1.7135452965873066,202.06109999258678
3731.6414,1.7142560281164092,206.00633149479756
3732.5017,1.716931095446028,205.05126575681146
3733.3604,1.7207194065098081,157.1527541296785
3734.2214,1.7242912710035834,201.6203798063285
3735.0803,1.7264377418706425,237.23102027452333
3735.9417,1.726756746872438,165.89253994565374
3736.8013,1.7258036401614594,200.66113251667483
3737.661,1.7246927717335423,206.59118670022036
3738.5227,1.724262860198886,178.4645466876936
3739.3828,1.7244419902192878,187.15942427028568
3740.245,1.7243287248809254,178.94859908642928
3741.1055,1.7229110770115497,188.59211100088763
3741.9683,1.7197364929057162,200.26850641442067
3742.829,1.7151188005628994,212.69782169897937
3743.69,1.709859122063944,196.55929525879034
3744.5532,1.704987300009246,161.53493572163921
3745.4148,1.7016235145153786,184.89479482618927
3746.2786,1.7006386673357519,193.98379658736218
3747.1404,1.7022805312942277,239.1803660146985
3748.0044,1.7058516277590747,207.94726724128066
3748.8667,1.7098681284968276,153.98725049465148
3749.729,1.7127381492351708,191.1914198390452
3750.5938,1.7133679307106633,234.00050887580187
3751.4565,1.7114715413903938,167.80239026015053
3752.3215,1.7075938398905568,199.28503738491187
3753.1848,1.7029807163375394,178.88619428905062
3754.0503,1.6991482141066083,180.72283005195166
3754.9138,1.6973818933494789,178.545930950104
3755.7776,1.6981715052002841,176.10064910923217
3756.6438,1.7011053736935697,182.86206040084915
3757.508,1.704994358887416,202.92862970556158
3758.3745,1.7082328136378404,166.392932834899
3759.239,1.70911622183517,201.21774954302705
3760.106,1.706463171472361,168.51581883282665
3760.971,1.700347557637491,168.252237786053
3761.8362,1.6924499869844503,199.3865772093101
3762.7036,1.6855214216741239,192.11362230046524
3763.5693,1.6820745126971397,206.2892127869564
3764.437,1.6829770416443965,221.99226798675204
3765.3032,1.6871474935488382,185.8666891297289
3766.1714,1.692285812323232,174.74031213736566
3767.0378,1.696038553455413,217.61653865368865
3767.9043,1.6970672324999707,192.27184983794575
3768.7732,1.6954026747352784,169.42588513341676
3769.6401,1.692198504424721,202.8602892777188
3770.5095,1.6888415354527426,196.8688201420153
3771.377,1.6860266621546542,178.17440283935767
3772.2466,1.6833068620246656,183.40880577239346
3773.1145,1.679726056434524,191.362650024552
3773.9824,1.6748949293884214,170.85542488876052
3774.8528,1.669699662422326,202.6079774542941
3775.721,1.6659885867462527,193.32375124106767
3776.5918,1.665258444378311,171.6534836905935
3777.4604,1.667542237789094,226.81337015480642
3778.3315,1.6711946636896446,180.77587918486302
3779.201,1.6738904300567499,177.1540105859314
3780.0703,1.674160884373907,185.56220990628816
3780.942,1.6720903883296225,213.78482993896853
3781.8118,1.6688545783994697,208.87106243250562
3782.6838,1.6656932931795416,195.78342275740962
3783.554,1.6634579286432027,250.57907960499915
3784.4265,1.6626674365826235,252.08471001023293
3785.297,1.6636993144921122,192.76662252684707
3786.168,1.6666877648728118,184.85826998719116
3787.041,1.6713973083681186,180.13943067776088
3787.912,1.6770714310246162,201.13703701879734
3788.7856,1.6825261699340321,198.8531270295993
3789.6572,1.6863931114019979,187.5448034288694
3790.531,1.6879415159697493,209.1589181999671
3791.403,1.6875462459952124,189.49755158762156
3792.2754,1.6863410070679097,210.30509565070298
3793.15,1.6850374915565915,181.14192361636768
3794.0225,1.6830922747399955,167.18399138838973
3794.8972,1.679040340845499,194.53680008624767
3795.7703,1.6718447760709787,180.9558421999227
3796.6455,1.6618868968183809,208.48291090202167
3797.519,1.6510485487317814,203.02017637421142
3798.3926,1.6415747101459168,204.25412683508483
3799.2686,1.6350580293483525,220.7149360448967
3800.1426,1.6319881781876686,195.34244980007765
3801.0188,1.6317493632766125,202.71501892803082
3801.8933,1.633052776921845,218.65950938596092
3802.77,1.6343911712316277,197.4202969730537
3803.6448,1.6346409610959969,209.20226022483527
3804.522,1.6336392250371496,228.7675560091477
3805.3972,1.6322243215822787,205.5609655642848
3806.2727,1.6315131887914789,267.730227206908
3807.1504,1.6319288972712613,254.88600536646496
3808.0261,1.6327968980579273,152.71464292345803
3808.9043,1.6329365523855643,202.5171662015158
3809.7805,1.6317182823824719,196.62152162091382
3810.659,1.6297067223122628,198.22374456280016
3811.5356,1.6284241557168775,228.86217263854027
3812.4126,1.6293799853375088,184.68175487776284
3813.2917,1.633057290354569,195.36934446422373
3814.169,1.638334942110614,161.5266955955597
3815.0483,1.6429346153446573,228.1523130391185
3815.926,1.6445446158674724,189.12613357288993
3816.806,1.642170531145661,208.07866442490575
3817.684,1.6366019797016371,187.01985863663518
3818.5623,1.629747358234865,188.90139006107862
3819.4429,1.6233626520610553,192.06669468933362
3820.3215,1.618157102347936,205.10536032757784
3821.2024,1.6136709578062371,238.4656992567209
3822.0815,1.609228444201631,218.06440379954216
3822.963,1.6047690725649986,264.6533308015553
3823.8423,1.6010679024267875,212.9523172240377
3824.722,1.5989093216988213,208.44777173238128
3825.604,1.5982184189216315,224.98554348813457
3826.4841,1.5978372743895646,228.9965078936623
3827.3665,1.5962487205283449,210.70842007727597
3828.2468,1.5927642757511729,190.38646556515206
3829.1296,1.5881766367225596,194.2371101170644
3830.0105,1.584419079002735,272.5578952616477
3830.8916,1.5832330326213777,244.26050544787964
3831.7751,1.5851220649654516,222.23496641792372
3832.6565,1.5892479177261707,214.82890270586134
3833.5403,1.5943081134810984,206.42771147462543
3834.4224,1.5992323826837225,236.61128831095752
3835.3064,1.6033267699874196,187.88389129434023
3836.1887,1.6058787990413135,213.3245746370352
3837.0713,1.6061913369415926,211.90831025935057
3837.956,1.6039211534810218,216.69253892609973
3838.839,1.5994819008295906,188.2669394307074
3839.7244,1.5939655937543789,199.36470538392106
3840.6077,1.5888160618552947,187.87344510178383
3841.4932,1.58527598002996,245.36565686105973
3842.377,1.584156211246355,195.19570541366693
3843.261,1.5856558606293178,214.74026358397398
3844.1472,1.5894252916658778,246.16486832353087
3845.0315,1.594574314884128,216.04488227675165
3845.9182,1.5997988999900263,223.82116422345635
3846.803,1.6034341819963471,232.25633769414227
3847.69,1.6039429069886666,237.75545940497614
3848.5752,1.6005483403015968,153.66425251376256
3849.4604,1.5938885141627837,183.2261989260609
3850.3481,1.58597192201529,204.3356434020326
3851.234,1.579357648683443,228.2962670434471
3852.122,1.575680776891258,255.0675908386103
3853.0083,1.5749444098999994,253.40072847985962
3853.8967,1.575730520995174,232.93818742273388
3854.7832,1.5762952506529904,238.48016387350702
3855.6702,1.5755956123699633,205.51161239172401
3856.559,1.573654702446069,209.8075402983925
3857.4463,1.571245643816872,198.73544233644066
3858.336,1.569154491308715,249.70136225127888
3859.2234,1.5676494089144688,212.76810617024188
3860.1135,1.5663617514696095,241.29543258165955
3861.0015,1.5647241016774873,213.52937075636692
3861.8896,1.5625001847043085,213.6272707022254
3862.7803,1.5600774013241612,258.0217535009851
3863.6687,1.558259973238067,215.85780242421288
3864.5598,1.5576419459424657,242.24342356734192
3865.4487,1.558175235091323,209.539423919371
3866.34,1.5591804197340602,244.7314636759579
3867.2297,1.5597547149104678,215.60988383429535
3868.1213,1.5591775178051643,206.23710898294735
3869.0112,1.5570742617922804,217.99219850153335
3869.9014,1.5534690700932514,239.14999493824953
3870.7937,1.5488808490944812,213.3772938481076
3871.684,1.5444071066367484,249.22785805557615
3872.577,1.5413436381761152,203.28993936405482
3873.4678,1.5405518707904489,268.42551607155826
3874.361,1.5417453422474305,229.15376031180642
3875.2524,1.5435795164127066,221.38255643698886
3876.1438,1.5446385807403684,199.5181084811816
3877.0376,1.5445253131322645,233.13572043454909
3877.9297,1.5440144892311722,241.1005997987878
3878.8237,1.5440868087931316,221.18644477566193
3879.716,1.5448246382848836,193.4453644925648
3880.6108,1.5452160019925785,225.68988731908706
3881.5037,1.5439303644367903,201.94100735206314
3882.3965,1.540325755507383,207.68023870410443
3883.2917,1.5348658753745046,248.23281042820054
3884.185,1.5288881264732357,220.9045900203515
3885.0808,1.5238169753869975,230.82391861368473
3885.9746,1.5206175623917546,247.4321898952426
3886.8706,1.5193216988033964,251.35870587320997
3887.765,1.5190693710072445,265.6510023549629
3888.6592,1.5185542503908838,224.07463649215654
3889.556,1.5168812777392384,237.81729805010826
3890.4507,1.5142107213226086,236.1019152968436
3891.348,1.5115182366836957,234.39951932196757
3892.243,1.5097291294588318,243.980343506035
3893.1406,1.50893964310274,217.09604137658366
3894.0361,1.508563870631353,256.69827064854564
3894.932,1.5080166737536802,241.22050012804021
3895.83,1.5072481313245816,227.74210838455957
3896.7263,1.5067020648761902,214.94740456263122
3897.625,1.5069318090964647,238.409866866691
3898.5215,1.5083176261891116,234.49618582595306
3899.4207,1.5109857330257432,240.51113817827334
3900.3176,1.5147171328278688,279.82788799910855
3901.2148,1.5188861575210382,239.53190293749466
3902.1145,1.522490122303433,247.55371785482976
3903.0122,1.5245595361944853,223.23157495778747
3903.912,1.5248916376361294,232.7865660854224
3904.8103,1.5243221097923172,283.79282361812193
3905.7107,1.5242082916027868,239.9782222282041
3906.6094,1.525360125478085,223.6635465747872
3907.508,1.5273939079123418,243.19278900445303
3908.409,1.5291414624263462,234.8515337786267
3909.308,1.5296395458391898,222.41232935103392
3910.2097,1.5287605739719439,204.87234588197978
3911.1091,1.5269922553797866,283.2035991908416
3912.011,1.5248700265354873,248.67707537868702
3912.9111,1.5227239321379011,221.14997590430855
3913.8113,1.5206920687461343,261.5652469147665
3914.7136,1.5188523806521146,237.30564169155173
3915.6143,1.5173496243375248,226.17691164311572
3916.517,1.51649093967391,219.64160764433666
3917.4182,1.5167163809296704,242.20350712346684
3918.3215,1.518197888957197,231.43728627280643
3919.223,1.5203866551887,218.51068485023887
3920.1245,1.5220902336846733,234.7469181050797
3921.0286,1.5221680579722012,223.98399113950876
3921.9307,1.520364602486994,218.70941359970686
3922.835,1.517543023960471,230.33340489141537
3923.7373,1.5151379861921517,244.48620136633104
3924.642,1.514160157425128,297.2174424213203
3925.5452,1.5145698195358268,219.90603864703604
3926.448,1.5153676578308866,280.89848813377864
3927.3535,1.5154092911177326,240.55767338191103
3928.257,1.5142379169728304,232.0972856905307
3929.1628,1.5122635280689074,232.66941888867134
3930.0667,1.51024440250325,237.54220710990302
3930.9731,1.508601672072975,256.49299930391567
3931.8774,1.5072496837373115,266.32923154521177
