wavl,flux,ivar
3566.9744,6.359708816485456,19.431844108827928
3567.795,6.360463112722256,17.081069170772487
3568.6177,6.352347314288966,18.692253767100873
3569.4385,6.345319486336862,24.810167448919064
3570.2617,6.345439199898888,15.795760719196796
3571.083,6.348755636862481,26.62274422831247
3571.9065,6.34534289388981,13.094120856640638
3572.7283,6.328548719854744,18.50118154036051
3573.55,6.300064368895007,16.108614286269713
3574.374,6.26691954442687,19.88164524393479
3575.1963,6.235048416323482,16.264090897678834
3576.0208,6.205553421386465,14.54478126216458
3576.8435,6.178961433510854,19.688465318367346
3577.6682,6.160133350751417,30.34393389157691
3578.4915,6.158153041365537,21.406281040337163
3579.3145,6.178780681023663,23.023111213899355
3580.14,6.218437101415747,23.758256095440576
3580.9636,6.26477930143674,22.034906934411268
3581.7893,6.304835899974851,15.264508440619275
3582.6133,6.331862803116722,14.123556340852375
3583.4395,6.348062866775659,19.86983304547253
3584.264,6.3595141926572945,16.72901720186985
3585.0884,6.369338513330637,17.360911906243807
3585.915,6.374121855902382,24.58711634711631
3586.74,6.366967061661317,13.476586590407173
3587.5671,6.343631491855376,17.114267910293137
3588.3923,6.306346733109122,26.351407549194068
3589.22,6.262391738240225,16.649177140004145
3590.0457,6.2212696115021435,18.554872731655607
3590.8716,6.1905218028596956,17.933626948472508
3591.6995,6.173799440762951,16.950910035575593
3592.526,6.169317765539313,23.751136625113965
3593.3542,6.169670590389076,23.475173485335986
3594.181,6.164853107596413,16.424378279553558
3595.0098,6.147523946138482,16.41296536405653
3595.8367,6.117731041520984,16.11464083883762
3596.6638,6.0828194246679494,18.127451044106323
3597.4934,6.052895713186398,23.210362609800015
3598.3208,6.03473110824102,19.856507431895306
3599.1506,6.02721601066503,16.847848223349185
3599.9788,6.022808223165989,17.343639573927987
3600.8088,6.0130528566088115,20.391835602793464
3601.6372,5.995381304899087,20.690837195978034
3602.4678,5.975233643995655,24.434846527476864
3603.2964,5.962465984873683,22.548040095871585
3604.1252,5.964655226729676,18.063381033637825
3604.9565,5.9839484547816255,27.774648549170735
3605.786,6.017432382985972,27.128383482198522
3606.6172,6.0592643700766775,22.548650608633046
3607.447,6.100946557139496,15.53407939490403
3608.2788,6.1335373070492585,14.89290328121641
3609.109,6.150711574290847,21.213007902647966
3609.9392,6.152362704748398,25.585324211501103
3610.7717,6.143348091293021,22.846930314815154
3611.6023,6.129695850823179,24.20353555268636
3612.435,6.115221916448465,17.425281067682974
3613.266,6.101457154070467,19.83721005353289
3614.0994,6.0887931571084986,22.356536029296457
3614.9307,6.077946508539486,23.137904335011644
3615.7625,6.069922489811976,26.879846256386145
3616.5962,6.065316488866983,23.06337773755064
3617.4282,6.063097197012468,25.23463297560805
3618.2625,6.060253740580837,19.26295462494407
3619.0947,6.05327353466616,18.01743352989881
3619.9292,6.0402932807180125,15.389227862151206
3620.762,6.022308361273112,21.127957274842476
3621.595,6.0017898848827596,15.943107342740197
3622.4302,5.980439836743881,23.35237078631582
3623.2634,5.958020237365831,15.05774410862409
3624.0989,5.932504128146205,21.090465589098343
3624.9326,5.902664639531661,16.391114263968063
3625.7686,5.870547279269715,14.384177454922645
3626.6028,5.84383470458221,19.569249215175546
3627.437,5.832918635736401,18.347725278485658
3628.2734,5.844233902648007,35.433730535787774
3629.1082,5.873733897678767,21.74054703513277
3629.945,5.90830365106779,18.841874511873
3630.78,5.9342747544893335,14.561185901331143
3631.6174,5.9469832406958725,22.520928885928974
3632.453,5.951709147985859,18.8341493062903
3633.2883,5.957612985126161,20.282711073593802
3634.1262,5.969977140311486,13.558281838938708
3634.9622,5.987257674502207,19.438351355196797
3635.8005,6.004186337348174,20.008005312686393
3636.637,6.016348304133449,23.409028948818836
3637.4756,6.02310005664512,17.0464287383316
3638.3123,6.026183979280402,17.348907575131538
3639.1492,6.02685362119246,25.67644699899595
3639.9885,6.0239364499837915,19.932667715256486
3640.826,6.0146653947976745,20.497205987633563
3641.6653,5.997094404518626,23.935491383173968
3642.5032,5.972525531362738,21.742165325679373
3643.343,5.94561418299245,23.197076141222635
3644.1812,5.922851414229008,19.32894304518669
3645.0195,5.9093410673270785,22.898342568116927
3645.86,5.907372302386794,19.173970662260295
3646.699,5.916433421117687,30.877910179334002
3647.5398,5.933774841392747,18.734618544288175
3648.379,5.954202885012286,24.11542142917647
3649.2202,5.970615658949147,19.643318438456767
3650.0596,5.976141943565084,26.89311775684821
3650.8994,5.968412980488794,15.92279856334412
3651.7412,5.951294026315483,17.710805203453553
3652.5813,5.932378733739819,26.862503526388995
3653.4236,5.917208695906616,21.673160412880904
3654.2642,5.9063029227697985,20.39316583400456
3655.1067,5.896490339227404,18.68461035629798
3655.9475,5.885418350607153,17.655993238307076
3656.7886,5.874160450829901,24.394480347596158
3657.6318,5.866468356603265,26.82916698931356
3658.4734,5.865569017170074,27.96694547594217
3659.317,5.871104337400074,14.525651213330157
3660.1587,5.878599195197005,30.39023665018188
3661.003,5.8818989603953025,19.264442803143645
3661.845,5.8770977617214815,18.251779170781813
3662.6875,5.865443626679034,24.117248225839788
3663.532,5.8524649256405405,26.96249786406896
3664.3748,5.843938487981097,18.665655900891462
3665.2197,5.841391274736939,22.208505860604966
3666.063,5.841327506748521,23.436835573991853
3666.9084,5.838429098102014,32.70471897772927
3667.752,5.830034853524507,24.507035637397983
3668.5977,5.817440202071559,22.521442546003417
3669.4417,5.803680362800782,21.162828651439852
3670.286,5.7906997734995205,23.075795976048187
3671.132,5.779403639336954,21.80562406054653
3671.9768,5.771101188684032,23.912920238089665
3672.8235,5.7673639605964055,19.54294848656677
3673.6685,5.768444408828116,21.710269091825502
3674.5156,5.771954212866922,15.659502569469867
3675.3608,5.773607175913839,19.069009322065686
3676.2063,5.769545724965775,20.768848745657092
3677.0542,5.758633288156253,21.65704508496444
3677.9,5.743839360398302,20.922865378541797
3678.748,5.731065495914124,39.67925846812085
3679.5945,5.7259337712559075,22.30349762574676
3680.4429,5.729362873076408,19.433953198035926
3681.2896,5.736030101792272,25.299057717130044
3682.1365,5.736977361186485,23.374941277380778
3682.9856,5.724377484510265,22.619971706035493
3683.8328,5.695715710957691,16.585913633618727
3684.6824,5.655512219756773,17.60541636395174
3685.53,5.615943357388505,27.14307420641843
3686.38,5.593133566065934,32.5523475517963
3687.2278,5.6006121418563914,38.171255190456435
3688.0762,5.6405821399229,18.890767478258383
3688.9265,5.701451556388405,20.800110999769984
3689.7751,5.763202799381831,17.711417905769775
3690.626,5.808878502847617,21.812979945421233
3691.475,5.830657065566494,17.992844655671803
3692.3264,5.830528159705457,21.97384748693633
3693.1758,5.815779555118669,23.91254220509967
3694.0254,5.795209487627301,26.486257762577075
3694.8772,5.776347103197671,17.260774547416403
3695.7273,5.763234190178506,30.641106124837506
3696.5793,5.7547362741392964,17.333683623634556
3697.43,5.7461292478969686,23.86226378043657
3698.2825,5.732773162927549,21.758405201865358
3699.1333,5.713852403290412,23.0938688110794
3699.9841,5.692734651505933,27.631175902814743
3700.8374,5.6745971274059395,22.231163743706546
3701.6887,5.663515290716097,21.638816890041937
3702.5425,5.6604377170786,38.253244097433615
3703.3943,5.66346862615493,22.244720039260013
3704.2483,5.669158727721734,21.84747286148702
3705.1003,5.674125589891375,23.914538048441585
3705.9526,5.675594630720848,22.613129172901733
3706.8074,5.670457299044079,24.713290193400116
3707.66,5.6553708070297315,14.909452272111459
3708.515,5.629332187744562,17.922085674643327
3709.3682,5.597538795667204,22.07285862974414
3710.2234,5.571107247790307,24.870675927688247
3711.0771,5.562648265840712,29.172151265312785
3711.9307,5.578820305246478,19.88632220563546
3712.7866,5.615928703931814,24.60609314835649
3713.6409,5.659593545767541,16.02462231243336
3714.4973,5.690907049312689,23.50168746351428
3715.3518,5.694805474967881,18.48832197823537
3716.2085,5.668403680344154,24.49586976415503
3717.0635,5.6226430166367605,24.458821587947543
3717.9185,5.5760872395121055,22.10225556270519
3718.776,5.5454611855671185,29.44909319446758
3719.6313,5.538825421666124,20.20500304078789
3720.489,5.553588215455199,21.7433367417757
3721.345,5.579737777980661,23.53944951641123
3722.2031,5.605039830301771,23.668049864113563
3723.0593,5.619465048063094,21.963479815328157
3723.9158,5.618372072244481,18.631323628915926
3724.7747,5.602271278402748,21.463568010787565
3725.6316,5.575841924268821,22.027644805748736
3726.4905,5.546565715475955,17.749571119967918
3727.348,5.523529031371291,38.1143350598896
3728.2073,5.513251742052982,25.81587442920932
3729.065,5.515509382531749,25.266506291028414
3729.9229,5.522423168450388,23.28094851141689
3730.783,5.523526667399069,21.550189728782872
3731.6414,5.512684744957284,22.81724788458617
3732.5017,5.491364537045757,19.34867845402683
3733.3604,5.46661061340049,25.20833787132618
3734.2214,5.446234915174677,24.303645556565904
3735.0803,5.436119759492856,23.14699366015449
3735.9417,5.438636578553165,26.204291862681334
3736.8013,5.45197585806948,23.209375485284067
3737.661,5.46975286301049,20.023351207725344
3738.5227,5.483043733697983,18.68801438103102
3739.3828,5.484591634862633,27.16318677758278
3740.245,5.472836425561989,26.460509310177702
3741.1055,5.4526070333373475,23.608683011566043
3741.9683,5.432358175485922,20.793691210476855
3742.829,5.420176092174218,25.28281486393186
3743.69,5.419218245602547,28.805621200193595
3744.5532,5.425987184960536,23.367260605629532
3745.4148,5.4321222900172215,22.4380594697885
3746.2786,5.429681884455083,35.42684539180499
3747.1404,5.416216559694666,23.209612443982625
3748.0044,5.396110952308043,28.510996800904763
3748.8667,5.3777573811693,26.63149900151333
3749.729,5.368490153653545,26.606042579310976
3750.5938,5.371783187951074,29.1313270175895
3751.4565,5.386984116134294,28.752943272254907
3752.3215,5.410459357797767,22.260920851697975
3753.1848,5.4362707350571755,24.373723523126042
3754.0503,5.457781227516277,27.322853744881964
3754.9138,5.469382488754484,21.063975717101908
3755.7776,5.468924498132653,30.45544486345636
3756.6438,5.45792252566833,24.743672998302905
3757.508,5.440339270928766,24.979538305477174
3758.3745,5.420127628683109,28.73019285017486
3759.239,5.400138403484011,29.088012934530894
3760.106,5.381982259749229,22.00719983743957
3760.971,5.367409493242023,28.88150024963335
3761.8362,5.358316053823194,27.427738079685643
3762.7036,5.356106004051499,31.103913305725065
3763.5693,5.36029259746836,28.733802009557348
3764.437,5.367595605930738,27.07945797333807
3765.3032,5.372240382121831,19.877729090727048
3766.1714,5.367873614168825,27.45809349036152
3767.0378,5.350315086634805,23.528806200622594
3767.9043,5.319698707411956,18.352137219470457
3768.7732,5.2805660735743665,28.0372630187355
3769.6401,5.240605532956919,26.700065348454828
3770.5095,5.207684618491375,21.2519272454723
3771.377,5.18878020233543,29.861902839950666
3772.2466,5.187958426222601,33.219173150081026
3773.1145,5.205351844676176,27.62083795964155
3773.9824,5.23647896869912,27.690372107195948
3774.8528,5.2735816276460445,15.979276668738182
3775.721,5.307812042716693,28.10845182771471
3776.5918,5.332811416728904,23.41507909534286
3777.4604,5.345910980933419,23.839170706681912
3778.3315,5.348734220101967,30.236867079079566
3779.201,5.345100078819233,23.328139888512936
3780.0703,5.338535667709309,37.01378148458604
3780.942,5.3305374889787185,25.158155521820195
3781.8118,5.320991543300566,24.142860189661057
3782.6838,5.309437202423117,23.91906666415148
3783.554,5.295692823932568,35.30901428479324
3784.4265,5.278616346328892,39.57061759788815
3785.297,5.255899819928891,22.808034268301768
3786.168,5.225586823255362,29.626045777292873
3787.041,5.188880701135651,20.586012773433445
3787.912,5.1509678701541315,25.93557367997395
3788.7856,5.117698046186473,39.227546134700916
3789.6572,5.0928390606372265,25.459687914787757
3790.531,5.076150720771681,23.883810564920037
3791.403,5.064877645694481,28.419231909671023
3792.2754,5.055029101168798,37.25497464263921
3793.15,5.042774122303247,30.540558493779
3794.0225,5.025904574053917,30.274984671789333
3794.8972,5.005052544680143,28.058370376178473
3795.7703,4.984172615331012,26.374259516027273
3796.6455,4.968431723156654,34.36506805061652
3797.519,4.962006847764129,28.506525126762828
3798.3926,4.966205734042973,27.616948181093345
3799.2686,4.979296495754192,29.03739503641635
3800.1426,4.996735936567661,36.12185257494113
3801.0188,5.012806444492864,31.50408779678679
3801.8933,5.022892142993129,32.101530771832834
3802.77,5.026205215228389,22.95324963064722
3803.6448,5.02604049667855,35.2072837220917
3804.522,5.027691267446298,27.534677661375618
3805.3972,5.03526545124471,36.11028132072909
3806.2727,5.049909250450306,24.045359271896164
3807.1504,5.070253088490434,28.03491730531302
3808.0261,5.093747031992223,35.86046739276119
3808.9043,5.118139411591676,36.64205161775715
3809.7805,5.141312485836823,22.90094468174874
3810.659,5.161794191593069,30.66637172565947
3811.5356,5.178417612169978,21.10427579928966
3812.4126,5.190393761304937,22.462178127364
3813.2917,5.196538056209791,25.23976801154823
3814.169,5.195248491240921,25.60020816749924
3815.0483,5.185802757656557,21.55340141323432
3815.926,5.1701120431448855,30.146998081870066
3816.806,5.152854691723525,28.978656422044367
3817.684,5.139591316550838,29.40043432482512
3818.5623,5.133405221037876,26.583615582517453
3819.4429,5.133366104707262,32.9927712047793
3820.3215,5.135076156217327,27.918922422607697
3821.2024,5.132582450390066,25.773348506832914
3822.0815,5.120325432070229,26.878163623437985
3822.963,5.094519488704832,31.317909344425498
3823.8423,5.05467610427483,31.707091141702975
3824.722,5.004121920358807,32.4608295611006
3825.604,4.9497188620523245,42.66303162393299
3826.4841,4.899820825064251,32.6917452496194
3827.3665,4.859150455698796,26.471167430805878
3828.2468,4.826378105026847,29.326661670220695
3829.1296,4.793792548540096,28.3445700060752
3830.0105,4.752818160585175,23.14337416799342
3830.8916,4.699493143459388,29.132896111272554
3831.7751,4.637410926231797,33.348569413847024
3832.6565,4.575946658408613,33.83985116662817
3833.5403,4.523913170930885,38.81523061509499
3834.4224,4.486538497538473,42.36884565084438
3835.3064,4.4635588276540945,31.98777352006826
3836.1887,4.451937465036267,30.30319704775453
3837.0713,4.448858269649044,31.40952008918615
3837.956,4.4545039933637725,34.670366286130005
3838.839,4.471977833441628,47.47232461813184
3839.7244,4.505134160371947,35.460734320210804
3840.6077,4.555279670124931,30.927709692639297
3841.4932,4.6200826663105214,38.93039738466185
3842.377,4.692688510057788,27.288577509498595
3843.261,4.763980707836526,30.40723451169326
3844.1472,4.824545309913993,35.14524372936257
3845.0315,4.867707238299054,27.562411015655293
3845.9182,4.893669147285578,29.561082533802683
3846.803,4.90930801260536,32.80438908586241
3847.69,4.9253619795079695,34.42876718868396
3848.5752,4.950325289495193,34.31003241032212
3849.4604,4.986673071799144,29.73503040878694
3850.3481,5.031064322529463,30.806209837296276
3851.234,5.0771574433278435,31.71253594039975
3852.122,5.119478590911239,29.303066623073665
3853.0083,5.153635250987392,32.9919354056584
3853.8967,5.177032126786348,22.163027753330525
3854.7832,5.188549586622276,27.64452855325628
3855.6702,5.189511804631336,29.842542305187145
3856.559,5.183048150871313,22.762203950638895
3857.4463,5.1728755698908735,23.93314462459083
3858.336,5.161877329552548,28.691234098788044
3859.2234,5.151876155878016,23.226658523385453
3860.1135,5.143811751028687,31.02797045685991
3861.0015,5.138539818269888,25.31994267221323
3861.8896,5.136852651627147,31.88430778057441
3862.7803,5.138839356083101,28.36461134012961
3863.6687,5.142575130759458,27.66033713797013
3864.5598,5.1440284156733735,27.728019980616807
3865.4487,5.138936784197998,26.366177554142805
3866.34,5.125237471862961,30.223598505018543
3867.2297,5.103769400984418,34.184767176533676
3868.1213,5.076517152977599,23.383171447636606
3869.0112,5.045167346473214,32.35496369588984
3869.9014,5.010193729495262,35.97539200172963
3870.7937,4.97150851293911,35.89750837149385
3871.684,4.929515018079648,24.478610539292383
3872.577,4.884882113746841,26.46603096637663
3873.4678,4.839154029401636,33.5569892308969
3874.361,4.793083954946117,36.97409603109067
3875.2524,4.746835993560164,25.194948778866333
3876.1438,4.699434518139003,31.630039744618912
3877.0376,4.649997928256942,28.431428993030764
3877.9297,4.5987274082973055,39.06006838374981
3878.8237,4.545644669320255,41.141399106218365
3879.716,4.4903748602092115,33.08822488979696
3880.6108,4.430587029826812,47.74388535388958
3881.5037,4.363582605279177,38.301144415245716
3882.3965,4.286971092327434,36.46994590936764
3883.2917,4.200633442487489,44.998685827182534
3884.185,4.107918497838752,48.79182777962829
3885.0808,4.012837429568885,54.478319495291274
3885.9746,3.9200549831173777,60.81863778925712
3886.8706,3.832597355991315,45.51235384169451
3887.765,3.7547806987703605,44.60557081934786
3888.6592,3.6923039250019705,54.51903063350802
3889.556,3.6526570133937986,53.229788400628614
3890.4507,3.6429370008234274,53.75442263387419
3891.348,3.66628382697667,64.87353653999583
3892.243,3.7201715159409225,59.181561993588424
3893.1406,3.7970743573124928,37.96519948353013
3894.0361,3.8853539387713205,40.242925307498474
3894.932,3.9737451708765423,42.79880964048699
3895.83,4.0544099425259965,41.94906924160831
3896.7263,4.125089985482176,38.04106870435152
3897.625,4.190281602170332,53.26034859815842
3898.5215,4.2560353847911525,43.16035914563607
3899.4207,4.326301172052607,45.25759885490126
3900.3176,4.399157944301052,37.72931950399445
3901.2148,4.470536989941348,36.67583395778345
3902.1145,4.538115298353176,37.944370647989615
3903.0122,4.602735938613265,37.67426264676215
3903.912,4.66725958842828,34.38467379198092
3904.8103,4.732026004692254,29.920007343925956
3905.7107,4.795422526137408,29.25917299315868
3906.6094,4.855122241718407,35.20815323450877
3907.508,4.911485218903823,27.957889456161453
3908.409,4.967338777058579,36.62823726905288
3909.308,5.025322028439007,36.37597766493186
3910.2097,5.085632617610959,32.12754620686732
3911.1091,5.143428890197166,28.126194546994178
3912.011,5.192133298240364,28.43008489297646
3912.9111,5.227191937263767,25.977492198143256
3913.8113,5.25025767963547,32.06455765597512
3914.7136,5.267125743299915,32.44039545973947
3915.6143,5.282674647232313,27.999736755922868
3916.517,5.297803888708945,25.146805619355558
3917.4182,5.310294426538499,24.43029485962126
3918.3215,5.318581659957573,23.147768206653065
3919.223,5.32380305376741,24.54246371757905
3920.1245,5.329536852439774,25.018340136407485
3921.0286,5.339793579586603,27.80498621290507
3921.9307,5.356963836881851,25.67642540646065
3922.835,5.3808456418886275,25.61471246976497
3923.7373,5.408268288000707,26.934977755611847
3924.642,5.434597694618872,25.71418626370153
3925.5452,5.455078645751053,21.537802486291806
3926.448,5.466787483863139,27.573201125027467
3927.3535,5.468785993994304,22.548265106049723
3928.257,5.461668654409915,24.270123086309955
3929.1628,5.447219187613211,26.547327591562816
3930.0667,5.428575195395171,21.625933445799827
3930.9731,5.4095093953875875,23.059895124619775
3931.8774,5.393175926536022,24.939413044785724
3932.782,5.380256772659626,23.549176455904902
3933.6887,5.369337690085371,22.115103192851038
3934.5938,5.358490757428761,41.397445332031566
3935.501,5.346164373171602,33.524072257491504
3936.4062,5.331250386548837,23.548571009895927
3937.3142,5.31263797722095,27.3828048433769
3938.22,5.290117296581994,25.559961563966038
3939.128,5.264603417798834,20.964140630465284
