wavl,flux,ivar
3566.9744,1.9494450126811174,186.15542845095015
3567.795,1.9431126162800594,137.9961362221332
3568.6177,1.9374988852555195,116.57286965799719
3569.4385,1.9319978611286686,180.49101706987943
3570.2617,1.9266046283887615,160.02954856196837
3571.083,1.922394724820995,118.51418779155043
3571.9065,1.9206955111550548,140.2906528957687
3572.7283,1.9218656568084367,111.20403934560454
3573.55,1.9245094053308391,124.47073856430114
3574.374,1.9261230059006949,98.98542884079399
3575.1963,1.9246242489331333,211.99419445039797
3576.0208,1.9195160348793099,131.01160178721065
3576.8435,1.9119424167642036,107.07888256201194
3577.6682,1.9039971226557129,99.94800851054742
3578.4915,1.8982081541632214,123.1134123744556
3579.3145,1.896599300985842,147.83448390252676
3580.14,1.8996176122178525,153.92286453348558
3580.9636,1.9054812247222688,134.09498905822653
3581.7893,1.9111769943266865,119.85283074754031
3582.6133,1.9143872858419664,85.87005496605197
3583.4395,1.9148185648547427,106.00656579520441
3584.264,1.9135924017750616,142.89552599762706
3585.0884,1.911756992180191,122.01089977695499
3585.915,1.9094340920412163,133.36698936928397
3586.74,1.9062510661157892,147.05800018934332
3587.5671,1.902136180733312,125.70603192098088
3588.3923,1.8976197012368075,106.06763923384493
3589.22,1.893188878108578,147.3995535654565
3590.0457,1.8886476629332318,140.2095038005118
3590.8716,1.8829361941562608,125.16226352072049
3591.6995,1.8749110594123748,144.30282568431983
3592.526,1.8644160439702966,133.01610025661577
3593.3542,1.8525217753341936,157.69374709297804
3594.181,1.8411895432994252,150.85347962633472
3595.0098,1.8324770120037022,126.5507487220789
3595.8367,1.8286692234469744,145.94380319812356
3596.6638,1.8320086857915203,147.6810307429311
3597.4934,1.843685254579379,234.53351738060874
3598.3208,1.8619023238440136,148.8340398260185
3599.1506,1.8817342907050814,106.47100308213223
3599.9788,1.8968965256125074,113.51396020086526
3600.8088,1.9033226589814456,155.1943248755771
3601.6372,1.9007108999754752,139.52326892252304
3602.4678,1.8918550337336415,155.7548178123194
3603.2964,1.8805036486019466,196.55411312098798
3604.1252,1.8694837944874778,198.49269506487633
3604.9565,1.8602524097525195,161.9354574051803
3605.786,1.8533988090688827,119.3363385811375
3606.6172,1.8490884272102832,173.40686467182297
3607.447,1.8474000846359746,152.4771028697712
3608.2788,1.848141084770789,131.82036772975468
3609.109,1.8508940458969514,134.86520812676235
3609.9392,1.855153390641242,123.68826866017716
3610.7717,1.8601690866343124,194.9226316648674
3611.6023,1.8645800750360582,135.88406552515676
3612.435,1.8668020171810145,140.5160421819101
3613.266,1.8659591473839412,149.73177790744555
3614.0994,1.8625674599986384,199.94368233584873
3614.9307,1.8580231194887975,134.54142548758597
3615.7625,1.8533759527250488,165.48742434390348
3616.5962,1.8486859932798905,128.25434609464423
3617.4282,1.8433977418548964,138.29820240517412
3618.2625,1.8371384886832127,186.98231488878355
3619.0947,1.8303393000032209,182.01862018065404
3619.9292,1.8238495257474279,131.58582671576625
3620.762,1.8183607296471507,153.40687989022794
3621.595,1.8137901811676207,143.98083689671876
3622.4302,1.8093050866755007,163.19462907427334
3623.2634,1.8037581807608651,143.7681494849464
3624.0989,1.7963292018884318,132.98741804233418
3624.9326,1.7873849617552475,179.74740012366436
3625.7686,1.7785657142765254,163.19321437825064
3626.6028,1.7722729701871043,181.96048847906863
3627.437,1.7702167417796528,187.7258492635072
3628.2734,1.7723439254050652,124.79603299381914
3629.1082,1.7766111364500667,140.28770361221493
3629.945,1.7801119712717894,147.03779505849928
3630.78,1.7806242818352809,179.86249483916495
3631.6174,1.7775015119844306,165.79320023272635
3632.453,1.771311513051231,174.82668838975852
3633.2883,1.762967941901436,178.21601164742353
3634.1262,1.7533205679025476,160.60449998698985
3634.9622,1.743347579806176,283.7001534419176
3635.8005,1.7339812070579388,160.5531135698923
3636.637,1.7259334699889444,155.58652115219851
3637.4756,1.7191340124957288,160.3725192748495
3638.3123,1.7130828781155127,148.6345659608335
3639.1492,1.7073706481838002,132.6216761917834
3639.9885,1.702007202344654,167.99138269081516
3640.826,1.6969245819564416,159.05687765504263
3641.6653,1.6912921490515724,165.18552559266365
3642.5032,1.683999925648681,205.27226826334794
3643.343,1.6747703506903873,157.15505643392245
3644.1812,1.6651241145935427,160.9023895694228
3645.0195,1.6578052284747555,173.04193919978363
3645.86,1.6554153399575395,212.32339674540503
3646.699,1.6589667346090111,247.95356439674669
3647.5398,1.6672745112572345,218.60011349831046
3648.379,1.6772951277251766,238.16498234013696
3649.2202,1.6852458814291957,189.08359353758604
3650.0596,1.6877238824909677,145.79964681728092
3650.8994,1.6830181256744876,205.3711168285824
3651.7412,1.6715606474401057,234.82527760769247
3652.5813,1.6557020683351862,195.60913016262384
3653.4236,1.6385420076916393,143.17407387014288
3654.2642,1.6233571781535514,163.80062734826532
3655.1067,1.6128591337574516,7129.938248691136
3655.9475,1.6089743258253941,222.67359592098015
3656.7886,1.6119601535286936,184.0998876716733
3657.6318,1.6200039207650752,279.85757652587307
3658.4734,1.6295133457131388,192.8894230762417
3659.317,1.6368856357807502,145.4287193086583
3660.1587,1.6403778455773794,167.38780255221872
3661.003,1.640985732448791,171.32439113780924
3661.845,1.6412169744784504,178.23295853365389
3662.6875,1.6431377560060032,158.80492157851947
3663.532,1.6472467231327452,176.06647091349703
3664.3748,1.6525936382467596,164.1369161243662
3665.2197,1.6575663303654637,134.49857017091543
3666.063,1.6605462071015482,217.09482766298484
3666.9084,1.6607500552406935,180.1563630835797
3667.752,1.6587322693219153,142.54429977543808
3668.5977,1.65605298405076,212.60633116542962
3669.4417,1.6540174771757996,189.59935185215232
3670.286,1.6524695896058414,249.54637992598015
3671.132,1.6499074503805344,173.2356928301613
3671.9768,1.6448242843916816,164.34647495042296
3672.8235,1.637017283300984,145.02322527586318
3673.6685,1.627846083677397,206.06553289605733
3674.5156,1.6190024065515287,161.2107619212688
3675.3608,1.6113584988668517,193.39722079949573
3676.2063,1.6045269143296255,160.50580076677872
3677.0542,1.5978633558321331,131.2521649609599
3677.9,1.5917472257536616,161.73925957906224
3678.748,1.587791857197597,158.17368113518955
3679.5945,1.587841743808219,197.18690015887455
3680.4429,1.5920599118071725,191.65805084972416
3681.2896,1.598078071496797,182.6696889818201
3682.1365,1.6023529327629904,133.98076304812133
3682.9856,1.602668924288068,162.22561259597336
3683.8328,1.5995286104248276,207.70857907597687
3684.6824,1.595104225207499,194.10102752550023
3685.53,1.591152940840407,201.07129828084007
3686.38,1.5879530861279016,150.8115810261559
3687.2278,1.5851345452232373,146.387447051533
3688.0762,1.5828049985652008,176.65589098171696
3688.9265,1.5817625671904836,173.55776707573517
3689.7751,1.58262690284257,201.7767467707893
3690.626,1.5850154741780338,191.5739787949529
3691.475,1.5875946730729162,179.4241798587541
3692.3264,1.5888947250770395,182.132986255767
3693.1758,1.58813636492082,169.37107924589773
3694.0254,1.58573958658352,161.40761852880888
3694.8772,1.583208352464153,176.61620769740296
3695.7273,1.582396645391301,261.9157604704691
3696.5793,1.5843017494983909,213.0494182874219
3697.43,1.5882481889867885,196.57699391605294
3698.2825,1.5921185565603846,187.5382438442984
3699.1333,1.5934316958309127,206.67514398614452
3699.9841,1.5905911799502173,170.19205829807476
3700.8374,1.5833721893754957,178.4869955767791
3701.6887,1.5729347472141284,223.0448515251033
3702.5425,1.5613350275096096,188.37208021530526
3703.3943,1.5511799323157929,221.56832557598474
3704.2483,1.544563034836981,224.64601273300215
3705.1003,1.5423792474797526,246.12346156833772
3705.9526,1.5439851388888473,166.19472947799406
3706.8074,1.5478672284403796,208.72328987360632
3707.66,1.5523293044595199,189.65191922654716
3708.515,1.5559797423153974,223.57977258501055
3709.3682,1.557781806742268,180.29980714890232
3710.2234,1.5572141745130108,193.63621096609347
3711.0771,1.5543058674200314,222.7581037690459
3711.9307,1.5496083487900822,170.70210144252593
3712.7866,1.5441205105505544,248.59921292850674
3713.6409,1.5392667928810988,228.18536511538852
3714.4973,1.5364356746420962,209.0516222410051
3715.3518,1.5363204353354685,201.0342467158541
3716.2085,1.5382599494039937,194.85341478590416
3717.0635,1.5404593125608044,227.84034235683492
3717.9185,1.5411376861572748,156.74351647523534
3718.776,1.5397382153642505,158.4551808681471
3719.6313,1.5371799350079067,169.14871796106974
3720.489,1.5347689028801363,196.73750964610514
3721.345,1.5328826970533553,235.74648572466134
3722.2031,1.530673370971072,161.5694196742806
3723.0593,1.5271807305618192,261.9004832031241
3723.9158,1.5224954762993919,201.59540557926022
3724.7747,1.5178470557223547,250.5240314243861
3725.6316,1.5146472810782459,278.4194484631161
3726.4905,1.5134490018095414,283.83878871661364
3727.348,1.513947413548154,208.9758686336937
3728.2073,1.5154992424220326,187.37574075050048
3729.065,1.5173237787739324,210.0067882285432
3729.9229,1.5181981708747472,231.91722391840966
3730.783,1.5164884661410294,239.54478978878427
3731.6414,1.5112315031003722,199.1014303838329
3732.5017,1.5032822582713896,187.0328615635953
3733.3604,1.4952380537894887,224.86126443930777
3734.2214,1.489725767962302,221.60026500392541
3735.0803,1.4879662740005655,207.2973955805405
3735.9417,1.4893831255426746,256.63149612081156
3736.8013,1.492373546887973,206.79992148222144
3737.661,1.4951190413413245,177.91898432451003
3738.5227,1.496076690520437,232.95108174857666
3739.3828,1.4943267407130718,222.55264494460124
3740.245,1.4898426375625924,222.85102217565606
3741.1055,1.4834954643308007,202.64696350437703
3741.9683,1.4765189368251048,255.63786613661142
3742.829,1.4699525627900263,217.06502437552666
3743.69,1.4641299251942848,184.5787856192241
3744.5532,1.4590036905970711,224.7182778853037
3745.4148,1.4548951415174232,339.48706719583674
3746.2786,1.452780805570624,264.5285992861778
3747.1404,1.4538548206174913,272.4518960272406
3748.0044,1.4585302274497067,197.0182806953561
3748.8667,1.4658447653522897,220.257131664589
3749.729,1.4737564014527391,207.37978523213954
3750.5938,1.47992697550834,218.53325966367967
3751.4565,1.4825514547798027,185.48053205181822
3752.3215,1.4810793538515572,204.12102151198897
3753.1848,1.4762626459984562,252.68758698340693
3754.0503,1.469608209583625,174.83591456212218
3754.9138,1.4625669696601522,317.2997059722526
3755.7776,1.4557944960395295,265.79115458722606
3756.6438,1.4492395149499027,204.50886443684138
3757.508,1.4427069800495107,230.60179788525048
3758.3745,1.4361364560477936,249.09382251350922
3759.239,1.4297486904320822,269.26958983379706
3760.106,1.4238548724090836,224.6275169466137
3760.971,1.419034723729215,362.61850973226063
3761.8362,1.4159752408456197,268.75526428246377
3762.7036,1.415206764053326,252.75725158999737
3763.5693,1.4167442873459108,251.91569705676545
3764.437,1.4200173615109741,247.75832814353697
3765.3032,1.4240239698566677,221.3495589587387
3766.1714,1.4276263586225326,236.62990674477555
3767.0378,1.4298151312283938,268.13909898492955
3767.9043,1.4301187855904263,254.8717633508312
3768.7732,1.4287425304067627,242.64036375936152
3769.6401,1.4263937917773066,275.5025629722393
3770.5095,1.4237704419938464,255.53105558805765
3771.377,1.4211891737970592,301.9118291185589
3772.2466,1.418499216721163,264.6732483347866
3773.1145,1.415475703853695,278.37515500101154
3773.9824,1.4122224801482246,264.18897012245617
3774.8528,1.4093642366661103,292.7966861333673
3775.721,1.4078049136921764,250.3034571543536
3776.5918,1.4081666054342092,297.41099063920524
3777.4604,1.4104750649415547,260.53662181255925
3778.3315,1.4142048503302027,281.61491752711515
3779.201,1.4184344480279834,212.1158664701577
3780.0703,1.4220021420505171,203.71430381294064
3780.942,1.4236627506731676,260.99971916023406
3781.8118,1.4226130389063647,231.44176883985716
3782.6838,1.4190926066620824,258.1587743961004
3783.554,1.414345733386205,207.54921252801594
3784.4265,1.409721040163149,208.3805271601979
3785.297,1.4058910746460773,302.3303154860784
3786.168,1.4026829371454934,279.85366772659444
3787.041,1.399698337151054,258.5099083892823
3787.912,1.3968342456843772,278.6320945064479
3788.7856,1.3942327595802415,267.141064865116
3789.6572,1.39203059305972,270.846589746801
3790.531,1.3900873663372109,237.59875895580984
3791.403,1.38803185617378,292.846873127664
3792.2754,1.3853852407030531,278.5577482396646
3793.15,1.3817899858710638,226.45835867058045
3794.0225,1.3772500691299434,303.97286180358344
3794.8972,1.3721469454066895,270.44551783116833
3795.7703,1.367176997108716,265.84576292414397
3796.6455,1.3629238223164881,242.64702832809468
3797.519,1.3595963385154617,278.73096411448427
3798.3926,1.35692676249557,252.5370623290061
3799.2686,1.3546296290435986,236.64734437779236
3800.1426,1.35299211084685,230.4877486843834
3801.0188,1.3529720501931461,217.19404805584728
3801.8933,1.3556476599559044,289.4600908653521
3802.77,1.3613358510671487,250.1901371217719
3803.6448,1.3690102504021116,286.56432669366535
3804.522,1.3766567334054043,264.1436871258765
3805.3972,1.3821079090113024,233.216650810316
3806.2727,1.3843145302799436,195.66810424681012
3807.1504,1.3838270691615764,315.26520788359403
3808.0261,1.3823480129389978,273.1139947330088
3808.9043,1.3814881295906196,317.8057652319959
3809.7805,1.3817906932898607,280.5967003188566
3810.659,1.382804575803257,258.51722618390687
3811.5356,1.3840359501677022,263.439796658734
3812.4126,1.385688348580635,253.42979334482212
3813.2917,1.3883539005997287,247.135883666112
3814.169,1.392019330838587,238.34599365107357
3815.0483,1.395634343473684,262.7327201660419
3815.926,1.3976922125460687,217.92404086676845
3816.806,1.3974158181589342,223.58992944956276
3817.684,1.395210540372496,262.2581676328994
3818.5623,1.392081725879055,225.01660673329008
3819.4429,1.388647411891592,336.8623069791933
3820.3215,1.3847401516529572,206.0527198012459
3821.2024,1.379660314828249,251.62910418996165
3822.0815,1.3728274662246127,257.76181086422923
3822.963,1.363988199103956,259.51878250305583
3823.8423,1.3533367708142214,318.4386247678166
3824.722,1.3413330355237876,257.4416416587012
3825.604,1.3287845316878768,271.2166166285107
3826.4841,1.316855032516685,298.12135988691267
3827.3665,1.3064285835092786,284.7649851354554
3828.2468,1.297784808913684,280.1504908922308
3829.1296,1.2902254407358476,406.198907607795
3830.0105,1.2826500543769117,239.33258480415844
3830.8916,1.2741039148973505,272.2730241529134
3831.7751,1.2643527332913158,298.0624938648813
3832.6565,1.2541171242271383,316.3518217132669
3833.5403,1.244675611634537,349.48023055999903
3834.4224,1.2375613852769907,298.0635533959738
3835.3064,1.233822421853313,327.3231060866391
3836.1887,1.2337861430760635,272.4162062463065
3837.0713,1.2370213505594447,344.63761811472557
3837.956,1.2426848664664183,354.53192826099104
3838.839,1.2498286290313416,321.2170259804989
3839.7244,1.2578577111114018,315.33969896272527
3840.6077,1.2666281949726064,326.5178878036642
3841.4932,1.2765285566605937,340.38428006086286
3842.377,1.2879945969953401,320.08686709592
3843.261,1.3012919561747138,268.9389387455924
3844.1472,1.3161846828411596,382.45264895772334
3845.0315,1.3316389479738253,271.8165987084922
3845.9182,1.3461319653581345,337.58269855875085
3846.803,1.3578893045417526,287.32799152894427
3847.69,1.366029802730511,294.05465794925703
3848.5752,1.3709784248626555,300.97286626015983
3849.4604,1.374404100389705,221.62031632031952
3850.3481,1.37816360847762,276.83506904895387
3851.234,1.3832027016136523,253.95741575883707
3852.122,1.3891740413762428,266.7134164534405
3853.0083,1.3947103281362654,268.18394237003946
3853.8967,1.3983722211097578,282.1311008241203
3854.7832,1.3993822635109578,269.5228560861808
3855.6702,1.3981100574055825,240.10934748495902
3856.559,1.395820408301743,337.06687283802387
3857.4463,1.3939537115329184,246.83645303287318
3858.336,1.3933122984482822,249.25523700991602
3859.2234,1.3938894358709588,210.8751908193775
3860.1135,1.395260323416595,298.37752708207574
3861.0015,1.3969149003672954,300.87282442463794
3861.8896,1.3980968665750444,285.16388661435656
3862.7803,1.3975091975307121,244.56690866670792
3863.6687,1.3937254127209324,277.1047418509613
3864.5598,1.3861789329735994,267.6980057963821
3865.4487,1.3759048051733156,230.3685009367554
3866.34,1.3648734617503113,269.3915823194262
3867.2297,1.3548601335618575,272.5410517841783
3868.1213,1.346245719494383,277.977786861248
3869.0112,1.3382117678711813,278.0449619377374
3869.9014,1.329473313865517,254.35994549669365
3870.7937,1.3192430713328247,210.5148547673582
3871.684,1.3076448651829193,350.2113550438315
3872.577,1.2952252138490445,299.89696050074366
3873.4678,1.2825957770907883,321.40856059798773
3874.361,1.2698025721660935,259.4188911016909
3875.2524,1.2566142402721363,271.62370006167646
3876.1438,1.2427217736939433,380.7907210088773
3877.0376,1.2282190490857188,318.50961662834004
3877.9297,1.2136415897534547,334.22103918674316
3878.8237,1.1991430847106737,532.1691938062369
3879.716,1.1842823148604376,327.71013572932463
3880.6108,1.1680979964981184,282.7578909707934
3881.5037,1.1503070999455338,327.55529083344925
3882.3965,1.1316184568887573,374.7196132980704
3883.2917,1.1134474234528837,385.599330212524
3884.185,1.0970977176925165,362.5824705823869
3885.0808,1.082785429200863,359.8338812118217
3885.9746,1.070125766065278,401.50892174210134
3886.8706,1.0586024833268253,354.2882294960437
3887.765,1.048431223001982,501.05777583110597
3888.6592,1.0403419386337334,488.9435214450527
3889.556,1.035107706477536,511.77774251703835
3890.4507,1.033118360946405,358.6536916635901
3891.348,1.0344164381097898,585.721257490348
3892.243,1.039182596996992,396.9549364696962
3893.1406,1.0479474938799436,584.1910159164382
3894.0361,1.061111039994602,479.61487522940917
3894.932,1.0784803010705806,575.9598680223006
3895.83,1.098932418873374,496.9706035221743
3896.7263,1.120531739695922,346.03850330413627
3897.625,1.14175253478196,346.94211645118884
3898.5215,1.1619778916880477,477.80244008314605
3899.4207,1.1820875427536013,347.48857167919283
3900.3176,1.203095979694214,366.3269835687843
3901.2148,1.2252790842158323,427.4151782970941
3902.1145,1.2476135522810814,329.610500263703
3903.0122,1.2684200799279415,315.248490240528
3903.912,1.2868955422557509,248.76215820685783
3904.8103,1.3031924789594844,288.3555403046105
3905.7107,1.3183192607410066,338.4906562469383
3906.6094,1.333133584005196,285.6453322067338
3907.508,1.3481260024207455,267.4926518865299
3908.409,1.36322920105204,253.04964129953467
3909.308,1.3778192225536319,297.741342447657
3910.2097,1.3912216002855715,275.7051206259652
3911.1091,1.4028349819627537,235.37427441365512
3912.011,1.4126982281099716,244.82632754368723
3912.9111,1.4212346937212537,216.76673201275145
3913.8113,1.4290619412265526,207.11528602311304
3914.7136,1.4365044606100703,252.6060167076471
3915.6143,1.44339409238774,255.78286720388314
3916.517,1.4493394173963015,248.9852950900627
3917.4182,1.453908316181064,226.69504690883974
3918.3215,1.4570067851002524,242.92620755110397
3919.223,1.4589241429438928,208.32783043784946
3920.1245,1.460201982615391,264.2850210933265
3921.0286,1.4611748727011127,226.79876302074325
3921.9307,1.461704603078134,245.06528944542072
3922.835,1.4614373307327861,216.30162596311663
3923.7373,1.4603677713177008,235.6235190912813
3924.642,1.4591274788787703,257.32591185796747
3925.5452,1.458590110965399,252.86267708851295
3926.448,1.4589946051447118,233.54989844548254
3927.3535,1.4594685594360222,214.46961272855242
3928.257,1.4584868662700756,210.69272188356945
3929.1628,1.4549801809838374,262.1716672806203
3930.0667,1.4491659908070613,261.2130057606475
3930.9731,1.44239197858649,235.7236187114742
3931.8774,1.4364770308937787,244.861709607216
3932.782,1.4327251187412808,233.57352000346148
