wavl,flux,ivar
3566.9744,2.219874037648311,96.57093127894676
3567.795,2.2144529889855007,84.98463727532383
3568.6177,2.207100470802338,88.65063640784957
3569.4385,2.1996109142561613,95.16773556427749
3570.2617,2.193898465412204,90.67569024135848
3571.083,2.190810225090539,111.63062287028036
3571.9065,2.1893790895402385,92.72840923077408
3572.7283,2.187706595617425,83.51853235429898
3573.55,2.1845868937845325,115.89843585785118
3574.374,2.1806345095091793,113.27862311618695
3575.1963,2.177906107363749,107.72233993456908
3576.0208,2.1780761251002203,101.67183439924338
3576.8435,2.180774036352425,102.79237478028624
3577.6682,2.1835359625317685,112.03283273088311
3578.4915,2.1836070410648696,92.32300599231263
3579.3145,2.1801098044229095,92.97978154369913
3580.14,2.174511650845755,117.94276711507548
3580.9636,2.1692934324322772,89.42789352151304
3581.7893,2.166000658552249,93.61484548233962
3582.6133,2.164597937718507,107.06493599810798
3583.4395,2.1640710031841506,102.7902770512401
3584.264,2.163597359620023,100.70233559733677
3585.0884,2.1631080566821708,110.81804528930955
3585.915,2.1629627828406366,101.39366167491134
3586.74,2.163258515174536,93.79590594468213
3587.5671,2.163546701629314,126.35408590173516
3588.3923,2.1630982351763426,97.7469036348327
3589.22,2.161306667923684,107.2818133267172
3590.0457,2.1580066136496043,102.58786629449706
3590.8716,2.153606576399158,109.72661936877243
3591.6995,2.1489512371616715,97.7507797392727
3592.526,2.1448730104193316,108.4773735187125
3593.3542,2.1416992470385554,101.64838225424474
3594.181,2.139338247672202,101.57060575267923
3595.0098,2.13752308254312,96.78867923559008
3595.8367,2.1359838766938726,97.94553281179495
3596.6638,2.1342918622724776,107.78990112370775
3597.4934,2.1318020829977375,92.26832066855957
3598.3208,2.127721753263634,148.90396277685082
3599.1506,2.1206346818513535,110.70686494473468
3599.9788,2.1066887746865723,98.22143305213747
3600.8088,2.0753005675749447,116.72384925148101
3601.6372,2.005070867664459,146.33869930700678
3602.4678,1.8652174421890093,91.48230466627834
3603.2964,1.6353508136695467,93.32493544785859
3604.1252,1.334779208098818,140.7347823508579
3604.9565,1.0419981813711303,154.7969314187774
3605.786,0.8711865596997989,1573.065894261857
3606.6172,0.8989135216773813,87.45181311981204
3607.447,1.11102330428232,131.28577331300218
3608.2788,1.4134941296534562,104.00080637079611
3609.109,1.696454551264023,83.55688184557305
3609.9392,1.8986487733313628,114.50704739817749
3610.7717,2.0153134704121305,102.46200387190041
3611.6023,2.0708353140308473,114.92769972670011
3612.435,2.0916510916198554,99.45357420396776
3613.266,2.094008420232994,96.15876763374177
3614.0994,2.0872874561340518,94.13176045961757
3614.9307,2.078444404863746,105.59993519051564
3615.7625,2.0728694640095062,118.93584780000367
3616.5962,2.072978186686885,111.71777463399934
3617.4282,2.077456063561948,112.66500948464028
3618.2625,2.082739864604485,114.58455884974852
3619.0947,2.085602596393789,95.56152977064487
3619.9292,2.0851081716269824,117.48585320372685
3620.762,2.082565699722507,110.07707980130914
3621.595,2.0800957709200403,117.34703633682696
3622.4302,2.0790843114320836,118.08729806327008
3623.2634,2.0795411406707625,93.4220651015304
3624.0989,2.0803548856612637,80.44925063050358
3624.9326,2.079925805975953,118.80189677077985
3625.7686,2.076821931590319,111.77643463839304
3626.6028,2.0705159073254364,112.99154046010919
3627.437,2.061913967122164,86.06387497244683
3628.2734,2.0531360038183752,104.53957331380195
3629.1082,2.046393427310821,117.24744083774192
3629.945,2.04249560481347,122.21789769888791
3630.78,2.0406670065860726,107.08227327642669
3631.6174,2.039412671892186,111.7923298447457
3632.453,2.037772181818074,138.96310765135226
3633.2883,2.0357273324285536,124.03302385168656
3634.1262,2.0337769453049175,116.9192744599169
3634.9622,2.0322191767333875,146.5238385618394
3635.8005,2.030581114662578,133.25139827240366
3636.637,2.0276087157129274,99.56420047881764
3637.4756,2.021864798451166,117.12585496447483
3638.3123,2.0129862835765127,101.69982559428422
3639.1492,2.002421241252394,122.83759612406853
3639.9885,1.9928919794815294,103.29480400781455
3640.826,1.9866472217905786,115.4616269064139
3641.6653,1.9837320366625935,129.2734700384827
3642.5032,1.9822280349545462,114.01005185274165
3643.343,1.9797725931729797,125.58240412701254
3644.1812,1.9751878380777195,134.8208613145673
3645.0195,1.9689034535825598,120.68312279475484
3645.86,1.9623763916359795,126.02711430722141
3646.699,1.957240064831749,128.0034220113938
3647.5398,1.9544971980276404,123.79346524901143
3648.379,1.9542893475168637,116.72152381352203
3649.2202,1.9559741310653573,123.45038910535848
3650.0596,1.9585741627050273,113.43128855988854
3650.8994,1.9612255119410658,132.28361118672655
3651.7412,1.9632955004999315,140.31248128616556
3652.5813,1.9643402050899608,143.60723002189786
3653.4236,1.964275149005654,150.0257407658103
3654.2642,1.9636305494847273,112.65059488625512
3655.1067,1.9634371521316072,133.7566836839685
3655.9475,1.9645170482620695,119.67120957617809
3656.7886,1.9668138100143346,107.09553830226967
3657.6318,1.9694959251420558,140.01363643711198
3658.4734,1.9715850858533888,110.88858906023563
3659.317,1.9724054957667252,114.4236479479392
3660.1587,1.971447161275686,121.30299330476164
3661.003,1.968257598896572,107.3033871221151
3661.845,1.9627200680080383,119.635741194934
3662.6875,1.9552914567355175,144.19916418810627
3663.532,1.9469086020433348,128.63727341650488
3664.3748,1.9386402151214055,140.54569661195922
3665.2197,1.9312781581135678,132.43715115282754
3666.063,1.925463403871058,147.5322101129511
3666.9084,1.921599340843449,134.07585860182505
3667.752,1.9199291673154653,151.51895327777066
3668.5977,1.9204503665441277,110.63017544775307
3669.4417,1.9229633066156622,137.85241285437596
3670.286,1.927011112988044,110.50232456890764
3671.132,1.9317905105055433,125.62236063845634
3671.9768,1.936153290835826,117.09776933789426
3672.8235,1.9389381618811388,125.88633795679601
3673.6685,1.9392257824028758,108.74292488931373
3674.5156,1.9365228828306575,127.05384659480242
3675.3608,1.9307803599168845,139.89102953251515
3676.2063,1.922462075272411,138.81873987150095
3677.0542,1.9127634914486908,135.87746663029313
3677.9,1.9037057379841384,126.76398060946352
3678.748,1.897386121520746,144.36043542664092
3679.5945,1.895264223750731,145.09660160683674
3680.4429,1.8974619867044,150.04636767525136
3681.2896,1.902860135485873,153.9469630611253
3682.1365,1.9096119172454002,115.73571779215831
3682.9856,1.915785930983615,137.0376610098559
3683.8328,1.9199232058840627,119.2603279335627
3684.6824,1.9214776891368999,117.36967782823825
3685.53,1.9205572959741724,134.94848116867695
3686.38,1.9173724029338641,130.40499040248827
3687.2278,1.9119349311828313,124.85578921346179
3688.0762,1.9045039443008895,118.53214520665657
3688.9265,1.8964683065336718,152.23192963404742
3689.7751,1.890501852098456,181.20328703338026
3690.626,1.889196211830845,147.33945000820256
3691.475,1.89331306101138,153.21743166391312
3692.3264,1.9008647745380591,139.31422372106772
3693.1758,1.9079423123345618,125.84904324793155
3694.0254,1.9110008165434638,110.75434902512593
3694.8772,1.9087332188760502,158.38816319630155
3695.7273,1.9025729991586027,174.53121447462485
3696.5793,1.8954089618108425,132.55391349847386
3697.43,1.889755898054201,142.37165993574794
3698.2825,1.8863877472179162,146.9446458973327
3699.1333,1.8844812060884804,144.64051474115547
3699.9841,1.882670919678148,137.0299440155394
3700.8374,1.880196763211316,125.62036403926275
3701.6887,1.8771291716120395,152.23294418511767
3702.5425,1.873691821544699,130.94090824778874
3703.3943,1.8697978574776906,126.12177016623032
3704.2483,1.8651699206385286,143.9863831679048
3705.1003,1.8599324048562809,148.79725648041625
3705.9526,1.8546688015825958,159.49603431217975
3706.8074,1.850114888188684,138.85233609935972
3707.66,1.8468179495554689,130.63514825440504
3708.515,1.8449671086095698,144.32103236933668
3709.3682,1.844599012756622,133.6262601459523
3710.2234,1.8457227667979519,135.09432912202456
3711.0771,1.848353307774044,129.2838242407797
3711.9307,1.8522737311619104,177.4666427076831
3712.7866,1.8566450569757025,134.53972457805278
3713.6409,1.8598982333071916,140.6666040295019
3714.4973,1.8605239390033435,116.11425981999737
3715.3518,1.8581420074732249,161.5560651059204
3716.2085,1.8539351659182435,162.64128543144525
3717.0635,1.8498227687888331,125.67069469741001
3717.9185,1.846964796740831,134.32255990910133
3718.776,1.8451014398097236,125.50960096949466
3719.6313,1.8431862726928163,116.90721968898929
3720.489,1.8405862669860287,159.71872286976395
3721.345,1.8378191753465296,143.99563735394264
3722.2031,1.83612311049673,129.86790976169573
3723.0593,1.8364008267308933,148.9807071452363
3723.9158,1.8382929532025865,151.9990644100106
3724.7747,1.8402786634580293,137.38700026329633
3725.6316,1.840651980790536,154.01612865590624
3726.4905,1.8385856165808085,139.13210783934744
3727.348,1.834331767411744,144.78226489583088
3728.2073,1.8286716593834627,181.49264706155725
3729.065,1.8224819669495285,162.03598277213698
3729.9229,1.8165257943212936,123.99629094698263
3730.783,1.8113789607023794,150.25060697567537
3731.6414,1.8070911614287377,148.17980896265055
3732.5017,1.8028773899423072,134.7643319784334
3733.3604,1.7977209355098511,151.18169376350573
3734.2214,1.7914079604024158,157.3392249982916
3735.0803,1.7852928052281378,150.7131485957932
3735.9417,1.7815192253008465,151.6588837891039
3736.8013,1.781554464068407,134.24865311346676
3737.661,1.7849888172820836,154.70952178439643
3738.5227,1.7898516028389877,119.16096013816569
3739.3828,1.7938473449113275,138.57660767914396
3740.245,1.7957240885397463,135.83559504680633
3741.1055,1.7957092762537583,158.46778010772007
3741.9683,1.7951178307282427,155.31115359251166
3742.829,1.7953711443256934,149.9525938574049
3743.69,1.7970994630730817,165.57120821862432
3744.5532,1.799879920339712,122.89560612374085
3745.4148,1.802620445682597,164.6327302851431
3746.2786,1.8042744370328359,158.80116497849738
3747.1404,1.8042235554800332,165.49007960328683
3748.0044,1.8024193452310713,145.43707589057843
3748.8667,1.7994066247539238,147.29539927543095
3749.729,1.7961587183926369,134.20738016075578
3750.5938,1.7935444191978462,140.74417024410354
3751.4565,1.791730566967009,126.14800957692742
3752.3215,1.7901382318197443,147.7526847992892
3753.1848,1.7881938156165111,156.09484246851991
3754.0503,1.7858768143444934,148.33145605869413
3754.9138,1.7835795944472557,161.43624822329264
3755.7776,1.7815490050801883,170.2220919394579
3756.6438,1.7797897422874447,182.12818052302782
3757.508,1.7783984851027328,161.62679176318687
3758.3745,1.7777698717159895,157.32625192900846
3759.239,1.7784779233636416,142.21600266640792
3760.106,1.7808961806679393,159.62663210287204
3760.971,1.784796786762591,141.76174707765665
3761.8362,1.7891911952805621,151.28976034169193
3762.7036,1.7925262256006278,154.78919440346306
3763.5693,1.7933211743745545,139.89544097120336
3764.437,1.7909752601240814,155.54200255586352
3765.3032,1.7860834670515382,146.3429760540312
3766.1714,1.7800242130960995,151.56510045788966
3767.0378,1.7742288903742855,164.00283961679958
3767.9043,1.7695028389872982,171.00945749061992
3768.7732,1.7660424623363793,143.4521045050266
3769.6401,1.7638169308599057,162.27576311452293
3770.5095,1.7627783419487482,153.90106132177988
3771.377,1.7628431504617754,160.33319563579093
3772.2466,1.763683583573175,154.01515544057168
3773.1145,1.7647927247231736,139.82958597524404
3773.9824,1.7658555440624588,139.68697908634144
3774.8528,1.766995711620499,142.73818975157775
3775.721,1.7684787677513403,167.0225956408197
3776.5918,1.7701060214362696,143.6594678127868
3777.4604,1.7709419991808215,148.39650899082628
3778.3315,1.7698965819122583,159.70408719768096
3779.201,1.766592584672033,145.4458296938431
3780.0703,1.7617039482261354,145.28222511056362
3780.942,1.7565056282267757,157.80187586424725
3781.8118,1.7522586779999303,150.3922924664101
3782.6838,1.7498315217983411,133.919247252206
3783.554,1.749773284681377,167.95520025548714
3784.4265,1.7521675338633473,175.76566067959808
3785.297,1.7563685186761084,181.1051918954074
3786.168,1.7610583301896345,158.07520730992067
3787.041,1.7648079875407596,139.7416768100997
3787.912,1.7667724758808951,147.3460451327523
3788.7856,1.7669613257915562,154.3750527477022
3789.6572,1.7657405681760818,144.68383149289798
3790.531,1.7632394690942501,180.11976066117163
3791.403,1.7592898756609574,134.0245454572322
3792.2754,1.753882716843221,165.96003129422866
3793.15,1.7476165844104137,169.8232847167554
3794.0225,1.7415884686144039,175.46067291727834
3794.8972,1.7366403699244544,154.28933286918695
3795.7703,1.7329789050878255,171.65597853391213
3796.6455,1.730162157908768,143.9348467481233
3797.519,1.7275531546822045,171.47435285904743
3798.3926,1.7245310029317173,148.45840391496768
3799.2686,1.7206127935524869,159.44980023332545
3800.1426,1.7156881925647758,153.37710998991642
3801.0188,1.7101815612248978,167.41139605781842
3801.8933,1.7050721343183144,156.10577579742142
3802.77,1.7013478861583937,156.83487385090274
3803.6448,1.699613029088512,214.9100287739626
3804.522,1.699950577360407,172.30576003884826
3805.3972,1.7023170637729668,160.977237196529
3806.2727,1.7070357451487217,177.32025501346962
3807.1504,1.7151719977564333,154.54781496181917
3808.0261,1.7285013247613499,149.5045804468135
3808.9043,1.7490485419046942,167.30311504629037
3809.7805,1.7768542693737959,158.97993970869246
3810.659,1.8076565552958035,189.8964073302958
3811.5356,1.8317671033125988,173.9299022373459
3812.4126,1.8387123436588448,13.217574284166156
3813.2917,1.8240428293898576,166.33113236468637
3814.169,1.7934594961125292,157.5382816263133
3815.0483,1.7590188655716101,168.40602472858717
3815.926,1.7318588096145495,185.2576081172873
3816.806,1.716362051351006,152.6234302577736
3817.684,1.7106644676777802,179.04052348820963
3818.5623,1.7097786524349767,158.36154429571042
3819.4429,1.7091824360451042,166.70089102145624
3820.3215,1.706630662075883,162.0897443480628
3821.2024,1.70233954155432,179.84686982047555
3822.0815,1.6979807151710395,188.3902173834215
3822.963,1.6950394905366537,214.00979385897438
3823.8423,1.6937572170510227,173.2381806459001
3824.722,1.693117511094884,173.98347069571196
3825.604,1.6918591612141507,173.746240554586
3826.4841,1.6894962255801946,167.68486560336288
3827.3665,1.6865337119439912,173.31438506061573
3828.2468,1.6839262374099546,178.76030439340423
3829.1296,1.682249937849013,159.41317132877953
3830.0105,1.6814095519938155,164.6930172980007
3830.8916,1.6808455140942358,172.77397158064292
3831.7751,1.680029938877965,160.52974392344157
3832.6565,1.678817304273818,165.69375812443664
3833.5403,1.6775025005814332,176.71047362091417
3834.4224,1.6766277014021302,166.36561132783277
3835.3064,1.6765083012058704,176.6704128744944
3836.1887,1.676834304756006,180.7084773396037
3837.0713,1.67671317580542,177.24459304311534
3837.956,1.6752210914053574,171.5556271459201
3838.839,1.672028337496765,200.49578338289393
3839.7244,1.6675847223700373,165.77966997743857
3840.6077,1.6629624597579644,204.02741842554676
3841.4932,1.6593532011209031,156.22202500010076
3842.377,1.6576091704459235,164.73200608790643
3843.261,1.6576760444777838,194.7318667675626
3844.1472,1.6584865630776973,189.9698550419812
3845.0315,1.6584669501972022,168.40392486105785
3845.9182,1.656532301915201,194.80135042327137
3846.803,1.6528391903045898,171.0258342167651
3847.69,1.6486573901695385,156.36200607624602
3848.5752,1.6455399579795298,183.34328341595344
3849.4604,1.644212917528434,164.71684088071618
3850.3481,1.6441868542081042,179.69711808356655
3851.234,1.6443043314632169,152.90287348846522
3852.122,1.6438035407606584,183.3642419634922
3853.0083,1.6428994823728418,177.10579194909482
3853.8967,1.6423495411971172,169.28358970869283
3854.7832,1.6425801158319746,196.34290504016354
3855.6702,1.6433099955417851,171.4094041714628
3856.559,1.6440089283622763,179.79310637107514
3857.4463,1.6445332980118341,159.6188559061317
3858.336,1.6452193043468948,192.50775874848688
3859.2234,1.6463501010303419,163.02726551656852
3860.1135,1.6476403751159836,172.90805214933278
3861.0015,1.6481796225873284,202.96342714411819
3861.8896,1.6469452674701566,170.94517700105865
3862.7803,1.6434435411447987,180.96124993155135
3863.6687,1.6381374156323507,159.28154865912347
3864.5598,1.6321505222267172,184.17865509440117
3865.4487,1.626706415750324,176.254278311917
3866.34,1.622472833836622,161.8451707797212
3867.2297,1.619643696274688,174.90181174959991
3868.1213,1.6181544708634303,176.64832204089748
3869.0112,1.6178910255534766,196.57717294859125
3869.9014,1.6185558633999924,194.1794880420402
3870.7937,1.6195843330531814,201.5435275925345
3871.684,1.6202784118992557,181.26918332373873
3872.577,1.6201204100602624,153.24741392320516
3873.4678,1.6189147318989445,166.28780862680978
3874.361,1.6166739539988286,183.24706240010153
3875.2524,1.613511571706665,180.44141814780477
3876.1438,1.6097195064588854,184.26138717241537
3877.0376,1.60599392940052,190.9569670509832
3877.9297,1.6033712451328352,175.91342435394975
3878.8237,1.6026050131876821,193.54892651765482
3879.716,1.6036007296549717,201.89195767458887
3880.6108,1.605373120944635,157.71720611060223
3881.5037,1.6066745799075035,172.06800298415368
3882.3965,1.6067997202420028,197.08726521463157
3883.2917,1.6058662020905492,170.63828162177072
3884.185,1.6045319226586314,201.79132847591933
3885.0808,1.6034237881290025,190.1102459146167
3885.9746,1.602759892344666,196.5135963256178
3886.8706,1.6022658085349994,161.54233736292747
3887.765,1.601407388249369,167.21224345799496
3888.6592,1.5997504414383612,145.3317803627757
3889.556,1.5973108346488891,183.00544486449502
3890.4507,1.5947081210645797,182.01510970758392
3891.348,1.5928571953400406,174.03530649999252
3892.243,1.5924537508530898,193.70742953510933
3893.1406,1.593513457525742,185.68060831783941
3894.0361,1.595441201270169,187.77280766649199
3894.932,1.5975076669218287,228.65900234376826
3895.83,1.5992557332659383,182.6600748114775
3896.7263,1.6005561364156429,221.69422782783448
3897.625,1.6015286033409768,180.80343499174444
3898.5215,1.6024856846255089,174.7087651150017
3899.4207,1.603894432501919,210.44041686574548
3900.3176,1.605981335830555,211.95141602624966
3901.2148,1.608259090116498,209.0874100796602
3902.1145,1.6095132299434143,168.52218479200815
3903.0122,1.6085338243169276,163.6133722052829
3903.912,1.6050038810869223,167.98828374482778
3904.8103,1.5997438164617876,173.63203394401128
3905.7107,1.594156046830519,185.48317330839825
3906.6094,1.5895877795507192,211.53698220333877
3907.508,1.5867822114812438,183.1060777426177
3908.409,1.5858680985066145,169.12151292649656
3909.308,1.5866287839122377,205.2068278300731
3910.2097,1.5887959946175416,195.4433989667384
3911.1091,1.5920295806432452,181.38632810822497
3912.011,1.5957332022727975,179.48972292958098
3912.9111,1.5990081448122992,181.12801475497193
3913.8113,1.6011515308981636,181.97459325048075
3914.7136,1.6020779374466076,199.95935223200152
3915.6143,1.6022129329699732,195.1052130084961
3916.517,1.6018625036025185,191.7961447640125
3917.4182,1.600729043798421,178.42378089867123
3918.3215,1.5981767420622168,173.56137387151193
3919.223,1.5940231420983786,185.41736739320433
3920.1245,1.5889268628555766,186.55486562415194
3921.0286,1.5840491064105597,174.2015799873913
3921.9307,1.5803762855386667,211.92411808744095
3922.835,1.5782389898905418,190.9697898444547
3923.7373,1.577552622937762,170.88328445332272
3924.642,1.5781761177411378,192.20932589440056
3925.5452,1.5800133525135152,199.90899099039538
3926.448,1.5826663667918233,194.60979344154597
3927.3535,1.5850879692927715,156.1652714997447
3928.257,1.585707262708542,166.39179581679417
3929.1628,1.5832104222964796,161.99560695583065
3930.0667,1.5774214016582098,174.97664120090724
3930.9731,1.5696133853637737,204.60703396338073
3931.8774,1.562102216204833,196.48377538153892
