wavl,flux,ivar
3566.9744,2.459044883299855,14.799242441909312
3567.795,2.4498959547240533,34.44345671989876
3568.6177,2.429766456566391,12.913538293011806
3569.4385,2.3971533548035646,11.62636926264063
3570.2617,2.354396934328228,27.44546803505946
3571.083,2.3103478758797906,24.934517536929555
3571.9065,2.2774044931594855,31.361523369364185
3572.7283,2.26583606770484,26.773678415552926
3573.55,2.276695283433749,90.21846830342272
3574.374,2.300921662567158,23.454869406340556
3575.1963,2.3241678663652463,20.39425522216757
3576.0208,2.3350602460924597,29.08765201400753
3576.8435,2.3298661545711057,27.968513741181876
3577.6682,2.312230510324994,19.44669626063029
3578.4915,2.2891169999375305,544.4985250405464
3579.3145,2.2663988579329595,61.81956775883253
3580.14,2.247042968003055,17.105997641135033
3580.9636,2.2322418703473073,43.679647500149436
3581.7893,2.223149165978351,17.78763679487986
3582.6133,2.22201657493545,38.28848441731799
3583.4395,2.2309320215363826,536.2353366709619
3584.264,2.2500305426883616,66.54000845647815
3585.0884,2.276821109494173,15.29146673086699
3585.915,2.3067428569466344,31.356268184414944
3586.74,2.33386028070952,25.75191753226439
3587.5671,2.35247679402916,25.48959254024917
3588.3923,2.3582902178509606,25.58070452007348
3589.22,2.3506261998711757,22.385268956605614
3590.0457,2.3332619600819253,59.05326029392958
3590.8716,2.3130489988379783,17.05626568709495
3591.6995,2.296806336517218,25.11044186593969
3592.526,2.2885146887816794,57.27324787599824
3593.3542,2.2884377442980752,49.97349600467453
3594.181,2.2949504705241885,15.885225813994467
3595.0098,2.3065418368548154,24.687263394931183
3595.8367,2.3219019557955685,31.783557439088664
3596.6638,2.3388432335930034,11.615555494731993
3597.4934,2.353972667621662,114.53469190212083
3598.3208,2.364518223553281,17.719339044579286
3599.1506,2.3705488586513717,27.411490474555816
3599.9788,2.373560487320332,17.934234305892108
3600.8088,2.3730408442844615,32.841252560434164
3601.6372,2.3652120804232193,20.265318081955353
3602.4678,2.347012568133827,26.49004149382047
3603.2964,2.321782084833619,40.71003069272345
3604.1252,2.2992442688395305,20.17095148841132
3604.9565,2.289329262912108,27.505724461980215
3605.786,2.2952891105397386,16.06163880518315
3606.6172,2.3125558779075366,22.177349740772897
3607.447,2.333496448456373,25.265711043476255
3608.2788,2.352659205376981,15.173936957625642
3609.109,2.3675492217499214,16.8883224375802
3609.9392,2.377091627161373,23.478487535586662
3610.7717,2.3806130271202766,13.190773681890642
3611.6023,2.3793506091140997,53.79927695723701
3612.435,2.3773072877480885,31.311286478085705
3613.266,2.3785949449678823,46.54047911621175
3614.0994,2.383317707834064,17.541246761157172
3614.9307,2.386579827914982,17.966035502338002
3615.7625,2.3821014744860403,19.637128171386983
3616.5962,2.3667140259774566,17.735361974831324
3617.4282,2.342322929625906,19.563482227676595
3618.2625,2.314100697066229,15.822645322344668
3619.0947,2.287948535597798,15.74176173818005
3619.9292,2.267140537650082,37.279286429187906
3620.762,2.2511113460502035,30.725194916895184
3621.595,2.2359646766035017,8.917868399051416
3622.4302,2.218126588975057,19.115762517322306
3623.2634,2.197547966582891,69.78851025991767
3624.0989,2.1766918260632373,28.12525203922948
3624.9326,2.157366444953102,42.51030383032524
3625.7686,2.13861949861825,25.51652858311381
3626.6028,2.11970449352651,39.75091462625193
3627.437,2.1036418091891265,21.909447772224606
3628.2734,2.097563832969136,28.55012000286627
3629.1082,2.1082236431475936,32.59059222701795
3629.945,2.136662001616863,39.45616139556713
3630.78,2.1764295558154623,18.225457008822993
3631.6174,2.2173553818480576,62.32015048927834
3632.453,2.2504246316808607,25.114863003210452
3633.2883,2.272859209677858,26.49324735401787
3634.1262,2.288238645165094,17.24760924024036
3634.9622,2.3027427321989653,21.740563637945606
3635.8005,2.319861565353836,21.363280887771374
3636.637,2.336611324958177,46.25039224385229
3637.4756,2.34531220564397,37.11890362777875
3638.3123,2.338843875712086,13.33256343813051
3639.1492,2.3162460001674563,24.772384925932712
3639.9885,2.2836504596938028,27.02423309634321
3640.826,2.251018376041576,38.57704087548789
3641.6653,2.2263257935249423,25.02661034158562
3642.5032,2.2127277545704938,31.940794771996813
3643.343,2.207727715124139,64.04828214745231
3644.1812,2.2056355730592023,14.699238936251856
3645.0195,2.2015383795343264,24.406164798596926
3645.86,2.194836660854298,24.691158216075525
3646.699,2.189182962282162,36.12289770226739
3647.5398,2.188617367267193,23.597365683110688
3648.379,2.1939167509635285,14.357899789006078
3649.2202,2.2021822951926993,15.044053746633018
3650.0596,2.2091292088252796,25.540816780699387
3650.8994,2.2117208031845452,26.494558163211696
3651.7412,2.209068256855364,23.360789635068528
3652.5813,2.2019223471278724,37.36990982902434
3653.4236,2.1911079015196373,45.40105858257732
3654.2642,2.176531911918347,35.044677729391
3655.1067,2.1576841322298,75.74632544539426
3655.9475,2.136153118342939,22.00496953045513
3656.7886,2.116495998064064,44.087377494748154
3657.6318,2.104032263909203,201.54192450258574
3658.4734,2.1005970269969194,67.71403543597577
3659.317,2.102734622051848,73.87269416426938
3660.1587,2.1050906510871377,235.88761467151548
3661.003,2.1053679339782896,96.8281518001325
3661.845,2.1059325021437774,29.966843213801667
3662.6875,2.110949753077139,40.968833193824835
3663.532,2.1222591313895474,18.132837181361772
3664.3748,2.1374430586685356,32.672648691829785
3665.2197,2.151489868943822,19.056109150225527
3666.063,2.1597617136508163,22.378373675823727
3666.9084,2.1608081063059013,60.85430500761845
3667.752,2.1567569849705808,14.496511240743263
3668.5977,2.151818133843973,28.652670144899858
3669.4417,2.150117888145535,55.94531807145488
3670.286,2.1543108267347337,30.35325793767573
3671.132,2.1653339997320904,27.382398817841143
3671.9768,2.181711841421995,42.214846429628096
3672.8235,2.1987986286610837,35.312405115888595
3673.6685,2.209453632668599,27.761666057536228
3674.5156,2.2082779868106934,15.887250629095625
3675.3608,2.195669944778861,34.82179644482348
3676.2063,2.1775631003708504,17.45804117578466
3677.0542,2.1605476774667487,91.53247250317783
3677.9,2.1478173648063574,20.136086833117105
3678.748,2.1391065234929654,20.462126267906772
3679.5945,2.1336878117699793,28.004598878622424
3680.4429,2.131157234257437,16.29372569066887
3681.2896,2.130425935313679,31.82688862236651
3682.1365,2.129497548462106,51.26508981094833
3682.9856,2.1273268085947805,21.117204639937725
3683.8328,2.125007362338265,203.16567039359404
3684.6824,2.123862210066015,40.0747828988389
3685.53,2.122340432267763,29.82375182732249
3686.38,2.11575051539495,10.881600083019173
3687.2278,2.1003239951532233,37.07629471284821
3688.0762,2.0777834270496447,39.81961678070766
3688.9265,2.0561178180567086,26.776565095626793
3689.7751,2.0454354749851205,95.17988517646184
3690.626,2.0513133642560315,52.90628419828501
3691.475,2.0711161223385313,31.2748908492928
3692.3264,2.0958640457725886,52.40351928015187
3693.1758,2.1161646988725513,19.59694322835645
3694.0254,2.1281077016781422,32.3487596039315
3694.8772,2.1334798936236266,23.106688952012018
3695.7273,2.1362668395844664,30.42851830132285
3696.5793,2.1396076476980816,21.831399465110945
3697.43,2.14503180207866,48.63207038576704
3698.2825,2.1524987619932556,36.29937071046894
3699.1333,2.1597120331464095,43.81184015724821
3699.9841,2.162657424665081,20.830286979644256
3700.8374,2.158197992758172,26.722330269149282
3701.6887,2.1470013181983436,41.20484421866873
3702.5425,2.1332638222927107,25.845049163205005
3703.3943,2.1215057640359962,56.61174108075758
3704.2483,2.1129740283101626,1400.4861161801923
3705.1003,2.1055265920928483,34.58809631263471
3705.9526,2.0959790533039393,44.02642471103269
3706.8074,2.0829431593486727,18.810541373237662
3707.66,2.067748811488066,28.031714854991232
3708.515,2.052646926969033,19.938527572491648
3709.3682,2.0389298413675236,27.81947821434466
3710.2234,2.026089042577185,25.054287445004313
3711.0771,2.0135065523850018,30.03678832341883
3711.9307,2.0017645537890294,48.537585491312804
3712.7866,1.992391281584441,146.19151386427524
3713.6409,1.986267392928655,52.69555558719216
3714.4973,1.9822647643687754,38.472957712196525
3715.3518,1.9777262178039565,15.516595857195327
3716.2085,1.9700168393732584,172.4918789403803
3717.0635,1.9586697513667708,51.075867877277645
3717.9185,1.9464636174958232,64.7853174265824
3718.776,1.9385358382970208,133.16819331428817
3719.6313,1.939373005927183,40.33543367781207
3720.489,1.9496735151018083,66.74515368730127
3721.345,1.9660820788712934,51.7795997035213
3722.2031,1.9839559141955503,28.537169673176415
3723.0593,1.9998272363052454,29.75128549106503
3723.9158,2.0123583902875324,107.87809163073615
3724.7747,2.021322507753492,39.18296435962382
3725.6316,2.0268241339516386,26.88364723975337
3726.4905,2.0294026010320896,36.78883753518684
3727.348,2.030072807115853,38.65579423711643
3728.2073,2.030030279581528,33.86924085430468
3729.065,2.029629874433613,78.24903197875469
3729.9229,2.0276491216074257,25.144731316332948
3730.783,2.022037178405662,24.477541630695878
3731.6414,2.0120245996903288,27.5410435639506
3732.5017,1.9993581485572633,56.503643831134525
3733.3604,1.9876593231766944,23.287845944516533
3734.2214,1.980228745509083,36.94281009924775
3735.0803,1.9788740452426352,30.04049319851849
3735.9417,1.9835823007906197,24.839952804389224
3736.8013,1.99264642380402,33.642579099177205
3737.661,2.0026803538219777,23.84191251116317
3738.5227,2.0092550118359753,22.836099518771356
3739.3828,2.008805495161653,18.222456852332208
3740.245,2.001023301309842,31.627124412205077
3741.1055,1.989396452450663,29.620497279745955
3741.9683,1.9786857410595369,35.4655297976533
3742.829,1.9714384500437516,24.63101487130656
3743.69,1.9662652554947904,21.96378356856468
3744.5532,1.9600422983651422,26.513240963046904
3745.4148,1.9513850620280822,36.34143971498088
3746.2786,1.9418218229911282,27.048256814504555
3747.1404,1.93433817800801,30.798520512975244
3748.0044,1.9309036602335075,30.710681151005154
3748.8667,1.9315589924736343,24.138530990362568
3749.729,1.9347961730287746,22.61457591965066
3750.5938,1.9388789767050825,23.673894953020064
3751.4565,1.9430552173462248,29.98357778170918
3752.3215,1.9479595279482715,30.20253898839549
3753.1848,1.954496433084081,73.38556626755049
3754.0503,1.9626425903015476,46.506896148599004
3754.9138,1.971381887365726,32.412048948794805
3755.7776,1.9800960832433199,63.115376374172335
3756.6438,1.989003640017247,41.360414463197735
3757.508,1.9977773301624873,34.44418247467381
3758.3745,2.0041244242843694,36.154883772759305
3759.239,2.0041093290906327,28.023350851653184
3760.106,1.994886382153431,16.5623729041374
3760.971,1.9773003552835133,40.70342744003587
3761.8362,1.9559647534589377,24.922310529998803
3762.7036,1.9370115597627173,31.66562529871778
3763.5693,1.9251985377835934,31.034262014568846
3764.437,1.9216264797753986,53.17327593765708
3765.3032,1.9238588726907897,39.9198978343999
3766.1714,1.9276526385969452,19.87179693050294
3767.0378,1.929389659723162,24.185678324234825
3767.9043,1.9272896657516558,31.758069578108746
3768.7732,1.9208607449982902,25.95464372868537
3769.6401,1.9105068433154007,36.27589630373002
3770.5095,1.89806797381743,35.89148698994997
3771.377,1.8875029161563723,27.150624663482873
3772.2466,1.8832245926159652,30.230479623900774
3773.1145,1.8875487958112798,58.557978175469756
3773.9824,1.8992895209554261,37.27596333503897
3774.8528,1.915376015592149,28.715606165768953
3775.721,1.9333462224644893,46.259400124273895
3776.5918,1.9526710102004983,32.54250379420261
3777.4604,1.9727636561999813,49.54110774611692
3778.3315,1.9914247823259479,21.959606317510705
3779.201,2.004680681852484,26.490257806577684
3780.0703,2.0092107047293464,85.94440668616724
3780.942,2.0035957979015793,22.598021843870143
3781.8118,1.9881354592819687,27.392096785806167
3782.6838,1.9640560837392393,22.735019540284405
3783.554,1.9341876694144524,41.72661338924574
3784.4265,1.9034840921620895,27.532442181882526
3785.297,1.879284817942188,39.38024261894434
3786.168,1.868032350693877,187.37740957937277
3787.041,1.8713562414676892,62.9460998841286
3787.912,1.8834352757032309,39.82772272114969
3788.7856,1.893496590195188,25.31179076697701
3789.6572,1.8921619242823668,40.51142624170844
3790.531,1.877111792756036,29.991456208659176
3791.403,1.853439236636833,39.546547707072506
3792.2754,1.829150180481445,55.783131266246116
3793.15,1.810540283952939,156.41453781321013
3794.0225,1.8004393378396546,38.7526377074998
3794.8972,1.7985415409006675,26.877007968119884
3795.7703,1.802531096759261,56.621811404667625
3796.6455,1.8084691979981016,60.285110527904294
3797.519,1.8118598275093387,42.97352630563134
3798.3926,1.8099980284382617,58.28516833012041
3799.2686,1.8036501632249933,49.56296414714757
3800.1426,1.796384161699362,48.86244039547676
3801.0188,1.7915556073710002,43.79802086688688
3801.8933,1.7899766070618106,27.091648645963772
3802.77,1.790035324159262,40.44768932278714
3803.6448,1.7902173185783512,23.38752594875334
3804.522,1.7913918750305513,114.57651795231772
3805.3972,1.7965359593313266,48.75028323484844
3806.2727,1.8078902992196673,62.545235429974575
3807.1504,1.8241734603243884,40.31356280611968
3808.0261,1.8404214973757116,21.7274011347164
3808.9043,1.8510655465922086,27.30620183576377
3809.7805,1.8526741791198567,36.930809813739266
3810.659,1.8453588516700943,32.952996522643204
3811.5356,1.8324819080044437,20.553000843502122
3812.4126,1.8195828231779951,75.44787145390328
3813.2917,1.812377738885284,82.44544880950923
3814.169,1.8140225027485022,50.714643304939514
3815.0483,1.8234771946051855,47.421186961806
3815.926,1.8365941766883433,17.53504141451806
3816.806,1.8488600451196593,62.1828993718504
3817.684,1.8571620299692102,64.89219434317636
3818.5623,1.8606042064124075,49.54895630477695
3819.4429,1.8602198337289217,28.99129439716185
3820.3215,1.8582496308777745,45.12053876453375
3821.2024,1.8569097584089935,41.59309056384467
3822.0815,1.857552904978605,28.410393489202157
3822.963,1.8605974448797116,31.068291817966294
3823.8423,1.8653833012188812,37.546583164262515
3824.722,1.8694727249092415,41.197304460120556
3825.604,1.8684592033634273,33.99936528472272
3826.4841,1.8578395165762116,43.9230241182845
3827.3665,1.8360139042608792,51.66579488793942
3828.2468,1.8061964398394357,43.34168460377964
3829.1296,1.7746706834870412,50.31779497947919
3830.0105,1.7478045566563887,58.617261131375116
3830.8916,1.728452589964022,58.568619753218215
3831.7751,1.7156590389134878,62.74170294164202
3832.6565,1.706387955115714,61.50049214930277
3833.5403,1.6973739601383802,125.7334819628986
3834.4224,1.6862667588589493,48.11991634908798
3835.3064,1.6715859523460692,69.63561035996818
3836.1887,1.6534014219328954,50.54470424889906
3837.0713,1.6337512904847598,42.50384871414209
3837.956,1.6162768284774747,29.598226353905755
3838.839,1.6046538710914493,37.81083228092539
3839.7244,1.6009448196434317,37.14676316401498
3840.6077,1.6059559589663415,56.122291077704105
3841.4932,1.6201136511073253,38.940661960886004
3842.377,1.6432298421566844,52.091011758000164
3843.261,1.6734001023588891,102.26629430432938
3844.1472,1.7065436571761532,74.96724392617222
3845.0315,1.7376624381356933,49.41551576574216
3845.9182,1.7634725074877835,27.452533994629963
3846.803,1.7826584790050355,29.035975829625947
3847.69,1.7962474537668907,41.58447614202287
3848.5752,1.8073520519599315,33.76027538787194
3849.4604,1.8210865915081806,25.918685730173262
3850.3481,1.84202892342046,25.175563592486
3851.234,1.8702043305665497,41.12922487488282
3852.122,1.9000221713831895,27.21071733474165
3853.0083,1.9230642643709477,42.4362497688547
3853.8967,1.9343265743766365,27.163584445938092
3854.7832,1.9351586207514433,24.99572902910747
3855.6702,1.9317886257343182,42.43191406555388
3856.559,1.93031631410567,34.81864754436536
3857.4463,1.9329073350690056,32.36171918696905
3858.336,1.9376508228213243,23.765828329182465
3859.2234,1.9412203655802573,27.50696568075614
3860.1135,1.9414738805011247,27.378197267535022
3861.0015,1.9378871870512986,26.768667112421184
3861.8896,1.9305475680200137,24.835831194034455
3862.7803,1.9192576463617463,29.33605120361826
3863.6687,1.9040551838775528,39.658116199691136
3864.5598,1.8861799879350547,75.95337815861753
3865.4487,1.8687910704965078,92.80782603733833
3866.34,1.8552332722012856,33.41699049921577
3867.2297,1.8474536954170093,40.338392779794944
3868.1213,1.8452866704933697,38.964251312571704
3869.0112,1.8473883742263255,86.88630144669924
3869.9014,1.8514888449083915,35.782722623808375
3870.7937,1.8540684280850999,32.36038447956604
3871.684,1.85101725131997,26.260517047940933
3872.577,1.8397678382533889,22.023945944844396
3873.4678,1.8208102552446503,40.40983086096738
3874.361,1.7964363154719065,39.574710572681425
3875.2524,1.7689505582943117,29.361990700963407
3876.1438,1.7398341270813336,39.91174504195622
3877.0376,1.7113027897685824,32.370621007397915
3877.9297,1.6871664552495624,46.900621772992764
3878.8237,1.6705694021618804,134.64445922556266
3879.716,1.661914217583547,49.142309031154475
3880.6108,1.6582064191973358,181.1268998812635
3881.5037,1.6550938440336658,35.6957828910987
3882.3965,1.6489244118845423,41.932428055332736
3883.2917,1.6375977990262534,38.241679314052
3884.185,1.620238957862608,48.78267482154905
3885.0808,1.5961298474127241,54.878994022305776
3885.9746,1.5647436446839358,25.782078265700406
3886.8706,1.5258758453028136,67.96252891347547
3887.765,1.4813210900812614,70.86948865758715
3888.6592,1.4350409264955213,73.128530455533
3889.556,1.3929477515585302,76.86001150884813
3890.4507,1.3615843412678632,133.49116563207008
3891.348,1.3452388181174628,46.754186470519095
3892.243,1.3451351868797903,126.12138162663561
3893.1406,1.3593983145865671,59.02563748981327
3894.0361,1.38436609625024,111.069412259674
3894.932,1.415947476259539,72.03280974720278
3895.83,1.4505366897330296,127.04151828545264
3896.7263,1.4858210697532208,47.54268985559282
3897.625,1.5219620583735598,47.57814986646364
3898.5215,1.5596055447277752,69.08437180759694
3899.4207,1.5980400004863455,119.16590464095323
3900.3176,1.6332097395686795,25.85050724393318
3901.2148,1.6604284611896356,35.808887594553525
3902.1145,1.677564288948393,49.67923450805565
3903.0122,1.6869811743056053,90.43574543863292
3903.912,1.6946065555529022,45.95582970754876
3904.8103,1.7063517668987174,76.2511612270558
3905.7107,1.7249019780108434,97.73689152173169
3906.6094,1.7479003971606162,58.14896975781696
3907.508,1.769827409728043,52.68620446364869
3908.409,1.7863010347290613,50.606986078444066
3909.308,1.7978361208509732,36.43268612608588
3910.2097,1.8096000888741752,54.66185209715401
3911.1091,1.8264476820464466,32.18825542195697
3912.011,1.8490099404637172,28.350040642142787
3912.9111,1.873721756709849,34.29241415449676
3913.8113,1.8969467342506898,40.44985492126832
3914.7136,1.9176856077594988,29.244644525105773
3915.6143,1.9369041416044652,36.337285844470955
3916.517,1.9554845145194546,25.725664203557535
3917.4182,1.9725368021387435,33.894377110373156
3918.3215,1.9864562548596907,48.84349523558641
3919.223,1.9964195199641752,46.18802730133223
3920.1245,2.003839959424691,72.50911527511371
3921.0286,2.011896646902006,34.175989557011654
3921.9307,2.0234537258908074,32.05084391080267
3922.835,2.038621744147762,33.82247905498425
3923.7373,2.0536034350595442,40.35156999293126
3924.642,2.0629843121926807,19.105341144846456
3925.5452,2.063297397820363,48.493102475079944
3926.448,2.055685435984538,33.30707664382064
3927.3535,2.0448379751738543,29.444458178136333
3928.257,2.035627529229907,28.52075149605807
3929.1628,2.029680861481234,28.74273977164194
3930.0667,2.0252209174238867,36.657685620225315
3930.9731,2.019578356544835,31.932162880961467
3931.8774,2.012102970955035,33.8521390592149
3932.782,2.004169272666491,20.202532203989065
3933.6887,1.9969395829267738,46.43319688966166
3934.5938,1.9897299719936632,27.2522881276197
