wavl,flux,ivar
3566.9744,0.7509595380394843,525.7683812081315
3567.795,0.7513521313247352,654.6294901353958
3568.6177,0.752026017647349,644.9408119345328
3569.4385,0.7528160138625969,504.01897725767253
3570.2617,0.7539551475792279,872.2409503774047
3571.083,0.7557937937686829,575.9235280625192
3571.9065,0.7583418977654546,740.6897938210586
3572.7283,0.7609600106715925,753.8965661704469
3573.55,0.7626273963990858,681.0104060275207
3574.374,0.7624535781167178,533.5953234571323
3575.1963,0.7598634325384037,444.2751146533517
3576.0208,0.7537589851794213,798.6189828316363
3576.8435,0.7410562764913619,601.0390315316542
3577.6682,0.7160729347372414,724.7687748546138
3578.4915,0.6736909204135276,593.2608777488543
3579.3145,0.61543705032748,702.2143924879982
3580.14,0.5545123629542043,680.2123222777011
3580.9636,0.5133268441955358,611.4662170101715
3581.7893,0.5098124162714407,640.5205716132272
3582.6133,0.5451711171935887,570.55959709122
3583.4395,0.6029708001427929,626.806089032593
3584.264,0.6604880334508328,562.4704520413874
3585.0884,0.7028714169619329,740.4470545195699
3585.915,0.7271803215187167,678.2284901362084
3586.74,0.7381001903518967,526.6948441984188
3587.5671,0.7420693256031181,683.5472833345677
3588.3923,0.7434978072269866,585.5243615416794
3589.22,0.7444232749866918,599.3190520376569
3590.0457,0.7452788237644211,596.9700171003567
3590.8716,0.7457815335619657,597.3300116569534
3591.6995,0.7455082640918347,595.5161107751501
3592.526,0.7442870620092702,527.1886714233455
3593.3542,0.7424112380063791,699.3157845883936
3594.181,0.740641056707125,714.8498771242604
3595.0098,0.7398579225096622,674.3760918031386
3595.8367,0.7406057877423148,665.4629551174396
3596.6638,0.7427830512229572,841.7115019754273
3597.4934,0.7457879941514717,573.3952770245558
3598.3208,0.7488326232957873,801.4538106395066
3599.1506,0.7512057655567005,652.7837916392378
3599.9788,0.7522169056221515,842.82203297884
3600.8088,0.7513355921012523,633.7450025316992
3601.6372,0.7485036786692253,621.5564279425955
3602.4678,0.7443730882900559,653.9165936758758
3603.2964,0.7401735847922075,665.5629535487014
3604.1252,0.7370846073772251,577.4216704769821
3604.9565,0.7357280916333101,667.425097049147
3605.786,0.7359812909171819,471.0631169173577
3606.6172,0.7372110563122148,741.5434209376319
3607.447,0.7387680824627438,678.5392313498785
3608.2788,0.7403381435125793,733.6717094868023
3609.109,0.7418266509774635,817.8340772949553
3609.9392,0.7430406380516522,716.8008791336354
3610.7717,0.7435911513377538,645.6738509275593
3611.6023,0.7432444676437542,567.7291310909192
3612.435,0.7422672255739948,796.5334290300241
3613.266,0.7412905866814554,578.8791887343882
3614.0994,0.7408498967047518,861.8368809466278
3614.9307,0.741157067675404,579.650201724577
3615.7625,0.7421802989536093,703.0085088384807
3616.5962,0.7437248998467331,650.1617771167361
3617.4282,0.7453075039353807,737.9341548970133
3618.2625,0.7461951449933725,758.7123940081002
3619.0947,0.7457789433720876,457.29988155722293
3619.9292,0.7440412818161084,612.6110852022296
3620.762,0.7415382480795756,628.5735385389738
3621.595,0.738879319421376,876.5100724925751
3622.4302,0.7363350713663106,736.3348377683039
3623.2634,0.7339287389056932,542.4755386402924
3624.0989,0.7316856053535867,883.5711144530566
3624.9326,0.7297558024104757,581.4104946754142
3625.7686,0.7281848070855252,656.7372050681022
3626.6028,0.7268214300751817,569.1770566529167
3627.437,0.7254730168246862,781.7833136246031
3628.2734,0.7242972569151832,1016.5797453334793
3629.1082,0.7240309274096387,659.286384586147
3629.945,0.7257509870152956,674.7257259608458
3630.78,0.7302162297359984,779.5665405206587
3631.6174,0.7372078300882007,609.698401741371
3632.453,0.7452041026148523,652.1567668297652
3633.2883,0.7520317179218151,534.4516170808301
3634.1262,0.7558564797232661,797.7934716221055
3634.9622,0.7560581541398407,637.60889795343
3635.8005,0.7534593856306033,583.1971393962482
3636.637,0.7497070480657767,753.909657841797
3637.4756,0.7463078472177302,707.0569714143513
3638.3123,0.7440530821290596,731.7885255984966
3639.1492,0.7429680565812347,586.9221419726422
3639.9885,0.7428115840976687,637.3872693080011
3640.826,0.743468252197002,745.525832022423
3641.6653,0.7449436067986318,519.2574449589291
3642.5032,0.7470736711134479,576.3957377640044
3643.343,0.7494030245363686,503.9984136415089
3644.1812,0.7513379856859308,807.3600922796066
3645.0195,0.7524916332813877,782.2137214940734
3645.86,0.7527909096655535,435.83196871899634
3646.699,0.7523578250047118,516.4717847307281
3647.5398,0.7513215071283281,684.6194441650362
3648.379,0.749786366315304,646.3566654268724
3649.2202,0.7479482645920549,725.697359616419
3650.0596,0.7462273674147468,751.5527617019594
3650.8994,0.7451186625914441,734.3661759993269
3651.7412,0.7449140048792907,681.3447067593307
3652.5813,0.7454845019693509,906.2000962705453
3653.4236,0.7463764503841825,844.8868078105584
3654.2642,0.7471200869981248,720.4250312919444
3655.1067,0.7474892211727636,713.0333679283727
3655.9475,0.747493306941482,570.8096889040954
3656.7886,0.7472096622554119,582.2563510229934
3657.6318,0.7465886161594902,614.4031017238784
3658.4734,0.745395731852658,613.8563685626451
3659.317,0.7433579225377404,497.680598944455
3660.1587,0.7405147231439754,658.0810959658232
3661.003,0.7373831357610807,791.9808501830971
3661.845,0.734840770992075,865.3165113323352
3662.6875,0.7336767341162453,622.8635640055667
3663.532,0.7343813265584136,682.0937308052819
3664.3748,0.737102260832634,573.6266911784968
3665.2197,0.7416670326671192,945.1985211187006
3666.063,0.7474363860225789,610.3056013505952
3666.9084,0.7533373772670698,670.5007070815939
3667.752,0.7579729114023178,652.8300478442034
3668.5977,0.7601899741840011,646.0813185408379
3669.4417,0.7595364846681077,641.244111615329
3670.286,0.7565999730347103,608.1591578183027
3671.132,0.7527606994813135,674.2424491556372
3671.9768,0.7495851844284486,811.0711509859765
3672.8235,0.7480673416319662,794.4877942445914
3673.6685,0.7482974000588282,938.9029715663054
3674.5156,0.7495577010608471,988.066647519192
3675.3608,0.750851672462821,639.2904145526044
3676.2063,0.7515568810195459,672.8667218916104
3677.0542,0.7517187429787597,579.4336553759276
3677.9,0.7518135306278928,584.5872760910818
3678.748,0.7522382348868151,501.15906626102293
3679.5945,0.7530039532203069,557.4247424783589
3680.4429,0.7538155870865061,864.492228733835
3681.2896,0.7543025609303022,700.8983629507609
3682.1365,0.7542442687507863,723.0811180465398
3682.9856,0.7536989702967809,598.5217520023101
3683.8328,0.7530069994396905,573.7651793686377
3684.6824,0.7525371412788466,612.7046824597656
3685.53,0.752337429089337,604.7271720744484
3686.38,0.7520197505646048,619.0979325205903
3687.2278,0.7511233032322825,613.6409329171789
3688.0762,0.7496333383556513,556.3838328606306
3688.9265,0.7481517860737076,719.7131524512835
3689.7751,0.7475393198251397,765.7427437989262
3690.626,0.7482995794150311,827.1264026093062
3691.475,0.75022141546062,626.1935506543094
3692.3264,0.7525027494475396,648.0517902213237
3693.1758,0.754215161222686,709.9163418098867
3694.0254,0.7548638436264528,744.2954881545272
3694.8772,0.7545494935308774,611.8896472577353
3695.7273,0.7537444642120091,631.355160992197
3696.5793,0.752879009998333,813.6932340010266
3697.43,0.7521092374136221,459.6123047149509
3698.2825,0.7513263530283248,696.7452160336911
3699.1333,0.7503203003575395,582.8630505555523
3699.9841,0.7489192837907963,496.6143052271499
3700.8374,0.7471171156976095,690.1835304951528
3701.6887,0.7451472326547837,588.5200146384119
3702.5425,0.7433285216788021,611.4526359201204
3703.3943,0.7418409806843947,573.9519135417155
3704.2483,0.7405491484917525,692.9780356942427
3705.1003,0.7392116329489927,713.0798908043081
3705.9526,0.737791736017995,670.5821378200305
3706.8074,0.7365803275516886,658.7963473554535
3707.66,0.735965365547807,742.1737434061552
3708.515,0.7361048746588639,624.243120322041
3709.3682,0.7369051681465787,533.5025176378106
3710.2234,0.7382071875215307,814.5419012256147
3711.0771,0.7398187222522754,625.8375188824452
3711.9307,0.7413100244856322,600.1321886195191
3712.7866,0.7418658674739552,730.3375682740423
3713.6409,0.7405731989782806,755.803913864105
3714.4973,0.7370562328473684,754.4387768297904
3715.3518,0.7320002796043311,615.2797812698698
3716.2085,0.7269843162361762,954.0861793080699
3717.0635,0.7237984527006163,1028.4155991893238
3717.9185,0.7234501223420106,663.4209155014781
3718.776,0.725842494325904,867.3224102312514
3719.6313,0.7300869687073489,754.1711067617903
3720.489,0.7351696470750447,509.45557953268263
3721.345,0.7401921287724086,542.1668924593729
3722.2031,0.7444205136312051,482.57156172682636
3723.0593,0.7472157796801585,692.5007021692793
3723.9158,0.7483573366538984,635.7351673830641
3724.7747,0.7481868205764849,875.7712588006996
3725.6316,0.747445722398027,744.5384690472181
3726.4905,0.7468235901702556,712.1231570970086
3727.348,0.7466015167987037,613.4729713543729
3728.2073,0.7465656734490483,533.7822415923746
3729.065,0.746211345097494,617.1890300943267
3729.9229,0.7451163024158874,760.0661618638393
3730.783,0.7432654317100233,582.7853569331241
3731.6414,0.741096601244902,697.3726876245748
3732.5017,0.739158400855404,649.5848561916263
3733.3604,0.7377762575638797,603.5110570239514
3734.2214,0.7369106728759337,635.1448648900122
3735.0803,0.7363442695444248,660.4644086822829
3735.9417,0.7358824912480652,570.8262178855204
3736.8013,0.7354796956997686,921.9674827636003
3737.661,0.7352234531444835,570.9989654125344
3738.5227,0.7352400835766086,773.3597425660438
3739.3828,0.7354912395153219,649.4328849832365
3740.245,0.7355605698741732,591.3599406974374
3741.1055,0.734694168486101,751.8951001808117
3741.9683,0.7322426975821567,726.6338994537334
3742.829,0.7282464180627746,635.7057607313648
3743.69,0.7235282959873565,960.0481319824188
3744.5532,0.7192492091391923,728.3986009978165
3745.4148,0.7163633307707252,675.5879266007641
3746.2786,0.7153105465202859,681.6530937511773
3747.1404,0.716143139957935,913.6487021231973
3748.0044,0.7185741910530593,658.0124423487692
3748.8667,0.7219325461636414,630.7035167033765
3749.729,0.7252854943926008,642.8773008027642
3750.5938,0.7277551907901381,775.6406700817394
3751.4565,0.7288450159482046,721.9813469987475
3752.3215,0.7286089132552076,480.60783037257687
3753.1848,0.727532290130423,608.4979257710215
3754.0503,0.7263245195237863,581.0352396904915
3754.9138,0.7256716117652393,653.6892585787572
3755.7776,0.7259588048062978,1054.9139717048447
3756.6438,0.7271453301115288,646.5137858593896
3757.508,0.7288263972904178,525.1793595304432
3758.3745,0.7305324705815609,763.4410688789735
3759.239,0.731982459895461,627.8441031829549
3760.106,0.7332118539061181,624.978492953154
3760.971,0.7344587698642006,669.8502112043794
3761.8362,0.7360527821298348,641.807237765344
3762.7036,0.7382884930262261,596.1308721099344
3763.5693,0.7412478689656409,704.9390022532194
3764.437,0.7446396886588216,654.5166120607447
3765.3032,0.7476812975686911,636.5881160443317
3766.1714,0.7493812881385884,801.0284724572873
3767.0378,0.7490140933690399,566.8093746835342
3767.9043,0.7466540420903907,636.5656254762782
3768.7732,0.7432520092729574,569.0291985920428
3769.6401,0.7401821650620547,770.586597022142
3770.5095,0.7383196797189886,701.7595576297575
3771.377,0.7375159211303446,889.9925004657983
3772.2466,0.7367859964445119,640.6849166950043
3773.1145,0.7351699564411263,614.1830417807162
3773.9824,0.7324090323895018,810.5546954168469
3774.8528,0.7289443476548179,689.1719059130577
3775.721,0.7254723175378004,783.152165722006
3776.5918,0.722510556941224,691.8785934730847
3777.4604,0.720521868813511,570.6343894215028
3778.3315,0.7200356308730962,712.1087959866975
3779.201,0.7215320034270495,810.9104404280429
3780.0703,0.724931467654461,590.0478437205009
3780.942,0.7293171741090773,673.6971213868751
3781.8118,0.7332125984144383,652.6263369461581
3782.6838,0.735384825298974,650.1786502007776
3783.554,0.7353209706418427,644.0687828418182
3784.4265,0.7332821357236144,634.6864506334211
3785.297,0.7300497382443255,753.0349299672448
3786.168,0.7266550447547568,546.6195197134748
3787.041,0.7241002038008972,840.0117290236901
3787.912,0.7229526623633538,709.308988898756
3788.7856,0.7230342943142499,764.9697972290369
3789.6572,0.7236954029882974,585.1247182651422
3790.531,0.7244349265504761,614.4936381467533
3791.403,0.7252412999998854,752.3380590678291
3792.2754,0.7263107025704241,717.6053790640482
3793.15,0.7275358073127414,769.2467989293084
3794.0225,0.7284278478976877,620.7663606486819
3794.8972,0.7285539461784761,741.6085297488894
3795.7703,0.7278870497525726,678.9536907601605
3796.6455,0.7267444950567352,695.6007341091763
3797.519,0.7254932991056282,722.9637820115514
3798.3926,0.7243512284707376,586.0599218086212
3799.2686,0.7234056579565378,798.2080028433729
3800.1426,0.7226752523522986,803.6239658745305
3801.0188,0.722096749916038,460.40758975412075
3801.8933,0.721539915939741,660.2389370805125
3802.77,0.7208588420331511,707.2849859022738
3803.6448,0.720021231717478,746.1206754229299
3804.522,0.7191914523692547,760.8222720253226
3805.3972,0.7187077710342001,937.5823689581149
3806.2727,0.7188439405754805,719.0246861222561
3807.1504,0.7195622086945428,760.2657047472011
3808.0261,0.7205005971550327,705.3992683308002
3808.9043,0.7213129234320247,650.6492474156
3809.7805,0.7219752173257225,693.519507923795
3810.659,0.72275241790883,739.7907587515293
3811.5356,0.7238532478002723,621.8915507530473
3812.4126,0.7252440481853408,737.0996716626545
3813.2917,0.7267578008896441,565.2985032146912
3814.169,0.7282745589050164,800.8189622107279
3815.0483,0.7297602618850523,554.1539866857247
3815.926,0.7311039483661752,559.559376626923
3816.806,0.7320793757878197,699.3455490365542
3817.684,0.7324468274637117,620.8735689351779
3818.5623,0.7321736624949065,692.1725670034813
3819.4429,0.7315019967364293,797.6429077016445
3820.3215,0.7308184168151539,627.333349297702
3821.2024,0.7303682167357464,671.1428109238639
3822.0815,0.7300605070416722,684.1886310939087
3822.963,0.7294845528751773,610.335458919561
3823.8423,0.7281655727993297,731.8074442696122
3824.722,0.7258261514171757,877.3261720776898
3825.604,0.7224621367544296,700.0338000008751
3826.4841,0.7182516587410557,822.5698953259033
3827.3665,0.7133528388769066,653.2709285770674
3828.2468,0.708016486841162,727.5376840102513
3829.1296,0.702631701528213,914.5655229745757
3830.0105,0.6977740548086926,829.2042745989521
3830.8916,0.6937634621714971,703.4995391645075
3831.7751,0.6904151212021447,783.1091357831447
3832.6565,0.6872417292943195,596.9318333110865
3833.5403,0.6839471189782811,955.519269718581
3834.4224,0.6808297695797662,956.4697225321646
3835.3064,0.6785129338235256,673.8383793462224
3836.1887,0.6775222769702134,690.9110587144061
3837.0713,0.677969281517905,642.1378295977672
3837.956,0.679613309501998,799.1485866822181
3838.839,0.6820440640710517,894.9771186067119
3839.7244,0.6849338120290324,858.3830463658221
3840.6077,0.6881219068978408,1087.204288647758
3841.4932,0.6916508215989269,761.5931525891052
3842.377,0.6956329793741914,613.3790917192589
3843.261,0.7002690846696084,744.9043718279821
3844.1472,0.7057766845453707,504.32088990982305
3845.0315,0.7121733988334129,706.0303384023175
3845.9182,0.7192037474643891,647.370634669127
3846.803,0.7262915388953158,594.0664500591628
3847.69,0.7329787768526094,710.8079532930483
3848.5752,0.739030790318701,876.0859449554206
3849.4604,0.7445246737097313,556.9128731833366
3850.3481,0.7496946002399049,734.4828575702923
3851.234,0.7548433661497319,691.0954639330566
3852.122,0.7603433647778511,589.991629923436
3853.0083,0.7662781703114456,635.740576733519
3853.8967,0.7723094747756354,615.9122962935019
3854.7832,0.7776212855280568,601.6541971100976
3855.6702,0.7813587979418394,640.4105377881065
3856.559,0.7829061182023863,608.0768316122939
3857.4463,0.7820681759900479,571.367615383394
3858.336,0.7791292110774402,672.7054194100352
3859.2234,0.7748479131536236,671.3563810653086
3860.1135,0.77021163958902,595.4167796846656
3861.0015,0.7661492348590878,613.5714287761801
3861.8896,0.7631105464550462,784.0982773932908
3862.7803,0.7610404051971932,566.7524902831374
3863.6687,0.759561959878328,653.9886608538397
3864.5598,0.7581795060533135,623.3179039136746
3865.4487,0.7564791366919424,488.25273237293044
3866.34,0.7542052329644872,629.3565196742003
3867.2297,0.7513783284470666,733.7852156020354
3868.1213,0.7482188418802528,568.4366976041536
3869.0112,0.7449798073341772,692.2249169637015
3869.9014,0.7416467019991063,767.7196318190882
3870.7937,0.7379005796365721,684.9455763894956
3871.684,0.7333851276434239,773.0711935473842
3872.577,0.7279734541573354,732.6878629169715
3873.4678,0.7219746453960818,770.4470275808072
3874.361,0.7158391583532349,769.1307032702405
3875.2524,0.7099827276413984,762.940387316802
3876.1438,0.7045528741382407,815.3866979124048
3877.0376,0.6995474452001873,682.2848783385205
3877.9297,0.6949577511744884,600.2483280436986
3878.8237,0.6906352303117373,928.698525592051
3879.716,0.6862013266380833,903.5071905142707
3880.6108,0.6810022739372799,784.0738881428116
3881.5037,0.674607381188072,861.5744067002793
3882.3965,0.6671493525556642,711.3176292734192
3883.2917,0.659252008319936,1033.1773055804135
3884.185,0.6515492794734372,862.1302670036833
3885.0808,0.6441581225966339,895.8192105508647
3885.9746,0.637014045682106,860.1357675532535
3886.8706,0.6302325516198566,765.7909684572609
3887.765,0.6245115427996218,988.1079618594908
3888.6592,0.6207906759899107,976.6093448435505
3889.556,0.6197645433006476,835.8392754886098
3890.4507,0.6214502958623507,1001.3247024652483
3891.348,0.6252157949935496,1137.5101859331958
3892.243,0.6302290231739902,752.5401175342048
3893.1406,0.6360648907307475,780.3113514339444
3894.0361,0.6427455462189487,962.9899977749401
3894.932,0.6505247751083073,1067.1378119515534
3895.83,0.6594440216409782,806.3989732476446
3896.7263,0.6691455722267636,829.5867988222191
3897.625,0.679201969528512,704.920119052651
3898.5215,0.6891191382728895,615.3198662739453
3899.4207,0.6985939068821442,768.7876398251252
3900.3176,0.7072800883393867,645.4992540884527
3901.2148,0.7149714232941399,614.4922667791216
3902.1145,0.7215828302056192,816.1968106194229
3903.0122,0.7272284955469963,673.0666729719861
3903.912,0.7323707848018336,607.2028866585985
3904.8103,0.7375786499257008,645.350737363227
3905.7107,0.7433724093485485,620.4575936626102
3906.6094,0.7499313491131336,625.8226920463648
3907.508,0.7571433308207924,726.4242073808115
3908.409,0.7646738105126261,597.194684506985
3909.308,0.7720672568380971,592.677525403743
3910.2097,0.7790490817065426,524.5866075939356
3911.1091,0.7855206214958683,577.8901558893194
3912.011,0.791662566058848,551.0965692512581
3912.9111,0.7975907021471377,641.8136045657436
3913.8113,0.8032448225864085,627.0518647458215
3914.7136,0.8083678693849518,525.7382524790905
3915.6143,0.8127435308381056,501.43453118145624
3916.517,0.8165272199392835,539.7674616138728
3917.4182,0.8201317333776059,538.3755342105949
3918.3215,0.8239938013239639,559.3730824494254
3919.223,0.8282027410196805,497.18835690702934
3920.1245,0.8324838673952872,581.0223451226774
3921.0286,0.8363600405783486,480.55041288124374
3921.9307,0.8394457043224349,462.6654541532556
3922.835,0.841720502157751,581.2719528383636
3923.7373,0.843388863253518,513.8652911103766
3924.642,0.8446309945114707,527.7271014763143
3925.5452,0.8453687303261246,470.9171472298186
3926.448,0.8453718600043525,444.86008353598146
3927.3535,0.8444768439764748,556.7577720943452
3928.257,0.8427152171704604,473.349877126179
3929.1628,0.8402066891306766,542.527071824749
3930.0667,0.8370545576683505,499.8185097797518
3930.9731,0.8332747385869153,480.36837934652436
3931.8774,0.8289427809777786,601.5617622153502
3932.782,0.8242210401852691,435.23482418438806
3933.6887,0.8194252426526146,549.5737129708792
3934.5938,0.8150024282808995,622.1297413532614
3935.501,0.8113092560313564,503.5026089664847
3936.4062,0.808513017408191,627.0670932705228
