wavl,flux,ivar
3566.9744,1.417028931901989,755.8856401694632
3567.795,1.4121203023707818,724.8222789081698
3568.6177,1.409283685243857,457.1048287423422
3569.4385,1.4082198620961284,483.57236091986357
3570.2617,1.4072960471069973,488.4017934139274
3571.083,1.4051149508836265,632.7897471719994
3571.9065,1.4015929384008579,554.4467135130297
3572.7283,1.397767728413543,742.420426756192
3573.55,1.394679035016691,562.1573124196165
3574.374,1.3926958302407912,540.7334126057481
3575.1963,1.3916496496456703,551.3179729060272
3576.0208,1.3912251435135883,592.3965395787983
3576.8435,1.3912110704860532,753.837159529541
3577.6682,1.3916662709227166,624.9377513647948
3578.4915,1.3931706534161783,532.6328960389172
3579.3145,1.3966672839706322,515.4640113306227
3580.14,1.402553631147229,710.6139901473165
3580.9636,1.4096839430511565,498.99945525738616
3581.7893,1.4158245035592896,476.829322700388
3582.6133,1.4191657385651657,536.4080525974837
3583.4395,1.419634830922256,513.6065878412765
3584.264,1.4183925150428236,597.740584536971
3585.0884,1.4165004836405373,541.605551195626
3585.915,1.4143282199509728,480.1102160160625
3586.74,1.412165226272342,495.5015614446507
3587.5671,1.4107232825141827,656.0304441439991
3588.3923,1.4107150370234258,561.1603878781033
3589.22,1.4120057963526462,571.1077084163103
3590.0457,1.4135925798513589,489.24691920653885
3590.8716,1.4144663394417056,591.8940235684199
3591.6995,1.4142789837063177,537.1034569092454
3592.526,1.4132347616607768,530.4273428899123
3593.3542,1.4116135692394354,564.407844877888
3594.181,1.409632113252071,575.5672523672365
3595.0098,1.4075668549750846,587.6715424593682
3595.8367,1.405810628890609,513.7491644701162
3596.6638,1.4046104765909189,609.2181777319655
3597.4934,1.4038784100672772,614.8949008805021
3598.3208,1.4032279028754056,553.5217144886394
3599.1506,1.4022171576153417,522.2737222894226
3599.9788,1.4006861175460663,534.1744188420353
3600.8088,1.3989488702465214,588.6700119953737
3601.6372,1.3977900801115486,536.1156016874028
3602.4678,1.3980992732874595,522.765652139524
3603.2964,1.4003081452458093,638.4611631421784
3604.1252,1.403906279616196,485.01949704276575
3604.9565,1.4074858605675158,614.5807717322969
3605.786,1.4094215541629915,516.6797953561214
3606.6172,1.4089109368552297,459.62295006165493
3607.447,1.4064014534990386,636.2430623533714
3608.2788,1.4030936188553467,911.8730499398794
3609.109,1.3999439968410092,665.4070801863596
3609.9392,1.3969772839785326,577.7579268524934
3610.7717,1.3935947621671292,551.4560080025464
3611.6023,1.3894703120543679,526.9625175442878
3612.435,1.3850918731408286,512.805830505624
3613.266,1.381650260866477,697.7919856805792
3614.0994,1.380235399958192,667.9135655721391
3614.9307,1.3812561417300124,514.7351984801179
3615.7625,1.3842934682200836,677.7647041057951
3616.5962,1.3884295851556994,570.6739771844935
3617.4282,1.3925711128323586,608.735393710176
3618.2625,1.3957354522671097,727.1035124176366
3619.0947,1.3971365392260844,590.4948139485076
3619.9292,1.3964339852633185,587.6565641002637
3620.762,1.3938087608719185,785.8687457510734
3621.595,1.3897543275698692,560.5396662591686
3622.4302,1.3846844269954637,525.3484548587746
3623.2634,1.3788689895428439,564.4476644570722
3624.0989,1.3726340950721923,519.6554653910207
3624.9326,1.3667570209867024,503.7269636836138
3625.7686,1.3621790601156682,604.2384986578301
3626.6028,1.3595341374958776,584.3272022607373
3627.437,1.3586066370817935,590.6061389359157
3628.2734,1.3584695190565896,601.8515192621093
3629.1082,1.3581139287097341,617.0298788920351
3629.945,1.357186728298849,439.3535530196071
3630.78,1.356253127613371,689.1912925367552
3631.6174,1.3562889265192184,580.8879390843258
3632.453,1.3577722617547971,522.2849525479969
3633.2883,1.3600661248123853,691.4287696837486
3634.1262,1.3616884335358357,744.5410445356064
3634.9622,1.3613192028751389,579.7398846372155
3635.8005,1.3587983849200655,632.9872140797214
3636.637,1.3552075281371523,567.5599762943518
3637.4756,1.351939824033225,547.5585971364213
3638.3123,1.3497610865646839,678.0452355813155
3639.1492,1.3485790971394536,665.5530320161187
3639.9885,1.3481475250265877,606.7409652393682
3640.826,1.348677371326122,677.6428959660318
3641.6653,1.3505959390739586,748.7679411144136
3642.5032,1.3536975452929096,585.1223641076342
3643.343,1.3567848410543404,626.2618320847586
3644.1812,1.3582465909459287,664.9384124386793
3645.0195,1.3571465013714528,561.4519677218437
3645.86,1.3536969278480202,602.9118837249795
3646.699,1.3489911762961406,577.7490300247698
3647.5398,1.3442035027169563,726.6987701347978
3648.379,1.3400525816116908,593.6487662509716
3649.2202,1.336578128774049,513.9813115536215
3650.0596,1.333536101024942,673.3839722800953
3650.8994,1.330813799001783,621.3662275116474
3651.7412,1.3286676066828857,756.1206311573568
3652.5813,1.3275012661772623,785.7480454191689
3653.4236,1.327478862599993,570.325456446332
3654.2642,1.3284344173597609,617.2752556468768
3655.1067,1.3300508816893446,708.0301442177915
3655.9475,1.3320444583473003,889.6026529249901
3656.7886,1.3341829445857079,695.7448944797703
3657.6318,1.33613747436581,656.0035233371568
3658.4734,1.3374236212323616,648.7548907574783
3659.317,1.3376237949927359,577.6845918965804
3660.1587,1.336700933751833,680.9553344986718
3661.003,1.3351989345770434,574.9307898022873
3661.845,1.3341306564972302,539.5141687859044
3662.6875,1.3345143056521966,651.4754028840032
3663.532,1.3368039469290958,610.0462089763378
3664.3748,1.3403857965681099,645.5697318834837
3665.2197,1.3436707456011294,506.0467395515035
3666.063,1.3448420571804156,633.4154683992128
3666.9084,1.3430409716466742,698.340839148309
3667.752,1.3390044564755927,815.3003686641125
3668.5977,1.334697366181619,582.5722590203578
3669.4417,1.3323512663109627,572.4122918470384
3670.286,1.333353121372332,770.8962387341529
3671.132,1.3376730725060508,588.5946201460091
3671.9768,1.3438008146151927,770.5424236505384
3672.8235,1.3494800926286397,584.305264411522
3673.6685,1.3527015270832157,677.519877515707
3674.5156,1.352637524259962,601.0957233420962
3675.3608,1.3497395188145225,657.5857494167494
3676.2063,1.3451939539006343,661.1892584185586
3677.0542,1.340150189733231,595.4882612130768
3677.9,1.3353692862573803,531.2996171554778
3678.748,1.331167420904817,661.5971463183264
3679.5945,1.3276519610607889,705.1427531344879
3680.4429,1.324619792306424,638.3496909007063
3681.2896,1.321682148956023,622.6415554617076
3682.1365,1.3186192970129218,689.0005165977184
3682.9856,1.3158174828841775,517.3271883967554
3683.8328,1.3140640210972971,814.1883015512358
3684.6824,1.3136212879024838,696.8495484811707
3685.53,1.3136097258440624,738.0488680792795
3686.38,1.3124526177139761,542.6065981040663
3687.2278,1.3092343149441252,702.5671549559584
3688.0762,1.304672407700584,674.52255607293
3688.9265,1.3007899151398699,698.0837404750952
3689.7751,1.2995496614995916,629.0265156424587
3690.626,1.3015798228218862,672.5464642673832
3691.475,1.3061093477057715,719.4357213994522
3692.3264,1.3119199301789932,593.024595762279
3693.1758,1.3181977350216207,584.3418857398358
3694.0254,1.3247611791072076,619.1319678450329
3694.8772,1.3314585975435818,600.831977199073
3695.7273,1.3375739851541497,557.5856217163387
3696.5793,1.342002263275941,618.1233168106751
3697.43,1.3438308190441546,588.16234604052
3698.2825,1.3430716588255547,756.4841251511398
3699.1333,1.3406267401544198,760.4217219031677
3699.9841,1.3375757799637495,637.0544918667949
3700.8374,1.3344280044925205,628.7808435614157
3701.6887,1.3310619484691673,737.7276683375314
3702.5425,1.3272038530120998,664.013526911907
3703.3943,1.3230739826635207,645.3899416931024
3704.2483,1.31940013521548,547.8340111966949
3705.1003,1.3170733370022416,581.9046141685399
3705.9526,1.3165356099716747,604.965443466078
3706.8074,1.3175767997105094,620.020225549743
3707.66,1.319495808711868,551.1174044424521
3708.515,1.3214931582696678,807.314840171006
3709.3682,1.3228621726937706,631.4450666262167
3710.2234,1.323106809177666,604.9245533692473
3711.0771,1.3220967108636756,576.0159838037222
3711.9307,1.3202729119504562,740.5254623439221
3712.7866,1.3184557059085784,815.1155488803918
3713.6409,1.3172267520167027,692.1729608752624
3714.4973,1.3163899704305435,737.0761426518214
3715.3518,1.3152578848845262,568.177068559131
3716.2085,1.31345890794863,707.3723134544966
3717.0635,1.3114860539000097,673.7859350652408
3717.9185,1.3103743355326507,639.3411378846232
3718.776,1.3109645771659815,598.5361275383717
3719.6313,1.3133966651378945,638.1879715318211
3720.489,1.3172337370425156,640.6760484031372
3721.345,1.3218985636887912,558.4356570326538
3722.2031,1.3271055290503944,827.2316300652192
3723.0593,1.332717934819342,602.1791558316024
3723.9158,1.3384340061122773,626.3681737101242
3724.7747,1.3434516594973018,608.0072658194638
3725.6316,1.3466326915217257,718.2873943532949
3726.4905,1.3471740892721036,592.4423912010981
3727.348,1.3449961112513384,702.9918254039476
3728.2073,1.3406996779803186,649.0044491491951
3729.065,1.3352290616727829,593.575208814225
3729.9229,1.3294918859047702,654.5621821842271
3730.783,1.3242282600874806,716.2121020733869
3731.6414,1.319998342828141,612.6242998955636
3732.5017,1.3171033868650988,740.8432288258659
3733.3604,1.3156721478180373,667.6573257357472
3734.2214,1.3156239760164399,666.7554529927711
3735.0803,1.316725536865239,655.53281218266
3735.9417,1.3186482948788563,595.5182845186481
3736.8013,1.3209688363139198,629.9186320126556
3737.661,1.3231448214314572,727.0375318376724
3738.5227,1.3244970068002897,777.5892893836019
3739.3828,1.3243848852555993,535.5135557382744
3740.245,1.3225499654307615,632.0248247322199
3741.1055,1.3193440092387523,729.8040481711571
3741.9683,1.3156224179629752,799.570249506876
3742.829,1.3124720726885402,731.1962513687095
3743.69,1.3107177220344732,590.1457468554428
3744.5532,1.31057779188709,617.0368300917378
3745.4148,1.3115273266089014,643.6977720019502
3746.2786,1.3126079851167738,772.9180957137816
3747.1404,1.3130660354969552,602.2427963339479
3748.0044,1.312920771910683,594.6491005933458
3748.8667,1.3129721419447837,626.9665982923518
3749.729,1.3141636238562167,620.0046630359979
3750.5938,1.3167109692749936,653.1067401791775
3751.4565,1.3196964214820361,666.9717466505535
3752.3215,1.3216974447495717,692.3657402620621
3753.1848,1.3218655440819906,614.8478381559063
3754.0503,1.3205865756625257,682.4481435071824
3754.9138,1.3190558204887943,593.297047732219
3755.7776,1.3182994143024818,581.3908829912847
3756.6438,1.3186082804201198,666.8159445954711
3757.508,1.3196469284187313,701.2462173012299
3758.3745,1.3208894077454523,710.2963870478526
3759.239,1.3218950313293214,726.4769712365635
3760.106,1.3223798843818886,643.4679082408186
3760.971,1.3221388222130448,620.5913205648905
3761.8362,1.321008734126105,787.4513242587866
3762.7036,1.3188892082195725,584.2281325701059
3763.5693,1.315863397570523,773.4984065667342
3764.437,1.3122122233250604,571.3654424540724
3765.3032,1.3083661798367614,570.1828324941848
3766.1714,1.304647949960269,593.0383732466443
3767.0378,1.3011625383731311,589.3735741427488
3767.9043,1.297709979153969,659.4457017673197
3768.7732,1.2939181301322056,646.1495245266124
3769.6401,1.2895087214221628,677.831417636146
3770.5095,1.284508625466224,624.1280489019181
3771.377,1.2795126910780885,726.0664756448838
3772.2466,1.27548938911747,674.9767636352053
3773.1145,1.273501368154239,727.3653287449565
3773.9824,1.274236579225683,643.2685498470225
3774.8528,1.2778551271438308,671.8835334727571
3775.721,1.283927586188409,726.6492927004715
3776.5918,1.2916307838708927,742.4137998224809
3777.4604,1.2998569813646164,635.7953225322821
3778.3315,1.3077356324503169,548.1429225325558
3779.201,1.314784775444244,656.5892761196113
3780.0703,1.3210542594886703,665.3305700105498
3780.942,1.3267419721712437,760.5772105978081
3781.8118,1.331733413042372,655.0476279620921
3782.6838,1.3354794072975809,750.0388984845875
3783.554,1.337114171541955,553.0339052193913
3784.4265,1.3360654403033456,761.3554594875178
3785.297,1.332563680506005,833.5219736344641
3786.168,1.3277212174630955,654.5607580860158
3787.041,1.3230190304693041,731.1865841518699
3787.912,1.319538078725371,651.7172745586386
3788.7856,1.3172772003959574,655.0448794727846
3789.6572,1.3152373505788264,658.0205047436817
3790.531,1.3120561118607548,644.6329264652816
3791.403,1.3069761632120553,769.4790114443533
3792.2754,1.3002634273182447,585.2695217689073
3793.15,1.2928936202324202,753.2318945514536
3794.0225,1.2858425565072344,729.7825117895061
3794.8972,1.2794081079222213,678.1007977301833
3795.7703,1.2733894346899488,745.7377825388593
3796.6455,1.267444267018061,716.8345550771796
3797.519,1.2616512068027805,623.9384419419473
3798.3926,1.2565715093351357,772.3853663309541
3799.2686,1.2531685134091886,706.6947273839846
3800.1426,1.252532554711997,783.1567174915804
3801.0188,1.255427518298976,716.6284380284453
3801.8933,1.2619030118830499,622.1688558549561
3802.77,1.2712226216548652,658.5222653451041
3803.6448,1.282100118090606,630.5803999315392
3804.522,1.293496528234175,878.1299839805748
3805.3972,1.3048002812563784,742.8079920896488
3806.2727,1.3158045739644106,846.3755188528307
3807.1504,1.3260656903825339,668.3240543917126
3808.0261,1.33462908237351,550.1719357969225
3808.9043,1.340653941097047,638.6227094477738
3809.7805,1.3439663855992594,585.8972260133429
3810.659,1.3453607502986566,663.3412848605651
3811.5356,1.3459391757554362,676.9927390467063
3812.4126,1.346397941229484,596.2278236080883
3813.2917,1.346840017506789,685.6866159490351
3814.169,1.3471975894927453,625.7052038951642
3815.0483,1.3476168939352202,613.9125770102764
3815.926,1.3482912976103272,615.517308359762
3816.806,1.3490033904756213,705.2721129016984
3817.684,1.3489904496187761,549.5078551206082
3818.5623,1.347458892539611,641.7181121803367
3819.4429,1.3442522415410834,704.5278721008616
3820.3215,1.340084962550574,660.4622344103195
3821.2024,1.3359884576052257,587.5256043677753
3822.0815,1.3326273519062797,677.8280813798208
3822.963,1.3298415847133576,663.9917683574616
3823.8423,1.3269650865339666,650.3063584287218
3824.722,1.3234744683433852,723.413566303213
3825.604,1.3196484681828293,601.8350982511364
3826.4841,1.316782301843768,694.5524029563899
3827.3665,1.3166684683804952,706.736391935276
3828.2468,1.3204856183563907,762.2710537591029
3829.1296,1.3272440408816406,771.2734164235086
3830.0105,1.3327854391429301,852.0523672100799
3830.8916,1.331053068966876,687.33985198967
3831.7751,1.3173704296694062,717.4204240300357
3832.6565,1.291930732706802,570.0861621227293
3833.5403,1.259763914235107,777.2562130742549
3834.4224,1.2281988527529242,919.4618643166505
3835.3064,1.2028240799209484,857.54721066283
3836.1887,1.1864950568232124,905.542211828025
3837.0713,1.1795174559903692,942.4403980640855
3837.956,1.180971180349052,922.7142654240928
3838.839,1.1891841944839472,914.3557258585543
3839.7244,1.2019965399960426,715.5492328009911
3840.6077,1.216969877394239,703.3683764964964
3841.4932,1.2322196756903039,683.0523043376063
3842.377,1.2467543299172494,951.8459935833451
3843.261,1.2608017266094291,711.2653485703262
3844.1472,1.2750957057452272,770.4087621741035
3845.0315,1.2898516046590893,635.3652297320197
3845.9182,1.304513855112436,563.6952926037903
3846.803,1.3178719130706573,654.3040983327344
3847.69,1.3292501474473815,702.4990735338858
3848.5752,1.3388016805940621,666.1147569157101
3849.4604,1.3473784166272906,599.9987643810088
3850.3481,1.3557005253776453,683.4614072874541
3851.234,1.3638915464506067,580.0346117562877
3852.122,1.3718478462641694,642.0964267590398
3853.0083,1.37948738555702,623.3849306720331
3853.8967,1.386936636720316,592.4614874827573
3854.7832,1.3939996465780327,586.776553955872
3855.6702,1.4000080884074295,581.587072684246
3856.559,1.4040861675825724,583.0576104208088
3857.4463,1.4059349429853418,571.9872504902407
3858.336,1.4063158045113062,595.4033277143793
3859.2234,1.4065290944989828,564.5516252367072
3860.1135,1.4074284435040163,552.3324618495517
3861.0015,1.4088471843834132,568.5312690722021
3861.8896,1.409974024626973,572.6757936020882
3862.7803,1.4101534564963891,519.5881794422934
3863.6687,1.4093459193845352,577.36811231255
3864.5598,1.4079049739125478,749.0625767374112
3865.4487,1.4060652742196735,844.0846783902502
3866.34,1.4037015820338263,611.8829690205862
3867.2297,1.4006854369830997,561.3090354275812
3868.1213,1.3972761875631794,720.5966893067794
3869.0112,1.3941447361553059,679.4633694393463
3869.9014,1.3917898433310687,486.0628659594166
3870.7937,1.390015271439138,563.9873873971287
3871.684,1.3878435183874074,692.817360883498
3872.577,1.3839133996153112,505.5533425141174
3873.4678,1.3772463882053305,580.9538787222943
3874.361,1.367744386924166,564.4626233344256
3875.2524,1.3563558843219803,627.7334568297161
3876.1438,1.3443015418227482,697.2452893463134
3877.0376,1.332265760751244,648.0868299930108
3877.9297,1.3200877796803705,538.3286273157289
3878.8237,1.3068956482253573,704.3780594070296
3879.716,1.2920753261765334,582.7578660499563
3880.6108,1.2756033422135826,807.7861248442639
3881.5037,1.258286302181549,645.3650111773175
3882.3965,1.240904020603777,836.5772845362377
3883.2917,1.2236063715260763,773.8352581816642
3884.185,1.2057694245790291,811.2519305878125
3885.0808,1.1860587665454538,779.176017525593
3885.9746,1.163597588746427,776.4915385986586
3886.8706,1.1383294019313712,821.9798416476016
3887.765,1.1117804265174835,973.8850016105233
3888.6592,1.0865667126377256,976.6974771026524
3889.556,1.0660325098293337,1144.9868837026268
3890.4507,1.0535600693307987,1217.274341760312
3891.348,1.0512485508058174,1309.8944507323795
3892.243,1.0594038307569356,1139.6937966594808
3893.1406,1.076503606285314,944.7262815512826
3894.0361,1.099717475565761,913.2239963071013
3894.932,1.126006576708641,904.5795580975739
3895.83,1.152609619229583,859.2408983103561
3896.7263,1.177260542021751,753.3773498287045
3897.625,1.199111372108102,774.9780058690795
3898.5215,1.2185364254540196,713.8420204811434
3899.4207,1.2371870307218098,803.2777651686681
3900.3176,1.256442437295865,749.6770145900374
3901.2148,1.2766565679976412,801.1836351397134
3902.1145,1.2967917219314251,584.2144721721387
3903.0122,1.3151445482033348,606.2897045036336
3903.912,1.3309143886541561,624.8556439303256
3904.8103,1.344498985488251,622.0521592806833
3905.7107,1.3573990101001383,660.5643431483087
3906.6094,1.3709450145015476,618.0090508563069
3907.508,1.3855861652878285,630.2309740642869
3908.409,1.400653599760076,538.5203595972262
3909.308,1.4148724497996266,563.2879207665212
3910.2097,1.4274465749520175,572.6423194211085
3911.1091,1.4381616608687704,525.6078774252044
3912.011,1.4473372217411846,461.3481543742119
3912.9111,1.455158083057567,544.6068446044459
3913.8113,1.4617428333735563,518.5006439647977
3914.7136,1.4673038686891036,695.9112850923547
3915.6143,1.4722735178694697,580.9913394104349
3916.517,1.4772234312658403,535.5691292121214
3917.4182,1.4824125862291346,488.7525773186007
3918.3215,1.487667705671396,508.73978937553136
3919.223,1.4924666094057286,555.545932944612
3920.1245,1.4964445410165013,585.4001211685903
3921.0286,1.499640971706617,554.5470478688675
3921.9307,1.5024037800314705,523.3477907463933
3922.835,1.5051150936217437,507.67159598375525
3923.7373,1.5078704635674431,524.792235681567
3924.642,1.5104920864340758,526.6066354734804
3925.5452,1.5126273017235907,478.1650409023383
3926.448,1.514031588023357,497.9981684904468
3927.3535,1.5147793402082423,443.6174480837713
3928.257,1.5153253617032731,466.5624901520764
3929.1628,1.5162679623817954,607.0555138230993
3930.0667,1.517860655398582,509.6057768208694
3930.9731,1.5197329986464772,478.9425571720365
3931.8774,1.5210574541686128,467.9181520905485
3932.782,1.5211198514612407,545.7629936526661
3933.6887,1.5196675804490098,520.9406709607814
3934.5938,1.5168664924730006,485.48400727982056
3935.501,1.5129987754178484,493.9472450786684
3936.4062,1.508383951452166,518.6260878557395
3937.3142,1.5033479931836666,506.2918119840616
3938.22,1.4982762313082676,566.2110939743213
