wavl,flux,ivar
3566.9744,2.43569575499778,219.4850000181072
3567.795,2.4271099148809165,259.7629600237658
3568.6177,2.419977357675347,221.804833370157
3569.4385,2.4148360169344776,191.33765507732508
3570.2617,2.411800453061587,234.11215720203322
3571.083,2.4108216253410286,238.7873131410016
3571.9065,2.41134570082542,228.2516072331241
3572.7283,2.412380122387624,225.82355024996673
3573.55,2.4131720616859114,224.6633239511332
3574.374,2.4137798682866385,254.93719184084213
3575.1963,2.4147767079207934,229.26179651171734
3576.0208,2.416499719514772,218.787005906106
3576.8435,2.4188373433572576,231.43844223555897
3577.6682,2.4218651021265774,206.63416402084
3578.4915,2.4262347425790605,217.3312728961031
3579.3145,2.4325935068399174,254.90470732000594
3580.14,2.4403990638868205,252.97871106188597
3580.9636,2.447473875991598,193.16200522570455
3581.7893,2.4513487928667814,196.51153091925167
3582.6133,2.4509762652668603,230.32537963620203
3583.4395,2.447402072023376,225.79669733482677
3584.264,2.4425450120776624,243.0270542631377
3585.0884,2.437396675678886,203.09924376239562
3585.915,2.431508325046844,244.63843399673763
3586.74,2.4240545162300364,221.79072637726182
3587.5671,2.4149636378537593,218.17208131408591
3588.3923,2.4052792663694644,284.65818728272444
3589.22,2.396268765202418,216.1010733447599
3590.0457,2.388870742327846,220.41810447686592
3590.8716,2.383309587116166,223.55350911891347
3591.6995,2.3793667036959314,239.95150245175455
3592.526,2.37663944075899,204.81796750398846
3593.3542,2.374664170603523,248.76459994430536
3594.181,2.373012457210917,245.2371595240524
3595.0098,2.3712335294215534,271.82720969987247
3595.8367,2.36895927532525,199.47339825504906
3596.6638,2.3660577515283503,211.89038448690067
3597.4934,2.3627605135449428,240.90610302532954
3598.3208,2.3596655916425275,205.44819001949858
3599.1506,2.3576708152343753,243.24614410437158
3599.9788,2.3580749582545644,225.49216314943786
3600.8088,2.362251216433375,213.56914876398764
3601.6372,2.3707421774803437,255.5037254741795
3602.4678,2.382384728764457,232.26892138052082
3603.2964,2.394091371702587,239.72393187165366
3604.1252,2.4022552842729588,225.44637730846242
3604.9565,2.404528779652324,196.61575091067806
3605.786,2.4012543319775568,190.86682166249915
3606.6172,2.3953919137928996,249.202593817986
3607.447,2.3908013827305177,231.90696669512585
3608.2788,2.3898500376230447,276.0023178344092
3609.109,2.392135405143702,222.54187002590348
3609.9392,2.395014774370149,227.95261719979837
3610.7717,2.395530050078422,235.03705129213338
3611.6023,2.3922459737575408,202.1459826424777
3612.435,2.385772126815575,226.56008548983212
3613.266,2.3778667153083615,233.12205177020792
3614.0994,2.369937131231907,241.74986197577044
3614.9307,2.3625895039798763,230.08518592607396
3615.7625,2.355938567404428,236.8890937135167
3616.5962,2.350288790747197,211.20924928656862
3617.4282,2.3461569975309193,228.2896616594703
3618.2625,2.343792298989076,262.79192593912904
3619.0947,2.3430390191502606,235.7386954499711
3619.9292,2.3434102113765642,226.8305321533055
3620.762,2.3442042892655772,273.1952561007912
3621.595,2.3443772809435774,208.37601791654205
3622.4302,2.342474506344666,223.35380038053805
3623.2634,2.3370818729110305,240.03772849018725
3624.0989,2.3276697038669267,232.90248600131352
3624.9326,2.3154484015704786,229.8378037583724
3625.7686,2.3030435743458297,239.49566114704137
3626.6028,2.293564991396093,236.0181750170771
3627.437,2.289128400329249,243.1175160049345
3628.2734,2.290389629644,252.052184405698
3629.1082,2.296515114442598,266.3386372040167
3629.945,2.305336571594468,209.30865491489297
3630.78,2.313546857348994,219.45733365699277
3631.6174,2.3178139317296376,205.80432730223868
3632.453,2.31615548900945,248.09653955650376
3633.2883,2.3089958388803695,240.64857972762758
3634.1262,2.2986424261326213,258.62567822716335
3634.9622,2.287968389287815,258.8177523696984
3635.8005,2.2788249697159144,248.1198897781456
3636.637,2.2716857861468904,302.7355060081873
3637.4756,2.2657463661651147,243.24202154950225
3638.3123,2.2598609023958467,230.3812436579655
3639.1492,2.253323234101841,225.01996418394407
3639.9885,2.2464031345491517,256.3129616064727
3640.826,2.2400889281979213,274.69962181751663
3641.6653,2.235084968399144,247.98921604083645
3642.5032,2.231320250368594,306.8927006854354
3643.343,2.228082729582129,256.2484467017636
3644.1812,2.2247556896528526,240.02871927690407
3645.0195,2.2211008448605782,245.0685237421531
3645.86,2.217054966727371,308.479140331453
3646.699,2.2124824981709796,271.0816130652941
3647.5398,2.207236738002329,260.6498774815119
3648.379,2.2015645423043257,268.1334301656188
3649.2202,2.195986518167393,271.98177624204567
3650.0596,2.1909576896926195,245.71424739466337
3650.8994,2.186472581709892,232.34244971934683
3651.7412,2.1823479844504377,249.4340180705939
3652.5813,2.178655073251462,279.7331446582436
3653.4236,2.1756966729329283,386.880291375948
3654.2642,2.1737603164681354,290.03205047835297
3655.1067,2.1729529363135485,245.9983085686787
3655.9475,2.1734393191936454,232.81840300697132
3656.7886,2.175386576490257,275.2260905782222
3657.6318,2.1784151199248063,261.81616360297807
3658.4734,2.181145669396896,287.03884375086636
3659.317,2.1818320561803186,296.29364945460736
3660.1587,2.1797120266814103,262.32053648323273
3661.003,2.1759196205261158,279.4206842693032
3661.845,2.173003694113843,297.34347518468985
3662.6875,2.173284998058573,303.70174941780704
3663.532,2.177530718030286,281.92635348943605
3664.3748,2.1846090149298005,251.2361538008276
3665.2197,2.1923232107264643,252.76316523023954
3666.063,2.1984239497400226,255.3443219214644
3666.9084,2.2015495405365324,250.91970430755424
3667.752,2.20134532323246,276.801289515847
3668.5977,2.1982635055709534,282.3615982057318
3669.4417,2.1932459062230913,252.14310754000252
3670.286,2.187517691115286,234.04752028398988
3671.132,2.1823227830544636,272.1708425861481
3671.9768,2.178391869070722,268.99009232770965
3672.8235,2.175440480960043,267.58377388331087
3673.6685,2.172559991123296,288.45819615041654
3674.5156,2.169096226779871,297.7721654773311
3675.3608,2.1653157528143145,266.45008232185495
3676.2063,2.161951414841722,286.87198142134764
3677.0542,2.1592595202449405,305.5366440016962
3677.9,2.156569632031323,261.28512667054366
3678.748,2.1528233413041358,252.83515480896986
3679.5945,2.1476933450883586,283.138930508618
3680.4429,2.141908396735708,300.26242117093415
3681.2896,2.136706746424631,332.86988201161
3682.1365,2.1328557632037874,288.496707095452
3682.9856,2.130441985738295,287.24540742835285
3683.8328,2.129233778996245,250.71789762403242
3684.6824,2.128924697891337,302.18317824065235
3685.53,2.129064826811512,319.3917912347326
3686.38,2.1290121861640574,373.16470565517386
3687.2278,2.1283369028782486,314.8440898838332
3688.0762,2.1273500201207267,285.1987326184978
3688.9265,2.1271204184740578,317.7630373509548
3689.7751,2.128761508439773,308.0112797582681
3690.626,2.1325203321672674,297.69151297840955
3691.475,2.1374282622296596,277.33833685598256
3692.3264,2.1419284203620674,321.4803559125595
3693.1758,2.1447234852305526,249.7451444915476
3694.0254,2.145331540549317,315.1243529897723
3694.8772,2.143823142077284,320.3299077539577
3695.7273,2.1404610038551275,277.0949816837989
3696.5793,2.1356577083710673,270.1437239589938
3697.43,2.1303275787872673,317.62844914452734
3698.2825,2.125857628792349,280.34244565888304
3699.1333,2.1236526358189423,282.75289099887226
3699.9841,2.12427026579133,279.7407142776317
3700.8374,2.126960417580269,258.8182950263524
3701.6887,2.1297865672163336,288.0479546653989
3702.5425,2.130587869510247,287.69958237129134
3703.3943,2.128192841586766,317.9025910740607
3704.2483,2.1231289622234413,277.03726520939165
3705.1003,2.117183293698727,277.62793971348606
3705.9526,2.112034707227152,290.2045296155803
3706.8074,2.108311725613558,293.65783616300655
3707.66,2.1056816577274846,291.8837558277659
3708.515,2.1035807772074664,285.20247026746205
3709.3682,2.1019339626221645,299.69508717279746
3710.2234,2.1011496714803286,317.08987538130657
3711.0771,2.1017467168684196,282.75128432219975
3711.9307,2.103918700236646,259.1088164286003
3712.7866,2.10736320234067,356.62439176688815
3713.6409,2.1113163889969546,264.07091158212404
3714.4973,2.114943131345134,283.9370429207302
3715.3518,2.117708942572798,291.19529420341377
3716.2085,2.1196468981271295,289.5515626635517
3717.0635,2.1210610670576164,300.54105455074193
3717.9185,2.1221520350600276,281.94061144854817
3718.776,2.1228995956305137,240.9741525207818
3719.6313,2.1232918146459427,289.9589298440621
3720.489,2.1234622919797435,279.9217596618817
3721.345,2.1234553933875913,279.257350468667
3722.2031,2.122942431220641,320.4245542540413
3723.0593,2.1212825487890985,270.0644620809237
3723.9158,2.117930982512226,257.62620999254864
3724.7747,2.112846993565661,311.22276292108006
3725.6316,2.1066586650301775,317.21508326611115
3726.4905,2.100345368344907,283.1978250101096
3727.348,2.095000658034227,298.0859140681394
3728.2073,2.0914837901156376,276.744856697716
3729.065,2.0903157893958286,286.66100412627657
3729.9229,2.091447112631939,322.68328730477776
3730.783,2.094207908266331,319.4045638636877
3731.6414,2.0974116663634206,297.5381862475985
3732.5017,2.0998045297920345,316.72426745619094
3733.3604,2.100506354885734,296.61653244241506
3734.2214,2.0993572704151577,300.0571239923913
3735.0803,2.096883410644579,316.66790085600445
3735.9417,2.0938988367653537,296.7023695473785
3736.8013,2.091031103701135,321.86503591745185
3737.661,2.0883476750612884,287.0699102838317
3738.5227,2.0854382982430626,338.9743757969518
3739.3828,2.081840674981174,310.83121265041785
3740.245,2.0775153132581865,267.925047093606
3741.1055,2.0732242970998302,293.9238620595246
3741.9683,2.070195657238047,327.7227803219951
3742.829,2.0693959356432723,254.2700537406744
3743.69,2.0708261648403736,343.61892498574446
3744.5532,2.0737626992373173,297.77361447602436
3745.4148,2.0774716445473715,280.844371330183
3746.2786,2.0816480345056716,282.2614136663034
3747.1404,2.0860340411386495,298.55654209446715
3748.0044,2.0901166054872014,388.8786672891422
3748.8667,2.093209949279529,305.31865922113224
3749.729,2.094991286159322,305.0938311358192
3750.5938,2.095637921085528,285.87165865917353
3751.4565,2.095567779072846,316.7806241434351
3752.3215,2.09513581430464,276.0911946876633
3753.1848,2.09459252621917,303.59679233155487
3754.0503,2.09417646837003,320.4907323018561
3754.9138,2.0940574503913925,343.39495009252
3755.7776,2.0941493734870518,302.0117098801757
3756.6438,2.094108050867936,279.42301172478756
3757.508,2.093540532924993,312.05461368097184
3758.3745,2.0921898307577207,292.9607771502851
3759.239,2.090004031627721,267.75647177572847
3760.106,2.0871515800882845,315.4979446114451
3760.971,2.084125579426842,326.0003753693317
3761.8362,2.0816136045112517,314.4707483703979
3762.7036,2.0801890317503946,294.0710115357766
3763.5693,2.0798826070380985,314.50855224648217
3764.437,2.0799712264681167,299.9280743357054
3765.3032,2.0792494748061587,276.95297087589944
3766.1714,2.076578705216838,342.75106949746294
3767.0378,2.071396596730032,272.0247858707874
3767.9043,2.063886295655629,293.44793594754105
3768.7732,2.054925286449004,316.1884641449165
3769.6401,2.045987472868072,277.6086692046912
3770.5095,2.0386121574215643,323.517671271857
3771.377,2.0340123441535756,305.8996751682617
3772.2466,2.0324131282962576,307.59866822651344
3773.1145,2.0330239934021654,280.9693343390354
3773.9824,2.0345089899363153,337.3587756064117
3774.8528,2.0358951749235192,305.3327352493459
3775.721,2.037203282352872,347.82856241342483
3776.5918,2.0394161755394586,335.43186436038087
3777.4604,2.043662701142402,345.62808968651626
3778.3315,2.0503083513655427,344.85816813070255
3779.201,2.05844808028609,295.52714125719797
3780.0703,2.0665114880007565,316.31034472631814
3780.942,2.0732128848606686,315.96707109302264
3781.8118,2.0780568059467837,290.8776850669138
3782.6838,2.0811443317562595,311.4554360718298
3783.554,2.0824362212832814,305.60388350075357
3784.4265,2.0815666311202548,275.9972687118459
3785.297,2.0781632013248568,281.464107313102
3786.168,2.0723101231498338,318.87924379745715
3787.041,2.064656497808742,255.23891301579383
3787.912,2.056223244853049,294.41319082380363
3788.7856,2.0478505492937926,324.67753520947053
3789.6572,2.040059789261545,324.442169303224
3790.531,2.0328819194402037,341.5779513755953
3791.403,2.0262752202578413,299.80455495405
3792.2754,2.020363546053413,265.7738671784001
3793.15,2.0156242897649417,310.2653825206959
3794.0225,2.0125941288880003,324.84496583320123
3794.8972,2.011187974412941,338.22503593900694
3795.7703,2.01045212584052,301.3594126274685
3796.6455,2.0090388984587526,310.7160983310476
3797.519,2.006273734755496,345.89523111383033
3798.3926,2.0027398640191048,340.23019244097406
3799.2686,1.9998508028024036,332.33163324647035
3800.1426,1.9988588371092997,349.07298358381314
3801.0188,2.000135336578858,363.4336442434715
3801.8933,2.0032773126098804,306.96358876525863
3802.77,2.0076131938102795,356.8471897126259
3803.6448,2.0124681247356615,323.5516346453474
3804.522,2.017227501443665,326.21754875559714
3805.3972,2.021167751665966,357.2219815257195
3806.2727,2.0236829529628624,313.2482369017094
3807.1504,2.0246242782960002,316.0707225889616
3808.0261,2.02462756555579,310.00846702914214
3808.9043,2.024944405222521,350.2242309824896
3809.7805,2.02672436537372,330.97827157233735
3810.659,2.0303859417961836,316.37286272451087
3811.5356,2.0355571346320067,371.4834251154855
3812.4126,2.0415684318130154,342.0956767985552
3813.2917,2.047775297292437,291.5896447344336
3814.169,2.0535436274635708,280.9624843146131
3815.0483,2.058355665044924,304.89113353346664
3815.926,2.0618332208646293,321.7993441795901
3816.806,2.0638764548332547,298.19447456315476
3817.684,2.064476413300325,314.63330290701
3818.5623,2.06362951715294,269.63494574987544
3819.4429,2.0613391840172173,300.4317380321859
3820.3215,2.057733633896508,304.2744734411916
3821.2024,2.053017179597358,300.68424632540786
3822.0815,2.0474678563357105,299.66557736340417
3822.963,2.0412888868794523,313.17897884915993
3823.8423,2.034610497282704,312.4637612142597
3824.722,2.0272722532380647,332.06273893683465
3825.604,2.018856012123994,332.7421012180106
3826.4841,2.008988523109847,294.2577137266603
3827.3665,1.9975541652613271,343.8978178974193
3828.2468,1.9851247624708912,351.95282378121664
3829.1296,1.9726776508158734,338.4886752520903
3830.0105,1.9614316558086582,382.29650705845796
3830.8916,1.9520334360046425,312.7679566076035
3831.7751,1.9441849630483137,423.0224788727305
3832.6565,1.9367878524816695,380.13113332717376
3833.5403,1.9287115658052536,355.2925787829422
3834.4224,1.9201562615301588,369.02376341186186
3835.3064,1.9129167008164039,422.27196471422207
3836.1887,1.9095709888845052,399.1135342554874
3837.0713,1.9117884523117061,353.90142479528174
3837.956,1.9195124130010783,332.73570613983077
3838.839,1.9311571215703305,368.17168758973287
3839.7244,1.9447040109181268,325.26756995285075
3840.6077,1.9583232081653088,354.13008679950843
3841.4932,1.9709797901374557,311.0686724817368
3842.377,1.982294321085049,322.08340289893056
3843.261,1.992718327436723,306.962482652205
3844.1472,2.003228888918796,337.99989487826383
3845.0315,2.0147664192592103,337.11586914245333
3845.9182,2.0277550211572897,315.67708344059554
3846.803,2.0414251062382225,337.06655578182455
3847.69,2.054222449672906,288.36365543925234
3848.5752,2.0643841699099674,322.99229466607636
3849.4604,2.0711296947025324,271.652924118007
3850.3481,2.0750174998625766,307.9039213300888
3851.234,2.0775428795746036,257.16975600217995
3852.122,2.0802859000656935,296.36354365727163
3853.0083,2.0840599685587042,302.43898121970716
3853.8967,2.08872595407311,308.3679658520048
3854.7832,2.093364349134328,278.83685233328845
3855.6702,2.096842874136761,273.5575913983508
3856.559,2.098309850061238,274.1926310001218
3857.4463,2.0976074678588312,274.22450618024703
3858.336,2.0953485731642956,307.38390063388425
3859.2234,2.0926046479113856,301.93671422298837
3860.1135,2.0903409434663267,287.37172955921045
3861.0015,2.0889929521739394,275.861437603188
3861.8896,2.0881937849730585,311.42628944380147
3862.7803,2.086955624519014,310.9067759003241
3863.6687,2.084248193385044,275.1849770865664
3864.5598,2.079629969916883,326.1808409569767
3865.4487,2.0735397300836675,372.7099409786422
3866.34,2.06682278820176,307.66197010207617
3867.2297,2.060237811731502,312.7842669023729
3868.1213,2.05396443166208,345.329379458825
3869.0112,2.047719155282739,358.1885688471602
3869.9014,2.040959322005191,296.94288441699155
3870.7937,2.0332937830876956,338.1565109588424
3871.684,2.0247343081215132,317.80543180771934
3872.577,2.015446934124345,316.48683846218813
3873.4678,2.0056270142349333,314.17698705225246
3874.361,1.9950867619172044,378.5396424199314
3875.2524,1.9834115823697451,341.49739106997714
3876.1438,1.969994298380428,313.8059607590475
3877.0376,1.954505368021194,342.9279248828151
3877.9297,1.9374349824576664,364.7585766472536
3878.8237,1.9198891853493467,376.3220591424375
3879.716,1.903408319518822,385.192119077838
3880.6108,1.8889504974202664,376.53113546705623
3881.5037,1.876602813686695,393.66211207292554
3882.3965,1.8652566682304998,359.8452242712851
3883.2917,1.8532313240439826,385.4985500880198
3884.185,1.8392491259273114,324.2171188971854
3885.0808,1.8229764949571126,383.42058550159686
3885.9746,1.8054038690009109,421.4499025385176
3886.8706,1.7879130588463048,427.9891098357909
3887.765,1.7717806519879296,417.3939119991036
3888.6592,1.7575832806168248,511.5480720486035
3889.556,1.74560664830255,417.48454351837574
3890.4507,1.7364607830982437,392.39232840198997
3891.348,1.7311777942670032,403.8705614935241
3892.243,1.731159628805223,462.3996118292399
3893.1406,1.7374273987897273,460.3928778947649
3894.0361,1.7499040386167188,456.87773385840745
3894.932,1.7672711111175552,571.6656096348182
3895.83,1.7874650007878345,423.50704085653786
3896.7263,1.8083999309174668,390.97037594036914
3897.625,1.8290590140385408,402.58396460245916
3898.5215,1.849263033668148,363.1695867062563
3899.4207,1.869714887358536,392.97462157127006
3900.3176,1.8908641163473008,346.006739577636
3901.2148,1.9126517166987356,392.1613037560999
3902.1145,1.9342184514006324,336.4494876451576
3903.0122,1.9543355294255882,401.54303056343804
3903.912,1.9725931203742608,355.5423800746212
3904.8103,1.9893234472717702,316.5024899045069
3905.7107,2.005427067690955,291.08064475552806
3906.6094,2.021317235779675,328.1199884173656
3907.508,2.036848022066939,296.44912928351
3908.409,2.05149535457632,320.0708909765089
3909.308,2.0647541200645887,284.190429704434
3910.2097,2.076695694817149,322.46321547803865
3911.1091,2.087769274263876,328.80882655254374
3912.011,2.0988216438702003,299.1810459413425
3912.9111,2.1104175032794212,283.4737174502385
3913.8113,2.1225400070203766,266.7294419173306
3914.7136,2.134373689228965,293.9854601308509
3915.6143,2.1446076008772965,248.91020068129242
3916.517,2.152321048369687,283.6698984816441
3917.4182,2.157328157619243,299.1308129068859
3918.3215,2.160313342744374,272.13837051986764
3919.223,2.162389026122192,265.7066570196268
3920.1245,2.1647645969636256,294.57410468584675
3921.0286,2.1684230337025476,290.0671297674115
3921.9307,2.173845336812346,274.0887403992677
3922.835,2.1809366823078378,295.67092446049963
3923.7373,2.188997035613136,283.22767359306044
3924.642,2.197117446961728,266.94568161820933
3925.5452,2.2043613655410366,247.00818800487093
3926.448,2.2101223757310064,262.76697554730157
3927.3535,2.2141525912829265,254.25897349578284
3928.257,2.216497753999491,246.60127626362316
3929.1628,2.2174598544517496,281.2216258159797
3930.0667,2.2173996662980193,263.3441305067123
3930.9731,2.2165793378443257,275.7756242226369
3931.8774,2.2150076525285334,302.5043926796034
3932.782,2.212414060695731,263.7712048508868
3933.6887,2.208407895258656,252.47216953213575
3934.5938,2.2027232446673435,297.8466813749275
3935.501,2.195262893513558,265.5496352906263
