wavl,flux,ivar
3566.9744,12.867328229600885,4.520316301097353
3567.795,12.852748797523873,4.401518980579197
3568.6177,12.852214939706391,3.6927850240287867
3569.4385,12.863701353121801,4.479665641977341
3570.2617,12.874926361781688,4.336158467438604
3571.083,12.868974311249419,3.7723150198202378
3571.9065,12.835856481417935,3.8738317006617597
3572.7283,12.780943819934608,4.230813954141747
3573.55,12.72165092941747,5.103976692335474
3574.374,12.675354154233078,4.5089854865962025
3575.1963,12.648903799872606,4.190759203276731
3576.0208,12.636826770054899,4.536231161602731
3576.8435,12.628750517282466,4.454966151927916
3577.6682,12.615943856906343,4.871027351051197
3578.4915,12.594194761508179,4.291643049593621
3579.3145,12.563919718987194,4.734775249878309
3580.14,12.530232559264642,4.575042819449819
3580.9636,12.502394204612498,5.0454570469897755
3581.7893,12.489769358629895,4.2474316017715115
3582.6133,12.497417898813502,4.705500369270395
3583.4395,12.522852474796219,4.896038436957835
3584.264,12.556594756675823,4.573852322161824
3585.0884,12.586627138971792,4.436869520916757
3585.915,12.60339739449963,5.572045529637186
3586.74,12.602966190850609,4.886208981817956
3587.5671,12.587209715244777,4.997386284843859
3588.3923,12.561638298281279,4.962802763105033
3589.22,12.532520580246166,4.6887149185448
3590.0457,12.50477101516304,4.912075821228487
3590.8716,12.47901273344612,4.446864366924509
3591.6995,12.45123895473599,5.097551796869406
3592.526,12.416309067171316,4.6609405386868685
3593.3542,12.373617783093994,4.893347202332759
3594.181,12.331072029873683,5.775825453553889
3595.0098,12.300253598101158,5.609180308565594
3595.8367,12.287639314189091,5.20720857169679
3596.6638,12.287862101023123,4.684745327638499
3597.4934,12.287423886836619,4.787235449719987
3598.3208,12.274504070077242,3.7007082383210754
3599.1506,12.246311622740691,4.391036631954389
3599.9788,12.208663017527478,4.959411818233246
3600.8088,12.169220773359523,4.727482126628328
3601.6372,12.132953541410087,6.0046720197325305
3602.4678,12.101250241441718,4.619416530095889
3603.2964,12.075569702107208,5.420871955883136
3604.1252,12.059144924716918,4.475877080198257
3604.9565,12.056866182522185,4.870066828839363
3605.786,12.07241098740253,4.481006436108038
3606.6172,12.104611057398289,5.359454844683087
3607.447,12.144979268861663,4.814425236021434
3608.2788,12.18021986429516,4.70537040290332
3609.109,12.198018979850817,5.055254451737168
3609.9392,12.193366548437625,4.707920013659378
3610.7717,12.1686316478743,4.912903614806012
3611.6023,12.130377541258543,5.606097439838741
3612.435,12.085684467132971,4.782269322706141
3613.266,12.041676175174677,4.862798788154697
3614.0994,12.0037096270002,5.550752355521836
3614.9307,11.974287373798045,5.008551789442719
3615.7625,11.951475022236902,4.977601020690106
3616.5962,11.930792057779039,4.938022496952305
3617.4282,11.908156560247544,5.565295477724265
3618.2625,11.881849797687915,5.204531952353464
3619.0947,11.853747210634715,5.152587829891656
3619.9292,11.82822318733203,4.734268281425342
3620.762,11.810547550879992,6.037931224936034
3621.595,11.803046885887227,4.773407336648947
3622.4302,11.802618560803197,5.09112382336326
3623.2634,11.801153455851294,5.736148816979364
3624.0989,11.789559157701635,5.633936584567711
3624.9326,11.762706748348476,5.8049746878248385
3625.7686,11.721611567487283,5.35135744339902
3626.6028,11.673086950977227,5.262132483831392
3627.437,11.626153305008016,6.399478639166418
3628.2734,11.588876333457868,5.984830497504337
3629.1082,11.566430896853891,4.88049637905549
3629.945,11.560231768309922,5.505563636793408
3630.78,11.569009274661823,4.606779216057185
3631.6174,11.588770236957624,5.371725342278051
3632.453,11.612370578787454,5.338979031249721
3633.2883,11.631157519520924,5.178147628120786
3634.1262,11.63819874911461,5.61413102108239
3634.9622,11.631112058488041,6.423297031214986
3635.8005,11.611650400639816,4.793818069749969
3636.637,11.582643605997156,5.315521577188963
3637.4756,11.545332440629375,4.838689653738261
3638.3123,11.501210696443843,5.0909857290965785
3639.1492,11.454825159571424,5.26143406476819
3639.9885,11.415075816180089,6.230845551648929
3640.826,11.391545621125008,5.657029679721439
3641.6653,11.387477508464038,5.782745845437611
3642.5032,11.397075294449277,6.052401302505396
3643.343,11.408530054172866,4.906232173819704
3644.1812,11.411159936138297,5.416891610071226
3645.0195,11.40146947121429,6.033378823068782
3645.86,11.383816560826693,6.099834168751309
3646.699,11.36665368135696,6.2856131474869965
3647.5398,11.356457724617556,6.100419771327677
3648.379,11.35364290355536,6.0096226998541065
3649.2202,11.35162646678338,5.198130105960914
3650.0596,11.340448344968296,5.335305146853115
3650.8994,11.312982998971954,5.506032982532819
3651.7412,11.269862531246554,6.031245949331801
3652.5813,11.219853938314195,5.97241543623617
3653.4236,11.174240170510307,5.378416027457481
3654.2642,11.14160938047711,5.818391810611387
3655.1067,11.123437771417349,5.165391710522868
3655.9475,11.114510556331547,6.592404064771395
3656.7886,11.105821893933296,5.856953696860754
3657.6318,11.090174055924049,5.652096729736454
3658.4734,11.066804253087144,6.766725348307043
3659.317,11.041080165700821,5.468311221848773
3660.1587,11.019883351217224,6.08544465925908
3661.003,11.005348359163268,5.697122273385244
3661.845,10.993764781821685,5.7323236183535045
3662.6875,10.979858965136689,6.299405663044864
3663.532,10.9631794732946,6.570098678803424
3664.3748,10.94921822837059,5.939308489517572
3665.2197,10.94316817797517,7.028633545479982
3666.063,10.943239704373587,5.298805142559818
3666.9084,10.940290649073718,6.687696744370057
3667.752,10.924851528732741,6.180486157010147
3668.5977,10.894615657770354,5.918000577555766
3669.4417,10.85672411958652,5.435356937730214
3670.286,10.822710508047873,7.091997714290395
3671.132,10.801679655651327,6.037614268180541
3671.9768,10.796127079136022,6.458830509653346
3672.8235,10.802241929606808,7.240335342639381
3673.6685,10.813462713681336,6.869136416205802
3674.5156,10.823852506292917,6.193627851484627
3675.3608,10.829765066278643,6.4557004846385855
3676.2063,10.830168164869345,7.248353713925383
3677.0542,10.825289345854864,5.691547295966023
3677.9,10.815192131803377,5.509002962161299
3678.748,10.799248216576927,5.996439560975502
3679.5945,10.777276320715178,6.826073629389691
3680.4429,10.750146425923193,6.252841639356296
3681.2896,10.720119079763542,5.956613847839152
3682.1365,10.690237508111863,5.672970589551439
3682.9856,10.664711135357622,7.019181176026261
3683.8328,10.648261559708084,5.993931178694498
3684.6824,10.642395109234526,5.935579480662346
3685.53,10.641986904456395,6.124061580491874
3686.38,10.63577329378893,5.3775822458939775
3687.2278,10.613071574394272,6.155689702351566
3688.0762,10.57152898886446,6.369355986290333
3688.9265,10.519702012992125,5.988225950343824
3689.7751,10.472735751797536,5.8319111461368
3690.626,10.443102956433327,6.839583695265697
3691.475,10.43526718425682,6.029960409573698
3692.3264,10.445128925629913,5.982393977847627
3693.1758,10.464333682990247,6.861864164654961
3694.0254,10.484149989075693,6.538356666102579
3694.8772,10.496807234875766,5.892432692060805
3695.7273,10.496304792090639,5.720962190611506
3696.5793,10.480700413830723,6.180284612612023
3697.43,10.454010339511902,8.517214096029853
3698.2825,10.424836962694332,7.793266675872669
3699.1333,10.402202081613384,6.9434561922463045
3699.9841,10.3902247387356,6.162889234744255
3700.8374,10.386569212312798,7.358731055002386
3701.6887,10.384798617009444,6.268510812329052
3702.5425,10.378822597302745,6.538970932953836
3703.3943,10.366231084097784,6.124753769845014
3704.2483,10.34828352957145,7.03855844720546
3705.1003,10.328194558573875,6.266686651199966
3705.9526,10.308881601914157,7.415897182205011
3706.8074,10.29208484852302,7.084795726648664
3707.66,10.278178382962453,6.772796162299965
3708.515,10.265856433506316,8.601951980235324
3709.3682,10.252963163323795,7.546253604967858
3710.2234,10.237742602127657,6.62616175579879
3711.0771,10.220940443688521,6.833386408054403
3711.9307,10.205686686805524,8.32573891922514
3712.7866,10.19479784624319,8.036514294347977
3713.6409,10.187593442944886,7.405276898888503
3714.4973,10.179450887889935,5.876744239932871
3715.3518,10.165127935885758,6.607894080867566
3716.2085,10.142076466643235,7.933189469863192
3717.0635,10.112174110146318,6.7093334338729
3717.9185,10.08081488125519,8.181454362597368
3718.776,10.055329395391833,6.997871904783678
3719.6313,10.042607872695408,8.205851310441208
3720.489,10.045266110568875,7.479122642973804
3721.345,10.059018932575063,6.484281477915283
3722.2031,10.073001008177737,6.992525287185311
3723.0593,10.074528772424143,6.9775919568385065
3723.9158,10.056529128385174,7.9010016255366935
3724.7747,10.021571506939095,7.112043869525824
3725.6316,9.980131523011707,7.17456565452197
3726.4905,9.942872802764228,7.05512923355633
3727.348,9.914971648005299,8.551242249234882
3728.2073,9.894523398001745,7.187814498041523
3729.065,9.876869874649703,6.73525458410147
3729.9229,9.858905018524974,7.771217530117263
3730.783,9.840913902672847,7.707237237603255
3731.6414,9.825217415627867,7.495585326829843
3732.5017,9.813768636929405,7.263150704919177
3733.3604,9.807660139562257,8.06140046652875
3734.2214,9.807151739018988,7.591241000636238
3735.0803,9.811326905398525,8.252139846466244
3735.9417,9.816877210947409,7.383930119885594
3736.8013,9.818100323486544,6.536872747888468
3737.661,9.809899302169036,7.610277029800668
3738.5227,9.791938910337795,7.99121887018797
3739.3828,9.770463489229007,9.320987841184753
3740.245,9.75424089379537,8.567054115709505
3741.1055,9.74791172345846,8.016361081869825
3741.9683,9.747662896217795,7.304333395671225
3742.829,9.744343286490071,6.902222560221046
3743.69,9.73073907205632,6.90976625217476
3744.5532,9.706255904153494,8.907377988102652
3745.4148,9.675929413405369,6.949132192554639
3746.2786,9.645742676608755,8.118243344783922
3747.1404,9.62056527831206,7.444771774587571
3748.0044,9.603534593477177,8.043720205425458
3748.8667,9.596382682787528,8.527270062237998
3749.729,9.597793361537226,8.21948208068036
3750.5938,9.602907990394646,8.222830129612353
3751.4565,9.605319389450898,8.299636346929027
3752.3215,9.601332617300026,7.845903495963747
3753.1848,9.592636488340156,7.28475142858796
3754.0503,9.584538622890493,7.197113731430532
3754.9138,9.581124447571865,9.046272561557046
3755.7776,9.581337117207378,8.201761536124055
3756.6438,9.57965757816981,7.678183971778101
3757.508,9.570226625152634,8.319438104348215
3758.3745,9.550908438838706,6.593851841819108
3759.239,9.524688916786884,8.504239261685711
3760.106,9.497171267734096,8.120304734515818
3760.971,9.47336215184744,8.251289957301514
3761.8362,9.45461090835556,7.933186267158007
3762.7036,9.438877780981247,7.741311873137766
3763.5693,9.422892337269829,7.781587906465002
3764.437,9.404370633764398,8.862963966337519
3765.3032,9.383670783183852,9.105551887820203
3766.1714,9.363230282257136,8.79176400754771
3767.0378,9.346238406428474,7.985594924640673
3767.9043,9.334277855999208,8.63839232906756
3768.7732,9.326410338080294,8.610662589621159
3769.6401,9.320086868785179,8.793979811062075
3770.5095,9.313201342966469,7.662174656182806
3771.377,9.30566267955951,8.817441002629403
3772.2466,9.298462340028147,9.116857288185962
3773.1145,9.291885568076312,7.485599593214783
3773.9824,9.284822546203822,8.636738481839663
3774.8528,9.27623658438331,7.870911212306266
3775.721,9.26666609258652,9.845568975504662
3776.5918,9.25772414659905,10.441119988515752
3777.4604,9.251049314469961,8.217594417577825
3778.3315,9.247569514148198,7.52074323641701
3779.201,9.247508436358935,8.548349976977748
3780.0703,9.249495448488355,9.626880673713588
3780.942,9.249688611223588,7.226830975860716
3781.8118,9.242612854935985,8.158477161793632
3782.6838,9.224144886480879,9.13732131052545
3783.554,9.194692350496194,7.488098537662682
3784.4265,9.159118604408214,9.529604196180086
3785.297,9.12452807382521,9.769500894560496
3786.168,9.096090276115502,8.945735278683044
3787.041,9.07531391047088,10.012624552369639
3787.912,9.060348519310818,8.664204670218254
3788.7856,9.047594191554758,9.323276808833835
3789.6572,9.034601996035194,8.351952146982459
3790.531,9.021488743334746,10.894791632726944
3791.403,9.010705157915059,8.521758179453087
3792.2754,9.004492647312203,8.16697660929813
3793.15,9.002811323559547,9.312486185104165
3794.0225,9.003021495290227,7.571070271085661
3794.8972,9.001469679344272,9.128297414216012
3795.7703,8.995454768776893,9.033906909548987
3796.6455,8.983901038913036,8.755388055605007
3797.519,8.96692920321821,9.729948863385971
3798.3926,8.945185513892348,9.262792989815923
3799.2686,8.92030065347097,8.234030427283281
3800.1426,8.895804208218664,10.675729936595086
3801.0188,8.876018526634814,9.297451629156301
3801.8933,8.864189330454213,9.97504915678043
3802.77,8.859790555439229,8.60149392454224
3803.6448,8.858269231002117,9.288702732020678
3804.522,8.853203458390293,9.166604621822756
3805.3972,8.840480428761616,8.832290961336115
3806.2727,8.821465994218016,10.17877594718025
3807.1504,8.802632033452072,9.34644624547177
3808.0261,8.791160431929091,10.160402691247038
3808.9043,8.788837312268097,9.619111871580872
3809.7805,8.789963982049205,9.859657083662796
3810.659,8.785061811389268,12.847778969453476
3811.5356,8.768167779320976,9.010525099834686
3812.4126,8.741364552801588,10.675605231671392
3813.2917,8.7129691664231,9.185215203824349
3814.169,8.691731544922256,9.534703298924365
3815.0483,8.681361704294188,12.09070422395687
3815.926,8.680135422144554,9.112532345274172
3816.806,8.683160349182964,9.680907727600275
3817.684,8.685256789323908,10.751311292132987
3818.5623,8.682653727373788,10.33708096270323
3819.4429,8.673724813275685,10.140052046548725
3820.3215,8.659311676365904,8.925843245821891
3821.2024,8.641832061209739,10.1864494992244
3822.0815,8.624040203695964,10.141238529727698
3822.963,8.607673037788269,9.52266339009213
3823.8423,8.593886169101014,9.843824834675235
3824.722,8.58357388691079,10.48867599325996
3825.604,8.577330194138097,9.943934019937368
3826.4841,8.574595232067493,8.988773683824027
3827.3665,8.573327214344216,8.752308720842304
3828.2468,8.570976664303526,9.06159073334185
3829.1296,8.565456214574555,10.096450420791475
3830.0105,8.555438795747886,10.343643046234385
3830.8916,8.540242865124407,9.271114686536466
3831.7751,8.520485888157092,10.003474735321198
3832.6565,8.499252602986289,10.323076692836596
3833.5403,8.481400546674276,11.045237021672524
3834.4224,8.471653361059388,11.103064492887228
3835.3064,8.47156693584124,10.35515610062538
3836.1887,8.478671241728234,9.54846617037374
3837.0713,8.487554529513773,9.579372640958578
3837.956,8.491926530695244,9.947804805170495
3838.839,8.486735377033146,10.27347038221641
3839.7244,8.47038727592442,8.821525405240903
3840.6077,8.446033522129326,9.506805935947872
3841.4932,8.4195679317951,10.754991921223713
3842.377,8.395800354250689,10.69660131206716
3843.261,8.37509957858439,9.969286324754542
3844.1472,8.354858814432268,10.175932882455943
3845.0315,8.333442960385328,9.803115638748167
3845.9182,8.312004049813305,9.188483259462938
3846.803,8.293762281110135,12.058131789368527
3847.69,8.281366769375023,11.047945119720515
3848.5752,8.276170323417295,10.55004453905773
3849.4604,8.278033860918352,11.38133005188088
3850.3481,8.285364681031059,10.066089462922468
3851.234,8.294741850604238,9.342901129352587
3852.122,8.301630868581125,10.255578638672615
3853.0083,8.301788770484787,10.147352186479644
3853.8967,8.292688603861723,10.773586650036227
3854.7832,8.273878260282245,11.042194367788785
3855.6702,8.246789863302098,9.948478990205224
3856.559,8.21502164265482,10.888198222843883
3857.4463,8.184607073438178,11.499567365328277
3858.336,8.162088044350558,13.734947205448892
3859.2234,8.152103782939344,10.682812154151534
3860.1135,8.154698101959008,11.732248153601468
3861.0015,8.165751620512317,10.631870037086566
3861.8896,8.179358162751054,9.809378616298893
3862.7803,8.190339597229784,11.929175569662709
3863.6687,8.195336372290534,10.65173786954537
3864.5598,8.19310844633728,10.590774286624953
3865.4487,8.184277792801982,10.220612931611404
3866.34,8.17087478192707,9.955867138595213
3867.2297,8.155468569612376,12.211454986118365
3868.1213,8.139540497013352,9.855030488313409
3869.0112,8.122768611300263,11.00759589279703
3869.9014,8.102998990438405,10.75065401954627
3870.7937,8.077689967491017,11.560485853509027
3871.684,8.046172346180139,10.8198640049412
3872.577,8.010929295020599,10.664120075754298
3873.4678,7.978099214868367,11.738985037249739
3874.361,7.954071470109008,12.49189346573027
3875.2524,7.94210399264558,11.494973649241137
3876.1438,7.9400862429878645,12.75967938013676
3877.0376,7.942932595855221,11.868539177491414
3877.9297,7.946340978059782,12.780947441647585
3878.8237,7.948782068665307,11.726321146513799
3879.716,7.950382482723251,11.74159466436725
3880.6108,7.950993638679584,10.956107346542108
3881.5037,7.949621059290978,10.857840646385402
3882.3965,7.94535859398217,10.709237738487403
3883.2917,7.938186401701403,11.527435589784096
3884.185,7.928894282349143,11.015466804419297
3885.0808,7.918295309240146,10.615619894536442
3885.9746,7.907097905445346,11.57357312399704
3886.8706,7.8958619281348,13.046602684898785
3887.765,7.885290868113397,10.84494888226421
3888.6592,7.875685837388887,12.63937898300612
3889.556,7.866385416498516,11.413537196953191
3890.4507,7.855753165258346,11.77428689141961
3891.348,7.8420086882487015,11.704519228631012
3892.243,7.82487608355743,11.202629479146456
3893.1406,7.805706926901331,10.823975843743852
3894.0361,7.786835945357806,12.655919887110997
3894.932,7.769983674648343,12.275194004640248
3895.83,7.756100189971529,11.354047947107032
3896.7263,7.745751336016795,13.141851162938998
3897.625,7.738865979879222,13.907091116862178
3898.5215,7.7344734338857295,12.049515021935546
3899.4207,7.7306128477907405,14.104825509804733
3900.3176,7.725544206412529,11.146293271763382
3901.2148,7.718868445443571,11.828472868924717
3902.1145,7.711482383037226,11.916278778046882
3903.0122,7.70434901147034,12.740989974949999
3903.912,7.697381877614283,12.287763147963163
3904.8103,7.690041376209479,12.679283877368565
3905.7107,7.682523385096601,12.687290705803466
3906.6094,7.67653615049985,11.65920077941734
3907.508,7.6743651356002545,13.54725078850966
3908.409,7.677222982205108,13.635230867856412
3909.308,7.684034420008329,12.833191350149695
3910.2097,7.692089760524343,12.780103928470208
3911.1091,7.698961289853366,13.465607112046218
3912.011,7.704347441199272,12.33748004197509
3912.9111,7.70984535500297,13.410466094866269
3913.8113,7.717233698665872,12.974635398722388
3914.7136,7.726241350104172,13.20467032576333
3915.6143,7.733445646925475,12.626136111485165
3916.517,7.733514716315877,11.891141347120142
3917.4182,7.722005612821769,12.624044995704768
3918.3215,7.698061841442127,13.517225144628247
3919.223,7.665301728303031,12.285786891152553
3920.1245,7.6297837609811925,11.94748331331517
3921.0286,7.597488497783925,13.111375641987447
3921.9307,7.572649528811465,13.988615014121944
3922.835,7.556649586394617,11.538132704828291
3923.7373,7.5487131543899535,11.551174378805037
3924.642,7.545986183765741,14.948269626534163
3925.5452,7.544467572292844,12.740218150003649
3926.448,7.54078350452737,12.319000509736814
3927.3535,7.534510135897658,13.4963501847449
3928.257,7.528756050452079,12.736356519323737
3929.1628,7.527439688531949,14.88395074588432
3930.0667,7.531509172356617,11.816482960972902
3930.9731,7.537350165958323,12.477498753985554
3931.8774,7.538800852352545,12.152118260876948
3932.782,7.531063459089224,13.486347258632595
3933.6887,7.5132552489643505,11.630471041304277
3934.5938,7.488739348309889,13.19082196504872
3935.501,7.462924817435768,13.617852485406155
3936.4062,7.441038387370743,12.998164315194012
3937.3142,7.425732864968979,14.41208525795993
3938.22,7.416941310874576,13.109486668766397
3939.128,7.412306731700835,13.538684338709404
3940.0342,7.408647243583996,14.46569418498239
