wavl,flux,ivar
3566.9744,34.455727783246886,4.251948877822491
3567.795,34.386762633196675,3.969256022364643
3568.6177,34.311673997472155,4.528853289767993
3569.4385,34.253607454384984,4.724645851059368
3570.2617,34.21963367884865,4.665700682715809
3571.083,34.20142548676825,4.4234122467569295
3571.9065,34.182540371020394,4.605217553935203
3572.7283,34.15198285534871,4.418990856376051
3573.55,34.11387275284823,4.548562017732924
3574.374,34.085838325894116,4.770640153254783
3575.1963,34.084808319077354,4.958053796979736
3576.0208,34.10991690797026,4.396634722901443
3576.8435,34.13815464078803,4.330621962630788
3577.6682,34.137815246641,4.874866121941521
3578.4915,34.088773225643564,4.62787816201025
3579.3145,33.99379961373322,5.171811766248193
3580.14,33.87266672590617,4.872377832007396
3580.9636,33.75058873165177,4.723773699168876
3581.7893,33.64893273488056,4.052414566873133
3582.6133,33.588889240490666,4.966289475767389
3583.4395,33.59093825167027,5.067250204098757
3584.264,33.66760997105254,4.761394318899145
3585.0884,33.81008468689413,4.639371584371999
3585.915,33.98357609820653,5.190567678221473
3586.74,34.13552098495795,4.105667910606709
3587.5671,34.219512768775445,4.507073442637807
3588.3923,34.212100901165535,4.82586541220199
3589.22,34.11996715386716,4.386001612157179
3590.0457,33.97153571714607,4.47259918831471
3590.8716,33.80087060266503,4.480650702568031
3591.6995,33.63594060125416,4.973966793402713
3592.526,33.4940080673304,5.042284851493221
3593.3542,33.379222429660544,4.620736511955583
3594.181,33.288057366567195,4.897502045930635
3595.0098,33.21159157478065,4.927906722705785
3595.8367,33.14197904350141,4.753990244930867
3596.6638,33.07518616404523,5.112218675787888
3597.4934,33.012951791571844,5.2472505767537765
3598.3208,32.95991144950612,4.620079048317448
3599.1506,32.91631504757951,4.5496478507303975
3599.9788,32.87535544238497,5.461715325338796
3600.8088,32.82543388444709,4.562471413642583
3601.6372,32.761999253424584,5.0858233943110855
3602.4678,32.69875253772197,4.785725038465188
3603.2964,32.66964242422291,5.609284734917763
3604.1252,32.710870979881996,5.323677800131063
3604.9565,32.83759716242533,4.830054130449824
3605.786,33.030014071403016,4.738042209906624
3606.6172,33.24523599601963,5.129483869469954
3607.447,33.435541781498245,4.747342865143705
3608.2788,33.56886804547086,4.533834107420584
3609.109,33.63190102040271,5.311114747348302
3609.9392,33.629010684702955,4.765945186131803
3610.7717,33.57419496373249,4.702707737862816
3611.6023,33.48705889792051,5.366904165622212
3612.435,33.38782393688868,4.5646332348393885
3613.266,33.29334429005122,4.997498969854903
3614.0994,33.209074137450095,5.148206477712694
3614.9307,33.12948690603194,4.5439196172291485
3615.7625,33.04357899151282,4.780220483791218
3616.5962,32.945538654976254,5.132394991375793
3617.4282,32.839698685481984,4.874991492681522
3618.2625,32.735619556441094,4.880356577283266
3619.0947,32.6437745100749,5.067810340381283
3619.9292,32.56950832858178,5.250512845530369
3620.762,32.51341219651772,5.1324221155610665
3621.595,32.47034737719426,4.814345314155411
3622.4302,32.43240071010695,5.4769347866091325
3623.2634,32.3929210062524,4.672272272913142
3624.0989,32.34874510638624,5.393356036769073
3624.9326,32.30076648942974,5.1543167273323744
3625.7686,32.25071184910547,5.131034076296374
3626.6028,32.199867415767955,4.989137083153083
3627.437,32.14760443833226,5.048059411935432
3628.2734,32.09273521346275,4.962351726212091
3629.1082,32.036408634365955,5.226742760228179
3629.945,31.98264666108323,5.276606991264692
3630.78,31.936606344765362,5.7843400800281
3631.6174,31.89765749880439,5.02551166322009
3632.453,31.857947014632032,4.559741158879836
3633.2883,31.807512350823497,4.753365176603143
3634.1262,31.743499326980064,5.810566516343336
3634.9622,31.672658149507132,5.016932166814287
3635.8005,31.60189196201125,5.589307829831607
3636.637,31.530657630405834,5.200173899298816
3637.4756,31.450389054252124,5.238509952854195
3638.3123,31.355795084300635,5.63983524871947
3639.1492,31.2512090211159,5.68305090100181
3639.9885,31.149384423573462,5.394625248772711
3640.826,31.064135274947315,5.689751676690372
3641.6653,31.001213474478316,5.613351141682936
3642.5032,30.95733129995703,5.63241722321328
3643.343,30.92108400249879,5.346822049081503
3644.1812,30.878963301589476,5.587293093544747
3645.0195,30.821734993505423,6.093524465596391
3645.86,30.750911294685913,5.3899231969078985
3646.699,30.680920035157033,5.220280856001724
3647.5398,30.631242739308696,6.328934688233724
3648.379,30.614995356107123,6.372419120664865
3649.2202,30.629518995460998,5.084058347357777
3650.0596,30.659317000087402,5.693170156642045
3650.8994,30.686696892292385,5.740441367125506
3651.7412,30.699390978463644,6.070299098114629
3652.5813,30.691014462233955,5.506848162795269
3653.4236,30.659486976204278,5.580562230355695
3654.2642,30.60840796150731,5.53229014831821
3655.1067,30.547583415044347,5.7327162719804665
3655.9475,30.489767504180097,6.250082781595866
3656.7886,30.442569692595427,5.654260182254913
3657.6318,30.40555135692685,5.829464787730432
3658.4734,30.374563231319623,6.054649758367197
3659.317,30.34907848445059,6.259538839116544
3660.1587,30.33646603391156,5.999945189341407
3661.003,30.34668656511819,5.926175574168335
3661.845,30.382729806690836,5.927375945530513
3662.6875,30.43571952031761,5.755263014933315
3663.532,30.490016642427197,5.3237064980564295
3664.3748,30.53388931390481,6.0584570863503435
3665.2197,30.568665643865096,5.263963141554763
3666.063,30.60970102127232,6.1726516339835005
3666.9084,30.685322602848704,6.106564590657481
3667.752,30.82920793297649,5.753383182134063
3668.5977,31.059343829205392,5.574254442040627
3669.4417,31.332982823945375,5.748865570451436
3670.286,31.526165944340807,5.998766410833687
3671.132,31.484228130497772,6.3090817391637755
3671.9768,31.14522570245877,0.9860921584547032
3672.8235,30.617686946993913,42.6150536347464
3673.6685,30.11930911367844,5.871535932203457
3674.5156,29.812166151707252,5.853280089789811
3675.3608,29.717008286746463,6.3603572920648945
3676.2063,29.747949841228465,6.011284742441127
3677.0542,29.812159922546364,5.952770686302529
3677.9,29.861458503814827,5.884098235187871
3678.748,29.888328320019408,6.4897933099902305
3679.5945,29.90034251813451,6.73387623354191
3680.4429,29.90572574375772,5.96648089657575
3681.2896,29.908587959244155,5.925929848235181
3682.1365,29.90850988933283,5.985345660487045
3682.9856,29.902006129627914,6.085151879583807
3683.8328,29.88619619985091,6.006902956436755
3684.6824,29.86158133666006,6.155956966909402
3685.53,29.832106472321588,5.988935792017332
3686.38,29.802520557525085,5.7210598798862735
3687.2278,29.777977204959136,6.648867537047479
3688.0762,29.764343018992676,6.270042911620475
3688.9265,29.768623068472944,6.297066412633886
3689.7751,29.79624522296771,6.363460332291689
3690.626,29.847875732224185,5.748400921283468
3691.475,29.919831597948107,5.666675867565148
3692.3264,30.01477313818972,5.760120664243761
3693.1758,30.154917532078446,6.668548519136187
3694.0254,30.383975863838057,6.356427151144078
3694.8772,30.72918142150491,5.973368264941063
3695.7273,31.1272629691163,6.351011663194962
3696.5793,31.39543518979296,6.040467331074342
3697.43,31.313932737572937,6.327090441122311
3698.2825,30.813187535699726,0.8973626941198447
3699.1333,30.08107287606716,8.477488537349094
3699.9841,29.441285466753275,6.295528244429745
3700.8374,29.11584209733355,6.11188230221923
3701.6887,29.099145359555788,5.6795542646334365
3702.5425,29.231527603905114,5.754130764972471
3703.3943,29.359366704608007,6.497935905501378
3704.2483,29.41792740848342,6.362364041796525
3705.1003,29.411997765844404,5.769596052026699
3705.9526,29.368873155086575,6.064703530435787
3706.8074,29.3096657677571,6.314700581684001
3707.66,29.244842149634156,6.67466991341346
3708.515,29.175129950549117,6.170358971585
3709.3682,29.09628310573919,6.152382574943689
3710.2234,29.003388605395635,6.413522471074161
3711.0771,28.898590059911818,6.707951833970614
3711.9307,28.792257594322777,6.372619359739335
3712.7866,28.700257591441996,6.059124504297555
3713.6409,28.63905726181937,6.8892895708386845
3714.4973,28.618418822191483,6.546573829775184
3715.3518,28.63802859734127,6.531530410354584
3716.2085,28.686294861089074,6.843678975826113
3717.0635,28.74516525562659,6.721558553342258
3717.9185,28.800202673158,6.287165813700752
3718.776,28.84760754181049,6.327209227756707
3719.6313,28.891294816143542,6.420056175820521
3720.489,28.931365839390175,6.927714760968311
3721.345,28.952280215556243,6.297361352456881
3722.2031,28.92763519541708,6.398814283461419
3723.0593,28.840517896985624,6.022783247802246
3723.9158,28.703775124764654,5.677844391434197
3724.7747,28.560351683925447,6.603760611194186
3725.6316,28.46102420723126,6.462063266265717
3726.4905,28.43129386529424,7.138368619573005
3727.348,28.460445633321232,6.6171664814812665
3728.2073,28.514464970574156,6.974769475808146
3729.065,28.559706270940836,7.202059928658556
3729.9229,28.577190359937067,6.255467185729862
3730.783,28.561519646044893,6.334368424447305
3731.6414,28.516811358474474,6.13262636416849
3732.5017,28.45470592466435,6.328481997155047
3733.3604,28.39315307648724,7.079988577558101
3734.2214,28.349381430717987,7.082298208883549
3735.0803,28.33282486499086,7.391929291123877
3735.9417,28.339753423552935,6.333917600993685
3736.8013,28.355354338812873,7.009933417472487
3737.661,28.361225413449784,6.253126566402212
3738.5227,28.345829509221613,6.448997348826502
3739.3828,28.312090283900854,6.559887120038526
3740.245,28.274626691688376,6.623548214765165
3741.1055,28.248311410151665,7.089519529107374
3741.9683,28.236357831355882,6.865417899469753
3742.829,28.229995854200816,6.671315261032908
3743.69,28.216956924419605,7.241752590233979
3744.5532,28.190171384844845,6.765587510253981
3745.4148,28.149862649835313,6.715868665678365
3746.2786,28.09987023381999,6.864650253980102
3747.1404,28.0453334735835,6.964277923387645
3748.0044,27.99095805705202,7.034014348290884
3748.8667,27.94199831167741,7.023111453884872
3749.729,27.90286202380623,6.523758421013118
3750.5938,27.876702007785507,7.276387465578427
3751.4565,27.865127769951222,7.177516077623315
3752.3215,27.86771321071699,7.070776687872175
3753.1848,27.882154044275225,6.899234330334683
3754.0503,27.904521925347368,6.811613466266961
3754.9138,27.93035476369007,6.128757588123383
3755.7776,27.957079640583714,6.6847236432070645
3756.6438,27.984931419184495,6.570727049591812
3757.508,28.015240916529724,6.968746473897277
3758.3745,28.047635838672996,6.568865652901756
3759.239,28.076976277719105,6.730191136996813
3760.106,28.09448962428072,6.554183388145456
3760.971,28.09102742220865,6.841260095138408
3761.8362,28.062340534128516,7.184762393792873
3762.7036,28.011618840250566,6.594853563321609
3763.5693,27.948378097586524,7.553923242030886
3764.437,27.88161259733261,6.5933571452507165
3765.3032,27.814553861988603,7.488393883155406
3766.1714,27.742291896103044,6.5551861490350545
3767.0378,27.657622378423795,7.0685948466010915
3767.9043,27.556935737590294,7.14288007757005
3768.7732,27.44458714790663,7.871780708272324
3769.6401,27.33352842528898,7.182875376008289
3770.5095,27.239319686415207,7.2662083005710185
3771.377,27.176674398601868,8.264960830602872
3772.2466,27.153012907260138,7.932241529952789
3773.1145,27.16795088725442,7.802563707997737
3773.9824,27.214984603189983,7.606637608591572
3774.8528,27.28677954151491,7.658763408273509
3775.721,27.377869901883816,7.796728465356831
3776.5918,27.485551845835587,7.763805167198066
3777.4604,27.60361499617231,7.614052555687643
3778.3315,27.721658530390005,6.440035273223836
3779.201,27.825229110761097,7.0590990802263525
3780.0703,27.903829022818105,6.793958858512122
3780.942,27.95363650000012,7.019909048212648
3781.8118,27.976026913742082,7.82043841903253
3782.6838,27.974872908058636,6.953082913125319
3783.554,27.954505987812475,6.678307927151338
3784.4265,27.920073323556057,7.039600494427902
3785.297,27.87763795420936,8.113585475090805
3786.168,27.831283844071503,7.101060971388726
3787.041,27.780214430988853,7.62187245007647
3787.912,27.718140265555167,6.291217830286337
3788.7856,27.63533262878834,6.593615913183591
3789.6572,27.52614787013068,6.890649460219562
3790.531,27.392261302487874,7.298415642294919
3791.403,27.243265874212067,7.3409612729029945
3792.2754,27.087026710110973,6.727927396506474
3793.15,26.923449059845964,7.865454323217732
3794.0225,26.74616858691693,7.363004375235606
3794.8972,26.54746102060085,7.539679402146417
3795.7703,26.33044209814153,8.277170638285615
3796.6455,26.10999339868265,7.418107554852196
3797.519,25.914896344552805,8.13610085215506
3798.3926,25.7770705922452,8.847913710398354
3799.2686,25.721738444568054,7.675193114097036
3800.1426,25.756066045147865,8.404528739081636
3801.0188,25.865235313946343,8.157482080799825
3801.8933,26.02065695538959,8.26397263902903
3802.77,26.196102239024288,7.70031003208501
3803.6448,26.37436055854059,7.99800858305294
3804.522,26.549947217334243,7.815865517948159
3805.3972,26.72061210270787,6.967653513484278
3806.2727,26.8867392921493,7.059879896389005
3807.1504,27.048234851465452,7.133576886210529
3808.0261,27.20225365688501,7.4686443522576145
3808.9043,27.345523782929167,6.9668615231798325
3809.7805,27.47295394869514,7.415159416218795
3810.659,27.582428766121048,7.470613322326635
3811.5356,27.672176127906667,7.299309923375318
3812.4126,27.740369554739168,7.363019713568642
3813.2917,27.783325834186495,6.75872548673978
3814.169,27.79837723602044,7.189735238367896
3815.0483,27.78891501907376,7.263482824163202
3815.926,27.76484801222028,6.877851760016824
3816.806,27.736968015275444,6.855143082738223
3817.684,27.708876814397783,7.490539515533177
3818.5623,27.672578632357606,7.147024035712527
3819.4429,27.61301016477155,7.030822856605195
3820.3215,27.518814264717008,6.85525859186055
3821.2024,27.3895420581626,6.959680321814414
3822.0815,27.23783405835148,7.4538277681622995
3822.963,27.079365404546614,7.885477727781311
3823.8423,26.924589060541056,7.667709743264151
3824.722,26.769878428312204,7.323671199526868
3825.604,26.601204858515512,7.590953557675558
3826.4841,26.405000739987756,7.208412980170624
3827.3665,26.174514481632837,6.86639722963554
3828.2468,25.915902915147857,7.87857650767406
3829.1296,25.638022571274607,7.998680123723746
3830.0105,25.34892649566522,8.423016683975728
3830.8916,25.046845673132392,8.981604698572873
3831.7751,24.724622177178535,9.03719116452276
3832.6565,24.379530234454073,9.122193487664092
3833.5403,24.015697841222494,8.988893075266656
3834.4224,23.658321275722873,10.003229908376376
3835.3064,23.34920015235211,11.237545644373107
3836.1887,23.1434848888098,11.778379325568771
3837.0713,23.084414474311362,11.942452391726347
3837.956,23.186126105789413,10.385194958443718
3838.839,23.426692242838975,10.264251008149605
3839.7244,23.764458166114427,10.52059139563412
3840.6077,24.154135611939513,8.644077806402853
3841.4932,24.563711871262793,8.822840820273678
3842.377,24.967520690009678,8.69604329828015
3843.261,25.349189663176038,8.261172719777349
3844.1472,25.698375477939152,8.551007888045872
3845.0315,26.010188941663376,8.430039971819424
3845.9182,26.29009628377973,7.816561673408393
3846.803,26.543320132456078,7.5814054108495466
3847.69,26.77504819577606,7.356460473198229
3848.5752,26.984087578515066,6.853887622617545
3849.4604,27.170178522819167,7.401691378530641
3850.3481,27.3368129782176,7.78382180464068
3851.234,27.489712957511685,6.986069873089893
3852.122,27.634471875124333,7.179666727089037
3853.0083,27.768545054270724,6.777549158191775
3853.8967,27.884377752678006,6.830177864188964
3854.7832,27.972170387857805,7.477500837210502
3855.6702,28.027831757772883,7.139382470343525
3856.559,28.054806304453937,6.55227614443797
3857.4463,28.06333478735597,7.071859448791979
3858.336,28.06600696749767,7.1739728158433875
3859.2234,28.070954117459777,6.9687769180543
3860.1135,28.077792419833568,6.695367432194813
3861.0015,28.07942229882933,7.252138224999639
3861.8896,28.06877113123831,7.10273754818167
3862.7803,28.043752226379397,6.996909251758219
3863.6687,28.006535326853058,6.9272769220218375
3864.5598,27.957321465121012,7.336394405260188
3865.4487,27.891183710108788,7.07437623261802
3866.34,27.79972209797195,7.0286982242260585
3867.2297,27.680289889332595,6.66543998490907
3868.1213,27.53940110880786,7.055787986607881
3869.0112,27.39078580049335,7.018177332703056
3869.9014,27.24368923744835,7.07997405913658
3870.7937,27.097608419519013,7.173748234450746
3871.684,26.94598832240565,7.668574987128885
3872.577,26.78109144754401,7.230874696441081
3873.4678,26.60147870560129,7.6894846612760075
3874.361,26.40772916985771,8.058143875865321
3875.2524,26.20224997806482,7.782698822733813
3876.1438,25.983019266965265,8.654138968963643
3877.0376,25.74381231358539,8.036612357330014
3877.9297,25.477928080576437,8.500975413054533
3878.8237,25.177547084200892,8.14204411502066
3879.716,24.840666287776838,8.382111499124875
3880.6108,24.465422436837457,8.358675273923835
3881.5037,24.054116786431145,8.931507333909126
3882.3965,23.60630659025834,9.69565036240076
3883.2917,23.122294238120123,9.746051979720557
3884.185,22.608931816364034,10.749054058953428
3885.0808,22.069917711257087,11.366816680850409
3885.9746,21.513708081348522,11.609459916148529
3886.8706,20.94535438434088,12.890592453634772
3887.765,20.385921922744473,12.475381389935164
3888.6592,19.874471536627546,13.297289525342181
3889.556,19.472254286723658,15.055363841533513
3890.4507,19.248491696081572,16.992036120695293
3891.348,19.245979214066743,14.879557009684518
3892.243,19.463383916120467,14.842897654841394
3893.1406,19.85630523339674,14.450346662044849
3894.0361,20.35557025632408,14.045841712205142
3894.932,20.901333965436777,12.192864186415488
3895.83,21.45634508935276,11.840699451157768
3896.7263,22.000124462158805,11.947770008958386
3897.625,22.52753654906102,10.50333457014134
3898.5215,23.029277800850007,10.035562268797603
3899.4207,23.501972030128034,10.161139028128199
3900.3176,23.94197327407542,9.954627823080687
3901.2148,24.356974238299642,8.888889563822477
3902.1145,24.758090412834743,8.642010388965431
3903.0122,25.150215347831992,7.649532579190542
3903.912,25.53393741350315,8.67959353558685
3904.8103,25.89916541311122,8.258033199892376
3905.7107,26.237009633712685,7.180528119644195
3906.6094,26.539308548345016,7.580803581725091
3907.508,26.807188461461728,7.450942624162981
3908.409,27.048881436031383,7.57827855487276
3909.308,27.27545222119988,7.087523221205436
3910.2097,27.49941672607769,6.907667495463144
3911.1091,27.72463621788152,7.4767050643117985
3912.011,27.948249866862707,6.896700822280035
3912.9111,28.15953300250719,6.702962044800669
3913.8113,28.350280244894325,6.966717191179408
3914.7136,28.517292492102744,6.583978280806711
3915.6143,28.65989286217617,6.662489792478948
3916.517,28.778935043085514,6.141408678714641
3917.4182,28.873352775257764,6.852786177827786
3918.3215,28.944006410709285,6.578162137596927
3919.223,28.993626264737177,6.405014634534323
3920.1245,29.027951383584988,6.749858696488421
3921.0286,29.054438129331515,5.947836236825399
3921.9307,29.081631613854526,6.369213861915164
3922.835,29.117716661092555,6.095190391517076
3923.7373,29.166507575733654,6.498574772142749
3924.642,29.225829085859306,6.264056994127951
3925.5452,29.287944887882283,6.190573576124279
3926.448,29.34494278139534,6.413107825391078
3927.3535,29.39294493927684,6.066082736536037
3928.257,29.432974818586427,6.131456456971767
3929.1628,29.468816690012773,5.893179858187107
3930.0667,29.500762047810436,6.375441759333071
3930.9731,29.522491677808713,6.256448514082139
3931.8774,29.52209422982816,5.98268546538186
3932.782,29.48951819752018,6.123308152852829
3933.6887,29.42386363405662,6.553453715465919
3934.5938,29.33638507972096,6.543621926164268
3935.501,29.243714344612776,6.138174465800084
3936.4062,29.15921422184142,5.989574329516665
3937.3142,29.083915461692804,6.354878227469167
3938.22,29.00767131538571,6.3867717858822965
