wavl,flux,ivar
3566.9744,2.3344556312789484,139.3049235478481
3567.795,2.3241211653057037,136.26452693213403
3568.6177,2.31387538029939,124.88864674302374
3569.4385,2.3055026794413647,128.9091951210655
3570.2617,2.3001098988569537,114.42637903184198
3571.083,2.297905729835569,167.03360841062425
3571.9065,2.2982431424368084,122.13369693306223
3572.7283,2.30033847505033,124.71048132182821
3573.55,2.303780757952812,125.0651704542684
3574.374,2.3083460998768053,152.77502904163094
3575.1963,2.3133929258596826,137.82540804338612
3576.0208,2.317913732293418,119.63262633328138
3576.8435,2.3211043156678874,120.59866809942226
3577.6682,2.3229866488016087,148.21533617246575
3578.4915,2.324137847626837,138.22560084452033
3579.3145,2.3250516606646725,123.00342343121972
3580.14,2.3257763526735182,112.07218851832047
3580.9636,2.3261830762725975,128.28608944072903
3581.7893,2.326362007332632,112.95505264476958
3582.6133,2.326492209955664,125.65402049449403
3583.4395,2.3263366651206403,132.302128180733
3584.264,2.3250210268341105,110.77236552620062
3585.0884,2.321447036632681,138.26050639153434
3585.915,2.3150202331423393,124.92733128338214
3586.74,2.306264230880437,98.94072142212484
3587.5671,2.296572577820349,135.2380665352271
3588.3923,2.2874796341447308,148.52900066015988
3589.22,2.2795361899344986,130.67026911175668
3590.0457,2.272400435471937,120.95661081876987
3590.8716,2.265434136053566,158.14431216369445
3591.6995,2.2583930954540556,131.9558613535428
3592.526,2.251407504761557,120.3295865746407
3593.3542,2.2446502501026915,127.93338251088471
3594.181,2.238549616949959,138.9648145442464
3595.0098,2.2337737059390204,156.022768928883
3595.8367,2.2309912708314217,151.23633876820773
3596.6638,2.2302817842366087,145.684930895358
3597.4934,2.2311251272950594,148.4196704984791
3598.3208,2.2328001133024356,134.04137351080647
3599.1506,2.2349101615717926,126.87577106672107
3599.9788,2.2375796119699283,147.4947044768443
3600.8088,2.2413246495833756,118.2304361302214
3601.6372,2.2464561787393262,140.49266545599625
3602.4678,2.2525262785301994,132.75910644288015
3603.2964,2.258110109198587,118.08644002061635
3604.1252,2.2616091295389262,121.25947594650445
3604.9565,2.262253642912305,126.32828947497903
3605.786,2.2606271432249656,133.67496374296996
3606.6172,2.2581600043323906,156.25636254892495
3607.447,2.256056953383546,176.61249394021362
3608.2788,2.2544583175743504,126.72923049321138
3609.109,2.2525109664218634,121.51788052743466
3609.9392,2.249210040877703,124.18164857166296
3610.7717,2.2444361470824,129.87384877542723
3611.6023,2.239248299101956,147.74364887986195
3612.435,2.234890880372364,131.6368112060052
3613.266,2.2317013707255713,133.92510132004614
3614.0994,2.2289093991263838,143.7658934834034
3614.9307,2.225791744932959,130.75093028014817
3615.7625,2.222583038227336,145.59646779782196
3616.5962,2.220174864443962,148.44597792102817
3617.4282,2.218935582034846,130.73914132731335
3618.2625,2.218035271885666,134.41860485622811
3619.0947,2.216048462240194,136.77184800714468
3619.9292,2.2120197844605207,138.93980295956052
3620.762,2.206042640050117,172.55750867075926
3621.595,2.1988302552560026,141.31100611724895
3622.4302,2.1910466759164744,147.33447871946163
3623.2634,2.1831588380661837,136.65683092043724
3624.0989,2.175679285072624,146.52806498523793
3624.9326,2.1696373166064555,168.3949206591185
3625.7686,2.166089842865228,154.1144262586665
3626.6028,2.1654160590626756,133.30380247239802
3627.437,2.166866977049083,156.36430006690466
3628.2734,2.169135697980931,142.27615395301015
3629.1082,2.1711939817668284,140.9055642032686
3629.945,2.1725995261853415,167.13080829295225
3630.78,2.172954273340507,170.21943629681772
3631.6174,2.171498037510144,144.015106939906
3632.453,2.1675476381256495,137.31958903503923
3633.2883,2.161395964753568,132.8112904182217
3634.1262,2.1545432219791576,133.88028220846235
3634.9622,2.148852761470078,139.4218224945032
3635.8005,2.1451110746456874,142.26633786438856
3636.637,2.1426528523638626,185.70060519167163
3637.4756,2.1400304778114623,171.09287928906457
3638.3123,2.1363249808094107,156.83277165865255
3639.1492,2.13173551778601,154.30127380685482
3639.9885,2.1271970153105717,170.48562976378048
3640.826,2.1235037160756014,158.115435730054
3641.6653,2.120662832088657,135.922553841297
3642.5032,2.1181433156517278,139.79380759793358
3643.343,2.1153881484158177,180.08988890884976
3644.1812,2.1122537768842613,133.0580325851433
3645.0195,2.1090211592735084,146.7952371747931
3645.86,2.1062409088325507,169.4000293745585
3646.699,2.1043793904363772,157.00730446781827
3647.5398,2.1032744946845,143.7556961548423
3648.379,2.1019354423738514,149.40975067141366
3649.2202,2.0989281130802615,143.99237406465267
3650.0596,2.093268841179893,148.86968403975834
3650.8994,2.0849723008694063,162.84237706371758
3651.7412,2.0750071379913497,171.21387473549152
3652.5813,2.0649108530345726,140.42504327580798
3653.4236,2.0561564940830723,172.64572752321348
3654.2642,2.049902227123674,170.68246033430546
3655.1067,2.0464323298519926,145.67378999177924
3655.9475,2.0450864870975303,149.97147420526034
3656.7886,2.0445548367444064,164.20648654468832
3657.6318,2.0437345286029323,159.5084589386299
3658.4734,2.042474165505245,161.3497818157956
3659.317,2.0416669563973797,150.79772800328305
3660.1587,2.0426168826424975,149.52959068025746
3661.003,2.0460714593076346,171.45663818147068
3661.845,2.0515615463126453,162.00089476585006
3662.6875,2.0575977067516003,150.9170231340007
3663.532,2.062439568308812,142.713247474226
3664.3748,2.065003669027126,138.99381948932188
3665.2197,2.0654262998729367,163.0155206174995
3666.063,2.064846488537498,197.0966735973367
3666.9084,2.0647572752758707,141.7441201530192
3667.752,2.066212814184576,175.00258074688705
3668.5977,2.069301337182787,144.99410026123718
3669.4417,2.073099632273384,165.11226376862223
3670.286,2.0762499124912637,143.97702600930162
3671.132,2.07768131401451,154.69851000528615
3671.9768,2.0770233260176143,180.00701985281907
3672.8235,2.074424337687317,154.0403435301618
3673.6685,2.0700209636297022,143.01126500565363
3674.5156,2.063552206095025,160.88602943044216
3675.3608,2.054651898504818,159.84333346170266
3676.2063,2.0433475592589527,163.89046640952824
3677.0542,2.030532218550535,156.5810478460747
3677.9,2.0178795567721615,170.5871496310589
3678.748,2.006806071195241,165.4701238142048
3679.5945,1.998091409397591,183.55576237830792
3680.4429,1.9918017063244076,167.0388615544041
3681.2896,1.9880489845456353,191.25104199813052
3682.1365,1.9871018568980965,183.96607314389496
3682.9856,1.9890294936373887,172.62665061676077
3683.8328,1.993190070146879,157.73795079402043
3684.6824,1.998337031326793,142.89022132114505
3685.53,2.003021591386902,175.34148769890507
3686.38,2.0061302296873937,132.50292533988963
3687.2278,2.0070463279429984,167.86411129272713
3688.0762,2.0058135641641135,174.10339498961645
3688.9265,2.0030605946764926,186.01224450342286
3689.7751,1.9998336839206052,193.76751982948608
3690.626,1.9972654391926492,167.99794405814768
3691.475,1.9963319764985945,147.9901818273247
3692.3264,1.9974582006005661,175.58543181035304
3693.1758,2.00017969644538,164.67332267403853
3694.0254,2.003228782950407,176.38393411746765
3694.8772,2.0052752332268,172.3874137727909
3695.7273,2.005840606806696,154.0939073262951
3696.5793,2.005573535484232,174.09414138541052
3697.43,2.005542144958592,150.82273698174274
3698.2825,2.006287795998418,170.7451269767072
3699.1333,2.0074411139809727,162.79181534945215
3699.9841,2.0080840182336446,168.9026556949871
3700.8374,2.0073280293715134,160.1352345590321
3701.6887,2.004642158438611,180.07350164647903
3702.5425,1.9998215428865382,161.93877635342687
3703.3943,1.9930079112078976,184.61416237681112
3704.2483,1.9846945490736303,192.0154593103831
3705.1003,1.9758867883375355,158.1438313960047
3705.9526,1.9676632210941796,190.12625777261246
3706.8074,1.960737842066139,171.23359271542822
3707.66,1.9552892840052656,178.23887510806742
3708.515,1.9511313719604426,160.8223806680484
3709.3682,1.948252902575372,185.37794530541444
3710.2234,1.9467450434339328,161.29964618433846
3711.0771,1.9464884138122398,192.16110184475318
3711.9307,1.9469616325778119,173.81274560921375
3712.7866,1.9476278849286686,181.9872595944276
3713.6409,1.948404496466931,152.80937055057913
3714.4973,1.9496394015226783,150.63769566354725
3715.3518,1.9515750548780235,208.92963998134698
3716.2085,1.9540573250600468,165.54546163542804
3717.0635,1.9567694772755684,159.44190894902468
3717.9185,1.9597030986121458,166.36055744470013
3718.776,1.9631341361097612,174.49620432387832
3719.6313,1.9671142758027242,167.13848051030425
3720.489,1.971125809076305,179.16697556840586
3721.345,1.9740748554458616,182.64168616790093
3722.2031,1.9748063029758471,188.29589083328182
3723.0593,1.9725784012393472,187.4738629789107
3723.9158,1.9674646270835763,175.06584084719063
3724.7747,1.960481670387542,217.54835667017807
3725.6316,1.9534361362298591,210.433077353008
3726.4905,1.948014496753935,225.2939217409581
3727.348,1.944901266255128,154.12545102010807
3728.2073,1.9433510148951179,197.29800957577362
3729.065,1.9420125998140796,146.79269265849643
3729.9229,1.9400846539315701,172.05507653346748
3730.783,1.9377272509258758,210.78807311593087
3731.6414,1.9354390282936482,190.66188069115296
3732.5017,1.9332408056546597,138.1901194828561
3733.3604,1.9306546454777618,207.63377890517495
3734.2214,1.9271753748015823,188.60390440613776
3735.0803,1.9227571437820026,168.9857863205081
3735.9417,1.917780761736355,189.81239708427728
3736.8013,1.9129525067665285,196.77294434420622
3737.661,1.9090141528526337,193.08137996426794
3738.5227,1.906581600782945,188.2248639127177
3739.3828,1.905863890906328,191.10969479002722
3740.245,1.9062973518503201,181.8123969261814
3741.1055,1.9065470164198473,167.88110805296262
3741.9683,1.9050819810593964,205.49756941668238
3742.829,1.9010680253436474,187.5945861666963
3743.69,1.8948440390311718,204.23064493093975
3744.5532,1.8876717332868593,209.52349820634987
3745.4148,1.8811582152057813,194.68169920487756
3746.2786,1.876618511521908,216.91103734968016
3747.1404,1.8750442906778677,178.38036113678788
3748.0044,1.8770605625106627,207.2874278592552
3748.8667,1.8828056527383619,190.35066273111426
3749.729,1.8916215242805792,190.7077970496653
3750.5938,1.9019852863458313,234.77720877819408
3751.4565,1.9118277963006656,180.3198673933439
3752.3215,1.919473589439729,212.76697256440164
3753.1848,1.9240173420116473,201.36099292527518
3754.0503,1.9254851323716737,173.5677307013315
3754.9138,1.9244464951030953,226.53851417083538
3755.7776,1.9217280204198226,186.11193184344825
3756.6438,1.9181215541891714,184.1796619718415
3757.508,1.9141872287137842,175.9413295663084
3758.3745,1.910078501716588,168.46671655229974
3759.239,1.905799120716214,176.82181364029498
3760.106,1.9014526287957143,198.4341923764974
3760.971,1.897418932129532,189.67786549801073
3761.8362,1.8939946419484464,200.0720062519584
3762.7036,1.8911262265204782,189.4327538992661
3763.5693,1.8885362316060157,189.58334636088503
3764.437,1.8861646513186243,207.015010738544
3765.3032,1.8845088696255055,168.8973904828413
3766.1714,1.8842524779609218,200.14251194565205
3767.0378,1.8855511111403094,217.66204504615698
3767.9043,1.8876222807153942,191.72541672703136
3768.7732,1.8891256642271161,199.84654686758608
3769.6401,1.8889292229503785,200.0057082837824
3770.5095,1.886565635313357,159.50669059567272
3771.377,1.882062950784354,208.2343481904953
3772.2466,1.8756144456251076,223.7382963653696
3773.1145,1.8678032140446665,201.53848416654176
3773.9824,1.8598213778151327,213.83228024672096
3774.8528,1.8532751492540835,188.5405278409989
3775.721,1.8493870632355889,171.55572629042112
3776.5918,1.8481744693336053,186.39685754843728
3777.4604,1.8486997910823142,213.64846890942283
3778.3315,1.8499187274160074,209.7457779374279
3779.201,1.8514224259813437,189.5217646227587
3780.0703,1.853374404710253,187.2826739739637
3780.942,1.8558404428659205,188.18344751016758
3781.8118,1.8583518773675196,239.86912934754037
3782.6838,1.8602749782086383,174.2140938570981
3783.554,1.8614252810831564,177.13239867528623
3784.4265,1.8622823233172385,228.43869408463067
3785.297,1.8634544310710282,197.7027801097395
3786.168,1.8650498545591725,185.0590225018691
3787.041,1.8665245156780612,193.4510739727502
3787.912,1.867092500957342,189.40535489762783
3788.7856,1.8662776661814917,191.4204011278432
3789.6572,1.8641171108626737,186.26085521664194
3790.531,1.861011257500166,195.6286360295321
3791.403,1.8575256889924168,200.43008486947554
3792.2754,1.8541692142008674,186.28639860829506
3793.15,1.851282027271964,185.3889561363601
3794.0225,1.8489344951390636,187.3103004669062
3794.8972,1.846805175001434,209.1452922522244
3795.7703,1.844289173098093,209.37213207238534
3796.6455,1.840745300355383,222.63210605991904
3797.519,1.835991191324127,196.83167483004405
3798.3926,1.8305096124039821,219.3929120922862
3799.2686,1.8252178931687935,209.92275087421845
3800.1426,1.8208975544442039,225.91650365118429
3801.0188,1.817623748405099,216.36969719960757
3801.8933,1.814917939524967,214.00323368875655
3802.77,1.8122109898127525,234.31049599409192
3803.6448,1.8094148178017717,181.33671816985296
3804.522,1.806980312329555,201.70318168641612
3805.3972,1.8056050454942532,208.42041764170065
3806.2727,1.8056960365602426,222.2986528134395
3807.1504,1.8071787206025816,201.7229243228381
3808.0261,1.8096836394822735,218.17910360742286
3808.9043,1.8129354617454887,225.8504319586692
3809.7805,1.8167599775664054,214.8174462878269
3810.659,1.8208411433688287,214.5228564263224
3811.5356,1.8244604708299266,235.55076278106674
3812.4126,1.8269448540373856,199.0173842489919
3813.2917,1.8284775187578042,192.650795148757
3814.169,1.830919127538377,216.05879467737918
3815.0483,1.8386023593308296,226.71563170629622
3815.926,1.8591884056136687,202.3781109999789
3816.806,1.9037936786051177,199.89341506706663
3817.684,1.981862718100967,199.39625833586197
3818.5623,2.0909031083749188,214.82969927239895
3819.4429,2.2065922122999786,215.37338786758232
3820.3215,2.2859568637726952,217.52222147729907
3821.2024,2.292569781026848,122.96057789575096
3822.0815,2.22126027204649,237.5497342070652
3822.963,2.102500967338198,221.47061560817696
3823.8423,1.9816672808007687,204.4954430766626
3824.722,1.890313705909773,203.97335508837807
3825.604,1.8364448181016837,221.49450808810352
3826.4841,1.8116210532084647,243.2501371507256
3827.3665,1.8024929455900736,196.72943487523656
3828.2468,1.7991236653047276,211.7791488975923
3829.1296,1.7964588722565031,219.05437608810396
3830.0105,1.7931811903151758,224.6789098763885
3830.8916,1.78973681773872,224.23221742562342
3831.7751,1.7868495511411493,238.32481912086413
3832.6565,1.784836753316898,235.27613233666438
3833.5403,1.783572546312913,207.30938297329092
3834.4224,1.7828024373092153,222.8487598914172
3835.3064,1.7822602645987928,212.45444039425794
3836.1887,1.7816773862481186,210.8717318810029
3837.0713,1.7807721072618254,227.28501022634006
3837.956,1.7793322275384937,213.98108908253894
3838.839,1.7773532515559396,236.5731213325476
3839.7244,1.7751073563512278,219.3781884370669
3840.6077,1.773167747549774,206.09817921811816
3841.4932,1.77222597807464,212.56663958078582
3842.377,1.7728759361711046,226.9792210197909
3843.261,1.7753767572403463,228.90776864068752
3844.1472,1.7795897398073384,220.21846180900985
3845.0315,1.7849395568534376,212.8008805214315
3845.9182,1.790501613352867,215.97655591380226
3846.803,1.79501352241657,211.6255523709782
3847.69,1.797395372673955,199.73072722774054
3848.5752,1.7973274592605952,207.9406669488293
3849.4604,1.795635805621535,220.52045421042683
3850.3481,1.7938342075409603,191.73238833482054
3851.234,1.7932008373118675,217.05029767078983
3852.122,1.7939900256056323,191.8156748258262
3853.0083,1.7953342306335947,211.00257114344504
3853.8967,1.7957111121391052,199.60192473858405
3854.7832,1.7936480644938497,194.7840622143421
3855.6702,1.7884472192740535,232.00763098020659
3856.559,1.7806041006817925,211.45650365733061
3857.4463,1.7717239610153783,234.0228038760105
3858.336,1.7636352877827193,233.02383707157665
3859.2234,1.757677127937641,227.17974019343075
3860.1135,1.7542026472268244,229.4492787513762
3861.0015,1.7529384715907148,234.37816891374268
3861.8896,1.7532758125803278,233.0594667189378
3862.7803,1.754461153067195,207.24219479696472
3863.6687,1.7555841729171333,232.10290705891748
3864.5598,1.7557672537756697,236.38453795345814
3865.4487,1.7544808292493597,225.04329917341676
3866.34,1.7517829915905356,209.1549339056829
3867.2297,1.748335204120527,219.18440894157564
3868.1213,1.7451209924690947,187.2775832206913
3869.0112,1.7430490876069786,263.058031844582
3869.9014,1.7423995012274618,219.34329963285356
3870.7937,1.7426749828060777,225.1180121465042
3871.684,1.743021691277816,201.93238945451196
3872.577,1.7429499048605241,229.09628289563116
3873.4678,1.7426068291301833,233.57267468328808
3874.361,1.7423435588617262,234.25420721034249
3875.2524,1.7420904167997273,210.92755666212378
3876.1438,1.7412110113450072,222.52850368352588
3877.0376,1.7389694769887123,222.25745851923466
3877.9297,1.7351756020620943,229.72562202961194
3878.8237,1.730356674361726,252.63321812497688
3879.716,1.7254567219877337,263.7834831927159
3880.6108,1.7212048639986999,230.12137378515408
3881.5037,1.717952288299119,257.1547975999507
3882.3965,1.715779535296486,253.58267151086824
3883.2917,1.7147735192426876,251.4070620556174
3884.185,1.7149726591249728,256.3455038023823
3885.0808,1.7161523946789008,257.8692008969595
3885.9746,1.7178422774525828,232.1040162732657
3886.8706,1.7196125985078698,204.96076363038955
3887.765,1.7212360952154704,240.08390990944895
3888.6592,1.7226422125850498,213.78578680278906
3889.556,1.723750718184811,213.14947374628588
3890.4507,1.7244168360390348,245.52238255383952
3891.348,1.7244863196459899,267.6867353679502
3892.243,1.7238450766841018,223.97033083170442
3893.1406,1.722498048651394,234.18169542563226
3894.0361,1.7206225710366734,231.3880107619283
3894.932,1.7184593129319394,245.84992526468693
3895.83,1.7161751467609991,221.9204024565987
3896.7263,1.7138665801372879,244.1325898307975
3897.625,1.711651137918232,243.61236158622538
3898.5215,1.7097784247333596,242.7820553254341
3899.4207,1.708461559512594,244.54025901531466
3900.3176,1.7077544515656284,229.61182590524828
3901.2148,1.7075272073450654,206.36416374674786
3902.1145,1.7075837099063218,228.14959572017295
3903.0122,1.7076638053553992,227.36647004292615
3903.912,1.7073956592918405,209.92602380096503
3904.8103,1.706420838083959,229.65454236806752
3905.7107,1.7047225338708258,224.42169477763886
3906.6094,1.702906440215102,253.8031997583323
3907.508,1.702042490275087,254.23731245354904
3908.409,1.7031240597021735,208.08006302406704
3909.308,1.706394134075948,242.23038170090592
3910.2097,1.7110725579618233,226.65034785550705
3911.1091,1.7156204033859768,225.8661347936256
3912.011,1.718578811881505,253.81918035096817
3912.9111,1.719152583419873,246.84173023160352
3913.8113,1.71740761740102,222.60326339926684
3914.7136,1.7139458727888408,213.60533887712978
3915.6143,1.7096706782689595,226.7673901404309
3916.517,1.7056173816765399,221.46263951560798
3917.4182,1.7028040514129548,232.36627869862195
3918.3215,1.7017380309335746,236.26246946565072
3919.223,1.7021675459663528,204.07465925773596
3920.1245,1.703282490464888,203.1756589746398
3921.0286,1.7042993325915188,214.45557736632315
3921.9307,1.7048440329616066,226.131708894912
3922.835,1.7049320632546285,234.9776918889848
3923.7373,1.704659716723122,226.39208284120792
3924.642,1.7039623446995125,218.6614831015536
3925.5452,1.7026255361883151,255.60625229053827
3926.448,1.7005258610317702,238.08407253195415
3927.3535,1.6978812617072996,239.58158961995866
3928.257,1.6952338026809761,243.74575282063446
3929.1628,1.6930086304086862,240.0511397489546
3930.0667,1.6911907046691943,234.2648922871461
3930.9731,1.6893362679114359,233.55901763546558
3931.8774,1.687049733121698,219.59121438184624
3932.782,1.6843486901911708,219.7531991315587
