wavl,flux,ivar
3566.9744,2.4251795321360055,42.77651921617097
3567.795,2.4157176566001035,49.52392717393704
3568.6177,2.4053856596028758,42.256152217681255
3569.4385,2.395114033331059,49.19542303216926
3570.2617,2.3856986561915763,49.866540733789556
3571.083,2.3777446190318288,46.52436238682817
3571.9065,2.3715444521274165,54.50807228212623
3572.7283,2.3674607245958423,44.391172266590935
3573.55,2.3657384803491617,47.35641816840044
3574.374,2.3660238757055585,54.53738887662639
3575.1963,2.3668810425389895,60.31147369617256
3576.0208,2.3662637457801687,48.29544091104614
3576.8435,2.3629778608212444,45.70743394487274
3577.6682,2.3579204202977264,53.0802296410553
3578.4915,2.3537191124523518,54.55372104602415
3579.3145,2.3525214326884694,55.691227371288555
3580.14,2.353983465570408,47.80374087718633
3580.9636,2.355312224341103,55.63600869403476
3581.7893,2.3535595793726536,46.52343064949329
3582.6133,2.3481046412253175,46.83643062825773
3583.4395,2.34118929706886,48.2721634552411
3584.264,2.336336018017962,46.21489190321714
3585.0884,2.335763227165867,56.18188843399643
3585.915,2.3390793626350126,55.148434369580215
3586.74,2.343815522609767,50.72971294062319
3587.5671,2.347314359766099,50.05325127448806
3588.3923,2.3481216182946887,50.97875969067572
3589.22,2.346151151096541,48.72506878240358
3590.0457,2.3419026093756723,61.428525717085826
3590.8716,2.335899537429,46.756455405874085
3591.6995,2.3288737155833896,45.41409954241837
3592.526,2.322191715551597,48.74827297952376
3593.3542,2.317445660035904,52.961354352090616
3594.181,2.315452482930008,48.20343778125096
3595.0098,2.3152363584107274,40.479504097550375
3595.8367,2.314322860030791,41.47673308287705
3596.6638,2.3101416940045203,25.568820420667265
3597.4934,2.301509147618156,54.34746406861636
3598.3208,2.289368332271264,60.08317197090437
3599.1506,2.2762322082881044,50.17316086837624
3599.9788,2.265384192650939,47.550316461321735
3600.8088,2.2592081734272575,57.29665539449501
3601.6372,2.257973540462756,44.89546807935137
3602.4678,2.2594362011286364,66.67626637802299
3603.2964,2.260457829660154,50.564807445826396
3604.1252,2.2595728686965484,45.55572042346988
3604.9565,2.2582096280891597,55.48470351360312
3605.786,2.259192921326207,45.68744627794279
3606.6172,2.2637206676005825,53.93114409560208
3607.447,2.26980516913398,49.21634104108915
3608.2788,2.273730104155844,47.608717022816805
3609.109,2.2727866433264743,62.99454127980735
3609.9392,2.2669374110105296,55.54398767030213
3610.7717,2.2581094275593006,54.21056837721266
3611.6023,2.2484150794617954,53.26632189188182
3612.435,2.238581340277245,53.711891577813304
3613.266,2.2283663695623988,52.59581863745215
3614.0994,2.217926932360018,60.321284601707305
3614.9307,2.209180067002063,69.81704778781209
3615.7625,2.2049081490876596,57.40314304315952
3616.5962,2.2066834249731713,67.88065750357609
3617.4282,2.2130557723934765,49.08354112860073
3618.2625,2.2198882133615165,62.299657839708594
3619.0947,2.2224155986490146,60.458112597532974
3619.9292,2.2178349927395047,53.845508932306366
3620.762,2.206637283159229,52.63850395861556
3621.595,2.1921625517755037,90.46726675635378
3622.4302,2.1788802605268596,52.13137434390763
3623.2634,2.1705739491972698,58.40291278303408
3624.0989,2.168965274130829,57.092754100162814
3624.9326,2.1737213529378283,58.77581351024803
3625.7686,2.182977819181031,59.93193029172801
3626.6028,2.19409301070103,57.91518879039332
3627.437,2.2045550665677767,65.14166731436016
3628.2734,2.2124802197620257,72.02124608400969
3629.1082,2.216843150062601,44.91783694308791
3629.945,2.2176188626587354,48.65721146949508
3630.78,2.215347839240781,60.460758931088144
3631.6174,2.210483924070314,60.54915458237816
3632.453,2.203054309366905,53.56950573233052
3633.2883,2.193122235332035,55.76764698226887
3634.1262,2.1818968363029234,54.16945403740837
3634.9622,2.1722084927363405,53.884887867182655
3635.8005,2.167047360091643,62.54397107604142
3636.637,2.1676928200756214,54.990485417761256
3637.4756,2.172685934972998,51.039461950968864
3638.3123,2.1788233476434153,61.19385646488695
3639.1492,2.183015809956643,50.97732322878652
3639.9885,2.1833979346168606,58.18280401540398
3640.826,2.1796739619169325,51.17378512953023
3641.6653,2.1731322920136917,51.588163225167705
3642.5032,2.166411326211642,55.616285033220514
3643.343,2.1624692594527066,56.87167806114569
3644.1812,2.163290222612393,57.26519014588468
3645.0195,2.168882182938894,52.75547621893853
3645.86,2.177433078741241,67.34335034648828
3646.699,2.186101299552396,63.55303091097232
3647.5398,2.192234042352459,59.523205281804245
3648.379,2.1940527339736073,53.80372812097707
3649.2202,2.1911476358120936,53.25662070429719
3650.0596,2.1844063696878657,55.31388787102696
3650.8994,2.1754032326862047,64.85929673476478
3651.7412,2.1654934591189154,62.303976387700125
3652.5813,2.1552275992548577,54.577022437507026
3653.4236,2.1443243870768236,56.35043962481136
3654.2642,2.1325905775528824,56.36717493870156
3655.1067,2.120285912417602,71.36589772399822
3655.9475,2.1083519989765156,74.3889356713606
3656.7886,2.098076380546475,84.36487968105374
3657.6318,2.0910825146704592,68.14001434318206
3658.4734,2.088840295852817,62.86150919361001
3659.317,2.0915498067516864,86.21497680573907
3660.1587,2.0976698220318823,98.17617215735325
3661.003,2.1048275658155644,51.056844084507254
3661.845,2.111225317998824,64.06435791887249
3662.6875,2.116443046349619,70.14664161631826
3663.532,2.120921415045721,61.70708542873699
3664.3748,2.125276548272237,70.69570046890426
3665.2197,2.129930934921336,66.88372475119156
3666.063,2.134620339283209,53.90139789743763
3666.9084,2.1382015978188846,56.97380822915214
3667.752,2.1390229616303267,58.42125129871207
3668.5977,2.13609620601209,47.175068984599854
3669.4417,2.129883388235723,59.11750322985068
3670.286,2.1219905519071185,58.808496949583166
3671.132,2.114253326156603,63.84210315592219
3671.9768,2.108169030217217,58.390486728003744
3672.8235,2.1046935554899044,76.18068108170807
3673.6685,2.104286945815862,48.73684881793343
3674.5156,2.1065893953340775,63.632685671660134
3675.3608,2.1102924097626063,61.377343208661124
3676.2063,2.113637996011513,59.40762962459432
3677.0542,2.1152600368593957,48.590317796912736
3677.9,2.114603514490049,61.4094832147989
3678.748,2.1115370683920722,58.60401970886064
3679.5945,2.105828736699322,59.71783100522491
3680.4429,2.0973049994535518,67.1048089316772
3681.2896,2.086637306353993,78.49860340583959
3682.1365,2.0752687667415493,83.49405440090291
3682.9856,2.0645594648497365,95.357061518974
3683.8328,2.055060063956716,54.9900928574857
3684.6824,2.046543539513344,50.926229080502594
3685.53,2.038911386910506,66.28912542240367
3686.38,2.032135806970339,84.6036401597476
3687.2278,2.0259840896700054,60.50223361670325
3688.0762,2.019942224701948,60.924164212265985
3688.9265,2.014080835744702,59.6044412403531
3689.7751,2.0096694678881555,85.73870790967453
3690.626,2.0085673051150317,68.71121009743844
3691.475,2.0119389902320344,76.44919617474811
3692.3264,2.01927842901036,57.670251729541604
3693.1758,2.0286041958078553,61.42119322696737
3694.0254,2.0377135799827943,63.386396966971255
3694.8772,2.045018769764773,77.02224028980653
3695.7273,2.04950345663492,73.62382743034878
3696.5793,2.0505074684851228,62.19701994251761
3697.43,2.0478857149486407,62.36926732809657
3698.2825,2.0426200677918125,65.0699922455761
3699.1333,2.0367495216221085,68.76049143652507
3699.9841,2.0321686638043603,65.14459157347676
3700.8374,2.0294717996479426,65.84714347904827
3701.6887,2.0277916674964622,49.394298142400224
3702.5425,2.025602835167873,69.79147474913754
3703.3943,2.021924458773088,53.42120285796764
3704.2483,2.0170328071424017,68.51411725746479
3705.1003,2.012455890788637,74.7769423602959
3705.9526,2.0098561021742216,74.84462685069181
3706.8074,2.0097326755054716,66.05850247122581
3707.66,2.010910216796337,79.11113824537198
3708.515,2.011421246118965,74.93803797085165
3709.3682,2.0100106294091233,86.069379053959
3710.2234,2.0070456300896398,64.89151210392787
3711.0771,2.004154244743496,67.1363709184624
3711.9307,2.002720472278028,87.08518704181397
3712.7866,2.002414967071983,62.89781168961995
3713.6409,2.001040202073567,53.70902764950611
3714.4973,1.9961215619456083,74.5639458156098
3715.3518,1.987087901759117,69.4622344536976
3716.2085,1.9759531503869527,57.74883686806012
3717.0635,1.9662705373155247,79.70345248391101
3717.9185,1.9609151260853617,69.8605551204991
3718.776,1.9608563922984992,63.99061815861131
3719.6313,1.9651020481547723,94.62228629770425
3720.489,1.9714419969340158,66.07019081606356
3721.345,1.9771740095980022,65.05630744327513
3722.2031,1.9799212048920158,70.87958472664532
3723.0593,1.9784467611478054,57.86067368127436
3723.9158,1.9734683952608354,65.80410207281152
3724.7747,1.9673887251976647,71.8351408494728
3725.6316,1.9628808990878595,63.70985299422586
3726.4905,1.9609915876920294,84.20268537094366
3727.348,1.9606248676049212,63.16315418079335
3728.2073,1.9595499812942947,67.91461979100798
3729.065,1.9560786505925274,69.85681987363954
3729.9229,1.949955102718303,65.10321252274096
3730.783,1.9421682542039926,90.69407969746379
3731.6414,1.9343578245878632,102.53439501251384
3732.5017,1.9280495837414187,79.0635081897728
3733.3604,1.9242484473396353,68.05745994067455
3734.2214,1.9229635725350207,67.39265863731774
3735.0803,1.9232319787318144,69.41611619223927
3735.9417,1.923455616538159,72.75842499629384
3736.8013,1.922083142850003,72.38920299028132
3737.661,1.91834670779225,62.391302447572194
3738.5227,1.912655484115656,82.5312841443137
3739.3828,1.9063698857979152,84.74073839268344
3740.245,1.9007989643079601,82.14147044699325
3741.1055,1.8964569279626162,63.64457596567834
3741.9683,1.8928132237468502,74.93427982866962
3742.829,1.888894733092268,108.00336801730937
3743.69,1.8838781012467445,74.53743216623158
3744.5532,1.877507787807488,76.02094862941112
3745.4148,1.8702055889054612,83.70157386726014
3746.2786,1.8627381658679234,89.88314896110532
3747.1404,1.8559880239977085,75.51773412245196
3748.0044,1.8504894297906997,89.3903573977141
3748.8667,1.8463748827254645,74.21557126322865
3749.729,1.843328691347405,99.98056055948845
3750.5938,1.8409324145486121,96.53710453182114
3751.4565,1.839146669090289,113.7237670161487
3752.3215,1.8385942053053534,90.52786826731244
3753.1848,1.8403577323911704,136.9682400529351
3754.0503,1.8451777174733914,72.15760729132583
3754.9138,1.852536476072402,69.31315134653349
3755.7776,1.860395260918144,94.00701374058598
3756.6438,1.8657208757269947,70.46099947310634
3757.508,1.8658718027666916,74.66646411525693
3758.3745,1.8602650753310417,67.2498973107649
3759.239,1.8509206714681221,81.51436707416228
3760.106,1.8412539335939568,100.92641388117838
3760.971,1.834309213928182,80.0913922225757
3761.8362,1.831352036221551,90.11835059308515
3762.7036,1.8319648426451611,78.70050765224894
3763.5693,1.8347230973911062,83.07561731528796
3764.437,1.8380535326538043,74.03752024550558
3765.3032,1.8408649586981807,77.31738934601793
3766.1714,1.842812041614251,69.64670686976665
3767.0378,1.8439226326076523,91.10075622291694
3767.9043,1.844154881095783,89.32718926150349
3768.7732,1.8433705258216673,73.56710378784751
3769.6401,1.8418111348079276,64.82284503499433
3770.5095,1.8402987168083913,72.23034233683452
3771.377,1.8397097859820501,78.33612771780948
3772.2466,1.8400537462346835,68.98855326747315
3773.1145,1.8401558247240815,75.37553872207143
3773.9824,1.8383004980869877,88.25749589251953
3774.8528,1.8333388014505145,75.6173714661651
3775.721,1.8255889694391287,63.21812225975431
3776.5918,1.8167830363404347,92.72083357462807
3777.4604,1.809430203381032,89.34178521597715
3778.3315,1.805378688327798,82.77890030440685
3779.201,1.8049416930773337,84.6274662528525
3780.0703,1.8067394883677994,97.87792640627406
3780.942,1.8086369489952194,74.45800826315963
3781.8118,1.8088336891165884,75.93261563485358
3782.6838,1.806488233968104,107.93361730262863
3783.554,1.8016812085445986,80.71116663971053
3784.4265,1.7950409541973351,67.54891420953372
3785.297,1.7875256732518228,119.65613773704774
3786.168,1.7801058443070197,79.13926188424709
3787.041,1.7737453374140726,81.56506047086545
3787.912,1.7694183901919955,94.61494393568238
3788.7856,1.767741168387435,91.48853949934673
3789.6572,1.7685350010205285,87.29850670508745
3790.531,1.7706441796613053,79.42807179272235
3791.403,1.7726056438225524,70.18509008334097
3792.2754,1.7736224119242399,84.26807198934823
3793.15,1.7737843580762145,82.28865516822617
3794.0225,1.7734500970793365,95.93175087844241
3794.8972,1.7726358419666706,71.77314955559397
3795.7703,1.7711525786937725,81.27983609541282
3796.6455,1.7690723739950014,84.56678917181067
3797.519,1.7667279990054383,86.1196822026056
3798.3926,1.764152447692192,94.59735259876369
3799.2686,1.7609277373738226,80.41161008912466
3800.1426,1.7568462762347987,91.00464463899763
3801.0188,1.7524965599817262,97.7399436894075
3801.8933,1.749012688191424,99.81019677321962
3802.77,1.7469153288980919,81.49919062064164
3803.6448,1.7455390960938668,97.31063997700159
3804.522,1.7435449327509445,110.97928777700459
3805.3972,1.740071279993289,89.82272569512675
3806.2727,1.7352567902827853,106.34055988554195
3807.1504,1.7299753985546669,84.83467131250103
3808.0261,1.7253515300783377,87.33334760504178
3808.9043,1.7223606830976295,100.93384887130404
3809.7805,1.7217831954278784,105.07435429303439
3810.659,1.724055892035951,82.84677525105874
3811.5356,1.7291584188231366,72.94048328812292
3812.4126,1.7364259939499807,101.57611453879751
3813.2917,1.7443420705827712,100.6416408637996
3814.169,1.7506681521817047,93.42236491470041
3815.0483,1.7534853306756795,102.67904441844516
3815.926,1.7522101720677985,89.61382529373131
3816.806,1.7479112144094406,117.71575858435243
3817.684,1.742413182304595,85.98149697085017
3818.5623,1.7370220524210904,79.93349072155057
3819.4429,1.7320789039244515,95.32322801462655
3820.3215,1.727423377646915,95.97112646923722
3821.2024,1.7228796614439175,100.37837314145472
3822.0815,1.7184677175895255,92.44180321740028
3822.963,1.7141014407896153,101.04982729796036
3823.8423,1.7095688199101653,73.14227739936074
3824.722,1.7046351281367365,82.62768820336925
3825.604,1.6992493996994131,95.61181192530118
3826.4841,1.693511220537496,82.92688144098352
3827.3665,1.6873606434425266,85.75140515570016
3828.2468,1.6806762302714733,79.10961718249652
3829.1296,1.6734625564398193,103.22534754767612
3830.0105,1.666300390690674,94.25708891148354
3830.8916,1.6600994070180215,122.38558789682727
3831.7751,1.6554793511932817,105.50890918424066
3832.6565,1.652047367487278,101.67933710701037
3833.5403,1.6482892907198086,106.6628805310416
3834.4224,1.6426353218937295,83.65450371040333
3835.3064,1.6346695473944544,112.81204767320101
3836.1887,1.6256937065107269,96.9692237833133
3837.0713,1.6177991806023433,83.1051041450567
3837.956,1.61257992709122,97.10355839756207
3838.839,1.6104876267797064,94.48679207943316
3839.7244,1.6112211423506417,114.91965750513737
3840.6077,1.6146452360946193,116.71140292583671
3841.4932,1.6210856421371704,115.25957312819138
3842.377,1.6306751269301931,131.92506098564456
3843.261,1.6426812900504617,76.77547287052452
3844.1472,1.6554525250561827,121.2525886351986
3845.0315,1.6671155828443245,94.04916244930514
3845.9182,1.6766458167389098,114.0519288991022
3846.803,1.6838237262265479,111.2426301443545
3847.69,1.688961852329714,88.26775870452806
3848.5752,1.6922735416947896,87.41495517589122
3849.4604,1.6938001073585602,98.67445263869378
3850.3481,1.6934836614739155,91.08570381176837
3851.234,1.691500633006714,96.39963068383119
3852.122,1.6885936971747488,83.71317359833499
3853.0083,1.686095574842227,113.35383286287768
3853.8967,1.6852663794474891,97.21998631202538
3854.7832,1.6864428325848153,110.12948436610026
3855.6702,1.6886569167084027,108.79281272568136
3856.559,1.6902528671929096,92.81526753453285
3857.4463,1.6900469062949501,91.44426110996955
3858.336,1.6881354537348088,114.14022837444804
3859.2234,1.6856702249103304,97.32164103259463
3860.1135,1.6838370540485406,93.8946821276776
3861.0015,1.6830255343225946,88.64564531275285
3861.8896,1.6826770432455402,103.74594125656304
3862.7803,1.681855556541483,92.243599439984
3863.6687,1.6799553205650462,99.44385027537986
3864.5598,1.677070213565032,108.71482278363526
3865.4487,1.6738918646033583,93.35788038252792
3866.34,1.6710570802624645,91.24104256515226
3867.2297,1.66854243671957,97.42229007530135
3868.1213,1.665398287543849,110.01799781576963
3869.0112,1.660322826883325,86.3451327169338
3869.9014,1.6525970269713512,103.23268310368177
3870.7937,1.6427832181425859,100.39458912594785
3871.684,1.6326406208665651,124.3678603691629
3872.577,1.6240502782290342,102.65609850981421
3873.4678,1.6182244700180952,117.78454901791399
3874.361,1.6150531232286363,87.5685112429786
3875.2524,1.6132890450822897,86.03663020681452
3876.1438,1.6110669472329513,104.59088814090182
3877.0376,1.60685605135727,84.92137375019308
3877.9297,1.6002200052616047,90.34464202725519
3878.8237,1.5916559645201098,116.91728707708519
3879.716,1.5819186242127232,103.08772249737189
3880.6108,1.571260309429225,102.0342925681509
3881.5037,1.559707228861846,107.10057970659574
3882.3965,1.5473419101097676,113.53749334988593
3883.2917,1.5345083622526112,121.71950589204151
3884.185,1.5216480851337149,123.39968334604208
3885.0808,1.5088037535273733,104.25200928765936
3885.9746,1.4959787329550323,117.0505004652664
3886.8706,1.4833105351372573,123.21272605281708
3887.765,1.4716209366836297,123.07269049964148
3888.6592,1.4620803847309165,126.08368283482514
3889.556,1.4558540104948496,147.22976741516283
3890.4507,1.4538919738756548,115.87802676411636
3891.348,1.4570292660450401,150.71135489015373
3892.243,1.466143267782252,121.38374257569814
3893.1406,1.48160578083305,130.51419260466056
3894.0361,1.50173320571787,105.22515966779721
3894.932,1.522209238134832,130.53449760387971
3895.83,1.5371296696827814,95.9641517575005
3896.7263,1.5420609754530947,111.30000426160306
3897.625,1.537189052149271,97.71627084738552
3898.5215,1.527344452341139,121.68992510012534
3899.4207,1.5189289333927911,130.46557532315904
3900.3176,1.5163106513030198,109.21316710775878
3901.2148,1.5200121070132944,97.47166775821958
3902.1145,1.5280196388629006,104.65406087451112
3903.0122,1.53798511008936,124.78576949457559
3903.912,1.5486754985873041,118.1135478086999
3904.8103,1.5594954854987588,139.3574882957126
3905.7107,1.5698880091031244,115.85748721099408
3906.6094,1.5791035591508864,114.2033627376299
3907.508,1.5869800870667095,129.51997638929905
3908.409,1.5942040979555245,125.09276324635537
3909.308,1.6017386019735027,96.0634847682788
3910.2097,1.610046442469468,124.69338473257991
3911.1091,1.6186068027185083,78.4864660627178
3912.011,1.6265258162527996,107.82497090189929
3912.9111,1.6330192301418147,107.63696369734714
3913.8113,1.6378789490267747,84.43500979944768
3914.7136,1.6414200411528148,86.36522962385571
3915.6143,1.6442078588240334,97.90134546366016
3916.517,1.6466000881202274,118.70777385657401
3917.4182,1.6483305112299993,111.30045092605152
3918.3215,1.648855855719195,104.67981631380152
3919.223,1.6481304645932564,113.34843621612745
3920.1245,1.647048164502821,105.29338428520363
3921.0286,1.6469763235927717,110.94517921726633
3921.9307,1.648798131408385,99.1310580214633
3922.835,1.6522685490402116,93.82179746526649
3923.7373,1.6561207550608803,103.98741338989853
3924.642,1.6588833548860376,97.21134639125373
3925.5452,1.6596464969464904,105.59104592497178
3926.448,1.6584492077335744,109.61876640453019
3927.3535,1.6559525894666847,119.90372926883673
3928.257,1.6528928177124023,113.43083762350717
3929.1628,1.6496086878084717,108.02013395054377
3930.0667,1.6460281361663864,112.50445603891869
3930.9731,1.641790830229652,105.43298405180053
3931.8774,1.636597447037279,97.90637399269137
3932.782,1.6304120065985834,99.69222306565239
3933.6887,1.623654092466995,113.72718230091532
3934.5938,1.6171141673004614,105.2268264462489
3935.501,1.6114246791272953,96.64293965040167
3936.4062,1.6067545400747039,104.75516581744232
