wavl,flux,ivar
3566.9744,5.997186247936164,15.832287271912461
3567.795,6.007804596088625,23.349500842090766
3568.6177,6.011415309585594,19.1333101520982
3569.4385,6.007622400854345,19.097630813264868
3570.2617,5.998890669796434,19.827619676971928
3571.083,5.988290375277366,22.189068109829726
3571.9065,5.977135293003408,25.41520961439926
3572.7283,5.964335989680437,22.686385014253844
3573.55,5.9468274125473,18.526671336963435
3574.374,5.921680040188879,23.79544739688638
3575.1963,5.889356717002986,17.47178867778829
3576.0208,5.8548031345816085,22.454850272377723
3576.8435,5.82573878287005,21.81627608733772
3577.6682,5.807301511056253,19.512339318978036
3578.4915,5.799652651591034,24.43711837210676
3579.3145,5.7991257651625405,23.40378178444908
3580.14,5.8018377681542335,22.742230005793324
3580.9636,5.805161912179124,25.686417974498433
3581.7893,5.807055415652383,26.11556981387282
3582.6133,5.805776927270376,19.109528758232234
3583.4395,5.801449571495827,24.51857989977509
3584.264,5.797352795809545,27.426997893819237
3585.0884,5.798467181212377,25.673448935454342
3585.915,5.808062619814132,22.49752817637352
3586.74,5.824832134018119,19.53129857345627
3587.5671,5.8434042246245275,20.666100708206187
3588.3923,5.857391499695237,21.96204680517003
3589.22,5.863347796796162,19.83183645840217
3590.0457,5.8615378032669385,19.80763478924588
3590.8716,5.854127511905467,18.951105499050723
3591.6995,5.842734308012137,19.17572726105884
3592.526,5.828291340322222,21.5027133788057
3593.3542,5.81241884972572,27.597447359789058
3594.181,5.798752443676245,28.55810525743362
3595.0098,5.791660530930037,24.406290997949256
3595.8367,5.793773576166182,27.1306543963431
3596.6638,5.803656434672167,23.631156401400407
3597.4934,5.815987646350956,22.545870461519605
3598.3208,5.823539399115911,24.946611716542296
3599.1506,5.820196738515325,20.800864275497272
3599.9788,5.803038663924389,23.747726057944167
3600.8088,5.773165862632622,24.312940861331544
3601.6372,5.735349953189068,24.431998470279957
3602.4678,5.695723242753764,21.263076618973276
3603.2964,5.660468060509937,27.341908652387126
3604.1252,5.634108565457978,21.930652011834802
3604.9565,5.61995974953025,22.601257233251626
3605.786,5.620224024466552,26.6341975949427
3606.6172,5.634725870039719,26.69886723258631
3607.447,5.659258712396271,23.153665589210277
3608.2788,5.685820132394902,23.9561429461715
3609.109,5.705460200754469,23.235696225785375
3609.9392,5.713221126233722,23.65492481501685
3610.7717,5.710302454092247,19.967176679671255
3611.6023,5.702684544899792,32.73049121498804
3612.435,5.696652244041733,25.338737440661845
3613.266,5.69456413853225,25.491968829243916
3614.0994,5.69350009949849,23.22090818990881
3614.9307,5.6880567010146095,21.17052661836849
3615.7625,5.674818658076877,21.625054379405377
3616.5962,5.654822844556476,27.757302259842298
3617.4282,5.632497106089181,26.147109745424395
3618.2625,5.612145393787103,25.510971876020523
3619.0947,5.596149787725051,33.467442755054186
3619.9292,5.584443376728931,22.4828867226202
3620.762,5.575710345951665,28.418531324089045
3621.595,5.568122726691258,29.666673782652182
3622.4302,5.560335109335672,25.1373359173893
3623.2634,5.552339417836195,23.802126658797906
3624.0989,5.545639072703727,24.297906701073032
3624.9326,5.542710579159497,26.86833088769757
3625.7686,5.545354904478495,32.320716926398475
3626.6028,5.553215214134876,20.438950318271658
3627.437,5.563237086029304,22.236141915599276
3628.2734,5.570340987198996,26.928370584148233
3629.1082,5.569175180718577,22.5164464773511
3629.945,5.557137182738273,23.007119951872358
3630.78,5.5373266015373765,25.593619438618106
3631.6174,5.518608360658855,27.73246221904742
3632.453,5.512064055230598,24.059286275880915
3633.2883,5.524692652811118,24.972851441190752
3634.1262,5.555972107437838,28.700907741500465
3634.9622,5.598188207875824,28.549019214829507
3635.8005,5.640897359378608,18.547925896723687
3636.637,5.673801522509193,22.68868176902579
3637.4756,5.6895360237929475,20.810786178362775
3638.3123,5.6845094230667454,22.101561668935485
3639.1492,5.660804352862562,26.585646780731487
3639.9885,5.626098330966931,20.728373428430633
3640.826,5.591343197816216,24.91075751256154
3641.6653,5.565312324733968,23.53929196328437
3642.5032,5.551562086700793,23.278258749328888
3643.343,5.548045934419348,21.41185115626234
3644.1812,5.550299329774755,22.137812449045924
3645.0195,5.554564843614203,22.96809939796007
3645.86,5.559240473569446,24.693568411867414
3646.699,5.564042793200743,29.242031121524413
3647.5398,5.568202128421108,26.09737531037486
3648.379,5.569077458423479,26.880568670947873
3649.2202,5.562725845994214,21.66682947072378
3650.0596,5.546168488650804,27.26026100607606
3650.8994,5.519592357750796,19.333137188335442
3651.7412,5.486802911262821,23.75180386063469
3652.5813,5.453697534526736,25.78535516574255
3653.4236,5.425208555949743,31.8559384615967
3654.2642,5.404435127283619,24.28880165675002
3655.1067,5.392158443695104,22.431928928455633
3655.9475,5.387475860946239,29.593496850266817
3656.7886,5.3873631283825345,24.67578652297476
3657.6318,5.386923294310465,31.548380617856385
3658.4734,5.380950269400279,22.01192464475178
3659.317,5.3665739608786085,29.071721882298416
3660.1587,5.345288011108786,29.678868399248838
3661.003,5.322294905377848,24.409953785469042
3661.845,5.304410644936202,28.52222884019953
3662.6875,5.296714364946113,23.911320107141872
3663.532,5.301001831637067,31.233188759023825
3664.3748,5.315158145354638,25.134808926959934
3665.2197,5.333789859194425,28.21571072254338
3666.063,5.3496423840059775,26.624526337405793
3666.9084,5.3569914135205545,22.062894597350816
3667.752,5.354823980287532,20.6337982350172
3668.5977,5.347758316567714,30.320417562233693
3669.4417,5.34281653747299,27.075017867529294
3670.286,5.344530703483642,26.76253010491244
3671.132,5.352564316543372,29.960427485394277
3671.9768,5.362789766362811,23.895785038854257
3672.8235,5.370289944256902,25.18839165251259
3673.6685,5.371429407154642,24.58312276956319
3674.5156,5.364725414718765,28.230448272040647
3675.3608,5.350800458909856,25.81220876830651
3676.2063,5.331867876478971,28.796330714954113
3677.0542,5.310922068903299,27.95981256275806
3677.9,5.290905238102361,24.62694549096833
3678.748,5.273674624049934,22.02540561369822
3679.5945,5.260734626490371,26.578053480203675
3680.4429,5.253604660791477,27.72188512410819
3681.2896,5.253753557708385,31.178929750635888
3682.1365,5.260842918874867,25.49522591262719
3682.9856,5.2714549998114375,35.0385573872382
3683.8328,5.279804945302531,29.669950072494515
3684.6824,5.280934469231078,26.49885709718041
3685.53,5.273437815074952,31.10702211520353
3686.38,5.259635963249575,28.729782924436414
3687.2278,5.243154997635245,30.214969802565307
3688.0762,5.225961409478686,27.537697664036948
3688.9265,5.2079688344334185,22.260705446249172
3689.7751,5.188962341851569,39.25159667605306
3690.626,5.170293984990175,22.089951391031647
3691.475,5.155209362033233,28.41839222136206
3692.3264,5.14657942222286,28.710902018415723
3693.1758,5.14517468942291,34.85116001056286
3694.0254,5.1492595197309985,32.84728234818614
3694.8772,5.156115198977019,31.461422740265085
3695.7273,5.163634410011073,29.10390900705063
3696.5793,5.17133089507799,29.682333855328274
3697.43,5.179990125108094,33.339303261834985
3698.2825,5.190641214127384,30.447630102727096
3699.1333,5.202926918229004,29.441109826920933
3699.9841,5.214508719608132,25.40396451169397
3700.8374,5.221796454407977,29.842653718690592
3701.6887,5.22183108815177,24.355741365003183
3702.5425,5.21382682148981,30.20058979097617
3703.3943,5.198819220624358,28.563086582960157
3704.2483,5.178036778847587,29.449222299807484
3705.1003,5.152753903484289,26.877901686063247
3705.9526,5.125297118867173,27.600051915355102
3706.8074,5.100078659612693,29.40394814999724
3707.66,5.081985331196674,34.00445338426787
3708.515,5.072613604777081,30.30317098057627
3709.3682,5.069620607710395,25.541146555716566
3710.2234,5.069291473735637,30.816848969960823
3711.0771,5.070194038941706,29.28088537346828
3711.9307,5.073468384133166,38.159864310766224
3712.7866,5.0798527773919115,24.830334325318486
3713.6409,5.08690643444439,25.5908664892753
3714.4973,5.089554907941829,31.707052856241116
3715.3518,5.082981237769278,27.923260257512872
3716.2085,5.065662207872248,29.944284854217774
3717.0635,5.040875561710085,29.197681654300496
3717.9185,5.015597050039331,30.740718018220168
3718.776,4.9975070726136055,33.533491516716914
3719.6313,4.991036167704204,26.738187343940808
3720.489,4.994352430180336,43.03570819981532
3721.345,5.000442127422449,36.39417049523504
3722.2031,5.0016393236893695,33.73281676229344
3723.0593,4.9947631606613765,28.942557895256634
3723.9158,4.9830250321746785,31.789575163925868
3724.7747,4.97300373992389,32.318943917653954
3725.6316,4.969381339947982,35.377305195496845
3726.4905,4.971537234752919,30.409910161188662
3727.348,4.975038688178257,28.466081754216603
3728.2073,4.9758119250797295,32.28241703298662
3729.065,4.9730753388265,31.127899720485424
3729.9229,4.96907553857298,27.53926340399104
3730.783,4.966880406704935,28.72761698895784
3731.6414,4.968466938039426,34.25192359008379
3732.5017,4.973777245665512,28.761419644667665
3733.3604,4.9804714217440385,30.563693544899778
3734.2214,4.984403866419178,32.20474549683116
3735.0803,4.980807788413828,32.449562508972974
3735.9417,4.966214503147471,24.019042652561716
3736.8013,4.940331080541784,27.833160614506195
3737.661,4.906839020199488,29.991779634033875
3738.5227,4.87319699194782,29.903842413141437
3739.3828,4.8492368493855595,43.482083023254404
3740.245,4.843149061901228,33.819859068778314
3741.1055,4.857271248030632,34.11841272079637
3741.9683,4.885047748511812,34.49614687572476
3742.829,4.912536282092682,33.29622978995346
3743.69,4.925565030319808,19.156521915467422
3744.5532,4.917111167085843,33.18086922183748
3745.4148,4.890547592416044,32.105473299862304
3746.2786,4.855948101159721,40.71610931872407
3747.1404,4.823928847700946,31.60916827451986
3748.0044,4.800862627869736,38.923306933352514
3748.8667,4.78933276138563,37.0499498827676
3749.729,4.789306632409463,41.77158265462468
3750.5938,4.798968005897689,32.39079890746131
3751.4565,4.814252607433287,32.400497584259675
3752.3215,4.829762137381873,37.28674199983237
3753.1848,4.840730622694195,25.13017816505577
3754.0503,4.845275673823381,34.69146065343726
3754.9138,4.844371056391517,31.854407636164527
3755.7776,4.840365016706407,36.20562650177553
3756.6438,4.835199953098175,29.308439604705278
3757.508,4.829829086462034,32.58668097158075
3758.3745,4.824331652540407,31.204309488724395
3759.239,4.818332834627948,32.48604290719662
3760.106,4.81107982617359,32.70477203365353
3760.971,4.801864182605167,35.304518286933025
3761.8362,4.790306223710346,36.13557620955711
3762.7036,4.7766674104334435,36.33193936778541
3763.5693,4.762015792122328,34.08632887955059
3764.437,4.747762873015997,32.83143412036565
3765.3032,4.735137778499736,32.82564627858971
3766.1714,4.724034729134394,28.78568456072093
3767.0378,4.713229539514296,29.93276439246018
3767.9043,4.701689562971341,36.60640450546132
3768.7732,4.690250472102443,40.11312525899866
3769.6401,4.681530818422681,32.25236493613278
3770.5095,4.677509058514224,32.71116086710474
3771.377,4.677373923154641,37.320956569713694
3772.2466,4.677325884252841,38.40376027455027
3773.1145,4.673029244702565,32.44177804901453
3773.9824,4.662641289887515,40.9640210094146
3774.8528,4.648087095902829,33.00548333252912
3775.721,4.634072774887215,47.11595001176058
3776.5918,4.625207523895435,33.73043524684256
3777.4604,4.623950869547238,31.369049435789666
3778.3315,4.629564292490764,32.20130813292047
3779.201,4.63881515116432,39.238039195858605
3780.0703,4.647718558331695,36.73118494778136
3780.942,4.6535327177730705,30.993635211129657
3781.8118,4.656032855723786,33.83001903478789
3782.6838,4.657283185817491,37.07012503253346
3783.554,4.6598643300529305,28.13595174476525
3784.4265,4.665240654370355,39.841634509876954
3785.297,4.673019145434728,37.007555165231445
3786.168,4.681100098319046,35.26087044711241
3787.041,4.6860615897226445,31.733901427416008
3787.912,4.684122660207405,30.47379478332466
3788.7856,4.672648635616969,28.436032663407143
3789.6572,4.651379857851325,29.538303832512906
3790.531,4.622513909139722,33.934347897126564
3791.403,4.590593596833972,40.59436147658549
3792.2754,4.560739578815863,35.85724111626753
3793.15,4.536585551436092,36.896000963135
3794.0225,4.5183571711655235,42.466917883178766
3794.8972,4.502645142348624,39.15896988812712
3795.7703,4.4856762010179505,36.28551724974335
3796.6455,4.466400971388471,36.268990208062995
3797.519,4.4477612675065545,45.27491961508868
3798.3926,4.434264071971051,37.47658074967374
3799.2686,4.429073875687285,39.36841812653832
3800.1426,4.432479698865309,37.7283901965891
3801.0188,4.442455788406014,42.08376678877237
3801.8933,4.456300926664341,39.11815823999573
3802.77,4.472084930058298,46.216179572591884
3803.6448,4.48862918796708,35.12607797550561
3804.522,4.505196037160799,34.90094147814924
3805.3972,4.520603839760008,40.16789782355538
3806.2727,4.533644476879506,41.26856748183624
3807.1504,4.543656141934856,36.891982981776394
3808.0261,4.550959213591562,33.534398124909714
3808.9043,4.55647104709405,34.852067000581954
3809.7805,4.560440642938532,36.99652779307356
3810.659,4.562359434665915,44.807562267379126
3811.5356,4.562204318323639,34.66961141057488
3812.4126,4.561767727138957,39.38862929956636
3813.2917,4.563920783685564,33.52831809872934
3814.169,4.570153922791118,41.10196287510251
3815.0483,4.5790032547289865,31.613450120374367
3815.926,4.586924961763256,30.785752428819773
3816.806,4.590850045224127,42.26738339861059
3817.684,4.589386510727718,31.344387091166872
3818.5623,4.582319502171303,33.85590898916227
3819.4429,4.569718588939249,35.58263402445688
3820.3215,4.552444360150118,29.84770648091066
3821.2024,4.532439798279688,33.66100666928985
3822.0815,4.51213541016638,48.21598436399887
3822.963,4.492300937895957,40.94254814504465
3823.8423,4.471799308108292,33.02566548248412
3824.722,4.448635672133418,36.57225750870288
3825.604,4.421818868173698,33.83414757251789
3826.4841,4.391989770018038,42.76912801199516
3827.3665,4.360178737285118,46.154395943895736
3828.2468,4.327730413084002,36.551304349486486
3829.1296,4.295750310444757,41.69430917031535
3830.0105,4.265839974750441,40.30996080795049
3830.8916,4.239162912272681,42.97253579462958
3831.7751,4.216175780736695,38.83484496555039
3832.6565,4.196741455141636,44.46096227011026
3833.5403,4.180323600376434,59.77998521441686
3834.4224,4.167066254175278,41.85356917692871
3835.3064,4.157683119808655,44.66890089352838
3836.1887,4.153291709702342,45.065243211384896
3837.0713,4.154510121054897,56.72438499327083
3837.956,4.160953944669599,40.916554756049855
3838.839,4.171240862877908,49.101991020193985
3839.7244,4.18410721250992,37.51258337923686
3840.6077,4.19937548773316,48.382376159297316
3841.4932,4.218202157712261,52.51867481836247
3842.377,4.241279422882666,34.06180743749008
3843.261,4.267412972189158,43.52177005862506
3844.1472,4.293409689383421,45.027292922385975
3845.0315,4.315958816619558,36.473064477035344
3845.9182,4.334563144145547,36.8186582950372
3846.803,4.351895027729735,34.36961698103984
3847.69,4.372527031163669,44.273715151888176
3848.5752,4.399665972805654,38.77478275536257
3849.4604,4.433282152033051,41.51148682532186
3850.3481,4.469801322989656,33.29765264767571
3851.234,4.503322641100213,33.81593136587397
3852.122,4.528703585837173,35.369566475006046
3853.0083,4.543028306063793,36.31887003765875
3853.8967,4.546618026367396,30.15225140632991
3854.7832,4.541632282390918,38.47944472143109
3855.6702,4.530744748879127,33.607330616094295
3856.559,4.516964368070283,37.45789881671789
3857.4463,4.504804825225262,42.02446610007678
3858.336,4.499993230589561,43.165249319307065
3859.2234,4.506845130623899,45.286870317495094
3860.1135,4.524677810366953,49.05449680167465
3861.0015,4.547073823891796,31.2886810977179
3861.8896,4.565578612406924,37.46525464427333
3862.7803,4.57386211799701,40.25568637039502
3863.6687,4.569512884386187,32.80295874538808
3864.5598,4.553225769039398,34.73356335458777
3865.4487,4.527598864213852,39.16561421704145
3866.34,4.496296270141213,40.34570736958427
3867.2297,4.46392780970819,36.65643339889627
3868.1213,4.4340770128517235,35.69546722047638
3869.0112,4.408210742165351,42.655493850355185
3869.9014,4.384749449618386,39.259991563811404
3870.7937,4.360263324982596,47.63663387372598
3871.684,4.331505406233242,35.81271997172326
3872.577,4.2967851087457944,35.4804018667485
3873.4678,4.25732664729126,38.94522723945966
3874.361,4.215790022822433,52.89579687281768
3875.2524,4.175040093705534,40.92265188569872
3876.1438,4.135787063548712,45.896507470867164
3877.0376,4.096904951124473,44.002403627953846
3877.9297,4.057412643483319,41.611794804609474
3878.8237,4.0175367396472295,49.540668145715166
3879.716,3.9793186456499083,62.394304030770115
3880.6108,3.944035131064046,48.402992865334085
3881.5037,3.9108958131942018,44.443761800211185
3882.3965,3.8763970897869697,57.05720653529407
3883.2917,3.8365952915355077,44.87927444112586
3884.185,3.7898371287928447,55.340276712159714
3885.0808,3.736953489836477,47.1249594020921
3885.9746,3.6813804370701737,54.957921703408466
3886.8706,3.6268061304557024,59.218610468400755
3887.765,3.5772095222506963,68.79581737828339
3888.6592,3.5356542359090923,63.27013785703759
3889.556,3.504721763795522,66.86564153035664
3890.4507,3.4869833348890573,67.99225705744907
3891.348,3.484600319635773,74.94418977739086
3892.243,3.498950171806495,73.62757208709195
3893.1406,3.5294412026977597,62.09360110530647
3894.0361,3.5727354615522597,59.25833754417179
3894.932,3.6242001365604675,64.63234095684716
3895.83,3.679551213226434,51.729311433716276
3896.7263,3.735631435060007,69.35015737747239
3897.625,3.7912756795973084,55.423573746935
3898.5215,3.8452237727839806,58.01638116085332
3899.4207,3.896616309981269,60.09484066474518
3900.3176,3.944253044309343,45.7857741504421
3901.2148,3.988334203939653,42.425854539582986
3902.1145,4.029930623445364,56.543432943901834
3903.0122,4.069858162910263,47.99209913074339
3903.912,4.108838273774341,42.502389603436484
3904.8103,4.147320481335049,44.200011095197105
3905.7107,4.187107749688237,47.13493938292134
3906.6094,4.230444332922828,43.291867330878866
3907.508,4.278804961994436,57.03138426708938
3908.409,4.3309491723035265,45.202532484962404
3909.308,4.382801784941909,33.907203088311874
3910.2097,4.430569901611774,41.53674030892292
3911.1091,4.471975587190276,44.79455264493479
3912.011,4.50761152434708,35.400747391121605
3912.9111,4.539307558722388,31.203483628869108
3913.8113,4.5698426631312525,38.191228889951546
3914.7136,4.601639430101669,35.89130836796836
3915.6143,4.634926596192415,37.762374991158794
3916.517,4.666970854277118,30.50658386942683
3917.4182,4.692381646748283,35.8679208513999
3918.3215,4.706827744943125,30.62894852809636
3919.223,4.709902304790533,37.38884496981509
3920.1245,4.7059109101469145,37.55333151929605
3921.0286,4.701044965869379,32.916926561303995
3921.9307,4.699924829483236,36.70805043087135
3922.835,4.703687209493622,33.204124302529266
3923.7373,4.710685877560406,29.08354813008075
3924.642,4.718571582084482,43.0409397828352
3925.5452,4.725854834551017,31.748945763438893
3926.448,4.732473051587649,34.358765572998685
3927.3535,4.739062185087961,33.36556379012093
3928.257,4.745710202288307,34.993750930920015
3929.1628,4.751313488527464,34.820575893046666
3930.0667,4.75388227048261,28.980913083574034
3930.9731,4.75199259700199,31.170520815476277
3931.8774,4.745745714163369,36.99722500983811
3932.782,4.736232592694057,34.535152316050436
3933.6887,4.723973820476051,33.3505247124623
3934.5938,4.708226438028837,30.75189117926313
3935.501,4.687783770017689,35.40871511557681
3936.4062,4.663174489669127,34.09952055867884
3937.3142,4.637072300187297,38.85362288614478
3938.22,4.613376921386026,37.482904318422754
3939.128,4.594053045514547,37.98209869011441
3940.0342,4.577809582477379,42.526680901441175
