wavl,flux,ivar
3566.9744,7.391524919039797,9.647404348899018
3567.795,7.378813158746492,7.122936563913301
3568.6177,7.364028893212971,7.601961042661182
3569.4385,7.349643612419087,12.051855064995138
3570.2617,7.335294559489344,7.587072931073395
3571.083,7.319463631453099,7.825990547428702
3571.9065,7.300963882677524,10.037927040192063
3572.7283,7.28044350920676,9.165304389600172
3573.55,7.260880779749652,9.23079286264057
3574.374,7.24813716826148,9.153483316399125
3575.1963,7.2497439835082895,9.742711242684567
3576.0208,7.270464666177189,11.474708204608158
3576.8435,7.3067398493291975,7.342921171650563
3577.6682,7.34545832256153,10.195257004429447
3578.4915,7.369106664699286,8.539650913248138
3579.3145,7.366090633804408,8.038735256628224
3580.14,7.336771712475058,7.5207784821891055
3580.9636,7.291909549102039,7.1431339129411535
3581.7893,7.241266911070694,8.637928249477568
3582.6133,7.176212411287367,9.73729227796086
3583.4395,7.046702989027468,13.014535295193122
3584.264,6.750638894722853,8.89512573886131
3585.0884,6.16015996460013,7.163865437779884
3585.915,5.212810159624855,8.684884699086789
3586.74,4.045859259915251,7.9370707174898385
3587.5671,3.014918517551679,9.89031489925098
3588.3923,2.552756696599893,0.11832365933439627
3589.22,2.8741310117035854,9.680178862610406
3590.0457,3.8228569159382775,13.123383899561674
3590.8716,4.988753835684367,9.161972829483318
3591.6995,5.982658228288975,12.358517568328095
3592.526,6.620724912127158,10.65534981900996
3593.3542,6.935595360259938,10.41472376127076
3594.181,7.049632824526103,17.197302789205654
3595.0098,7.077770143212148,9.748355844253387
3595.8367,7.085107893195551,10.415630492897925
3596.6638,7.09462750983527,13.594394116215309
3597.4934,7.106611854465738,13.92579032531303
3598.3208,7.113856633355076,9.034521828965234
3599.1506,7.109132624874035,7.925500164106955
3599.9788,7.087492522366299,8.30576026418183
3600.8088,7.047902198357259,8.746940913114077
3601.6372,6.995957457966279,10.734862536285075
3602.4678,6.943648771856104,13.878299462221623
3603.2964,6.906376608084221,11.544687420091506
3604.1252,6.895645511685778,14.183085247632503
3604.9565,6.915168873547283,12.556289027444555
3605.786,6.9602680207073355,11.863260705438364
3606.6172,7.021298106734336,11.463819402810472
3607.447,7.086298318038172,8.16945169941734
3608.2788,7.1442090501168325,7.052554084850804
3609.109,7.18555647753653,11.835181444502162
3609.9392,7.205010307215151,11.472331585580985
3610.7717,7.202294724882393,11.869055761218053
3611.6023,7.182860232648805,12.94222294526991
3612.435,7.156007698642171,7.724277764331308
3613.266,7.1313046849720605,8.065597425379067
3614.0994,7.1140226854857,9.660934897118638
3614.9307,7.103679197309474,9.830475656923928
3615.7625,7.095415255215005,10.765181475287045
3616.5962,7.084059696689585,10.705918391753327
3617.4282,7.067424344258395,7.98573643336581
3618.2625,7.046704009757109,13.526130393530803
3619.0947,7.025031143810772,12.285606014490606
3619.9292,7.004933414797076,11.343745155058247
3620.762,6.987684808295447,10.980508690069817
3621.595,6.9731427531747405,7.149105837462606
3622.4302,6.960937968232035,11.10965361876152
3623.2634,6.952081768095053,11.835198326207928
3624.0989,6.949541744414409,10.046731360891428
3624.9326,6.956434341872144,10.364336714972644
3625.7686,6.971840970227159,9.248034943887234
3626.6028,6.988310574986995,9.699616843335445
3627.437,6.995029842441304,9.032901018791557
3628.2734,6.984439811512996,10.62418489511884
3629.1082,6.957237525501777,10.286198920605461
3629.945,6.9206307895549495,12.564300502263393
3630.78,6.882484201959939,7.393784225008937
3631.6174,6.845409374688978,9.926470653934231
3632.453,6.807285734909362,10.326624282265525
3633.2883,6.764455299009578,14.99862024052288
3634.1262,6.716171930118756,14.139637442753724
3634.9622,6.666465738442718,11.285004808700254
3635.8005,6.620841728288118,12.16942450737048
3636.637,6.582942052591683,11.632394448277811
3637.4756,6.551337928624142,11.181728110234491
3638.3123,6.522725207462227,11.63768946031648
3639.1492,6.496432370144217,12.823138153011428
3639.9885,6.476905605032343,11.02211705742041
3640.826,6.470057512419353,9.862776975361987
3641.6653,6.476900447375919,13.902087720137963
3642.5032,6.491775985126095,9.790602275692471
3643.343,6.506254258959919,11.326219647257613
3644.1812,6.514060309525785,11.082575594238051
3645.0195,6.513302815618958,13.607652892159132
3645.86,6.5056391929583155,13.475377198570037
3646.699,6.495279899569473,13.618001724900909
3647.5398,6.487007815174865,11.028325893056959
3648.379,6.482737877930162,13.690913103423377
3649.2202,6.478555955506686,12.138884631557506
3650.0596,6.46704258665561,9.385991842561667
3650.8994,6.444051255476619,12.310589454066434
3651.7412,6.413640278473498,13.11240383302315
3652.5813,6.385671048719935,11.41123130991819
3653.4236,6.367066672433698,14.621317427935477
3654.2642,6.356398345501573,14.089468351293345
3655.1067,6.34583526673704,12.820292446046574
3655.9475,6.329579736998446,11.845089931305333
3656.7886,6.310014934217738,12.351162651179749
3657.6318,6.296866113825859,22.102546882254714
3658.4734,6.300406198723471,18.327685351176868
3659.317,6.3240318924008925,13.952943574584877
3660.1587,6.361356121161088,10.046315758185461
3661.003,6.399500606368799,10.378774149077161
3661.845,6.4249267151809715,11.888854461278362
3662.6875,6.430188913245921,12.099720778872596
3663.532,6.415964344888882,11.962959133179229
3664.3748,6.390127363624468,14.357685491730752
3665.2197,6.363763376534487,9.286847917675695
3666.063,6.34651412901126,12.751364317578812
3666.9084,6.341586005623832,15.96405996579328
3667.752,6.345132678677634,11.029398380171822
3668.5977,6.3504748951035355,9.948101699299826
3669.4417,6.353738368226356,14.778554265408921
3670.286,6.355016891557492,14.451143980083106
3671.132,6.354540767337242,15.670268468233543
3671.9768,6.349720317295166,10.455602051123106
3672.8235,6.3370776600505385,13.8547946919249
3673.6685,6.316803155043956,13.118297525867446
3674.5156,6.29411751510368,11.872038109170223
3675.3608,6.276591139768328,11.525096978577436
3676.2063,6.268987458488339,11.547027337203806
3677.0542,6.270554309011957,11.716627449583367
3677.9,6.275407114381441,16.07424493039146
3678.748,6.276193113854077,13.553950264712162
3679.5945,6.2686884524150495,11.379967827821462
3680.4429,6.2542250163685695,22.824735657021876
3681.2896,6.238182054844197,13.349384497928101
3682.1365,6.225653314586596,16.564336965139546
3682.9856,6.2183408230329675,11.205242694359171
3683.8328,6.214356027028654,11.185547087366045
3684.6824,6.210422514786798,9.368956322526008
3685.53,6.2050028653311,17.38348093562893
3686.38,6.199952367896347,12.774629504064803
3687.2278,6.199800116090253,14.789043523939382
3688.0762,6.208615904716073,12.788394204384252
3688.9265,6.227067489266476,13.000811599498338
3689.7751,6.251707346375822,14.704941793778321
3690.626,6.277550160037955,12.325160599343194
3691.475,6.300178173161943,9.405099007250397
3692.3264,6.316607342964204,21.031437173929152
3693.1758,6.324202368095182,14.676419248763905
3694.0254,6.321663500857371,13.395779968365899
3694.8772,6.310889939297903,13.820573448058239
3695.7273,6.29775502056063,11.46350072311364
3696.5793,6.289355451686729,12.786927438298239
3697.43,6.290382340376773,9.799135511487979
3698.2825,6.300942297245816,11.571185209669755
3699.1333,6.316744272158882,15.72264454589436
3699.9841,6.330678500096452,15.757453384155133
3700.8374,6.335288297738317,12.702671472236052
3701.6887,6.326462906834318,10.620469621307334
3702.5425,6.306274764700465,14.0579968747357
3703.3943,6.282019165786128,10.487909328507136
3704.2483,6.26105605433688,13.565178266289752
3705.1003,6.246789900256171,12.494949816168607
3705.9526,6.237641951934067,14.734357704218557
3706.8074,6.229627692701084,12.216288626927174
3707.66,6.2189124082501595,11.662166895709438
3708.515,6.202778450490196,14.476603425753263
3709.3682,6.180272508696975,13.079251520671953
3710.2234,6.152785316447441,14.8974323923652
3711.0771,6.125291585348431,13.917650349172643
3711.9307,6.10454168390586,11.760587260650347
3712.7866,6.0946233678947355,10.996246841922357
3713.6409,6.0925784792360815,17.90525115154744
3714.4973,6.088905231472841,15.282160096580435
3715.3518,6.0742130558219385,9.932307545695394
3716.2085,6.046171530529554,14.969087511731255
3717.0635,6.011684035799948,13.430563310356929
3717.9185,5.982419847626598,14.035423755938117
3718.776,5.968662600252491,13.469472641572912
3719.6313,5.974616941316022,14.710462505904855
3720.489,5.996978946334008,11.044571709889224
3721.345,6.0273671062433705,12.937905030034152
3722.2031,6.0572380378091255,12.696672940209625
3723.0593,6.080962087921543,11.799369275190113
3723.9158,6.096762048387468,16.314077961971634
3724.7747,6.104789152905393,10.52104976904292
3725.6316,6.105904852252399,10.951604848566678
3726.4905,6.101534961005346,13.740613581379746
3727.348,6.093077515654037,20.123220874765796
3728.2073,6.080823869726068,15.863715051995388
3729.065,6.06414149004598,14.51718853182145
3729.9229,6.0430025361788875,14.218464624622786
3730.783,6.019616426929326,13.718434252893971
3731.6414,5.998311931842637,14.040338391750216
3732.5017,5.9832168699494925,13.187138339400382
3733.3604,5.97655009846599,17.90528871112299
3734.2214,5.977454498905128,15.206148432398649
3735.0803,5.982498615815843,16.62184609857519
3735.9417,5.986927688755275,12.867017736672558
3736.8013,5.98620586372127,14.068185405178225
3737.661,5.9777417414865095,13.226559378178921
3738.5227,5.962137088679887,14.811413407424402
3739.3828,5.943448909863451,18.693108927099832
3740.245,5.926792410293338,18.297325010157127
3741.1055,5.915164140101447,14.284369705163202
3741.9683,5.9071483001891725,17.62320807509492
3742.829,5.8984378325754205,13.876672331970331
3743.69,5.884946426315741,20.20544363779733
3744.5532,5.8654066435908625,13.240858595248248
3745.4148,5.842281116817293,14.296776028015145
3746.2786,5.820809472739422,13.996590035875156
3747.1404,5.808002565366555,15.402391023591871
3748.0044,5.810095143726426,15.439693785806211
3748.8667,5.8295779080198145,16.60142248450532
3749.729,5.861988327220581,13.804214602708699
3750.5938,5.89545304710404,13.975640645140759
3751.4565,5.9148674343586976,14.631650322622939
3752.3215,5.911095783969867,11.732167144759346
3753.1848,5.887154239417579,15.386981776069836
3754.0503,5.856151748129732,17.537092310078325
3754.9138,5.832239249198943,14.013597152554444
3755.7776,5.821767223963747,15.245754607951135
3756.6438,5.822642358107954,16.963503617358764
3757.508,5.828827159332915,13.658819894303065
3758.3745,5.834817050749467,14.9897539689881
3759.239,5.837201576218869,13.862755646835293
3760.106,5.835048422601613,14.61936359695325
3760.971,5.8299437282149515,16.054823159789656
3761.8362,5.824740132290991,16.922591755781745
3762.7036,5.8208888446717,13.794820057678894
3763.5693,5.816848837362332,14.304762275938243
3764.437,5.809514105456947,14.691270045038717
3765.3032,5.797304192428162,18.52173028559443
3766.1714,5.78102477478989,14.653348753149473
3767.0378,5.762346912370597,16.00093582728357
3767.9043,5.742210774513305,12.880183692866249
3768.7732,5.722125252941862,15.413969084181597
3769.6401,5.706158451143917,15.253520761727952
3770.5095,5.699391443273484,14.96971349760475
3771.377,5.704171801818579,15.270415529770728
3772.2466,5.717568472963549,13.051204503266142
3773.1145,5.733606554220588,16.513166890192558
3773.9824,5.748323415655429,18.434089348498997
3774.8528,5.762170421506319,17.020029066176008
3775.721,5.7775035536449755,13.530497388397679
3776.5918,5.794341153994288,15.800543846265812
3777.4604,5.808309868818826,13.70585888923813
3778.3315,5.813916356017028,22.409720519372094
3779.201,5.8088412133343965,14.989934252131192
3780.0703,5.795797083129472,17.637089643626165
3780.942,5.780282041629211,17.660502252175135
3781.8118,5.767689895634887,14.154503203160502
3782.6838,5.761900355528635,14.642286851672106
3783.554,5.765708632504081,18.418295380677144
3784.4265,5.78014820445798,17.6950123839716
3785.297,5.802554342072453,20.750005291704902
3786.168,5.8258737746173015,13.944621899473097
3787.041,5.840461991892191,12.78597110707228
3787.912,5.837999574037805,13.848631473812471
3788.7856,5.815258098048328,15.208752780771656
3789.6572,5.7751013462483645,18.62441693592198
3790.531,5.723870224579708,14.926730839193471
3791.403,5.668927863433825,14.614109282311912
3792.2754,5.6164912819125865,16.490664656525595
3793.15,5.572262478215005,17.573307678347188
3794.0225,5.54137268177322,20.268209099817525
3794.8972,5.526006106266311,19.411060872894666
3795.7703,5.524773652201707,19.192215554724985
3796.6455,5.533317767472587,15.070233140667792
3797.519,5.5465227113152284,18.696906893150285
3798.3926,5.560178717156129,17.80640403951504
3799.2686,5.571211595340948,16.791567806422915
3800.1426,5.576833228189655,20.34780573679847
3801.0188,5.5740228091071256,22.111025139999565
3801.8933,5.5601092580203275,16.872302350193472
3802.77,5.53470746295509,16.953913072299933
3803.6448,5.501515219119616,17.872759157639845
3804.522,5.467309026719235,17.09333232684194
3805.3972,5.44023859788998,14.147762656207902
3806.2727,5.426566073046115,15.094249795407247
3807.1504,5.428799246608946,19.028743235218382
3808.0261,5.444415320325933,20.4660895836059
3808.9043,5.467260252125086,15.524211787143386
3809.7805,5.491112955511019,16.039676569649412
3810.659,5.5137670075520395,16.92670978035036
3811.5356,5.536818637870661,17.568565686569475
3812.4126,5.5625194095264,19.12276030221236
3813.2917,5.5896555697791515,21.89353254459749
3814.169,5.612370823896002,14.495694721850352
3815.0483,5.623538598924311,14.327701823072731
3815.926,5.619226061281388,14.04202487622305
3816.806,5.601847515383786,16.978362468332882
3817.684,5.578838428168787,18.78668946193089
3818.5623,5.557757306567921,17.30683488863245
3819.4429,5.54220578917871,13.256436927670997
3820.3215,5.531186875388165,16.24716175362384
3821.2024,5.521109408102516,15.489760813199066
3822.0815,5.508970886885064,17.017581594690252
3822.963,5.493685982396238,16.303704032155053
3823.8423,5.4757948729314965,20.83286485694123
3824.722,5.4555083160180695,15.50253967839633
3825.604,5.431830395949191,19.18889402226083
3826.4841,5.403891352492794,13.857387458389686
3827.3665,5.372747656521899,17.303648002936125
3828.2468,5.342630501731615,17.766439943878066
3829.1296,5.31828091915163,20.761276826880078
3830.0105,5.3021675183160015,17.719552110556993
3830.8916,5.29245822862247,17.415837055646115
3831.7751,5.284584741278854,17.93052324256245
3832.6565,5.273954774611462,15.76981130394321
3833.5403,5.257673765774535,15.862399759245259
3834.4224,5.234965754790097,22.51747679077651
3835.3064,5.206053652504227,20.329540855726723
3836.1887,5.172094128706233,18.146115346593096
3837.0713,5.135558725856626,16.74527783859694
3837.956,5.101730691803265,14.98457810244087
3838.839,5.078811366458164,22.480480357317575
3839.7244,5.074406228581127,21.974166216062866
3840.6077,5.091114950065754,34.08876723006152
3841.4932,5.123766793783104,19.33492729610798
3842.377,5.161455308573278,20.523052624101084
3843.261,5.1942346651493505,17.731145909290454
3844.1472,5.21850308478334,17.017127702001837
3845.0315,5.23757998797564,18.18495094340094
3845.9182,5.25772882635035,16.712482118299313
3846.803,5.282198325229368,16.3400318219159
3847.69,5.30931599733842,15.318237773830853
3848.5752,5.334176213591123,20.1722190124935
3849.4604,5.3532673060705935,22.891639143486685
3850.3481,5.366990614657725,18.20120336912254
3851.234,5.378815687252704,18.907160730654404
3852.122,5.3922304477206096,15.740153559146163
3853.0083,5.407615685028905,16.56805605634302
3853.8967,5.422501050825146,18.868273955785615
3854.7832,5.433909839473773,18.962791065236857
3855.6702,5.441460617749077,20.100084031090557
3856.559,5.448037147815948,15.426734291809387
3857.4463,5.458006859066839,17.77703075483157
3858.336,5.474248050960397,18.666647704172075
3859.2234,5.495881636428956,20.22765505245579
3860.1135,5.519363825029476,15.808166206317416
3861.0015,5.540964303813151,19.735493446034777
3861.8896,5.559480354209494,19.77861078235297
3862.7803,5.575653708092463,16.155894941099252
3863.6687,5.589944483523157,16.784856848235304
3864.5598,5.601178987409425,13.865227165634344
3865.4487,5.606264518388515,15.614800368595198
3866.34,5.601661641111433,15.377649639762252
3867.2297,5.585034295493243,14.900630995432277
3868.1213,5.556541601428146,15.94485644158628
3869.0112,5.519112832334946,14.76442537196842
3869.9014,5.476432564137554,16.587668632623636
3870.7937,5.431000735129478,19.692439809742854
3871.684,5.383859834312267,18.746478793239323
3872.577,5.3351352080230185,13.795703707208986
3873.4678,5.2866072172909,18.0367809079744
3874.361,5.240701147089858,21.495241350609522
3875.2524,5.19950517021457,21.363956309543553
3876.1438,5.162490936269446,16.863566035603444
3877.0376,5.127741752878909,21.82071368082829
3877.9297,5.094409573652262,17.30127279070807
3878.8237,5.062968557631957,20.93454056802441
3879.716,5.0343837212386875,22.01977476948612
3880.6108,5.008009041670396,21.15816248766667
3881.5037,4.982233235819001,20.92683074912821
3882.3965,4.955447780227385,17.789564230752266
3883.2917,4.9272673896130685,21.257085460990425
3884.185,4.898508037157266,21.94214159195705
3885.0808,4.869478394201262,25.713828505395682
3885.9746,4.83946486484536,25.625189537191236
3886.8706,4.806200834283012,22.81431362879554
3887.765,4.767748322670345,23.84364314949623
3888.6592,4.723674771776827,21.115221156502322
3889.556,4.675830342362963,26.836933467253395
3890.4507,4.62787153148153,22.203378118579394
3891.348,4.582975235876632,27.424898186057167
3892.243,4.544387806317244,27.056131428856414
3893.1406,4.515383248163739,26.62036812994897
3894.0361,4.5004454200759145,32.76066544235018
3894.932,4.503392716610148,20.432198710757095
3895.83,4.5257128854192965,25.14863842730377
3896.7263,4.564949417115976,26.002525399702606
3897.625,4.615514146838377,20.70937235653001
3898.5215,4.6698183002225,26.49239215544906
3899.4207,4.72218906400131,22.004165923601658
3900.3176,4.770532069718918,30.13364379664207
3901.2148,4.817808492191943,24.01736742805282
3902.1145,4.8688527944486895,19.771676969851736
3903.0122,4.925903765761101,22.333191270674547
3903.912,4.98717104587117,24.776599908761696
3904.8103,5.046912830441433,17.75515631730099
3905.7107,5.0997968040675685,15.861302796361535
3906.6094,5.142917725954481,18.2204529516504
3907.508,5.177476677308361,16.342737883042027
3908.409,5.207177608913916,18.428615170257146
3909.308,5.236004964504981,22.28679789694013
3910.2097,5.266773227922019,19.896550234378292
3911.1091,5.299439998510349,20.33846888808478
3912.011,5.332120616306506,16.25751074387083
3912.9111,5.362439557455019,17.54805096683662
3913.8113,5.390161100750854,16.223015637579678
3914.7136,5.417269365623461,16.31788927815705
3915.6143,5.445960098228804,15.906474310219032
3916.517,5.476662165303797,17.775368451888998
3917.4182,5.506422729592499,15.188867599515227
3918.3215,5.530454133064258,16.12107664769941
3919.223,5.544366580923123,16.60243069606867
3920.1245,5.547407040013148,18.620761625014946
3921.0286,5.5434387290469616,19.122021685198426
3921.9307,5.540012449583883,15.976539836995418
3922.835,5.545586387322153,15.594459554047571
3923.7373,5.566303022774816,14.275640237383135
3924.642,5.603225338042613,15.058336656732484
3925.5452,5.650052780337918,16.87508189613732
3926.448,5.694707078624585,18.803928315917133
3927.3535,5.724454396291214,13.658921033857197
3928.257,5.732449861837285,15.466092432594339
3929.1628,5.721085417626371,18.781894196145366
3930.0667,5.698155535468207,15.65783465131347
3930.9731,5.670355560584325,15.55425901031441
3931.8774,5.640483217573957,19.694633042567926
3932.782,5.608672070121605,15.319955322851387
3933.6887,5.5761236487965675,16.97626691273277
3934.5938,5.546780449095591,18.159999347755825
3935.501,5.525154526491664,13.756044042149302
3936.4062,5.513696474551456,15.623159704375373
3937.3142,5.510708935815097,16.356979199117337
3938.22,5.511768998060093,18.013467795367532
