wavl,flux,ivar
3566.9744,3.156203994726129,196.8031035367871
3567.795,3.144559815988262,168.61545147034317
3568.6177,3.1348823485048793,197.48221006725007
3569.4385,3.1282483411672994,178.23401033891446
3570.2617,3.125029114904602,166.41787612103266
3571.083,3.1252067996627537,183.72207728030676
3571.9065,3.128637375560449,186.0773276886728
3572.7283,3.135222451410364,180.15502034848657
3573.55,3.1446817643260494,204.96664597526654
3574.374,3.156087134098553,178.69679066753142
3575.1963,3.167657719723575,179.23306498469654
3576.0208,3.1775936751661753,169.61355291548207
3576.8435,3.184792889076331,189.17729162538072
3577.6682,3.1893392874956277,192.21304594702463
3578.4915,3.191773894758791,173.49904098850266
3579.3145,3.192348623006322,178.83944307959416
3580.14,3.1908069041398637,192.43614439849048
3580.9636,3.1870301614075496,185.4811176609775
3581.7893,3.1817284068348077,183.54734607717788
3582.6133,3.176549402762112,177.32880922572772
3583.4395,3.1731903474734633,195.8233057934609
3584.264,3.1723221922532505,230.62130121782948
3585.0884,3.1729035285719753,180.23574057715936
3585.915,3.172730163856706,198.61520149789467
3586.74,3.1697785911126477,198.30503539106948
3587.5671,3.163369428610111,195.50194038779642
3588.3923,3.1544328761990204,188.55147327832145
3589.22,3.144659505801851,188.30570212685444
3590.0457,3.1356552794250034,206.31684115292134
3590.8716,3.128102135835288,201.01161821908158
3591.6995,3.1218423158835638,185.77450152853305
3592.526,3.1163989224017703,176.38005483672197
3593.3542,3.111413620130697,180.19062949619246
3594.181,3.1068452101633994,220.01669629781262
3595.0098,3.1025586323888215,187.7526854942635
3595.8367,3.0981052059178613,203.11747652947255
3596.6638,3.0928252082960963,228.36571256291026
3597.4934,3.086538436153451,180.87602885060153
3598.3208,3.080192342422988,178.68399190630302
3599.1506,3.075643109522381,185.31689236151178
3599.9788,3.0749641520640285,201.86150964364248
3600.8088,3.0793770350332874,191.0239781800188
3601.6372,3.0885446202406737,225.12407017460018
3602.4678,3.100479278259063,215.36535804082763
3603.2964,3.112134933665684,190.38915420613412
3604.1252,3.121297687681773,199.94246875661014
3604.9565,3.1279866531874374,205.04113924168146
3605.786,3.1341095687782343,227.08230244109558
3606.6172,3.1413758617009724,204.4031985661586
3607.447,3.1491460422761453,205.92289540704573
3608.2788,3.1547577429795237,195.2764199286238
3609.109,3.155535968421239,162.6656489774533
3609.9392,3.150723297758643,213.1287892390463
3610.7717,3.14141285595942,186.49353042771656
3611.6023,3.1294114570520715,195.72467711048103
3612.435,3.1160815304320755,196.3687258947542
3613.266,3.1025821009236236,204.58891095975957
3614.0994,3.0900317538098157,201.7036182073159
3614.9307,3.079663079948704,187.26114584863888
3615.7625,3.072007302318947,229.6774811657471
3616.5962,3.0666455526009644,215.2643324243416
3617.4282,3.0625412847037636,187.5462838720672
3618.2625,3.0587553868977415,188.02253337134294
3619.0947,3.0550292478360324,201.68161048554657
3619.9292,3.051501028114542,224.6194762677526
3620.762,3.048168545114247,209.45096326142567
3621.595,3.0444792893156976,203.6230600198035
3622.4302,3.039597793785434,211.56453260531356
3623.2634,3.0330284639594867,208.66357188402526
3624.0989,3.024920075204638,206.28566318106272
3624.9326,3.0161739672881964,218.27460760187472
3625.7686,3.0080452839670775,230.7432627387985
3626.6028,3.0020173191170176,200.464756622081
3627.437,2.9992935702200834,221.3299903603093
3628.2734,3.000266817842374,223.39325732785426
3629.1082,3.0038319214062708,206.321256453541
3629.945,3.007323802654495,229.3574110180286
3630.78,3.007485926441069,204.25365226203044
3631.6174,3.0023251350098907,195.6789608058071
3632.453,2.992518423895795,227.05949556942122
3633.2883,2.9809745005235495,241.23816291253496
3634.1262,2.9708205500679967,236.9245634588972
3634.9622,2.963471407740032,236.43453635925195
3635.8005,2.9579415903035025,224.47332038404284
3636.637,2.9521153420965596,219.6439586329048
3637.4756,2.944275001381005,210.03925428762653
3638.3123,2.9343621962674615,223.73482647870523
3639.1492,2.923835711166618,207.3952765733755
3639.9885,2.9146014600310552,257.8998681228027
3640.826,2.907600444922956,257.6012386373717
3641.6653,2.9020403084463187,210.779561436552
3642.5032,2.896478702652423,212.7059237846542
3643.343,2.8903123529248265,225.69143936250416
3644.1812,2.8843462686106944,241.95353022354624
3645.0195,2.8794850713498317,240.79477239719148
3645.86,2.8753852597262406,223.69915575727373
3646.699,2.8706297931238467,225.8734376957039
3647.5398,2.864153607698598,247.17877557800142
3648.379,2.8564193415010473,219.2190785444375
3649.2202,2.8489047254361104,234.31044546748942
3650.0596,2.8429660805833037,201.8332085172586
3650.8994,2.838806287514221,226.19515900060327
3651.7412,2.8355970042008707,240.15189876091767
3652.5813,2.832300646766559,239.73516224099046
3653.4236,2.828686368164112,250.27861065912197
3654.2642,2.8259395005065606,229.31242783303756
3655.1067,2.826050930220025,272.28278291409305
3655.9475,2.8304282310186046,235.06091882970316
3656.7886,2.838725683682069,248.68797335610046
3657.6318,2.8489590583439526,212.33715683150334
3658.4734,2.858602079024816,259.72801233390356
3659.317,2.8659996752037595,241.96845815288103
3660.1587,2.8706421791212153,203.1126314175301
3661.003,2.872945122721399,227.17246818175704
3661.845,2.8736723768948624,204.3687257746218
3662.6875,2.873727540619019,225.64115194960692
3663.532,2.873955853475541,249.30069238352036
3664.3748,2.874848009081756,214.31235070637297
3665.2197,2.8762093282562917,218.51389024726893
3666.063,2.87715377287231,203.67809553671378
3666.9084,2.8766763164282123,215.94675707589312
3667.752,2.874436291643642,233.60566129683363
3668.5977,2.87111278645709,229.6942455584495
3669.4417,2.8679968422089077,242.34738578110347
3670.286,2.8659946984073597,275.61774825267366
3671.132,2.864972934945526,237.74666194660423
3671.9768,2.8638456338179457,239.571314852947
3672.8235,2.8612350666044017,240.60213410913804
3673.6685,2.856205612316412,237.19769820895382
3674.5156,2.8486142304089754,226.746580053151
3675.3608,2.8393651609149626,220.0798791424589
3676.2063,2.8301677140689887,248.0848885273531
3677.0542,2.8229963290985913,244.57827352913617
3677.9,2.819170167537671,261.96458204914506
3678.748,2.8185113842145038,231.45832944633693
3679.5945,2.8195393501107464,261.0918564951801
3680.4429,2.820302572587289,274.8349243031704
3681.2896,2.8194023690824546,224.22574876582794
3682.1365,2.816559963051246,240.27713032356326
3682.9856,2.812454704555928,242.693879518513
3683.8328,2.808146245983303,233.1025694467267
3684.6824,2.8044068540429854,250.70597335354424
3685.53,2.801600657511371,305.9443206500123
3686.38,2.7997400667977757,206.24835340662966
3687.2278,2.7987376988128245,270.81549827071666
3688.0762,2.7985328890033108,216.8086204248714
3688.9265,2.7992528747990706,241.0954830880672
3689.7751,2.801222804604277,245.8620906360993
3690.626,2.804807201470331,252.9199472438561
3691.475,2.8100648046041936,241.84836042439414
3692.3264,2.8165751007814888,220.0041472724383
3693.1758,2.8233588387705133,261.91193884873684
3694.0254,2.829349999092341,224.98886234973156
3694.8772,2.8339073787565843,226.65046665691588
3695.7273,2.837129691650514,238.43714987171873
3696.5793,2.8396630411622277,241.44184503378276
3697.43,2.8419601530035092,276.8846475578195
3698.2825,2.8438659639297743,258.2918946894911
3699.1333,2.8447873616021195,234.04119215605044
3699.9841,2.844384120406275,247.48986469263286
3700.8374,2.842994359811458,234.40857760065825
3701.6887,2.8414206623835985,220.58613870410525
3702.5425,2.8401728157256567,237.34361441682177
3703.3943,2.8389380346708273,232.07973856613407
3704.2483,2.8366436643126502,271.32660024708247
3705.1003,2.8320995702854708,232.80872604417604
3705.9526,2.8246281390848904,254.1597354445162
3706.8074,2.814430278908172,256.56537397655256
3707.66,2.802648527787231,233.00028172610848
3708.515,2.790734871655512,254.7857760832439
3709.3682,2.780179645456382,226.6619560185448
3710.2234,2.7720961589759034,249.1263902870442
3711.0771,2.767466673569355,299.8101178533569
3711.9307,2.7669028535526086,232.5046713024091
3712.7866,2.770236428339739,274.8381994839609
3713.6409,2.7760656111538755,248.154568707478
3714.4973,2.7821901094233317,235.87615804956496
3715.3518,2.786711337602526,229.31439707947496
3716.2085,2.7893280663829083,212.20484699666696
3717.0635,2.7914876324979927,281.5812691390272
3717.9185,2.7954435606859733,254.93200075150048
3718.776,2.802722977203487,248.69916079419704
3719.6313,2.812997059217117,258.64236186223366
3720.489,2.8242238012725425,257.8908614315689
3721.345,2.833396648524057,239.65996089089336
3722.2031,2.83798060110361,225.09796922770923
3723.0593,2.8367542411155764,272.1561589650027
3723.9158,2.830275486759869,266.36687101031
3724.7747,2.8205480437978365,228.67812122181815
3725.6316,2.8104246027579514,218.38000155924414
3726.4905,2.8024025633511687,225.3358782138132
3727.348,2.797749297087989,244.07617469355867
3728.2073,2.795813359811548,258.39722615216937
3729.065,2.794405005764115,230.309943208397
3729.9229,2.7909454632619077,229.54916661008252
3730.783,2.7839822258744102,252.289804917
3731.6414,2.7741516908168604,251.05903865199366
3732.5017,2.763609325149505,265.85951387825406
3733.3604,2.7547032756165053,249.60897895856198
3734.2214,2.7485688632316507,253.30071389185053
3735.0803,2.745149143146137,240.39034000186376
3735.9417,2.743709645434214,281.256405245676
3736.8013,2.7434860984210023,270.78605475940697
3737.661,2.743886699189729,267.5121924030204
3738.5227,2.744674912594545,247.05579408653392
3739.3828,2.7460105905490506,270.5460399970906
3740.245,2.7481393665490614,287.0695313218392
3741.1055,2.7508148940126618,241.60107365748044
3741.9683,2.7531989537812738,217.83701011958354
3742.829,2.7544317668406624,238.97796043527893
3743.69,2.754562545952852,264.57856861018865
3744.5532,2.754792752003586,308.81510999333597
3745.4148,2.7566997199015453,218.6563512484799
3746.2786,2.7608916391606524,251.412396355501
3747.1404,2.766139090045674,244.388012934725
3748.0044,2.770045759246914,243.890451151212
3748.8667,2.7707956354432812,238.4687131417209
3749.729,2.768829018851119,285.8844669310559
3750.5938,2.7666436225931808,247.94599462177865
3751.4565,2.7668435765208383,273.94628427726917
3752.3215,2.7699601823342683,240.32601332687594
3753.1848,2.774054558816269,234.25979308242364
3754.0503,2.7764187277599564,226.33685010324587
3754.9138,2.7756636877190433,254.01712910225052
3755.7776,2.7725006974647424,251.27784084655352
3756.6438,2.7686896878568854,297.07477914799
3757.508,2.765600511402613,225.3641964912942
3758.3745,2.763517422285113,253.74614579989964
3759.239,2.7620383141428575,267.0997487178902
3760.106,2.7605859908534267,245.44919240642537
3760.971,2.758772551726431,240.68184269856474
3761.8362,2.756608564176443,263.2506658879758
3762.7036,2.754664420924244,238.57480642284847
3763.5693,2.7537838124073795,257.42242189472125
3764.437,2.7542573885896693,260.98559650661963
3765.3032,2.755275304657297,238.48937899272147
3766.1714,2.755367110857048,234.6504810776768
3767.0378,2.753530998632695,243.01548152191233
3767.9043,2.749917117615659,229.67591918619374
3768.7732,2.7454272802931086,259.5292141928027
3769.6401,2.7408824989332956,258.00637574223236
3770.5095,2.7364355131585545,249.71667344941991
3771.377,2.7317803339323126,258.2452361618521
3772.2466,2.726477485275786,258.33191522616085
3773.1145,2.720479766750867,276.42059328499954
3773.9824,2.7144265271247607,243.7885034527414
3774.8528,2.709796643777632,257.8650047780128
3775.721,2.708481364040647,269.33651678414026
3776.5918,2.7117264673444823,254.12724408419894
3777.4604,2.7193393402364254,261.05201530593575
3778.3315,2.7298371384757907,253.48018070429595
3779.201,2.741144014412037,238.09439318552296
3780.0703,2.7515449401504144,256.9836985248673
3780.942,2.7598870724791316,260.29947152138857
3781.8118,2.76546988826575,256.55597627952733
3782.6838,2.768165213378748,275.4979011888009
3783.554,2.7683513553868617,247.540167036546
3784.4265,2.766817983703594,253.04783552213271
3785.297,2.764492533677206,244.59936656845977
3786.168,2.762222034953147,243.10132977013708
3787.041,2.7605344473225326,252.5822034832348
3787.912,2.759257760920074,249.00719489467335
3788.7856,2.75734242237155,258.4492419675358
3789.6572,2.7534259029067494,252.41345166666704
3790.531,2.7466825686978686,252.3514633341568
3791.403,2.73740196632483,235.27782218683743
3792.2754,2.7266985915044546,274.2051489066932
3793.15,2.7160030489755744,253.95977754380633
3794.0225,2.706595197730094,250.53359965562987
3794.8972,2.6989516651215606,292.1021531499539
3795.7703,2.6927444494897275,266.9931899493553
3796.6455,2.6871372524506962,225.5485657739363
3797.519,2.6817026921512337,259.39229705332957
3798.3926,2.6767001682878186,274.0887174772544
3799.2686,2.672696090556683,274.71548361830145
3800.1426,2.6699687036507993,263.9317078483893
3801.0188,2.6683641395328386,267.73467575541895
3801.8933,2.6677972433334167,288.55139020988685
3802.77,2.6685482658508057,259.56743962415436
3803.6448,2.671109335377208,252.02740719521853
3804.522,2.67581982796189,295.8404823270355
3805.3972,2.682604478017963,286.02682862338327
3806.2727,2.6910873647827955,270.5961839270837
3807.1504,2.700672006945912,255.97812011328736
3808.0261,2.7105015396260774,222.74739058521985
3808.9043,2.7196941927755685,251.1617624693054
3809.7805,2.727369403770175,245.1072087550041
3810.659,2.7330592485041816,301.24840519285783
3811.5356,2.736636084439464,249.64564265814568
3812.4126,2.7383434061462655,254.66719141213684
3813.2917,2.738681616848892,235.46539598465242
3814.169,2.738299905768674,284.13240201444376
3815.0483,2.7376197407639022,261.47957157339727
3815.926,2.736408334085037,291.5644513925423
3816.806,2.7338376915917393,236.09087455115727
3817.684,2.729260014067887,244.14319578899102
3818.5623,2.722983410635873,246.37071648085757
3819.4429,2.716328544814807,234.71945927356606
3820.3215,2.710860985977228,265.0879060179035
3821.2024,2.707191016973672,270.65673504149294
3822.0815,2.7045976182102165,248.8468191144183
3822.963,2.7014592815100547,261.7443888492102
3823.8423,2.696412994574441,251.01309700178444
3824.722,2.6891929421780842,260.1070293114365
3825.604,2.6807421057292222,266.9835947091632
3826.4841,2.6726112067520584,276.7529380112943
3827.3665,2.6658494132642567,285.0264191460657
3828.2468,2.660595412266671,276.56700037278677
3829.1296,2.6561445055347144,273.3201029218076
3830.0105,2.65165032991171,289.2242524762878
3830.8916,2.646410810687008,297.9286135277158
3831.7751,2.6398793923058808,252.97441198415152
3832.6565,2.631681894059921,279.06601584986083
3833.5403,2.6216755502469207,290.43922555252243
3834.4224,2.610382056037042,286.5426738214484
3835.3064,2.598902840953102,282.5400255329312
3836.1887,2.5889508771455887,267.90663808179664
3837.0713,2.5823145152178912,326.36010767819687
3837.956,2.5804475817869004,320.97309878791646
3838.839,2.5839969173248467,277.5492778687367
3839.7244,2.592653465005207,291.5459945068817
3840.6077,2.6052945568795196,285.41233014223513
3841.4932,2.620542719473323,288.655170301835
3842.377,2.6369694964044728,270.3773453733784
3843.261,2.653557684904974,275.24179730190866
3844.1472,2.669537062845254,282.4223940517214
3845.0315,2.684070589827294,271.27533791990896
3845.9182,2.696548579449011,287.17122112677686
3846.803,2.7066638681023703,245.80405271732315
3847.69,2.7148648590591344,253.6301196052141
3848.5752,2.721832568626576,251.1300900056698
3849.4604,2.728017484057796,241.9027887642068
3850.3481,2.733304609036497,245.89048226702366
3851.234,2.7372411555329976,258.9326069011249
3852.122,2.7396103120135025,241.42904596212415
3853.0083,2.740663372821916,257.43722379726694
3853.8967,2.7411431064540013,249.07324378121442
3854.7832,2.7419404789905255,256.76412574006326
3855.6702,2.7436238794517935,292.2277824231394
3856.559,2.746030046027923,260.35290028261454
3857.4463,2.748262149265032,281.23699785559415
3858.336,2.7493056321397744,256.3451466331032
3859.2234,2.748722886734175,250.00724495481026
3860.1135,2.7468565640377163,252.26168126664282
3861.0015,2.7443568365073223,250.7528788502287
3861.8896,2.7415890036471806,232.298230889477
3862.7803,2.738533025656624,251.44583424066528
3863.6687,2.735007694885286,240.20996760996897
3864.5598,2.7306856632709304,259.1250774039735
3865.4487,2.725127328672117,264.14992291592137
3866.34,2.7178942663877326,237.79086807636313
3867.2297,2.709211678897044,261.8068662254228
3868.1213,2.700216209597858,262.17925514099966
3869.0112,2.6927554142194414,299.48880759601883
3869.9014,2.6883258023430865,294.1036199500286
3870.7937,2.6872929860473005,246.40863671730875
3871.684,2.688615364107703,270.2598166476076
3872.577,2.6902277154535934,289.3881594408999
3873.4678,2.689839376615993,278.57893961176194
3874.361,2.685890497952838,258.2992144807823
3875.2524,2.678216325177157,264.583750059507
3876.1438,2.6677986335794297,274.6523968922642
3877.0376,2.6557292394868113,289.1618169425419
3877.9297,2.642322834385257,283.94172197399473
3878.8237,2.626863699580769,254.25436918786394
3879.716,2.6087504474274437,281.0759340480828
3880.6108,2.5881314354003893,325.27393936698365
3881.5037,2.566226179502535,283.2959324028043
3882.3965,2.5441548762974797,307.9416711018411
3883.2917,2.522346674060428,307.1016407421007
3884.185,2.5008552659581373,304.8656295420502
3885.0808,2.479709679527576,333.2389136252884
3885.9746,2.459784194218126,346.43573991668137
3886.8706,2.442105047437948,329.19036884955585
3887.765,2.4275929160024114,333.9377332199333
3888.6592,2.416517895244065,335.69860791872975
3889.556,2.4089115310282585,337.4333290650661
3890.4507,2.4050328393152385,359.66650196793245
3891.348,2.4053752649573883,354.1394709640808
3892.243,2.4103961190010312,321.4089496222024
3893.1406,2.420021918933755,310.34041592671446
3894.0361,2.433312878720991,313.3290659756949
3894.932,2.4488843116013927,307.3120918830546
3895.83,2.4654312412624932,324.59979547719973
3896.7263,2.4821104461708985,307.38840885974804
3897.625,2.4990108767663983,350.63357579015116
3898.5215,2.5165814998011538,299.65396880634506
3899.4207,2.5355005818153598,307.6525592705612
3900.3176,2.555899257138102,295.4527422862628
3901.2148,2.577619533214839,268.1622626731003
3902.1145,2.60017537469816,288.18218367433286
3903.0122,2.622698788405379,281.91597456526694
3903.912,2.6444643232193936,259.14357227262485
3904.8103,2.6647829293033793,254.84015700620574
3905.7107,2.6837465635243865,245.55508411463617
3906.6094,2.70190400985963,272.75030389808296
3907.508,2.7199745412140737,238.6623449624691
3908.409,2.737905670914445,259.272441079675
3909.308,2.754458767888347,260.75471067192444
3910.2097,2.768207778462219,222.4966952449155
3911.1091,2.778515045647828,269.00637287607833
3912.011,2.7864721920425577,288.2341773555985
3912.9111,2.7940639430312446,238.68873248271592
3913.8113,2.802900667259826,219.48020722378038
3914.7136,2.813140086103829,237.43583094498848
3915.6143,2.8235157091999863,239.7120508825471
3916.517,2.83253662681041,223.16507735739117
3917.4182,2.839406747692265,220.98417252506357
3918.3215,2.8444380766367363,255.7416764531513
3919.223,2.848298903045274,229.94017858347445
3920.1245,2.8513638796162337,235.65080654938237
3921.0286,2.8535973657210607,220.71493766190432
3921.9307,2.8550546944549557,229.0101763073555
3922.835,2.856288784577874,226.59749339162508
3923.7373,2.858130367391434,252.48483884861776
3924.642,2.8612139764817117,244.13987643710684
3925.5452,2.8655678870079364,252.0785620212738
3926.448,2.87061391070645,210.92937230116814
3927.3535,2.8753305830656095,234.12423644941765
3928.257,2.878414106222534,249.32311050824757
3929.1628,2.878622701136591,232.77160714740316
3930.0667,2.875158788429844,213.80398211294855
3930.9731,2.868196128623105,237.51139523341283
3931.8774,2.8592496167450734,240.1971677228169
3932.782,2.85072391481983,231.66344440458133
3933.6887,2.8449612446609347,239.83227427027464
3934.5938,2.84309782555515,250.32517346759633
