wavl,flux,ivar
3566.9744,23.296028972916996,2.059407843146853
3567.795,23.252446414655893,1.9499194245211109
3568.6177,23.212282884487383,1.8880263733420197
3569.4385,23.179896680526674,2.072385081029117
3570.2617,23.156691633143268,2.1998098016328393
3571.083,23.13906735104798,1.8734564398954976
3571.9065,23.118535197359538,1.8812258477656876
3572.7283,23.08658777088903,2.0073311498318107
3573.55,23.040236093172044,2.5241560137113455
3574.374,22.985413273428872,1.7205499479501294
3575.1963,22.935774650556443,1.9275056468166682
3576.0208,22.905502850734845,1.9412629530827044
3576.8435,22.902837856293658,2.225869491581484
3577.6682,22.92549413821043,2.1450525168637737
3578.4915,22.961594507996956,2.378477403001828
3579.3145,22.994487814046455,2.076167800417361
3580.14,23.008741570578707,2.0271742193454996
3580.9636,22.995615841334953,2.0067933006971552
3581.7893,22.956649229430433,1.9095398978948137
3582.6133,22.902817189433296,2.043869617664002
3583.4395,22.847577297255565,1.9056660142960684
3584.264,22.798997126476625,2.0996383258469224
3585.0884,22.75377140998321,2.258804339021019
3585.915,22.700713231966432,2.011774867790064
3586.74,22.63135050767995,2.099972254527879
3587.5671,22.54872040143298,2.2671702166359164
3588.3923,22.469446053049843,2.28567874127481
3589.22,22.41246546561884,2.3018107578129903
3590.0457,22.38818132340591,2.066060606215741
3590.8716,22.39242989256837,2.025556341812715
3591.6995,22.411835993230465,2.0844364190415043
3592.526,22.431160476780853,2.0397926484762032
3593.3542,22.438156970666203,1.902711615846197
3594.181,22.424325532844332,2.2921895329324777
3595.0098,22.385345234451897,2.599152176914447
3595.8367,22.323055619956964,2.3194022053497347
3596.6638,22.246378355379193,2.289774349337445
3597.4934,22.170185592728913,2.3969825590985208
3598.3208,22.110780038875063,2.1726895224792853
3599.1506,22.07723268509412,2.448955997340793
3599.9788,22.06766014577777,2.760051508669337
3600.8088,22.06934242544724,2.094670256526604
3601.6372,22.06556871806134,2.539606959946835
3602.4678,22.043563692920042,2.325956510372148
3603.2964,21.999621301496163,2.4273980339237253
3604.1252,21.938659288532964,2.2280629371055123
3604.9565,21.870682768507375,2.677451901825631
3605.786,21.807175584367414,2.4799138147379534
3606.6172,21.756092913727993,2.450803209544701
3607.447,21.720332039851737,2.1523444165193095
3608.2788,21.69680251312929,2.202556572667865
3609.109,21.680733201055993,2.3075766559385364
3609.9392,21.67029616472862,2.211942986150584
3610.7717,21.66807839288129,2.227094016243531
3611.6023,21.676582620630974,2.3411512626722693
3612.435,21.692544087373214,2.5615610729223097
3613.266,21.705630135582226,2.3131790855247214
3614.0994,21.702871419180493,2.383542243226688
3614.9307,21.674610950353735,2.344114466132883
3615.7625,21.618985864016278,2.49533399561422
3616.5962,21.54344565175778,2.4674366010466477
3617.4282,21.46362742026695,2.4501454647261625
3618.2625,21.396355327065223,2.473816392030491
3619.0947,21.352864969890824,2.6285055811059954
3619.9292,21.332266104239817,2.1001978979148075
3620.762,21.324536176013908,2.6664704730307363
3621.595,21.318471204186316,2.0194504219865457
3622.4302,21.30905633541339,2.68341401520324
3623.2634,21.29723195136744,2.9307156559867584
3624.0989,21.284457830214393,2.5843122180956595
3624.9326,21.270429087047322,2.542432955417978
3625.7686,21.255515193581356,2.4137943957157644
3626.6028,21.24288457583637,2.3171839814761346
3627.437,21.23421345837514,2.4480265381660002
3628.2734,21.223999230201116,2.389469503944105
3629.1082,21.200785389770758,2.061571840947739
3629.945,21.15650017984297,2.502986461650873
3630.78,21.096056930862552,2.4333612113013268
3631.6174,21.035304236402762,2.476461749049191
3632.453,20.99103498732832,2.8994900512919783
3633.2883,20.96880100940576,2.3145727689998146
3634.1262,20.961399572890837,2.3884439231893175
3634.9622,20.955387458158786,2.5770236805994005
3635.8005,20.939353533611246,2.37425020332836
3636.637,20.908598230212732,2.247767218852857
3637.4756,20.86474091367639,2.4844906017490866
3638.3123,20.814103440051053,2.6531191712039637
3639.1492,20.76394339695958,2.7771969878252314
3639.9885,20.719911575574315,2.5904214552142952
3640.826,20.685338954073554,2.3148122262882436
3641.6653,20.661231060978498,2.672984521189592
3642.5032,20.646919075657717,2.688075877486074
3643.343,20.63794930796686,2.529772359737607
3644.1812,20.62625038342236,2.469768063527673
3645.0195,20.60397608316388,2.57210068571225
3645.86,20.56836734682897,2.5782574586439373
3646.699,20.522298656995932,2.6911378750187405
3647.5398,20.468907704175045,2.6424097766243473
3648.379,20.40864564189676,2.351270788809368
3649.2202,20.34014178998722,2.635865809055596
3650.0596,20.26586100706701,2.5670400243963587
3650.8994,20.192341136667675,2.638942628129255
3651.7412,20.128162579476257,2.5198103655480875
3652.5813,20.081013051791196,2.6518226233248385
3653.4236,20.054601421385,2.8662686897577228
3654.2642,20.046997449000727,2.709500249665527
3655.1067,20.048441033404977,2.5862978864824657
3655.9475,20.044357721802236,2.786758391734346
3656.7886,20.022630277789684,2.487154737061317
3657.6318,19.979744400921376,2.777950241082795
3658.4734,19.921643733829324,3.0500408247705098
3659.317,19.85849961855501,2.603722504563094
3660.1587,19.80092489095259,2.97757584004505
3661.003,19.756545382746342,2.966910654546751
3661.845,19.72992337033495,2.7668947081615882
3662.6875,19.720714079594277,3.0557562704008467
3663.532,19.723950697891233,2.7298778275148434
3664.3748,19.731286012347667,2.601568003394517
3665.2197,19.73405210453897,2.6173316174238512
3666.063,19.72590569023991,2.8097609194807824
3666.9084,19.70358791898693,2.7392110891706514
3667.752,19.66648769282147,3.0465427154995512
3668.5977,19.616233115653174,2.605384834226532
3669.4417,19.55850880176673,2.702414944621827
3670.286,19.501923945664156,3.138131030501149
3671.132,19.45449978846496,3.0908110499611263
3671.9768,19.419146766510575,2.7711316795985748
3672.8235,19.392224186125073,2.878175198179637
3673.6685,19.36808035571586,2.873275813909007
3674.5156,19.342689552632255,2.9817884515654334
3675.3608,19.31469368425623,2.9456904625332534
3676.2063,19.2834479090789,2.882460041173146
3677.0542,19.24922982276071,2.7273843160923277
3677.9,19.215208336216765,2.7707336762969734
3678.748,19.186523381508646,3.478546440692481
3679.5945,19.167259836220158,3.0650637197950386
3680.4429,19.156481122611098,2.765404484022065
3681.2896,19.14978167392716,2.89718403341358
3682.1365,19.143664433243238,3.022109739731618
3682.9856,19.1381358521992,3.0513033614608625
3683.8328,19.134791698991016,2.9641051442700106
3684.6824,19.133699921899716,2.7272610706461364
3685.53,19.13305722493495,3.1962076579983707
3686.38,19.130771071547425,2.8311293405326565
3687.2278,19.12544898990974,3.211959229340849
3688.0762,19.116060361576068,3.168003595832042
3688.9265,19.1018794073615,2.9088996664643205
3689.7751,19.083424675522558,2.855295523043429
3690.626,19.062559225728297,3.076961307959973
3691.475,19.04153455964927,3.1651269930674846
3692.3264,19.020787269125012,3.1474802362265404
3693.1758,18.99876202945062,2.9179486632139557
3694.0254,18.97243060897495,3.0435254689165454
3694.8772,18.938656399645915,2.719523161287845
3695.7273,18.89566189418616,3.172901718415151
3696.5793,18.843536544764145,2.8975356000806367
3697.43,18.785458028092854,2.9667271557273214
3698.2825,18.726536056704415,2.6876879568289413
3699.1333,18.673547585346046,3.0741715222225556
3699.9841,18.63174337177972,2.7332709516854052
3700.8374,18.60222433021382,3.354892090267198
3701.6887,18.580627850442838,2.9337815921764934
3702.5425,18.558755542398522,3.0697432337440738
3703.3943,18.52960784627669,3.6899451204307634
3704.2483,18.49033457884012,3.255656688614249
3705.1003,18.443737997310564,3.1385407030099737
3705.9526,18.396622760463877,3.183102910354828
3706.8074,18.357232327087726,3.6748987601592455
3707.66,18.33070217844594,3.6152903777131935
3708.515,18.31434965821818,3.3861643328143294
3709.3682,18.299549519778388,3.2954071808015653
3710.2234,18.27821472292066,3.1315349517917515
3711.0771,18.249750543863616,3.372219012201587
3711.9307,18.2206492448324,2.878611594037808
3712.7866,18.197616551849013,3.7728100891108327
3713.6409,18.180903285626957,3.3535433195120947
3714.4973,18.16385707862016,3.126680945767335
3715.3518,18.139820408621077,3.050859106317998
3716.2085,18.107569008671927,3.7482187582347093
3717.0635,18.071027792162816,3.562086135593601
3717.9185,18.033659097332972,3.2739426683236683
3718.776,17.99604318291062,3.443775419797145
3719.6313,17.95874986688733,3.488914787040665
3720.489,17.92465825594158,3.225864452422821
3721.345,17.89821895947831,3.371923189400544
3722.2031,17.880404445012804,2.8999121862114645
3723.0593,17.867053834478796,3.274792893186615
3723.9158,17.8513032196957,3.406037338923973
3724.7747,17.828720235013417,3.676904152269443
3725.6316,17.80030655759319,3.408381494420999
3726.4905,17.7705793835097,3.5416069007454163
3727.348,17.744020829367443,3.756973843044966
3728.2073,17.72180656520526,3.454855639654014
3729.065,17.70246731666198,3.4923769012609234
3729.9229,17.683374730789378,3.5035173387911027
3730.783,17.661858507862,3.7445035897461434
3731.6414,17.635299341021113,3.7650114490030804
3732.5017,17.601435633733338,3.758736687634459
3733.3604,17.56065429724123,3.3797008133640674
3734.2214,17.51642082794494,3.529221648932983
3735.0803,17.474724080564993,3.7668704258920997
3735.9417,17.44048212379,3.4688039989350363
3736.8013,17.416322123218542,3.781912350489814
3737.661,17.40142369953435,3.1908795310932834
3738.5227,17.392439129842195,3.3933487691308386
3739.3828,17.384803129768873,3.3573464816552345
3740.245,17.37439880639661,3.6851709140461675
3741.1055,17.359357456722467,3.5448430976904324
3741.9683,17.340085414070703,3.6677019429101305
3742.829,17.318173041733452,3.7097270677758774
3743.69,17.29450775147915,3.5267097356812465
3744.5532,17.26932673993147,3.7602116796059053
3745.4148,17.243488058935394,3.5907657541331215
3746.2786,17.218224673598744,3.5719181918185656
3747.1404,17.194684667093462,3.7514828934244773
3748.0044,17.173446453635837,3.715065515322151
3748.8667,17.156312915478825,3.546336498575485
3749.729,17.145728093878983,4.160166914992663
3750.5938,17.141377041991397,4.149404824864499
3751.4565,17.137149489562784,3.7179737039165857
3752.3215,17.124077829564445,3.4716160675590495
3753.1848,17.098155593944433,3.8095145195100804
3754.0503,17.064042394976912,3.8437390177755244
3754.9138,17.030825707479323,3.930563382646863
3755.7776,17.00312618682571,3.6397123161005562
3756.6438,16.978274745646797,3.6444487727542567
3757.508,16.951321750025667,3.6759658400078745
3758.3745,16.921387083055492,3.830688866236505
3759.239,16.89327719825299,3.9156659308139377
3760.106,16.871476795803947,4.141854996288187
3760.971,16.855136350860718,4.054929930529361
3761.8362,16.83831949145828,3.994794401827693
3762.7036,16.81605564690852,3.6986982796071333
3763.5693,16.78894342646567,3.744995004442328
3764.437,16.761314660006445,3.8799675842213706
3765.3032,16.736676394498062,3.943890680044798
3766.1714,16.714629240880413,3.59732060853329
3767.0378,16.69285677680595,3.793855486413555
3767.9043,16.669422441666008,3.9084007502171807
3768.7732,16.643408130044172,4.025899489377154
3769.6401,16.614356674506002,4.0211179678422
3770.5095,16.581804043739815,3.938293976470391
3771.377,16.546682368965758,3.815424140115901
3772.2466,16.510766394652684,3.8194632479202384
3773.1145,16.476401010823157,3.910622977063859
3773.9824,16.445208454290405,4.1083579701385355
3774.8528,16.418399751771016,3.925843046168278
3775.721,16.39701145771291,4.312759509055837
3776.5918,16.380553876469232,3.4812971879475785
3777.4604,16.366597791743654,4.310338507080243
3778.3315,16.351175310958133,4.033568433905247
3779.201,16.331407152738517,4.044129773010055
3780.0703,16.306760112308034,4.232396886290101
3780.942,16.278661285458618,3.9927278870746217
3781.8118,16.249860145233825,4.294603061178464
3782.6838,16.223906063919234,4.4147340264969746
3783.554,16.205168556476334,4.01742972908019
3784.4265,16.19624313239981,3.8790646134825115
3785.297,16.19594996418994,3.91325187680051
3786.168,16.19933427174618,4.121941170265664
3787.041,16.20075549888713,4.10808860231242
3787.912,16.19680820500159,4.071616733392014
3788.7856,16.186490509698217,4.475683680905134
3789.6572,16.16899983971384,4.510155886785779
3790.531,16.14189213104746,4.20992895117957
3791.403,16.102881853049823,4.217778080579178
3792.2754,16.052703667070812,4.14997115669982
3793.15,15.996555939053842,4.132217032331035
3794.0225,15.942325748932552,4.564276451190627
3794.8972,15.89591058287194,4.822671831611884
3795.7703,15.860120816377583,4.332819897790006
3796.6455,15.834294812237278,4.268255890303097
3797.519,15.81625150011728,4.5874392047550065
3798.3926,15.80278005999175,4.016174263701252
3799.2686,15.79066430414908,4.095914447079012
3800.1426,15.777791865167234,4.2460989131091464
3801.0188,15.763709959705526,4.458404555910089
3801.8933,15.74965081919794,4.435165491152332
3802.77,15.73709441176274,6.283811743684979
3803.6448,15.726707622618902,4.668551757473662
3804.522,15.717804160994097,4.031836274978556
3805.3972,15.709378318978596,4.566738214789719
3806.2727,15.700710783643968,4.423610012639844
3807.1504,15.691219853066366,4.340577465398208
3808.0261,15.67999440463922,4.438496310917898
3808.9043,15.665800245391248,4.614486241360167
3809.7805,15.647902059704235,4.276959914278882
3810.659,15.625895215766885,4.421536308746257
3811.5356,15.59976060776613,4.554276529162478
3812.4126,15.569534954924581,4.510692872882514
3813.2917,15.535916881569278,4.213063990586679
3814.169,15.501198590770429,4.081759034905734
3815.0483,15.468835484447062,4.295640168798186
3815.926,15.442831113744612,4.673917139951494
3816.806,15.424813196175204,4.684413782722985
3817.684,15.412933422246965,4.24790159434566
3818.5623,15.402691376217577,4.168970608851955
3819.4429,15.390082565057984,4.2448981814374385
3820.3215,15.373750504614106,4.693879468211813
3821.2024,15.35417171245538,4.9886712164394265
3822.0815,15.331837717683472,4.880178126931763
3822.963,15.30556251760973,4.338225927871045
3823.8423,15.273396522256947,4.378813920415494
3824.722,15.23378689807311,4.2991585032693616
3825.604,15.186949827344195,4.528659634785027
3826.4841,15.135530508840382,5.170984688608685
3827.3665,15.083170537345122,4.968092290434794
3828.2468,15.034503049912697,4.601791826534702
3829.1296,14.993108018841399,4.597123989606139
3830.0105,14.961184484758684,5.391013989154266
3830.8916,14.938073937016274,5.052266563651324
3831.7751,14.921393478303383,4.642318332541369
3832.6565,14.90883315681201,4.832263009182364
3833.5403,14.898729206249698,5.433460126804819
3834.4224,14.889348383497111,4.805779053115234
3835.3064,14.877721864365022,4.833604205702758
3836.1887,14.861184673163631,4.760051369277291
3837.0713,14.839832770053725,4.715306256885293
3837.956,14.81711743446651,5.0025804705132355
3838.839,14.797487913832198,4.9890534338983175
3839.7244,14.783226617459425,4.757908676624791
3840.6077,14.774476883496451,4.482607653957298
3841.4932,14.770615726579067,4.819889324989827
3842.377,14.771461336295937,4.70446399889875
3843.261,14.776745218817318,5.507483331372558
3844.1472,14.785490251120196,4.982747225365057
3845.0315,14.796033469156818,5.116164627955306
3845.9182,14.806855229428331,4.932353390140327
3846.803,14.816905478664271,5.2467392286399175
3847.69,14.825969242569544,4.8328489317879635
3848.5752,14.834288610749216,5.056445092538152
3849.4604,14.84199814016644,4.984998953212685
3850.3481,14.848055034133528,5.169943540522627
3851.234,14.849650879909705,4.642872670447557
3852.122,14.842756911880773,4.856114134284401
3853.0083,14.82369581980087,4.8081722316320645
3853.8967,14.791446319852957,4.72168528980642
3854.7832,14.750273434388415,4.708589519694586
3855.6702,14.708899452383445,4.980745636211325
3856.559,14.676320333863044,4.83020035604038
3857.4463,14.655919272423949,4.866156789879333
3858.336,14.64304711965057,4.927703004665226
3859.2234,14.630058465369686,4.6117287060674235
3860.1135,14.613036751877264,4.977428129712541
3861.0015,14.594653365540838,5.028328625532085
3861.8896,14.579952531125073,4.7538368912015905
3862.7803,14.570906139584492,5.32456206001461
3863.6687,14.564492698105822,5.300371940095964
3864.5598,14.555038120843792,5.175739100560913
3865.4487,14.53829055880722,4.72969746356754
3866.34,14.51321687944055,4.571640998777256
3867.2297,14.481653818836337,5.3995737837292905
3868.1213,14.445779528277,4.983591618775712
3869.0112,14.407310650634134,5.440021234949604
3869.9014,14.367415978158608,5.011799581932515
3870.7937,14.32771768599789,5.075162254550861
3871.684,14.289802810145794,5.454096156903187
3872.577,14.252555082542539,5.823629942601619
3873.4678,14.212346387724834,5.541091055970563
3874.361,14.164838038486135,5.760152220244339
3875.2524,14.109453629768575,5.760516177582641
3876.1438,14.049507796664736,6.035290811461496
3877.0376,13.98968025579073,5.260806190212904
3877.9297,13.933079257543632,5.620805440905263
3878.8237,13.879410380269583,6.117587555894375
3879.716,13.827461396233613,5.8046322174430305
3880.6108,13.775471417913602,5.869199604166415
3881.5037,13.722024361939283,5.387922631066337
3882.3965,13.665155786247855,5.611283742617969
3883.2917,13.603763368339578,5.5875315438783355
3884.185,13.539393915136824,6.276204197238373
3885.0808,13.475238437560819,6.469102865474221
3885.9746,13.416233283108657,6.2901804481000605
3886.8706,13.36623773296379,6.5263256682496
3887.765,13.327589224762278,6.270494976800689
3888.6592,13.299676177809406,5.917629705023664
3889.556,13.28025317530981,6.646963984576267
3890.4507,13.267411630696225,6.252920275181814
3891.348,13.260748509986025,6.162900949633461
3892.243,13.261758584732359,6.278471314130666
3893.1406,13.272679867509204,6.529882624485583
3894.0361,13.294990455760539,6.844661079105945
3894.932,13.328640445713525,6.047915565538832
3895.83,13.372274257021067,6.271886112332662
3896.7263,13.423586708414405,6.304355216579563
3897.625,13.480164246173567,5.927599299188296
3898.5215,13.537340132711268,5.2750223019561835
3899.4207,13.588689554327878,5.1880262130759505
3900.3176,13.627050610257985,5.882907110506109
3901.2148,13.650010403583389,5.839930641464411
3902.1145,13.662258197886178,5.842747428758378
3903.0122,13.67348430373722,6.510430345048097
3903.912,13.692487655753206,5.8631513116687985
3904.8103,13.722014600291475,5.923480965478349
3905.7107,13.759165712208649,5.5798306227606345
3906.6094,13.798424948752094,5.6714900556388015
3907.508,13.835390086311419,5.708878432082963
3908.409,13.867794227975088,6.173329088452656
3909.308,13.895280207758349,5.6986902494019676
3910.2097,13.919381474555705,5.816252575134936
3911.1091,13.941997149174096,5.1455778560281
3912.011,13.964533682225271,6.298446605315966
3912.9111,13.98616773704638,5.520585025107424
3913.8113,14.003731396377761,5.297693166817081
3914.7136,14.01271943651074,5.181843705640751
3915.6143,14.010227473589836,5.331732508616227
3916.517,13.997955842754916,5.511398128936505
3917.4182,13.982402319692493,5.07399953026101
3918.3215,13.9712757445296,5.885713511386089
3919.223,13.968856679515989,5.680432307571245
3920.1245,13.973186890804035,5.445417076151849
3921.0286,13.977799381467436,5.551634009989282
3921.9307,13.97626506288428,5.260155657256277
3922.835,13.966421976874429,5.537402781398715
3923.7373,13.951241243600263,5.214902541885289
3924.642,13.936059923526756,5.689553086190282
3925.5452,13.925240933381486,5.888581224954342
3926.448,13.91992655904601,5.584851592627382
3927.3535,13.918368523738296,5.6980485908508225
3928.257,13.917130034715717,5.527505157547484
3929.1628,13.912135094351113,5.738104958187632
3930.0667,13.89966370664084,5.985120806157057
3930.9731,13.877340708611094,5.833953943015979
3931.8774,13.845530349258057,5.666655404673002
3932.782,13.80726249572157,6.030898063563127
3933.6887,13.767370948670816,5.833543706429517
3934.5938,13.730839651286024,6.3338357675413866
3935.501,13.700453128986272,5.860511453368797
