wavl,flux,ivar
3566.9744,1.5347940640137572,683.7538602906453
3567.795,1.5339231974922976,622.663866690424
3568.6177,1.5355929371492876,654.4964854715121
3569.4385,1.5386035281033767,551.4737210262391
3570.2617,1.541627393198249,518.4196972419231
3571.083,1.5439134233367466,473.1441579908
3571.9065,1.5456016563421364,683.9287877940342
3572.7283,1.547248324174303,612.3202188761497
3573.55,1.5491582496879153,591.3987313782427
3574.374,1.5511176852336948,649.2676663368402
3575.1963,1.5528105577874236,591.4551650163427
3576.0208,1.5544383078127466,643.2141535856172
3576.8435,1.5567112005811068,571.0653786965316
3577.6682,1.560268268424017,517.5290203881691
3578.4915,1.564978133233107,646.441468499357
3579.3145,1.569878889692074,681.748541611085
3580.14,1.5736401855496975,746.8083749294378
3580.9636,1.5751665537671162,674.4250199774677
3581.7893,1.5740815144408329,668.3008295015269
3582.6133,1.5707378353741381,481.9703082333056
3583.4395,1.5659131319496113,705.7518860890352
3584.264,1.5604896681667144,574.353718799163
3585.0884,1.5551499621876166,642.2614212197664
3585.915,1.550360542672665,665.1235696463046
3586.74,1.5464329227617166,629.7509524429644
3587.5671,1.5434181178065844,774.5338588419872
3588.3923,1.5411159158969034,717.1757603636843
3589.22,1.5390707753754338,598.0228787080636
3590.0457,1.5369438721432387,914.0756492149521
3590.8716,1.5348966717147037,663.3143691934207
3591.6995,1.533709186897801,684.29742282019
3592.526,1.534314231267673,654.9429886479361
3593.3542,1.537084632735704,618.7939195588525
3594.181,1.541510448987843,824.2050596164548
3595.0098,1.5465889360386766,786.8170087875765
3595.8367,1.5513717287342201,683.6382232047293
3596.6638,1.5554080091357176,572.6692425212776
3597.4934,1.558610974771734,694.3157209179838
3598.3208,1.5609358972591147,572.4419185850451
3599.1506,1.5623138741448472,671.7323435093904
3599.9788,1.5628419653022014,504.5260658224379
3600.8088,1.5630662540907254,712.621631260885
3601.6372,1.5636337436180328,819.329100120571
3602.4678,1.564452867279633,663.0829008971199
3603.2964,1.5642966244789855,633.3710462665297
3604.1252,1.561662171479854,607.7738712943008
3604.9565,1.5562492828922814,576.8222980397816
3605.786,1.5497550678348215,713.1693992571186
3606.6172,1.5449258086602962,706.9673306871213
3607.447,1.5438743670657449,666.3436563863885
3608.2788,1.5467320075973654,942.6552438680469
3609.109,1.5517293720783607,603.978930474078
3609.9392,1.556336814765003,702.4166600209376
3610.7717,1.5584584944157773,577.2016910599483
3611.6023,1.5571346151190357,646.693245412954
3612.435,1.5527215541865576,580.726237725144
3613.266,1.5466125446580683,731.7577696327514
3614.0994,1.5405052832760708,810.3928104887543
3614.9307,1.5357936476983058,702.0872296831217
3615.7625,1.5331513992986447,661.9888377440461
3616.5962,1.5327051555413578,815.1160344557707
3617.4282,1.5341478946742746,595.1757603805067
3618.2625,1.5367383867378246,833.3034766118797
3619.0947,1.5393984421415317,607.4843541697687
3619.9292,1.5412190555407037,618.1345336333363
3620.762,1.541940220004157,667.828040292618
3621.595,1.5420472545021353,702.4272542368906
3622.4302,1.5422460822617325,565.4179330644292
3623.2634,1.5428175439667786,725.8070077637962
3624.0989,1.543315798025412,787.6649867421937
3624.9326,1.5427350014645653,555.0435842860198
3625.7686,1.54000993136045,593.4399913410551
3626.6028,1.5346714976296176,765.172686628335
3627.437,1.527331067691635,697.0638247809841
3628.2734,1.519702846816344,647.3375939027952
3629.1082,1.5139909437563326,696.5955906162297
3629.945,1.5116669424874647,656.7914161378062
3630.78,1.5127997660549357,559.8606417631412
3631.6174,1.5161585154586261,717.3646900461645
3632.453,1.5200678544855115,615.7508161849656
3633.2883,1.523351849366703,706.4973527542558
3634.1262,1.525695833239244,710.1602242161725
3634.9622,1.5274599637113628,534.0285422329274
3635.8005,1.5292464355438797,653.5331482051866
3636.637,1.5313787257305609,545.1466611770836
3637.4756,1.5336971165381243,830.0985160656853
3638.3123,1.535562802326017,620.7597801839776
3639.1492,1.5361184367798548,562.2677508991858
3639.9885,1.5345557772331506,675.0255329712387
3640.826,1.5305181110103034,611.8915200156027
3641.6653,1.5244448609107981,616.6881594829854
3642.5032,1.5177812527008325,731.4687928172876
3643.343,1.512518380845125,650.6668308568395
3644.1812,1.5103876798627178,737.4636034670405
3645.0195,1.511861272943006,704.9238602543542
3645.86,1.516009376067324,627.7026577815573
3646.699,1.5211204546307187,851.763726597355
3647.5398,1.5257064233533089,688.8007876909525
3648.379,1.5288428239403926,520.1542814728411
3649.2202,1.5300661615131486,692.8318217101927
3650.0596,1.5290749180215322,562.4022037902588
3650.8994,1.5257818234333846,657.5613147631213
3651.7412,1.5204698992315642,517.1852524126369
3652.5813,1.5139099358517967,566.9839487259775
3653.4236,1.5071253984020914,592.523034404979
3654.2642,1.5012819982059205,632.9115803929506
3655.1067,1.497402725873507,803.1241020686552
3655.9475,1.4963253491540007,605.1715682846367
3656.7886,1.4985153896308792,908.4900131500679
3657.6318,1.5040832713447714,769.9757714963828
3658.4734,1.5126964351716061,642.2045966568853
3659.317,1.5234244314930256,554.7421254394861
3660.1587,1.5341471292059035,665.7170869058034
3661.003,1.5418234541156421,663.8711284364011
3661.845,1.5436094190152105,648.331366556837
3662.6875,1.538775394740594,567.1370180786583
3663.532,1.5291768359100093,1009.9954401469872
3664.3748,1.5182520145255487,632.7745492668631
3665.2197,1.509163044832713,618.8182210185114
3666.063,1.503947227387091,678.5954301601373
3666.9084,1.5031472858392823,753.2572135421608
3667.752,1.5060475920373018,678.0960426356833
3668.5977,1.5110892121456452,695.6677120723689
3669.4417,1.5164938199448306,533.9982856175833
3670.286,1.520853546512106,629.894627084465
3671.132,1.5232612818169244,619.1230281967305
3671.9768,1.5233918513612779,555.582990217019
3672.8235,1.521672537031311,644.7859187416216
3673.6685,1.5191252210030277,750.7357972703679
3674.5156,1.5167110817341818,652.0649586424386
3675.3608,1.5148016573820131,579.3620809081814
3676.2063,1.5132354072061605,722.3778007042902
3677.0542,1.5118450871120261,587.9424577356075
3677.9,1.5106666215603137,934.6012844252471
3678.748,1.5096665224188608,1695.918099575555
3679.5945,1.5085832772632686,770.9036776375053
3680.4429,1.5071134817239822,623.9807425253007
3681.2896,1.5052598730306985,823.454044822996
3682.1365,1.5033773602166052,654.7216420674335
3682.9856,1.5020115394543176,567.4725596961005
3683.8328,1.5016929261272047,722.3511770463988
3684.6824,1.502694318413866,943.3700939047383
3685.53,1.5048209267477806,609.6358294624655
3686.38,1.507460320758066,629.6098272938615
3687.2278,1.5099488884139356,579.8982740644981
3688.0762,1.5120534464605284,698.6284617034341
3688.9265,1.5139316990626301,631.3681201351443
3689.7751,1.5156394615610638,616.3481443391205
3690.626,1.5167645366853164,603.022924784642
3691.475,1.5166282365261736,822.8639935737718
3692.3264,1.514964882186775,636.0801047343928
3693.1758,1.512305879771532,625.0869567905993
3694.0254,1.5096250290591298,688.6772329520179
3694.8772,1.5076681580723126,670.5936456498812
3695.7273,1.5066002395810056,710.4947546409909
3696.5793,1.5061649499607634,598.1305249868918
3697.43,1.5060954768833887,705.6089049637307
3698.2825,1.506244199081991,685.9072317917768
3699.1333,1.506429036069346,821.9198603814029
3699.9841,1.506299780697775,584.8384141204991
3700.8374,1.505442867570976,727.3835256856981
3701.6887,1.5036255137183006,620.696858925243
3702.5425,1.5009121933658178,774.053583978113
3703.3943,1.4977075400149034,693.5841690532866
3704.2483,1.494637554627294,585.7915555122127
3705.1003,1.492397060670144,745.4198605000615
3705.9526,1.4912929530272387,723.7284265079927
3706.8074,1.4909291980574038,800.1648717987043
3707.66,1.4903361967564428,724.6895882334263
3708.515,1.488658649436603,691.561803044148
3709.3682,1.4859084661052098,726.2262034253318
3710.2234,1.483039215624896,763.4590691441783
3711.0771,1.4813234251040153,765.2394657197983
3711.9307,1.4813996304974737,805.6855021666275
3712.7866,1.482806062927458,489.86623666851136
3713.6409,1.4841971282302666,628.9333915278595
3714.4973,1.484204891592185,635.5823386556848
3715.3518,1.4823785923314392,686.5625789702756
3716.2085,1.4795868276448927,690.0496709435131
3717.0635,1.477517706600562,882.514806721439
3717.9185,1.4774985553587345,731.6641222639839
3718.776,1.4796468093108133,663.9361766498083
3719.6313,1.4828860036554588,644.7682353470037
3720.489,1.48583980407361,749.9249591501738
3721.345,1.487685530907194,756.5746821580278
3722.2031,1.4884667473571536,666.1298802695628
3723.0593,1.4886360533264227,698.2807891631237
3723.9158,1.4884791589103141,538.4424164632303
3724.7747,1.487913493746377,637.5031064669354
3725.6316,1.4868362239504345,671.084472005577
3726.4905,1.4856063028179818,672.9545161689953
3727.348,1.4851903035130327,640.3659164463995
3728.2073,1.486676849390226,615.8445350216629
3729.065,1.4904230442722322,784.8012421353435
3729.9229,1.495473697864008,670.4535818819861
3730.783,1.4997937856810575,723.2470960591174
3731.6414,1.5012948928034853,682.7050106547546
3732.5017,1.4990946267278875,687.4374952458562
3733.3604,1.4939990465855735,666.7840670716748
3734.2214,1.487985133239622,742.5100250341146
3735.0803,1.4832279611526125,740.8944392257814
3735.9417,1.4810460420621878,584.7575296282406
3736.8013,1.481587110422413,700.7027099564864
3737.661,1.4840159150702485,822.9939241934152
3738.5227,1.487245915140146,629.8229578890227
3739.3828,1.4905905255833631,564.7987145268244
3740.245,1.4939647190205274,683.0972430525331
3741.1055,1.4973101269367919,606.3609193211803
3741.9683,1.5000825120377839,705.7535679430918
3742.829,1.5012879535284784,506.5915992259188
3743.69,1.50028527312954,761.9354473624937
3744.5532,1.4973713859283388,659.2848739198031
3745.4148,1.4937074015880953,794.4287260524649
3746.2786,1.4905653682647602,749.3102935964747
3747.1404,1.4887178930252887,759.5434150195522
3748.0044,1.4881825226649203,595.3260570482921
3748.8667,1.488437531249389,598.9068957749753
3749.729,1.488672368179486,673.3793387258044
3750.5938,1.4880094116770544,663.9329143936047
3751.4565,1.4857698106781165,720.8936834356119
3752.3215,1.4817926289749297,834.9168633752466
3753.1848,1.4766747370415365,554.3080633667801
3754.0503,1.4715371553410688,777.3074696643855
3754.9138,1.4676601525398116,744.124819163379
3755.7776,1.4659600021630028,729.8807107901505
3756.6438,1.4667771901488535,701.6995697028271
3757.508,1.4697393925064326,794.6918025569564
3758.3745,1.4738727593702798,716.6349525417919
3759.239,1.4778695586260853,698.3874587664466
3760.106,1.480576043726763,717.437145477556
3760.971,1.4812547187842553,649.4621959475932
3761.8362,1.479791401090237,716.5327805206437
3762.7036,1.476661619040673,613.8345429684982
3763.5693,1.4727955465395235,749.7332721929976
3764.437,1.4691100451175774,706.4908541823895
3765.3032,1.4660761958351367,745.7755031660796
3766.1714,1.4634705510591037,618.9552312847982
3767.0378,1.4607158891851515,739.219361046958
3767.9043,1.4573934739752055,702.6272061849446
3768.7732,1.4536411235130897,673.4094201043474
3769.6401,1.4501732097923894,675.5261838718458
3770.5095,1.4478733665115213,818.0230557923387
3771.377,1.4474520421152663,695.6999718615813
3772.2466,1.4491860466881454,718.9725039583476
3773.1145,1.4529144647075491,829.755140914655
3773.9824,1.4580981694110622,692.2589700684715
3774.8528,1.4638612418328536,620.1022712211794
3775.721,1.4691042839073856,758.8357580696533
3776.5918,1.4730377224770106,907.9235771780611
3777.4604,1.4755058575609197,770.4168930442446
3778.3315,1.4771025485856444,613.3099741133071
3779.201,1.4786508100539468,859.9758143651646
3780.0703,1.4806645274268593,674.8249054368124
3780.942,1.4831460432877945,780.1544612780845
3781.8118,1.4858815582302447,699.6600766154372
3782.6838,1.4889480765944716,716.0273964622527
3783.554,1.4927434268269448,618.5829458509307
3784.4265,1.4975649093831498,737.3167387804735
3785.297,1.502887465011519,631.0956530587789
3786.168,1.5072912529315934,577.1696765712946
3787.041,1.5090118719305425,629.217343999304
3787.912,1.5068959664933577,642.1614858089531
3788.7856,1.5010503533837674,555.1642239486517
3789.6572,1.4928519689239241,592.7499369587343
3790.531,1.484242805504638,597.578162008535
3791.403,1.477002741876138,752.103497618041
3792.2754,1.4718396609818718,857.955060420042
3793.15,1.468128877471215,730.0924067527455
3794.0225,1.4642794080098724,550.6234333136111
3794.8972,1.4585770962052158,758.7123964879519
3795.7703,1.4501931980755622,797.6222058737154
3796.6455,1.4395244760511854,744.4294518809147
3797.519,1.42822513302378,770.4292743747623
3798.3926,1.4185577887113119,680.0709152550355
3799.2686,1.4127804997716222,808.5475228812473
3800.1426,1.4124381568360411,962.9189316718258
3801.0188,1.417687094891662,793.6389290422644
3801.8933,1.4271349489185154,801.514191395925
3802.77,1.4384031654133758,696.9201019135021
3803.6448,1.449065393893509,660.970624489997
3804.522,1.4579978938270848,732.5360052036749
3805.3972,1.4656101750257013,859.9714637614215
3806.2727,1.4733085850979695,650.595111472334
3807.1504,1.482114420123329,692.0552993585045
3808.0261,1.4917160885972875,697.3943707918306
3808.9043,1.500822077833295,727.6285722663265
3809.7805,1.5080570251945664,764.1140733086219
3810.659,1.5131409133282518,589.814126326588
3811.5356,1.516818120924619,709.9684084299713
3812.4126,1.5200318221312683,698.3677110811818
3813.2917,1.5228794597456634,692.0429656396768
3814.169,1.5244922929614118,626.4216013261739
3815.0483,1.5239443919112856,646.9722362821587
3815.926,1.5212259830220625,766.0870598612039
3816.806,1.5174585630003046,609.0904704799424
3817.684,1.5142482549782468,722.2654127356789
3818.5623,1.5126105457943464,764.6162573811621
3819.4429,1.5123526658057609,759.0566210263897
3820.3215,1.5121894193228553,776.073522799153
3821.2024,1.5105738789703915,622.4432810639372
3822.0815,1.5067155317790355,582.301342207595
3822.963,1.5009689000458344,778.6548564328485
3823.8423,1.494422359417003,754.7771973844013
3824.722,1.4878521914320861,672.8159578203448
3825.604,1.4811251755671264,647.9925023258196
3826.4841,1.4734070480599564,669.9915567370767
3827.3665,1.4637706626597853,657.8257475507577
3828.2468,1.4520399594260975,703.3906545706924
3829.1296,1.4387623863459498,773.8656847366718
3830.0105,1.4250413745610266,764.6615059638109
3830.8916,1.4117275291634015,828.4121812817128
3831.7751,1.399137004656658,1312.3149243725593
3832.6565,1.3871256982845273,706.3026176453609
3833.5403,1.3751587162256784,745.7939683700388
3834.4224,1.3630764962591009,774.0823549131879
3835.3064,1.351392597873321,794.533285740584
3836.1887,1.3416379608353584,875.0005784371983
3837.0713,1.3356721182918654,879.5516001390131
3837.956,1.3348960206106177,911.5233789649083
3838.839,1.339648886933844,841.131157255926
3839.7244,1.349429186074854,826.2112278652332
3840.6077,1.3634604419864844,779.2267916011833
3841.4932,1.381204523941839,807.0377841796349
3842.377,1.401836836820347,730.3774644110617
3843.261,1.4240560995694087,703.3805402329149
3844.1472,1.445955401290335,709.8322725556997
3845.0315,1.4654016348779655,683.7091156744992
3845.9182,1.4811493101168596,661.9053800472338
3846.803,1.492976690074841,662.3943116736848
3847.69,1.5019220533446107,654.3240887772564
3848.5752,1.5094686222581368,672.2247549428901
3849.4604,1.516990632747373,703.3419005774626
3850.3481,1.525217949916257,652.6929415630461
3851.234,1.5340534944317177,609.2126272182203
3852.122,1.5429185461440589,673.2440765506115
3853.0083,1.5509811190758076,630.5485908353454
3853.8967,1.5577493748967943,609.8401608210471
3854.7832,1.5631635352880557,548.2538969130708
3855.6702,1.5676144686561888,608.9905139529367
3856.559,1.5715428686937325,628.5692852767918
3857.4463,1.5751837052026352,731.2527202754737
3858.336,1.57866453798086,616.382078424935
3859.2234,1.5821080493364976,619.0068003456612
3860.1135,1.585701590657038,630.2740198984172
3861.0015,1.5894262874093872,566.7773754706279
3861.8896,1.5930129528158967,549.203994667573
3862.7803,1.5960296936106497,610.1187180923373
3863.6687,1.5980527831410216,506.5773824976685
3864.5598,1.5987652093871982,583.0892709337722
3865.4487,1.5978629736816825,583.1723291694032
3866.34,1.595079731018244,554.9579821911788
3867.2297,1.5903171412992083,505.0213470144955
3868.1213,1.5837129819549804,592.5741657386621
3869.0112,1.5757818750689436,560.6916380970274
3869.9014,1.5673275712067274,612.9691219745386
3870.7937,1.5593459660735278,619.5127817152097
3871.684,1.5527605243584803,625.8790118812693
3872.577,1.5478995099317785,575.7776593993029
3873.4678,1.544331905083561,627.0872849360026
3874.361,1.5407215629536335,669.7512480814214
3875.2524,1.535208600931293,560.864836490977
3876.1438,1.5260120723106225,686.9767101918504
3877.0376,1.5121840993500775,606.3921808360833
3877.9297,1.4941090959181946,609.1242903397358
3878.8237,1.4729313764948877,737.9379811903559
3879.716,1.4501005291464784,775.6002268886167
3880.6108,1.4264728262061792,696.3080694580872
3881.5037,1.4026424291959492,873.1178220863139
3882.3965,1.378724581748043,861.8687560698886
3883.2917,1.3546254696429154,914.9155821493433
3884.185,1.3302827177373662,841.3202720109183
3885.0808,1.305359789186843,889.7924639551197
3885.9746,1.2799391242373528,855.618563964657
3886.8706,1.2542386439517865,1152.833940148531
3887.765,1.2292513653001178,1199.2484943696381
3888.6592,1.2065362333837022,1034.3989342471673
3889.556,1.188412929133761,1229.0910498289327
3890.4507,1.1776492421917324,1224.2910331065232
3891.348,1.1762861898133001,1398.2786157789085
3892.243,1.1849763821732577,1133.710600923639
3893.1406,1.202746547563985,1241.6102673688229
3894.0361,1.227285776377366,1018.6980846835046
3894.932,1.2559830444485887,1116.3488736195677
3895.83,1.2864530123119753,858.4553746613495
3896.7263,1.3165988627113066,950.0543859732047
3897.625,1.3452293514360218,734.3499726267822
3898.5215,1.3715023921930913,874.3222971275862
3899.4207,1.3955112781921275,808.3110077474012
3900.3176,1.4175849025500635,758.5975242475034
3901.2148,1.4384138107156572,707.397278887577
3902.1145,1.4584891700151759,755.0759684356619
3903.0122,1.4778923587340236,657.4808063623237
3903.912,1.4967366866087037,619.021605446086
3904.8103,1.5148272154905853,742.120066967474
3905.7107,1.5318644242480186,702.2446848385662
3906.6094,1.5471236085981552,657.4131941778356
3907.508,1.560045471363974,505.45814776631994
3908.409,1.5706265183681882,538.4255814643574
3909.308,1.579609764657689,607.8784354161857
3910.2097,1.5883272813833251,644.5711939579643
3911.1091,1.597818808250164,514.2715652220359
3912.011,1.6084997235176102,620.7340340114166
3912.9111,1.6200282035301805,544.2786404403436
3913.8113,1.6319206705350426,642.2677885571916
3914.7136,1.6438274329956268,622.8328417657374
3915.6143,1.655435772996319,610.9043073932731
3916.517,1.666507020706539,560.8432865386584
3917.4182,1.6766187435281579,599.1038840286898
3918.3215,1.6853621164921027,531.5067357245224
3919.223,1.6922023675777111,512.1153910610743
3920.1245,1.6967760528760842,506.89186136706525
3921.0286,1.6990899346378519,493.96967641035803
3921.9307,1.6996991142241056,568.3497355283755
3922.835,1.6995432238380495,569.5983820381232
3923.7373,1.6994518449614542,556.718106372124
3924.642,1.6997755456543293,565.5242658290164
3925.5452,1.700365397591453,540.115897656284
3926.448,1.7008573581473636,596.3046556272723
3927.3535,1.700996496847144,545.6285007236445
3928.257,1.7007676279554305,536.4206367083083
3929.1628,1.7002685017573531,564.7335266519915
3930.0667,1.6995193459336178,546.4603000656208
3930.9731,1.6984920061260198,502.9045652253343
3931.8774,1.697370071931807,525.2596122679124
3932.782,1.696546685675937,538.8705673852477
3933.6887,1.6962004337800267,555.0676089863416
3934.5938,1.6958873036630808,445.3012334019659
3935.501,1.6947445352252397,485.65550579259997
3936.4062,1.692126244549555,563.24458802481
3937.3142,1.6878519571018658,495.4349662272387
3938.22,1.6820238805369836,551.4363706402731
