wavl,flux,ivar
3566.9744,7.232860774343222,0.6778225959051036
3567.795,7.218015481188253,0.6663126587013415
3568.6177,7.200204806493824,0.6269820582351792
3569.4385,7.186575386077965,0.6349534944400488
3570.2617,7.179646379926529,0.7667180981706703
3571.083,7.176933204976717,0.8075369177097983
3571.9065,7.173521180064099,0.5777736828452026
3572.7283,7.1659375492595325,0.6050163725825417
3573.55,7.154246199109361,0.836999318921017
3574.374,7.141777672878943,0.6943723045609214
3575.1963,7.133189715262172,0.6734447314409101
3576.0208,7.131071143160374,0.8151361280268683
3576.8435,7.132957801146275,0.6774846511885012
3577.6682,7.1307766006961915,0.6394697148323435
3578.4915,7.114927027277348,0.6637099773940702
3579.3145,7.080994599225108,0.83350154351873
3580.14,7.034019502236843,0.6489057769677139
3580.9636,6.987741402863758,0.8594535371983314
3581.7893,6.957573088031821,0.703126406900117
3582.6133,6.954023816840597,0.7189972441086979
3583.4395,6.977839749170739,0.6857619763250297
3584.264,7.020301348104573,0.773559295553014
3585.0884,7.068102870296817,0.6419129490902814
3585.915,7.109494224798707,0.8262622601602068
3586.74,7.137339735877421,0.8626078491421604
3587.5671,7.14856927485469,0.7457246829540526
3588.3923,7.140948158445339,0.6213155618589314
3589.22,7.113656489898614,0.7376518136345411
3590.0457,7.0709644622796946,0.6920727622334835
3590.8716,7.023132570779537,1.0607752921263032
3591.6995,6.9821306609047795,0.8204279856258131
3592.526,6.954888365581136,0.8334005680968091
3593.3542,6.93969541426605,0.7656557135146653
3594.181,6.929988032320864,0.679099469832804
3595.0098,6.919837085497039,0.6601924856261728
3595.8367,6.907253383321696,0.7970210394041792
3596.6638,6.8930170979233845,0.7004940938675085
3597.4934,6.878245575115623,0.9861227238269668
3598.3208,6.863039008470321,0.8964524351080553
3599.1506,6.845789282514239,0.9304848972067457
3599.9788,6.82338671412569,0.9549173243992172
3600.8088,6.791856405897488,0.6874667635155249
3601.6372,6.7506972649961945,0.708056115508762
3602.4678,6.707493934496662,0.7856372013456618
3603.2964,6.679371640348751,1.1681145998338331
3604.1252,6.6850292482352565,0.8472627476071624
3604.9565,6.734213490457609,0.8335525907104223
3605.786,6.820104991649275,0.9212501451410521
3606.6172,6.922466980729384,0.6169631904781747
3607.447,7.015195742934362,0.711180503400615
3608.2788,7.077582597525484,0.8858313785230651
3609.109,7.098924528533315,0.78308511356387
3609.9392,7.080151527129624,0.6962566095662167
3610.7717,7.029805342747444,0.7057894290885611
3611.6023,6.960966768990368,0.9597857322357279
3612.435,6.887737644294626,0.6807752319439581
3613.266,6.824259455968071,0.8698857045440771
3614.0994,6.779788510647676,0.7843137168857992
3614.9307,6.755633465187015,0.830387617427297
3615.7625,6.7439118847227,0.6666179761239845
3616.5962,6.733475209024071,0.7204731238175643
3617.4282,6.717450965936792,0.7210488285721065
3618.2625,6.696513535018193,0.7965559900671625
3619.0947,6.6761511403866916,0.7936464685712938
3619.9292,6.6607013671134325,0.7550152434479792
3620.762,6.65091829821206,0.8334652053887756
3621.595,6.6451079336068,0.6343524731229402
3622.4302,6.641937295049347,0.9346467950516899
3623.2634,6.641080863615084,0.8553969875338873
3624.0989,6.641855491262645,0.8676443257185789
3624.9326,6.642606573078317,0.8168724686061388
3625.7686,6.642219464293875,0.7274363801297857
3626.6028,6.641754837514532,0.8545602799889684
3627.437,6.643491097197454,1.0729338222032034
3628.2734,6.648268953641934,0.764426456413682
3629.1082,6.654646666820117,0.7414003522939528
3629.945,6.661204183097006,0.738584171871212
3630.78,6.668496968882449,0.9010439653623072
3631.6174,6.678112652654541,0.7966155105314559
3632.453,6.689715309125869,0.9235393008291217
3633.2883,6.700457539776874,0.8067398101713654
3634.1262,6.707169727458085,0.6488169648143921
3634.9622,6.708751584634614,1.11665823128926
3635.8005,6.706008103023155,0.7001931203336814
3636.637,6.699372565836284,0.7969365066687226
3637.4756,6.688017645075726,0.7691681598616716
3638.3123,6.671966952051876,0.660347765653352
3639.1492,6.653972633798741,0.9733404704351355
3639.9885,6.638469643279737,0.7197910011598211
3640.826,6.628150476846524,0.8091843468816747
3641.6653,6.621364602560245,1.0381534939429777
3642.5032,6.613254014376919,0.9811583903492654
3643.343,6.59867485227439,0.8015057012761964
3644.1812,6.57559132053779,0.82038376308067
3645.0195,6.546701211133133,0.8368930501464513
3645.86,6.518861944035809,0.712894808997405
3646.699,6.500066824267587,0.7689473352269356
3647.5398,6.49474277139496,0.8468321195210246
3648.379,6.501530185088539,0.9814847256620054
3649.2202,6.514178499608796,0.8402488968989203
3650.0596,6.525041085850545,0.7416479722393742
3650.8994,6.528651642364324,0.9501246011715285
3651.7412,6.522807592883815,0.9229066311858913
3652.5813,6.5082767224876426,0.8157575901687893
3653.4236,6.488159894965779,0.8026152778851765
3654.2642,6.46782214809249,1.0900722031949448
3655.1067,6.453174022609845,1.2880089257536822
3655.9475,6.448068398063364,1.1392023530755473
3656.7886,6.451568678960897,1.0447634082506558
3657.6318,6.458381495190575,0.7977342037960253
3658.4734,6.461866405654821,0.7362943123547527
3659.317,6.457746620757647,0.8908521654484584
3660.1587,6.4456675556168035,1.0756292493271595
3661.003,6.428093235018094,0.9177604707374215
3661.845,6.40838883564789,0.6866230578495833
3662.6875,6.38894836876844,1.263794854831803
3663.532,6.371096968508731,0.8164035510653269
3664.3748,6.355943042790602,0.7634432635704752
3665.2197,6.345077699957213,0.9136757282128362
3666.063,6.340674457544778,0.8258691904295243
3666.9084,6.343519494563215,1.066439382765869
3667.752,6.351159756422215,1.1499544331396003
3668.5977,6.358374999162975,1.1399147936380711
3669.4417,6.360502200214747,0.9346970733292029
3670.286,6.357440559066289,1.0584309121676303
3671.132,6.354339706128499,1.2816842746538883
3671.9768,6.3581490502870075,1.052384838556306
3672.8235,6.372505062976695,1.090041548591883
3673.6685,6.395042998586245,0.7449551781307167
3674.5156,6.419169542175882,0.9018867418133106
3675.3608,6.4374159802075415,0.8528812399108373
3676.2063,6.444839596249361,0.8330848311790396
3677.0542,6.439906646196161,0.7288260493169927
3677.9,6.42455102539778,0.8769765302887949
3678.748,6.403075057281095,0.8568201039484907
3679.5945,6.380486024285453,0.9022987517115021
3680.4429,6.3595977312131104,1.0000694670218941
3681.2896,6.340013926742976,0.8603431326058538
3682.1365,6.319276779868363,0.7702819520398256
3682.9856,6.2964953021767895,0.9074329246468108
3683.8328,6.274699170711069,0.75306870730643
3684.6824,6.258903598848084,0.8620098958913854
3685.53,6.252704423395091,0.883315931263874
3686.38,6.2557619526489585,0.7184570236575323
3687.2278,6.264896328813808,0.8757844331114515
3688.0762,6.276423478388473,1.0358185264812103
3688.9265,6.287589507144908,1.0201564819658313
3689.7751,6.296695679107484,0.7487187731247199
3690.626,6.302897781223586,0.8224356809126012
3691.475,6.3055540282664015,1.1310926461469597
3692.3264,6.304162740183801,0.8934661093352032
3693.1758,6.298954399727677,0.8314193542227986
3694.0254,6.291676703445768,1.077427575468286
3694.8772,6.285026278040233,0.9098905134054447
3695.7273,6.2806395157336805,0.7530399631139305
3696.5793,6.277488425556273,0.8934596785044144
3697.43,6.272899058864539,1.0345905396656765
3698.2825,6.264863309332623,1.0187781516278858
3699.1333,6.253173883675158,0.8490845583736726
3699.9841,6.237869628679776,0.8450948730178993
3700.8374,6.217331212332182,0.9881894987778072
3701.6887,6.189049456799078,0.779065785321105
3702.5425,6.152468424856839,1.0808496556766058
3703.3943,6.112434624102581,1.1146538776982262
3704.2483,6.077487463929649,1.088088955564681
3705.1003,6.055595831962182,0.9774696297020757
3705.9526,6.048419858178271,1.1340703619542927
3706.8074,6.050579310335117,1.0358724609940075
3707.66,6.053182065540797,1.0431100871340828
3708.515,6.049387831320208,0.9577935503658929
3709.3682,6.037802209335913,1.0261862098054482
3710.2234,6.021982297607134,0.9345841593955764
3711.0771,6.007720685968105,0.9843725882104887
3711.9307,5.999797933594437,0.9098043195020674
3712.7866,6.000117633294104,1.2013152926033779
3713.6409,6.007003727104461,0.8502230228498122
3714.4973,6.016054643282576,1.0697527732242558
3715.3518,6.022152792377384,1.088226722997231
3716.2085,6.021663168063218,0.9214373634982667
3717.0635,6.01322360125464,0.918402757407956
3717.9185,5.99765871461755,1.1422068452134864
3718.776,5.977670544514831,0.9499033965506578
3719.6313,5.957569283617019,0.857269927421868
3720.489,5.9413161086020025,0.989299942379912
3721.345,5.930722188202225,0.9872466360424571
3722.2031,5.924614939158981,1.0464402082140227
3723.0593,5.920999525204669,1.038884526140083
3723.9158,5.919231336091825,1.2197549549905813
3724.7747,5.920059854249134,1.2072095605937778
3725.6316,5.923704702176046,1.0873654544702895
3726.4905,5.928786384786771,0.9546791203859106
3727.348,5.932913897165706,0.918304281176201
3728.2073,5.933691194564725,1.1768360351451128
3729.065,5.9291184364309855,0.7843237853368503
3729.9229,5.918124889205346,0.7851395608788937
3730.783,5.901136247292359,1.1409980718623727
3731.6414,5.880260222995279,1.066160161179632
3732.5017,5.858338955516196,0.9456378837108884
3733.3604,5.838580768300577,1.1879869491538875
3734.2214,5.823571809105209,1.1475644383094616
3735.0803,5.814813901431903,1.0897985760202027
3735.9417,5.81191283704319,1.091392824317593
3736.8013,5.813144004772176,1.0383647505439986
3737.661,5.816223063162416,1.192836507356717
3738.5227,5.81888233091044,1.2355181744611918
3739.3828,5.819192384719115,1.0381632353274244
3740.245,5.816464108562616,0.9467129718307487
3741.1055,5.812107882319029,1.2170764187405618
3741.9683,5.808960139758214,1.2874753068507707
3742.829,5.809078527282553,0.9334035853923915
3743.69,5.811816464623602,1.0635158866234424
3744.5532,5.814371232599771,0.9941798828979221
3745.4148,5.814138596546695,0.9968487337700616
3746.2786,5.81066194025824,1.1752946048661614
3747.1404,5.805511703435631,1.1171224196325995
3748.0044,5.800725070784538,1.0686904643905664
3748.8667,5.79752908189893,1.2532312828892886
3749.729,5.795653787379266,1.1749565019810726
3750.5938,5.793398742116914,1.0352334659655518
3751.4565,5.788417634708159,1.0080092022119107
3752.3215,5.779095929576507,1.0965197863188814
3753.1848,5.765830977685897,1.367603057102839
3754.0503,5.75074698645558,1.1213845065642631
3754.9138,5.736555335689366,1.388674663291714
3755.7776,5.724855013021461,1.219452147362933
3756.6438,5.715744285761955,1.0124677555030417
3757.508,5.7082039088826395,1.097716409016644
3758.3745,5.70050578612717,0.9806494225152661
3759.239,5.691080730035901,0.9394920983271523
3760.106,5.679309146769026,1.2523302092361186
3760.971,5.666200470171216,1.1323034343743197
3761.8362,5.653393383740569,1.300765181716625
3762.7036,5.641852407459684,1.1297774391217337
3763.5693,5.631409652674046,1.3172828146328024
3764.437,5.621083069205842,0.9941134301810698
3765.3032,5.609689119285145,1.0871533179853643
3766.1714,5.595632262785763,1.1686693896622649
3767.0378,5.577478120748896,1.1377658525686536
3767.9043,5.5549781625832,1.2374499824681688
3768.7732,5.529975682451132,1.0230388413049476
3769.6401,5.505782809295233,1.2129948500533643
3770.5095,5.484647319653996,1.4780616688466213
3771.377,5.467113799530699,1.171726643861131
3772.2466,5.452575803461534,1.17003727931583
3773.1145,5.441156200168918,1.2342038667110888
3773.9824,5.433668492616073,1.0613594901676728
3774.8528,5.4308662948897695,1.2276593589914668
3775.721,5.432935389742825,1.442164525594287
3776.5918,5.439763158637279,1.3908954386348575
3777.4604,5.451140477635426,1.280752090219519
3778.3315,5.466564528766421,1.1117223901590016
3779.201,5.484414667890924,1.3729413751603774
3780.0703,5.502077285247543,1.1805395217302543
3780.942,5.51674853549152,1.1333819588070801
3781.8118,5.52678923080978,1.2175109383836191
3782.6838,5.532712457710039,1.3736206890657139
3783.554,5.536380626400724,1.0982336650456115
3784.4265,5.539883985221325,1.0220592775137187
3785.297,5.544597356138155,1.2397855392796697
3786.168,5.55073272815602,1.1596340725279604
3787.041,5.556795656355668,1.2521487588426286
3787.912,5.559646449888869,1.271894759170634
3788.7856,5.555971115147177,1.3093866446485276
3789.6572,5.5439008718501555,1.1001038804434256
3790.531,5.523062046913819,1.2939399021441398
3791.403,5.493636041639967,0.872974101849076
3792.2754,5.455658328658826,1.091266587903387
3793.15,5.4102748937478955,1.3282680669971247
3794.0225,5.361335594039846,1.656479438390062
3794.8972,5.31396468279893,1.2859110156315323
3795.7703,5.2732363084242655,1.3323329904878967
3796.6455,5.241471849053808,1.192158456201207
3797.519,5.218584537414652,1.2877847280993737
3798.3926,5.2026286117190255,1.3506744901740344
3799.2686,5.191747102584955,1.3314167042817082
3800.1426,5.185593329336794,1.407272860113791
3801.0188,5.1856092306588,1.3963466301692866
3801.8933,5.194276237925017,1.3917800852134923
3802.77,5.213152731002768,1.4781122202299133
3803.6448,5.2407079550088485,1.258324766238257
3804.522,5.2724699432069935,1.4524671089839516
3805.3972,5.3029288719041165,1.3943714781203056
3806.2727,5.329371603177729,1.1571491449847713
3807.1504,5.352756839775544,1.5039631008115
3808.0261,5.375488920070687,1.232975613672798
3808.9043,5.398767610851043,1.423550986505059
3809.7805,5.421259970580381,1.1277927009151878
3810.659,5.441175447409553,1.098652462777881
3811.5356,5.45752666770787,1.2624747313405165
3812.4126,5.470250885898547,1.3874301314029251
3813.2917,5.478709805866964,1.1263821477604674
3814.169,5.481322470260627,1.3914644913376133
3815.0483,5.477167768188058,1.3343454544353164
3815.926,5.4679171577934005,1.0418772035197197
3816.806,5.457823937714785,1.342107175031691
3817.684,5.450947053525934,1.4775662244370555
3818.5623,5.447288946393542,1.1901984845450848
3819.4429,5.442065090763014,1.2497726817184645
3820.3215,5.42903648523752,1.2929361243532664
3821.2024,5.4048038081762515,1.2605856882162616
3822.0815,5.370697507225696,1.124250788830065
3822.963,5.330572582399073,1.3313055826815516
3823.8423,5.288720180251079,1.0868765577269022
3824.722,5.24778609596164,1.3846521485631118
3825.604,5.20865555280365,1.338129963490422
3826.4841,5.1706781059304685,1.1607857767271288
3827.3665,5.13166913978012,1.3373403004021185
3828.2468,5.090365783529116,1.406498779286171
3829.1296,5.047082833855379,1.485749083469478
3830.0105,5.004049838175867,1.3559000983603293
3830.8916,4.962837859672541,1.2285066504370794
3831.7751,4.923561416655908,1.3701417104944091
3832.6565,4.885575568458231,1.6640064151544107
3833.5403,4.8478118436404785,1.7705083374344295
3834.4224,4.8104248926103805,1.3749529181798157
3835.3064,4.774724878356603,1.4504337380662247
3836.1887,4.743983942642365,1.6545354561136016
3837.0713,4.722050266806866,1.6137968513912868
3837.956,4.712040617403144,1.4967264451460192
3838.839,4.715175275492311,1.7114316732986605
3839.7244,4.730944286131299,1.5820085298200968
3840.6077,4.758213209675491,1.7207381361430942
3841.4932,4.7961579663875415,2.038627573769773
3842.377,4.843130179312056,1.4987659483691045
3843.261,4.896033466840788,1.591389029675539
3844.1472,4.94997025530634,1.6253646800897334
3845.0315,4.999432403519057,1.2708370517125904
3845.9182,5.041884548880055,1.2862409312287584
3846.803,5.078849667720187,1.1921195179819561
3847.69,5.116128079443546,1.4040027887829836
3848.5752,5.159375546455244,1.4027728557827681
3849.4604,5.210239128091427,1.5025441485444193
3850.3481,5.264424913663888,1.2403082534672187
3851.234,5.313609452139894,1.4509182513538421
3852.122,5.351267363264719,1.2717888763578953
3853.0083,5.375572836962234,1.2125377249809963
3853.8967,5.390124369916382,1.213290123194799
3854.7832,5.399866293392778,1.1379578241515709
3855.6702,5.407219452694882,1.2114944304721171
3856.559,5.410665841001266,1.2831415562854513
3857.4463,5.407430923811807,1.2511306925433794
3858.336,5.397416400056831,1.3183720561346768
3859.2234,5.38460275321584,1.3723169391167551
3860.1135,5.374454065369385,1.2156205926216945
3861.0015,5.370457959232233,1.1830229979820241
3861.8896,5.372154572475001,1.2062451308366842
3862.7803,5.376191428444785,1.3939542111786676
3863.6687,5.378423200597761,1.2843351921063533
3864.5598,5.375827421984689,1.383354808324902
3865.4487,5.367303095201892,1.26772482413313
3866.34,5.353299499386837,1.264514153401312
3867.2297,5.3349979764214694,1.1061798311915823
3868.1213,5.313319730592135,1.1247880007312137
3869.0112,5.289121911366155,1.1564030345653924
3869.9014,5.262800274978724,1.1131501994160788
3870.7937,5.233769197896138,1.0969978385329
3871.684,5.200425225408663,1.2577869898283405
3872.577,5.160853824155945,1.1863408083883416
3873.4678,5.11540635695666,1.7113281351073084
3874.361,5.066495437767094,1.5480609010203232
3875.2524,5.017917821694197,1.5736997358143612
3876.1438,4.9716237983667115,1.9423006293304608
3877.0376,4.926697432920722,1.4911765584566987
3877.9297,4.880574811847203,1.5631522320680422
3878.8237,4.830686012225512,1.3826271765750833
3879.716,4.776692056212679,1.683064688884245
3880.6108,4.718533594821592,1.5414195558092307
3881.5037,4.655449359542531,1.6902669571762425
3882.3965,4.585157803071331,1.6751589142082748
3883.2917,4.506612217982447,1.5526311890765039
3884.185,4.422544821211738,1.9242711631107232
3885.0808,4.336947774409742,1.9511154387474179
3885.9746,4.253772830857896,2.1756401255863067
3886.8706,4.17388084475841,2.0766078789331557
3887.765,4.098167962271401,1.8411797928658997
3888.6592,4.02912261010365,2.867962662386323
3889.556,3.9722498349984807,2.3808625393272944
3890.4507,3.9344393831943654,2.576541103391649
3891.348,3.919995183077701,2.293147357334539
3892.243,3.9297069977667323,2.310834782353644
3893.1406,3.9610431983064767,2.6231150676131634
3894.0361,4.009295132995317,2.393868497099505
3894.932,4.069221373515634,2.283764548553023
3895.83,4.135969365583102,2.149646290837054
3896.7263,4.205478780274251,1.8042413510053277
3897.625,4.276108846196509,1.8797550151024434
3898.5215,4.346723491758745,1.8592310903619564
3899.4207,4.417163928425427,2.1268446386775564
3900.3176,4.486626415461361,2.172090624210796
3901.2148,4.555908607715831,1.5652024434426195
3902.1145,4.627075583911119,1.5698175367866318
3903.0122,4.701223872654255,1.828656408237672
3903.912,4.777337166146767,1.6879444965095878
3904.8103,4.850915654760427,1.6172859214238744
3905.7107,4.9183954537715815,1.5911064084358608
3906.6094,4.979351930265485,1.317139311409092
3907.508,5.0377430617050525,1.4461857727308047
3908.409,5.0980447593236375,1.6105505491766678
3909.308,5.16088952924419,1.5068986477756607
3910.2097,5.223058046528984,1.2324975899107706
3911.1091,5.278766575740423,1.2696676858536893
3912.011,5.324108169565165,1.2443432141595951
3912.9111,5.357639319306774,1.2279683800800287
3913.8113,5.381184163720732,1.1846426235513732
3914.7136,5.398800772866099,1.3062340159117638
3915.6143,5.415657303511869,1.3809085820830596
3916.517,5.436458448726131,1.256918666301724
3917.4182,5.463066568681932,1.22406596821614
3918.3215,5.494239293744527,1.2212192865112783
3919.223,5.5266890443426515,1.1041179327720327
3920.1245,5.558005012328988,1.1243378199504648
3921.0286,5.58764269100842,1.1392781564026209
3921.9307,5.615791776084925,1.0794757606982586
3922.835,5.642045390332912,1.1650599470626612
3923.7373,5.664281451574955,1.2161051091079544
3924.642,5.680541421407506,1.1738977756461313
3925.5452,5.69062944115418,0.9774558662642989
3926.448,5.6967482885387914,1.2436685739283218
3927.3535,5.7014202580431785,1.133277049316439
3928.257,5.705174612841665,0.9622879582470678
3929.1628,5.706497594589994,0.9752004498178101
3930.0667,5.704045900911921,1.188424339791443
3930.9731,5.69885501018031,1.095986574534453
3931.8774,5.694054268877406,1.1121924269231112
3932.782,5.692068378982246,1.1233972925582998
3933.6887,5.69204243583258,1.2405859914124084
3934.5938,5.689662770410577,1.178363413559237
3935.501,5.67971552234743,1.2163384540138211
3936.4062,5.659589178777982,1.0230770143130838
3937.3142,5.630828820707485,1.2287026944302841
