wavl,flux,ivar
3566.9744,1.8029972936496428,321.7728168965462
3567.795,1.798898509339943,263.61027295185966
3568.6177,1.7950257884365917,299.9520873809516
3569.4385,1.7910586963533162,303.93988355396425
3570.2617,1.7868134356667487,302.17202883114726
3571.083,1.782801541917509,296.84401043718
3571.9065,1.779953771177208,285.49148399753716
3572.7283,1.7790914159573115,344.2767895166283
3573.55,1.7804631362033303,259.2092876254958
3574.374,1.7837515604575118,267.6307260074965
3575.1963,1.788138163329072,289.3243685130007
3576.0208,1.7924793921589233,385.11368602392423
3576.8435,1.7954723456169837,267.0972533001689
3577.6682,1.7961915168295357,331.9844227999768
3578.4915,1.7945318568465602,258.8123437327389
3579.3145,1.79123417605246,290.69243489412526
3580.14,1.7871793732308017,261.9109533630342
3580.9636,1.7826977864618851,268.3350550499003
3581.7893,1.7775443571082223,251.76519746272544
3582.6133,1.7717973381790657,325.2626435271308
3583.4395,1.7663522774683524,295.04587272973953
3584.264,1.7626268288154456,371.76438115932376
3585.0884,1.7614657654188035,362.4667337013236
3585.915,1.7625462843284292,327.35477614048915
3586.74,1.7645505836830544,295.5486831832263
3587.5671,1.7659500256963767,289.9858737170689
3588.3923,1.7657193435542204,343.3540258222653
3589.22,1.7636880286121803,273.3805389255231
3590.0457,1.7604446924216528,323.55288400649084
3590.8716,1.7568953819216908,330.1375202222978
3591.6995,1.7538010720194066,353.5577887013566
3592.526,1.7515551522840662,320.1280889240592
3593.3542,1.7502070778187975,265.9046001831988
3594.181,1.749650264556208,296.86881294911404
3595.0098,1.7496110536664395,259.62877965611364
3595.8367,1.7496092833108836,337.3336559486721
3596.6638,1.7490888352188998,319.5492895376259
3597.4934,1.7477824125173278,322.98756024797217
3598.3208,1.7460115063709252,339.48442053064406
3599.1506,1.7444703670983601,341.3943516945436
3599.9788,1.7436817775472195,329.1774165825276
3600.8088,1.7435854876245853,320.04546240340056
3601.6372,1.743751160603517,392.3257476787627
3602.4678,1.7438667130331036,336.2110194482861
3603.2964,1.7439744256598748,383.2685608363103
3604.1252,1.744301879670315,296.25260119102813
3604.9565,1.7449668008657604,278.6474705008673
3605.786,1.745789503003183,275.77484915463907
3606.6172,1.7462604778650013,331.52838282779317
3607.447,1.7456315220506067,279.2306447551944
3608.2788,1.7432785846302805,292.3579869250393
3609.109,1.7392893359277508,332.757549494175
3609.9392,1.7347495920868505,336.829282919281
3610.7717,1.7312893234019966,329.7526333200523
3611.6023,1.7299794394847738,284.0151709204343
3612.435,1.730394453126364,324.7348091571621
3613.266,1.7308364638611877,307.17645582091683
3614.0994,1.7294652196314517,319.6159247925062
3614.9307,1.7254493364598373,289.25373724867086
3615.7625,1.7192971036587585,287.99797737343914
3616.5962,1.7124016688450525,311.4535363897547
3617.4282,1.7063157919438323,388.32880599153975
3618.2625,1.7019766113234132,358.28828827076796
3619.0947,1.69952117242125,313.15632988029995
3619.9292,1.698439778470855,371.03476570624514
3620.762,1.6981789318960485,322.08631254504695
3621.595,1.6984275816558745,434.26824257292276
3622.4302,1.6989107769089016,380.07885679956473
3623.2634,1.6990220388644182,318.5379429150724
3624.0989,1.697931898693386,316.23163240184516
3624.9326,1.6951849976847215,356.97711060236026
3625.7686,1.691197058075944,312.13542237282803
3626.6028,1.687278259031284,270.35635464962695
3627.437,1.6850500557036296,407.29707156060744
3628.2734,1.6858213911892248,326.79261716066725
3629.1082,1.6900628642027922,317.6114934213197
3629.945,1.6972023313467586,359.2628750971491
3630.78,1.705668910028466,326.94608781334045
3631.6174,1.7135599082320598,361.21321341521207
3632.453,1.7192676068071984,357.9690267124161
3633.2883,1.7221688026978168,310.77940428852474
3634.1262,1.7224584707233659,365.03087201833586
3634.9622,1.7206634236886547,347.7739498258221
3635.8005,1.7172784728594206,341.53208865185616
3636.637,1.712872203383291,331.18871182210853
3637.4756,1.7082046638306279,384.27292463411646
3638.3123,1.7041639242548368,267.541558277762
3639.1492,1.701311463777611,310.59176413292516
3639.9885,1.6997353849556722,299.87338140863915
3640.826,1.6991501941725657,304.2816406894664
3641.6653,1.6990434429721166,371.55621261366235
3642.5032,1.6988576784804552,362.84752818234097
3643.343,1.6982803961171378,295.51014816443256
3644.1812,1.6975670830814353,348.2521120539832
3645.0195,1.69742199522059,360.3730767498901
3645.86,1.6983198255833198,362.1235969879155
3646.699,1.6998002527545684,289.74083001058455
3647.5398,1.7005470801491438,301.3377436338046
3648.379,1.6992461791951536,330.39071896443966
3649.2202,1.6954569047903465,336.9044318899286
3650.0596,1.689773618616077,348.46653596446635
3650.8994,1.6832792476193845,333.39225975624487
3651.7412,1.6771337139111455,421.80935137424393
3652.5813,1.672501051675963,315.65635877639244
3653.4236,1.6703344485963625,376.8145486594982
3654.2642,1.6710157190128434,304.2032127214811
3655.1067,1.6739084689999644,344.3456232448697
3655.9475,1.6775309590200682,297.21278759293523
3656.7886,1.6803830996289826,293.2542801478542
3657.6318,1.681709538431413,356.1489829019301
3658.4734,1.681677719164561,336.5214979952984
3659.317,1.6809842928000418,379.8907362024694
3660.1587,1.680354565960316,353.68365118544034
3661.003,1.6803058028194027,323.8394173259028
3661.845,1.6810718704753664,373.0660303960618
3662.6875,1.6824724424351096,338.94109187056443
3663.532,1.6838300380265954,350.051112955229
3664.3748,1.6841448969348876,359.39012496737513
3665.2197,1.6825740000434912,332.5131463242247
3666.063,1.6789148045107463,395.0624974146316
3666.9084,1.6737726658712504,376.13854558148785
3667.752,1.6684160686556841,316.67998830099725
3668.5977,1.6641698566508676,347.14627968709596
3669.4417,1.661958472684091,286.1619360828182
3670.286,1.6619721768786415,353.0051078869298
3671.132,1.6638299373757008,311.9837842566913
3671.9768,1.6668184005556002,322.4962312005876
3672.8235,1.6700904177885965,387.6695290543049
3673.6685,1.6727027293773058,280.7339100222034
3674.5156,1.6738602619100238,311.5343660900868
3675.3608,1.6732213291483393,333.5981375318399
3676.2063,1.6711306503280303,333.41381985858254
3677.0542,1.6684003637866391,349.667252250982
3677.9,1.6658676866374782,310.00371783929586
3678.748,1.6639897178425638,344.7433993809928
3679.5945,1.6628749913881764,392.43530189532447
3680.4429,1.6623588737474455,404.3028994892778
3681.2896,1.66204636680191,339.8656001056944
3682.1365,1.6613604570909928,344.72145064553376
3682.9856,1.6598064683841618,338.6082781297776
3683.8328,1.6572517036841714,355.27570565806445
3684.6824,1.6538707975742155,364.08280851452037
3685.53,1.649995062622975,421.4268245258372
3686.38,1.6459357670679367,337.05648664901196
3687.2278,1.6420260452752935,360.4675723194682
3688.0762,1.638477175625024,350.4305386234454
3688.9265,1.6353864417703998,344.7613619577603
3689.7751,1.6328679250980636,410.5443680878348
3690.626,1.6311358758510721,400.58237119556406
3691.475,1.630484209351642,314.40097887229894
3692.3264,1.6310461520744075,380.5167576970965
3693.1758,1.6326265298567204,314.1955876146439
3694.0254,1.6347118457221756,357.5782545401685
3694.8772,1.6367257557315809,319.95582942491944
3695.7273,1.6383686119534804,346.3609814819482
3696.5793,1.6397361713240775,321.43208117428276
3697.43,1.640922422773975,414.86867432576304
3698.2825,1.6416193448698153,376.02725868307743
3699.1333,1.6412292770782455,344.47405809937396
3699.9841,1.6395504461494852,328.9928480969088
3700.8374,1.6372389796826234,344.8443371863225
3701.6887,1.6355021130586271,346.5815281506665
3702.5425,1.635140513711692,349.3796191529459
3703.3943,1.635920944218899,366.07422364411957
3704.2483,1.6367434817410644,371.28126838236756
3705.1003,1.6364169522780878,330.54160922857227
3705.9526,1.6343688300629515,288.8424233210924
3706.8074,1.6308224984385036,405.7734418449386
3707.66,1.6266251519989277,311.4173624056749
3708.515,1.6227946659626067,393.8720051464466
3709.3682,1.6201674986713719,372.4302297189232
3710.2234,1.6189486176903485,366.01823457364804
3711.0771,1.6186585621220133,378.0047262960669
3711.9307,1.6184359683587015,355.91835567383384
3712.7866,1.6175453498711552,367.5393820375043
3713.6409,1.615645017618611,414.89641254924953
3714.4973,1.6127274806655914,321.7677910525565
3715.3518,1.6090536255302,396.18829001436444
3716.2085,1.6050121186591786,405.39034823728394
3717.0635,1.6009833269022344,362.96901313403544
3717.9185,1.5970679280742888,416.29566636552585
3718.776,1.5932476879892574,321.70397544876545
3719.6313,1.5898832132755378,345.57829539809967
3720.489,1.5878360101670574,380.9064453256882
3721.345,1.5879860636791971,413.03519859288934
3722.2031,1.5903660836987097,414.29402699306576
3723.0593,1.5939196784438145,419.1619663035376
3723.9158,1.5971933712406112,345.19718211537327
3724.7747,1.5992648515874672,335.90898795874745
3725.6316,1.6001642571436492,379.7461694880589
3726.4905,1.6006097510643147,345.2412921997089
3727.348,1.6013369706339522,403.87297393590507
3728.2073,1.6025938565443913,336.0716448302851
3729.065,1.603958829220864,338.39291098978384
3729.9229,1.6045763902466013,334.07679722151335
3730.783,1.603657577110556,418.2919507982403
3731.6414,1.6010425038090221,412.3497735043963
3732.5017,1.5973793805508691,399.6381882270266
3733.3604,1.5938119158716189,383.55225278677773
3734.2214,1.5912706379485047,394.0788771891916
3735.0803,1.5900966262229057,378.90547250239035
3735.9417,1.5900869110485616,389.58315050373346
3736.8013,1.5909168522056065,348.118239628278
3737.661,1.5923454992424533,350.9914534262742
3738.5227,1.5940922251530585,415.47930816017873
3739.3828,1.595625395859403,357.3275241079617
3740.245,1.5962589648319068,342.7258588547204
3741.1055,1.5954448054377448,348.2374052592967
3741.9683,1.5930547697731698,377.0583624691211
3742.829,1.5894499994657878,309.8842753697163
3743.69,1.5852853833719864,417.6075076331676
3744.5532,1.5812705982705835,372.76522333585064
3745.4148,1.5780300257164648,318.4845142426057
3746.2786,1.5759768852888538,360.151164838092
3747.1404,1.5753078930414823,445.2353908397408
3748.0044,1.5758384694179957,474.3088302792973
3748.8667,1.5770511954218067,361.84538323334186
3749.729,1.578514516126584,398.8086752507864
3750.5938,1.5803828577086878,409.5730020907695
3751.4565,1.583324438219694,436.71801229968673
3752.3215,1.5878341603705401,418.35084340671153
3753.1848,1.5934356814057433,353.10252146740834
3754.0503,1.59873938707461,330.8653869054508
3754.9138,1.6020781591908895,466.80706894180815
3755.7776,1.6024667750287716,336.10899858429343
3756.6438,1.5999865996984781,334.8051838841615
3757.508,1.5956930664011013,382.4027618982228
3758.3745,1.5909986824506364,391.8848797154759
3759.239,1.5870826514223988,411.9126980100593
3760.106,1.5844000661804294,389.27796407008253
3760.971,1.5827395880564659,378.3484074477607
3761.8362,1.5814645104459568,415.39459097933667
3762.7036,1.579911797902444,343.9188373074988
3763.5693,1.5776532245168,376.40830963614684
3764.437,1.57456255411609,402.0812855774773
3765.3032,1.5708535760565283,376.7489212980236
3766.1714,1.566969083143759,395.54607704665136
3767.0378,1.5634680827456686,385.0553288193593
3767.9043,1.5607495342974564,454.6504072917067
3768.7732,1.5589796266796758,437.24104544196894
3769.6401,1.5581712423501062,407.0690971448892
3770.5095,1.5582276312203784,388.27041930189165
3771.377,1.558895637114584,357.5314419557828
3772.2466,1.5597063415782881,387.60847845999916
3773.1145,1.5601375072043289,335.6768663224393
3773.9824,1.5599402695681892,446.283592667755
3774.8528,1.5592457085506422,385.10704913154535
3775.721,1.5583563412362837,423.73528592175387
3776.5918,1.5574759072417277,375.38039296185883
3777.4604,1.5567634875220417,377.34697885299965
3778.3315,1.5565282290379479,387.54413786372874
3779.201,1.5572349537686934,370.39336006164524
3780.0703,1.5591851051236938,421.36269166644684
3780.942,1.5622750983105937,416.9908229951329
3781.8118,1.5660564755210193,372.16543766978697
3782.6838,1.5700606168493334,318.3828506547118
3783.554,1.5738144096251176,397.7452911837257
3784.4265,1.576741325415968,367.7486325286104
3785.297,1.5779833038809217,380.2626485001066
3786.168,1.5766523698066996,415.2063215621861
3787.041,1.5722198367306806,388.54087032098454
3787.912,1.565002845934994,467.47665829068524
3788.7856,1.556198613035041,369.5921569642125
3789.6572,1.5476184362582541,405.77196819687845
3790.531,1.5406933512660637,365.5125285812395
3791.403,1.5358694746832404,447.83124798884467
3792.2754,1.5324248957631343,402.3454045186348
3793.15,1.5291984514521266,395.2627781564464
3794.0225,1.525362019130528,367.61433528257925
3794.8972,1.520558208411527,441.05305153637306
3795.7703,1.5147232237137502,417.9419107307737
3796.6455,1.507988798247318,399.38611801433626
3797.519,1.5012103167589967,463.68215573795203
3798.3926,1.4960347402655227,402.70019893497897
3799.2686,1.4942550693822851,441.25004522432346
3800.1426,1.496670600349854,434.7701603703408
3801.0188,1.5025367687185383,418.06456455816874
3801.8933,1.5100729360938703,428.551640491264
3802.77,1.5176134267656678,378.304936749083
3803.6448,1.5242294581408427,375.9857427165531
3804.522,1.5298998232505512,420.0145592752225
3805.3972,1.534921270804925,479.39382330666524
3806.2727,1.5395156898408697,401.2180904764308
3807.1504,1.5436001347301678,393.47801461882835
3808.0261,1.5469329199898452,370.44749805348863
3808.9043,1.5494420827500412,484.5545371678927
3809.7805,1.551277210156606,347.86229706609697
3810.659,1.552789050322954,424.8864684302924
3811.5356,1.554329745431165,391.30133213452035
3812.4126,1.5561350674629912,382.6678752996165
3813.2917,1.558248796608734,369.7720815617659
3814.169,1.5605097972401016,354.837989407925
3815.0483,1.5626193993409776,412.03038455496534
3815.926,1.5641675450600496,361.0352322192549
3816.806,1.5648071475331293,347.337451205999
3817.684,1.5643735912355141,401.78237487165825
3818.5623,1.5628622026039907,381.1132716382433
3819.4429,1.5601743475585097,409.6967401754936
3820.3215,1.5560071358273815,419.77202895910324
3821.2024,1.5500199478394359,362.4916895456147
3822.0815,1.5423252431021028,405.57212409671854
3822.963,1.5335154057820548,425.3879807034924
3823.8423,1.5244628208489266,417.4742284500438
3824.722,1.5156871228659272,370.73010498600627
3825.604,1.507204919942232,424.3309765078609
3826.4841,1.4988002415745478,430.09157130547203
3827.3665,1.490277020433256,443.5138858924103
3828.2468,1.481830275851825,446.330240181139
3829.1296,1.4737142256332043,516.8850745112061
3830.0105,1.4660262718052517,430.6188216477344
3830.8916,1.458362295703175,447.0829192359677
3831.7751,1.4500994788332813,365.22811161745904
3832.6565,1.440984152198124,512.0520715755687
3833.5403,1.431396682925546,471.7247417286723
3834.4224,1.4225342146849576,529.8396316996677
3835.3064,1.4158719145560221,516.3300791431036
3836.1887,1.4128400705055961,421.41747325829436
3837.0713,1.414340390474076,483.14737156235094
3837.956,1.420537074949899,455.14996977225195
3838.839,1.4306581152440463,548.6666800959974
3839.7244,1.443360943519166,484.8956333042565
3840.6077,1.4571578957602949,439.26562137376715
3841.4932,1.4711938398857383,431.74124281475036
3842.377,1.485133086607113,377.1011644971871
3843.261,1.4990819411772183,437.90347401291694
3844.1472,1.5130350440002567,417.77485456240237
3845.0315,1.5264380612700588,377.0394630361721
3845.9182,1.5384576818473346,345.05191527125737
3846.803,1.5482698615392625,372.1847783027197
3847.69,1.5559545404038027,414.038437144404
3848.5752,1.5623945548264317,353.19549379232586
3849.4604,1.5686766422131975,426.5585545842863
3850.3481,1.575188078997242,382.6736204693451
3851.234,1.5814796832173605,350.6387594234331
3852.122,1.5871012980120818,350.38500816683535
3853.0083,1.5921237343490455,393.60349195235545
3853.8967,1.5970522479152593,372.39677770799284
3854.7832,1.6019707265874321,360.52755245642885
3855.6702,1.6062760493713284,343.9636292868474
3856.559,1.6091535697485988,316.7630516474349
3857.4463,1.610403447460866,365.67092460587054
3858.336,1.610696213815987,404.43751546545525
3859.2234,1.610939969533413,328.48326138742175
3860.1135,1.6115075414025435,374.7602730671359
3861.0015,1.6120007576545305,357.1609704171205
3861.8896,1.6116794988119576,365.27915319269607
3862.7803,1.610010959596683,358.41366388316044
3863.6687,1.6069273178502943,407.6144339066552
3864.5598,1.6026486536154523,352.37513830683343
3865.4487,1.5974952332835601,348.2529149947354
3866.34,1.591666266870039,348.8380003149173
3867.2297,1.5853553173125183,365.2983900604521
3868.1213,1.5786786069195424,371.1098536322429
3869.0112,1.5717438357178886,403.2378019023106
3869.9014,1.5645000197658514,383.79115140987676
3870.7937,1.5567820759753213,412.126370983696
3871.684,1.548395248861188,386.6423484538272
3872.577,1.5389643562290243,351.47527189907345
3873.4678,1.5281231455940176,447.04665442331356
3874.361,1.5155359349372186,400.7170483835407
3875.2524,1.501419467449666,404.45425826782997
3876.1438,1.4864013536204503,477.894329037217
3877.0376,1.4712692887029457,503.37312323535957
3877.9297,1.4566665362052162,474.05331023743656
3878.8237,1.4426419733007505,405.1391987299727
3879.716,1.4289511682747844,522.6645600693432
3880.6108,1.4149824168383984,490.2598920617081
3881.5037,1.4002192249898013,433.7644239397219
3882.3965,1.3841993221935895,548.9464623041289
3883.2917,1.366661848724585,562.9386128500357
3884.185,1.3476865821954331,471.467719546687
3885.0808,1.327466103866726,576.0170234665754
3885.9746,1.3068862161381358,580.9243170907008
3886.8706,1.2872448304664905,491.7949350464475
3887.765,1.270417065111252,647.8326819316703
3888.6592,1.258099200374083,678.2040766696764
3889.556,1.2515154462717168,617.5722603580753
3890.4507,1.2512297417915468,592.7951311619789
3891.348,1.257168855266809,639.4541399349571
3892.243,1.268845458979578,589.1364464071582
3893.1406,1.2855287300917313,568.7856579173449
3894.0361,1.3058818082148946,585.512293136859
3894.932,1.3283286691318033,609.2384068466152
3895.83,1.3514157686280193,475.9539578424286
3896.7263,1.3741781858447628,514.4751716407133
3897.625,1.3966623566564873,506.4474802075033
3898.5215,1.4190549276607491,524.0396582147008
3899.4207,1.4415530221796722,542.140371138831
3900.3176,1.4635702526962773,460.2691199824839
3901.2148,1.4843145326352079,469.154251218214
3902.1145,1.5030090110809873,495.06888981137655
3903.0122,1.5191498578124958,402.016395306518
3903.912,1.532969681820846,447.9248127490992
3904.8103,1.5451253133330485,369.0663115446227
3905.7107,1.5568051935871348,376.0099560375229
3906.6094,1.5691701216586347,407.80672105818024
3907.508,1.5830455201106564,403.7203132667801
3908.409,1.5985014619756024,384.2285355013319
3909.308,1.614764848622323,428.0234963503608
3910.2097,1.6308936414673545,348.2573394373387
3911.1091,1.6459798736699003,337.78487599367924
3912.011,1.6596766334005373,314.4772870369241
3912.9111,1.671781016641232,359.56125809636757
3913.8113,1.682286487586686,313.97893332555583
3914.7136,1.6912905677882981,306.7914180115605
3915.6143,1.699058991339013,331.6804539451109
3916.517,1.7060961993893415,355.0666157781785
3917.4182,1.712727646675746,327.817112073903
3918.3215,1.7190558281693347,329.71547071812165
3919.223,1.7249809302972405,332.65183851411587
3920.1245,1.7304988045337855,328.31625515646493
3921.0286,1.7355972127980492,270.37088886040584
3921.9307,1.7400470299531308,320.5210087855741
3922.835,1.7435530203183889,328.5514582309928
3923.7373,1.7459932280615857,305.0735821025223
3924.642,1.7476346351352212,272.10497333409626
3925.5452,1.7488393514194152,333.23832508378547
3926.448,1.7497730269635996,340.32953700519545
3927.3535,1.7504083938750241,300.068230982913
3928.257,1.750789828594395,314.6012003205783
3929.1628,1.7510995592305323,340.4821946605068
3930.0667,1.7513433045867957,349.2487470656015
3930.9731,1.7511303638616946,286.47491538915256
3931.8774,1.7499474159488628,312.69384243232855
3932.782,1.7476842939575716,304.5077421404258
3933.6887,1.7447733429615855,280.1478083623738
