wavl,flux,ivar
3566.9744,2.41401159654237,118.98922231973788
3567.795,2.4196008062090364,183.85020357928477
3568.6177,2.4271346711962494,109.46760950091709
3569.4385,2.435253636992923,177.17380326971352
3570.2617,2.4429086013896297,103.43292232264689
3571.083,2.4497531056296897,182.9227231531265
3571.9065,2.455694281460024,124.36784370489804
3572.7283,2.4596394593945243,190.51497097004935
3573.55,2.4598070215850867,79.87287349399577
3574.374,2.4553783410481778,93.63882886871387
3575.1963,2.4477942300741375,175.1769057883401
3576.0208,2.4398670822983304,125.60176851892297
3576.8435,2.43388421512419,258.84009718890553
3577.6682,2.4302274443053387,216.89055731253185
3578.4915,2.4279498032074045,66.873943123125
3579.3145,2.4261330389431146,117.94142801575975
3580.14,2.4246850221555403,116.40441601370202
3580.9636,2.4237882797690378,183.95734955704253
3581.7893,2.4231204757459586,150.4352233275567
3582.6133,2.422445467998025,104.12819053046435
3583.4395,2.422997095132758,269.8483803419688
3584.264,2.4273263300518546,144.06561374347814
3585.0884,2.4366007952322803,171.38087714897216
3585.915,2.4478598413552843,97.05222736018015
3586.74,2.4544503532829154,78.27638565563296
3587.5671,2.4503368286994083,118.83727315032331
3588.3923,2.434291232355957,145.55311702348803
3589.22,2.4106661783530314,190.8991954924663
3590.0457,2.387132469194021,138.50022681589684
3590.8716,2.3707143380098348,124.63932106863659
3591.6995,2.36545089107124,241.39235965923805
3592.526,2.3713401232007647,175.64986842862035
3593.3542,2.385060163007882,175.28603771936986
3594.181,2.4021933060950227,95.42060585011652
3595.0098,2.4197974895011116,104.13446051532739
3595.8367,2.436577338188844,116.28284671559439
3596.6638,2.4515834488303643,81.07719208143948
3597.4934,2.4624675879586087,100.21073437382823
3598.3208,2.465830292858286,87.88817095169105
3599.1506,2.4595082631203513,249.2221069403014
3599.9788,2.444423589906918,80.79147561604137
3600.8088,2.42476306681957,143.07533049528303
3601.6372,2.406890879954512,93.69449297067568
3602.4678,2.396774927096325,102.4282829583936
3603.2964,2.3974154916251944,155.32850968370334
3604.1252,2.406362529732271,219.78907197914378
3604.9565,2.416400779030932,122.54577425048491
3605.786,2.4199470981323326,110.19946635124867
3606.6172,2.415169441578932,98.19836456027247
3607.447,2.4080900157185217,134.38929863607325
3608.2788,2.4083498397104988,111.67301494101075
3609.109,2.421783635579781,131.91322428723686
3609.9392,2.4458409714173417,214.10288012402046
3610.7717,2.4713785974081377,92.33275327069524
3611.6023,2.4883972025179077,138.15040022854097
3612.435,2.4919270013580075,103.80472512489557
3613.266,2.4833444211581766,133.70456843921184
3614.0994,2.468388570790248,121.22854768369017
3614.9307,2.453844169722703,137.75833788482439
3615.7625,2.444605653143276,165.5337038861678
3616.5962,2.442492438397935,225.3556228516869
3617.4282,2.445930262084219,120.32949030127108
3618.2625,2.45069449185426,98.88265697636317
3619.0947,2.451841577756528,103.38070372453043
3619.9292,2.4464139187899323,124.79953217312269
3620.762,2.435078005186627,82.01514811191169
3621.595,2.4212030004407405,121.23312827695803
3622.4302,2.4082587802764417,108.75613712886407
3623.2634,2.3980877346378136,148.47378479432643
3624.0989,2.391062495705318,97.22967940847404
3624.9326,2.3876106388309397,111.94522926785133
3625.7686,2.3882964678467524,99.45821829108877
3626.6028,2.3928227235376385,84.08617510444388
3627.437,2.399383736124161,103.2062822684457
3628.2734,2.405655990961488,207.13613773413113
3629.1082,2.4106147930750943,84.1368699089658
3629.945,2.4156933408283208,153.98143055162643
3630.78,2.423688171833622,117.2772554598397
3631.6174,2.4363606966619407,147.2257938334532
3632.453,2.4522718220038384,343.7182740912882
3633.2883,2.4676827406174944,115.06559345507077
3634.1262,2.4798079916807994,82.20323745698448
3634.9622,2.4898105103202104,139.18794832705754
3635.8005,2.5023759493710913,153.18891811405112
3636.637,2.5209218578711328,161.40877469827112
3637.4756,2.5438994035607227,75.51077721302283
3638.3123,2.5653651645401574,109.8304870104187
3639.1492,2.580221842676515,110.3726490595487
3639.9885,2.587703399084414,79.91091542035105
3640.826,2.590726304670748,88.1393253402075
3641.6653,2.592577209594001,133.9133673590406
3642.5032,2.59422156423186,67.82971197922598
3643.343,2.5942793689006596,124.86087246931886
3644.1812,2.5906105449516326,95.80128080642473
3645.0195,2.5821435997794895,83.99729982368191
3645.86,2.5700526615574213,131.15932695552593
3646.699,2.5580038725146963,132.21336413443723
3647.5398,2.550637480902754,157.1032088943952
3648.379,2.5513561678676133,75.6783243229812
3649.2202,2.5599990685809346,193.22268214796622
3650.0596,2.5719179527280427,111.16017783934024
3650.8994,2.579181268660166,107.4719839034652
3651.7412,2.573492675267509,94.48680602532383
3652.5813,2.550350843308457,90.28077913019136
3653.4236,2.511850973994489,122.07119235950626
3654.2642,2.466959559042173,120.4913137056981
3655.1067,2.4272760935986923,157.65421396140758
3655.9475,2.402550012466883,131.20152345735121
3656.7886,2.3963237517146325,97.56262777496738
3657.6318,2.405798713997242,200.77122691001313
3658.4734,2.4240315805478816,111.124021001165
3659.317,2.4440075134876413,80.45032599046455
3660.1587,2.4617956319278056,91.66458340845284
3661.003,2.477914478202519,148.40799202999048
3661.845,2.4948886798826835,111.86501392597432
3662.6875,2.5138304413132326,131.86634742873858
3663.532,2.5321702721816544,74.99065485619249
3664.3748,2.5450959985366404,127.8950390278274
3665.2197,2.549383964884885,85.7720196615141
3666.063,2.5452453129958807,201.68653629727078
3666.9084,2.5354321520636254,107.53600687314426
3667.752,2.523101969872336,91.40812210174884
3668.5977,2.510365616328221,154.12821583077385
3669.4417,2.498254053962969,135.4289779897672
3670.286,2.4866743617658393,87.499254191108
3671.132,2.4751732668227264,184.4494393432414
3671.9768,2.4641217127243324,117.36067485318165
3672.8235,2.4550285920686576,86.57443789431656
3673.6685,2.449735024480458,159.0192822644017
3674.5156,2.448846642232361,121.73806537383199
3675.3608,2.451574502347651,158.53059819420244
3676.2063,2.4568338811913386,81.81565513130471
3677.0542,2.4644222440765824,161.00947680900742
3677.9,2.474905107758653,102.13706296003059
3678.748,2.488710364055746,97.33723124399609
3679.5945,2.504716909983261,137.61118946432444
3680.4429,2.5200948125800036,137.8530241065132
3681.2896,2.5308066617464053,130.86200463676516
3682.1365,2.5334519856813067,96.14160771019357
3682.9856,2.5267025095479165,122.16266762428616
3683.8328,2.5121568250195407,136.9873017435995
3684.6824,2.493686104885421,141.45378545450743
3685.53,2.476210809055449,121.76786141794531
3686.38,2.4635171114849777,85.37183405873768
3687.2278,2.4572601092288617,119.6333662214788
3688.0762,2.456856755556858,99.20384735179601
3688.9265,2.4610712603326323,132.13094821477995
3689.7751,2.469181832997791,86.50164268543867
3690.626,2.480862157228435,138.12832855264793
3691.475,2.4950087831102,101.7743888401996
3692.3264,2.5098574894741486,150.1828748475751
3693.1758,2.523730680300969,246.39822266883297
3694.0254,2.53555692481711,125.30771546945849
3694.8772,2.543641764546756,168.5884961479902
3695.7273,2.5452722105585233,102.59383644402396
3696.5793,2.538918523073624,107.8044320427546
3697.43,2.5269136075670953,147.31418861255662
3698.2825,2.5150912578619566,87.95385976327987
3699.1333,2.509117770712883,137.74576112094877
3699.9841,2.5104491364391968,143.42883180060826
3700.8374,2.5160323088287537,103.76346121638264
3701.6887,2.5212720282991,113.24953257402476
3702.5425,2.52370712466665,105.18604689809376
3703.3943,2.5240438406007506,162.16417068328303
3704.2483,2.524452843919568,120.89222536957656
3705.1003,2.5260288789494534,99.40885117444273
3705.9526,2.5277860906072402,138.35483466234317
3706.8074,2.5275132762800028,95.25989088276958
3707.66,2.523294241501455,108.20042494360753
3708.515,2.5143938591346675,118.76595095582653
3709.3682,2.5014284166494147,115.66432478039789
3710.2234,2.4860048194071407,105.93696095796913
3711.0771,2.470792851079403,111.99017449791222
3711.9307,2.458905701833554,211.16244467739645
3712.7866,2.4528004259519673,133.28169209457886
3713.6409,2.452771728821513,129.81780321866393
3714.4973,2.4562899711129034,108.31742390578128
3715.3518,2.45928960096962,82.58900365452399
3716.2085,2.4585247298213933,140.11197819192762
3717.0635,2.453301604931936,124.00165776062913
3717.9185,2.4457647735455827,138.24588594166028
3718.776,2.4398467086101863,112.08778051846673
3719.6313,2.439484339652697,111.45441783392995
3720.489,2.446536788569281,113.6474461262804
3721.345,2.459709688705277,120.95553925848621
3722.2031,2.475311914694766,153.64064683905383
3723.0593,2.48886237626947,140.2859785486297
3723.9158,2.4970008977894795,107.59944815690154
3724.7747,2.4980811045035782,122.97111619577797
3725.6316,2.492227444613822,114.76668373915354
3726.4905,2.4809109262079962,134.67683850940517
3727.348,2.4663744022183565,169.4619305689075
3728.2073,2.4509318613072173,135.7688652199045
3729.065,2.4370839426541013,101.11979155095163
3729.9229,2.427344850843612,126.11955695135981
3730.783,2.4237553565907795,171.26518733900315
3731.6414,2.426503967050781,118.69414069042479
3732.5017,2.4331603933655344,113.56056543853461
3733.3604,2.439753182244214,111.14140214964621
3734.2214,2.443118681973701,104.05755012704174
3735.0803,2.4424260789625887,97.01928481464412
3735.9417,2.439214507446529,103.87754679129735
3736.8013,2.4361639846503773,164.3408742148671
3737.661,2.4354858526817047,116.34898776146355
3738.5227,2.43766828155809,135.75775542983578
3739.3828,2.4409419156323535,157.51705051324805
3740.245,2.442032766156851,130.45139783443602
3741.1055,2.437984247143134,131.44405014618889
3741.9683,2.4281467313548744,95.44879898235564
3742.829,2.4150420422831695,149.07450781153895
3743.69,2.4030998907861045,114.06793783680389
3744.5532,2.396431540525771,138.5874765129146
3745.4148,2.396949240817437,143.24176281081733
3746.2786,2.4038964908547684,112.19156242194121
3747.1404,2.4149355019985217,93.71373270252235
3748.0044,2.4276013141315325,94.13596061361943
3748.8667,2.439621441761007,172.15705542926037
3749.729,2.449101187039362,95.29903440941527
3750.5938,2.4551261281400616,78.96742763678836
3751.4565,2.4593653892009364,117.15342789737294
3752.3215,2.4675381898542974,93.0448982348206
3753.1848,2.488925537701836,118.79930917842282
3754.0503,2.5335219412508807,107.59558157984428
3754.9138,2.604893486587807,101.86244433999764
3755.7776,2.6927419494425955,126.36017276189354
3756.6438,2.7705362577818526,143.69245978866167
3757.508,2.805918204023402,19.725153666840313
3758.3745,2.781973267488074,127.33916666819104
3759.239,2.7090476308502294,131.91222180686432
3760.106,2.616954032851015,187.83870467085111
3760.971,2.536094206725496,151.8768322081214
3761.8362,2.481112998609041,105.6901740799698
3762.7036,2.4510188381019016,143.22858095119736
3763.5693,2.4370621327906314,125.78418254153539
3764.437,2.429789476579411,125.20110718618145
3765.3032,2.422707983716094,128.33394735364547
3766.1714,2.4127820465022265,103.38499119874223
3767.0378,2.4005040601873757,116.23938938997524
3767.9043,2.3889503240750987,131.2506639291562
3768.7732,2.381768457198333,166.81601095855137
3769.6401,2.3807636231926415,128.62190760179644
3770.5095,2.384864960795622,126.49181972391608
3771.377,2.3914270357409033,129.6301454478425
3772.2466,2.398137068400363,113.46780379984372
3773.1145,2.4035541018422584,109.04672928219325
3773.9824,2.406802211211151,134.413039448994
3774.8528,2.4073308313762225,99.55983022681895
3775.721,2.405187244158138,101.9614740105759
3776.5918,2.4008232657175315,167.30793294098254
3777.4604,2.39442735101436,99.99264223722008
3778.3315,2.385737415655943,151.7368113582993
3779.201,2.375244247353231,167.6510508717081
3780.0703,2.365155173032288,109.95804545658983
3780.942,2.3591529450608535,136.38978562342925
3781.8118,2.3607993959463123,175.9637745078366
3782.6838,2.371799786840066,155.7999906389842
3783.554,2.391287327184664,157.1934100016764
3784.4265,2.416431533890572,105.17405667935206
3785.297,2.4428626486024436,148.28990633338304
3786.168,2.4657407028270035,129.89434857951855
3787.041,2.4802474638593335,87.6859114493709
3787.912,2.4828507243076072,105.61795776007006
3788.7856,2.473214639255055,92.450642945563
3789.6572,2.4550258957433124,131.785418632564
3790.531,2.4346114602276807,207.00180698268997
3791.403,2.4181889365191633,141.7352712652652
3792.2754,2.408577429146928,135.99308317540113
3793.15,2.4043391744383027,137.82612471637938
3794.0225,2.4013202777775757,122.23012076134322
3794.8972,2.3958021483488032,124.81918516184726
3795.7703,2.38727243879578,134.43566865078876
3796.6455,2.3785976506320883,148.58077973055322
3797.519,2.37400821118336,155.27662717490847
3798.3926,2.3761357338255866,97.57961607063791
3799.2686,2.384407374549417,134.68645205275894
3800.1426,2.3949711713584447,107.07603118868414
3801.0188,2.4023890052492236,128.6247620550213
3801.8933,2.4019094085089474,125.74244528700187
3802.77,2.3918507516430356,144.50690504728607
3803.6448,2.3745715463339248,79.6382573441634
3804.522,2.355220071194369,152.69370961336173
3805.3972,2.339584838655024,166.47004846622065
3806.2727,2.331537109190007,135.19426573660465
3807.1504,2.332357091118929,136.8631681175649
3808.0261,2.340995701410249,146.1786434225433
3808.9043,2.3549351463448818,818.6231708501564
3809.7805,2.370907101720288,111.11202643273874
3810.659,2.38612399148927,109.03458658945677
3811.5356,2.398798540957816,149.96806615800716
3812.4126,2.4083185828576483,117.72673400285925
3813.2917,2.4143254097940434,168.40818477907686
3814.169,2.416336970216558,119.04984388611409
3815.0483,2.41453750692593,113.69519791793337
3815.926,2.4105182692449536,104.11337697625191
3816.806,2.4066935448432445,134.57491100209631
3817.684,2.4047265830409286,96.75530094009146
3818.5623,2.4045517018177964,104.09763378717047
3819.4429,2.4050056507405375,112.13224737825384
3820.3215,2.404862354367005,136.28786835490087
3821.2024,2.4031723757969856,127.87863367023071
3822.0815,2.39915065474647,105.83069164638582
3822.963,2.3925074666672526,144.6908068512302
3823.8423,2.38433625535271,145.88933576768446
3824.722,2.377079095824977,139.30498930345135
3825.604,2.37320289061197,141.96290546527302
3826.4841,2.3733579234648152,139.4099840751238
3827.3665,2.3757339499895536,139.0935752373221
3828.2468,2.3772574144045655,127.42792793028931
3829.1296,2.3752567574580423,124.27597317554816
3830.0105,2.368121111377764,169.75390554470775
3830.8916,2.3549965678210487,177.32353223342156
3831.7751,2.3356735394820065,103.38147262872934
3832.6565,2.311457824707194,109.66141403184788
3833.5403,2.285249564501762,149.9534113952267
3834.4224,2.261214860030713,167.98377057384474
3835.3064,2.242718657232046,210.38222997123205
3836.1887,2.231779925559366,119.5688439650534
3837.0713,2.229199852416942,116.25322525604801
3837.956,2.2354182148402306,161.1086194779159
3838.839,2.2499973042078873,257.49018676715315
3839.7244,2.2707932520468694,150.39399517357694
3840.6077,2.2938368993953873,97.1667189945177
3841.4932,2.315362651458992,142.67274152700338
3842.377,2.3331738967450364,119.17076452920988
3843.261,2.347184220853313,161.4793332128427
3844.1472,2.3579821073642164,140.74976710069336
3845.0315,2.3655915983906,114.56465616321186
3845.9182,2.3696654565120565,112.44635240023626
3846.803,2.3703053320114424,147.9320714405603
3847.69,2.368829947954517,98.53844863237738
3848.5752,2.3674686850298623,128.57278050316137
3849.4604,2.3684200834735156,119.15255451071002
3850.3481,2.372966454540596,136.67612678402742
3851.234,2.3809723343959277,152.37839694049623
3852.122,2.3910533508597234,104.11900439143824
3853.0083,2.400787983333648,133.39389454810782
3853.8967,2.4073220130662114,120.1701162817134
3854.7832,2.4078587569025203,146.03159279085034
3855.6702,2.4008698402947015,101.49854707164668
3856.559,2.3872806378188574,98.58269669143793
3857.4463,2.3711038366469643,134.63544127546805
3858.336,2.3578139515231356,162.73633115481024
3859.2234,2.351594816926476,130.523063921772
3860.1135,2.352710856443586,118.53085912955184
3861.0015,2.3578896758085333,116.98259456775907
3861.8896,2.362881399208784,121.86862393938688
3862.7803,2.3650493411013738,130.37514384854967
3863.6687,2.3643110368420825,101.89819669136466
3864.5598,2.362639334193759,149.71903455958494
3865.4487,2.3627745920077565,182.7806369376023
3866.34,2.366471796811394,117.30899081740691
3867.2297,2.372903308290844,131.2351452926928
3868.1213,2.3786709997923188,102.22490257280595
3869.0112,2.379820042974906,132.13026006023017
3869.9014,2.374597493148501,135.71071815086682
3870.7937,2.3643697554679757,101.03610840387573
3871.684,2.3525055133474053,114.78852551915516
3872.577,2.34214975500471,240.43754562807462
3873.4678,2.335239405128832,191.55663302437577
3874.361,2.3323898939239873,175.65553296295937
3875.2524,2.333579867473497,143.51443897520926
3876.1438,2.338287619944942,142.13144663838676
3877.0376,2.3452939094270415,174.54309467936042
3877.9297,2.352338663966837,135.54089463000304
3878.8237,2.356422112267803,97.80492117586485
3879.716,2.3544636846927887,154.82587215330028
3880.6108,2.344504926084882,156.302006709072
3881.5037,2.3270433296593707,117.29036583013482
3882.3965,2.3054463507226823,110.47602631381632
3883.2917,2.2848451179409124,96.58718681791478
3884.185,2.2697456775076157,134.42509214493776
3885.0808,2.261281502920557,117.40989876634947
3885.9746,2.2570359617054403,143.4693975439734
3886.8706,2.2525999616005743,140.58698600904972
3887.765,2.2444773052831337,137.4393249679709
3888.6592,2.2322612303022833,134.9083447148453
3889.556,2.219123970152203,177.80853005890833
3890.4507,2.2102728700026963,168.382962122586
3891.348,2.209773662698684,110.70163615636135
3892.243,2.2184184884965132,130.5136869240518
3893.1406,2.2337808894004114,128.40090125502903
3894.0361,2.2520174713421506,163.9965291317169
3894.932,2.2700664314345174,128.65285431338734
3895.83,2.2860887658915843,149.82102001020485
3896.7263,2.2988838849156146,158.49165397334946
3897.625,2.3077777049528487,130.01590188226453
3898.5215,2.3124899268468626,177.54104768887044
3899.4207,2.3134045868201656,170.8535567192517
3900.3176,2.3113236964909056,103.2869617000165
3901.2148,2.307564178310784,145.58242222108197
3902.1145,2.3042866884151247,151.4462406500895
3903.0122,2.304350752528708,143.64423424648754
3903.912,2.309888023736859,127.40568312707872
3904.8103,2.320575752255605,111.72189467736212
3905.7107,2.333495042949132,98.36655260873465
3906.6094,2.344830604102507,110.23248590234488
3907.508,2.352446539026726,159.25010150280002
3908.409,2.356555863643851,109.90005112271847
3909.308,2.358439557738978,134.9631362315297
3910.2097,2.3587692539466016,141.03979191863633
3911.1091,2.3571649946493025,118.59760537105647
3912.011,2.353357028604019,94.53632187931431
3912.9111,2.3486066727267416,135.0751905269722
3913.8113,2.3457197018759426,137.62581405341177
3914.7136,2.3474555743977974,162.87819480088402
3915.6143,2.354371369603292,187.76493904142222
3916.517,2.363978614695228,101.81030304962637
3917.4182,2.3718614932108553,130.27173035482087
3918.3215,2.3743069432972903,124.51836643465924
3919.223,2.3701445343243286,101.7722571049673
3920.1245,2.360915761011125,165.3704068706489
3921.0286,2.349506201394608,177.87678721287352
3921.9307,2.3390038833454043,133.4153193188847
3922.835,2.3320609791899227,150.1527551591488
3923.7373,2.330865102423902,144.87753873212452
3924.642,2.3362104588646875,216.25048714580566
3925.5452,2.346439233204931,135.1114174436044
3926.448,2.357698099845354,132.2136417181457
3927.3535,2.366021716547206,112.83083790269158
3928.257,2.3696096033788403,123.54044099910644
3929.1628,2.369474932038315,124.34677202239595
3930.0667,2.367752475257592,99.50513912796016
3930.9731,2.3657977723165002,176.66265104214395
3931.8774,2.363678535580021,131.00234288682208
3932.782,2.360979159749729,126.39176296919473
3933.6887,2.357833395623391,157.17723339259132
3934.5938,2.3552596452887133,191.23822984390205
