wavl,flux,ivar
3566.9744,3.754226032307408,98.83326310574017
3567.795,3.7528191502355113,99.43742651037196
3568.6177,3.75374470790662,90.15495536097518
3569.4385,3.755738359664997,104.76520768065323
3570.2617,3.7574327089605197,103.97949975005727
3571.083,3.7579563069707684,93.62763697122332
3571.9065,3.7570493144202266,101.58833273442829
3572.7283,3.754743459849874,97.22390956210175
3573.55,3.7510179894389992,109.70272512125901
3574.374,3.7457946539579146,92.35043500465972
3575.1963,3.739343817676873,102.1439386342865
3576.0208,3.732416028005724,97.85173016718564
3576.8435,3.72607392800449,96.747366906539
3577.6682,3.7210407279238367,102.08884411671406
3578.4915,3.7175549211081504,95.27957406034076
3579.3145,3.7154065666777183,106.56021605361498
3580.14,3.7141327094300336,103.1568302191252
3580.9636,3.713080121385995,108.02220645282114
3581.7893,3.711523569763011,86.0543300230087
3582.6133,3.709019901324695,99.40547585978376
3583.4395,3.705727513677385,109.10528596914186
3584.264,3.7025379607320255,84.39958238461972
3585.0884,3.700577151571658,106.5182454073072
3585.915,3.7003290178833623,102.34013701346117
3586.74,3.700944921023419,99.91738835984823
3587.5671,3.700526288531702,99.55555959744102
3588.3923,3.6972718340137596,108.69808297716527
3589.22,3.6905116560129283,128.52504284661993
3590.0457,3.68109444676279,104.45882064618688
3590.8716,3.670865526517765,103.87822923894448
3591.6995,3.661899774369726,112.99298890887374
3592.526,3.655688957168645,98.62342031567627
3593.3542,3.6525019311061437,109.68863855241644
3594.181,3.651565955935164,100.58338999577252
3595.0098,3.65151927908321,97.83125422817216
3595.8367,3.6510535339874077,112.89954689095161
3596.6638,3.649442218672888,110.00578903645355
3597.4934,3.6467891468830294,95.60753642970471
3598.3208,3.6437712107226337,102.84721181254031
3599.1506,3.640860908062452,88.80624758506798
3599.9788,3.637873758418082,95.09082086084292
3600.8088,3.634086879528209,104.6139036010373
3601.6372,3.6289258791115264,110.48609896742659
3602.4678,3.622322009935896,99.98169726127655
3603.2964,3.6147263807817254,94.56885454328204
3604.1252,3.6066501823254566,102.7773258242984
3604.9565,3.5985554259123753,113.0947571157089
3605.786,3.591079702846182,108.69050537850758
3606.6172,3.5849871983472754,103.33335300079153
3607.447,3.580953248666087,110.67612098857252
3608.2788,3.5788334428287563,100.78561399459863
3609.109,3.5774863420529273,109.12541073324523
3609.9392,3.575318531891148,103.57386661176942
3610.7717,3.571299186061059,116.36282196693936
3611.6023,3.565524803150261,101.10311091422902
3612.435,3.558825510287398,98.50604022310668
3613.266,3.552272870844524,117.36560194352086
3614.0994,3.546846645007286,107.09024973980874
3614.9307,3.5436245109560174,118.18497502627268
3615.7625,3.5435111482203587,118.64183972875308
3616.5962,3.546757035372928,113.41309301267069
3617.4282,3.552465682482073,110.21200329067322
3618.2625,3.5588638327940862,108.43894352086032
3619.0947,3.5640478783493124,104.4266056762274
3619.9292,3.5670204282880635,93.66248231911847
3620.762,3.568007035005003,109.49327488693281
3621.595,3.5681238659894845,113.41185809813032
3622.4302,3.568382833966334,112.9615156105873
3623.2634,3.5687907461087423,106.10286497179862
3624.0989,3.568209167965209,104.05241764763832
3624.9326,3.565265043401334,103.20462142861754
3625.7686,3.5596707191630306,94.396200649575
3626.6028,3.552842170452592,111.52441113430115
3627.437,3.546983969202113,121.02235375885623
3628.2734,3.543655069353185,106.57334943508874
3629.1082,3.542923534980502,141.95701597793095
3629.945,3.5434469483511437,132.5741368169941
3630.78,3.5431744738949895,120.83097909523336
3631.6174,3.540202030417334,111.00278762316881
3632.453,3.533715293617846,124.6386534496399
3633.2883,3.524502874123703,101.35399118858457
3634.1262,3.5146581667584194,117.49944342192042
3634.9622,3.5066707706770024,108.70896231104246
3635.8005,3.502141796572487,133.5509721928363
3636.637,3.5013227404102,112.30063286909221
3637.4756,3.5031458106025966,106.31128558699237
3638.3123,3.505945757749076,116.25923928349827
3639.1492,3.508272178690669,113.4956234502941
3639.9885,3.5092880678750378,118.52353858325327
3640.826,3.508688568544956,119.62134987167664
3641.6653,3.5064360250384925,113.63175166303945
3642.5032,3.5025970176219348,112.6442484391639
3643.343,3.497273149544169,122.68530998855161
3644.1812,3.490686059933928,116.20694295470018
3645.0195,3.483171767155331,114.20973611955128
3645.86,3.4752435026894397,120.350065213878
3646.699,3.467483091904235,124.38945504122536
3647.5398,3.4600854643330967,102.1731033097639
3648.379,3.4528929924659537,113.61773417591787
3649.2202,3.4456634163914557,109.87058570245023
3650.0596,3.4387948822779797,116.6468422427565
3650.8994,3.433279771910122,119.57730523693809
3651.7412,3.4300742808161084,134.94275209958388
3652.5813,3.4292022145810757,121.69164884918523
3653.4236,3.4295432112079145,112.70174379613556
3654.2642,3.4296043397643348,113.70588820867854
3655.1067,3.4284961784522823,117.05720849222031
3655.9475,3.426387054907846,120.69039038922406
3656.7886,3.424228846125306,128.28310671131166
3657.6318,3.4231001777359427,123.85631539282784
3658.4734,3.4234715578854087,110.01204768453691
3659.317,3.424712376520835,116.97065974266165
3660.1587,3.4253289087965304,116.0663976897448
3661.003,3.4240403987795647,106.79804527635801
3661.845,3.42094989278057,113.49236604766084
3662.6875,3.417637413767954,123.42839617618377
3663.532,3.415915091303056,109.93519152213368
3664.3748,3.4162555781140718,116.74879592337837
3665.2197,3.41736017291645,94.3103676399236
3666.063,3.4172871238787534,108.53096784075242
3666.9084,3.4149759862163385,99.75604967816065
3667.752,3.4107640898283687,122.75191791049268
3668.5977,3.405598308080991,117.22012806166542
3669.4417,3.4001084215195543,128.96589784998284
3670.286,3.394254568894898,124.86440042736831
3671.132,3.3878345937399597,114.43985974762747
3671.9768,3.3811162305874904,116.8868954882505
3672.8235,3.3749454017864204,126.34900447037452
3673.6685,3.3705625560465142,106.65899362925218
3674.5156,3.368888064059866,120.40365920196136
3675.3608,3.3699535664178772,122.20191055366297
3676.2063,3.3727181098540564,118.98308066285203
3677.0542,3.375765031857296,109.18523748093281
3677.9,3.378299594298819,124.14494836769569
3678.748,3.380657882119933,123.50199950560567
3679.5945,3.3836964623701666,125.82244763018576
3680.4429,3.387904326893321,121.3124827760614
3681.2896,3.39288131660569,116.40960986465275
3682.1365,3.3976364613275685,117.77162814570389
3682.9856,3.4010970155552696,129.1624472573612
3683.8328,3.4024764514697865,119.88802236920854
3684.6824,3.401406894841144,122.84548611240932
3685.53,3.397844576385665,122.72395748013899
3686.38,3.392025634693304,129.69494177087074
3687.2278,3.38455335268497,118.24694411371883
3688.0762,3.37618577603901,133.1016361583007
3688.9265,3.3675521433784463,121.24875714545664
3689.7751,3.358899159275479,127.46113303395117
3690.626,3.350021306807147,115.49568367186647
3691.475,3.3409170827030725,118.50761898843665
3692.3264,3.3321217150987907,140.31917078264098
3693.1758,3.3247310821909917,126.81301443817036
3694.0254,3.319428596557563,114.77408788749894
3694.8772,3.315888618681468,117.46763977156776
3695.7273,3.3130743878954494,132.77245191792477
3696.5793,3.310219270475726,129.83591055523524
3697.43,3.307525959766777,122.22639944947466
3698.2825,3.3056787566220813,117.01365402151497
3699.1333,3.304899343689179,119.54020311643573
3699.9841,3.3044988713235295,133.74138145984978
3700.8374,3.3034515415862185,122.31919920484972
3701.6887,3.3012583984027435,123.19450737992972
3702.5425,3.2980965265547253,121.79447951134966
3703.3943,3.2942156327410346,145.56961401868895
3704.2483,3.289366267236119,118.40550989269491
3705.1003,3.2833645367106485,111.03235988261898
3705.9526,3.276967289899965,130.39891402257618
3706.8074,3.271923351360178,137.77129070543705
3707.66,3.2696863859525056,135.74118229944796
3708.515,3.269977720881462,130.95731570170432
3709.3682,3.270940272190966,127.78449484765977
3710.2234,3.2706129407068683,136.8754134244315
3711.0771,3.2683809397068293,140.14559618455021
3711.9307,3.26515098962603,111.77772279408941
3712.7866,3.262279114695897,133.89804223785004
3713.6409,3.26036927118056,140.52009676753823
3714.4973,3.2588566853425296,125.2652743442194
3715.3518,3.2567063514749477,134.82738835280932
3716.2085,3.2533076791208653,134.9163434030862
3717.0635,3.2489264408828884,126.70326607621912
3717.9185,3.2444177248327297,139.9485091390258
3718.776,3.2407864943736877,125.79202951904313
3719.6313,3.2388655840226157,131.17659943836432
3720.489,3.2389396013709324,125.45520320272576
3721.345,3.2404060719678847,135.37943584285614
3722.2031,3.241593585402382,130.09208211075676
3723.0593,3.2402232640310467,125.63541621947478
3723.9158,3.234561384217238,122.93142609520535
3724.7747,3.224509832034756,125.39585848367528
3725.6316,3.2120819085171264,130.29319766727494
3726.4905,3.200532425524091,142.78230152261867
3727.348,3.193191017842154,138.58733724972754
3728.2073,3.19187249340342,182.50287376595767
3729.065,3.1960841723334923,152.5555311156625
3729.9229,3.203147361744375,130.85829946829546
3730.783,3.209486619176983,132.36964971876483
3731.6414,3.2122122092126375,126.83141930269585
3732.5017,3.210267856686487,128.99621011527984
3733.3604,3.204435571292829,143.15096154300568
3734.2214,3.196610068470484,129.01163354081925
3735.0803,3.1889595814005256,128.9809870448886
3735.9417,3.1829348803051096,139.01325324124286
3736.8013,3.17895579335194,136.54380380285275
3737.661,3.176480344075659,162.0199153775135
3738.5227,3.174806512839327,126.90523325818992
3739.3828,3.173817381367598,141.15219060663722
3740.245,3.1740211021184663,134.74807895424954
3741.1055,3.17582114374093,139.34180417345496
3741.9683,3.178688324824254,145.1666891586356
3742.829,3.1811415591532834,150.985802819524
3743.69,3.1818339737901873,118.34702743513729
3744.5532,3.1806447737010624,126.04221232069708
3745.4148,3.178742088387707,139.95417601007202
3746.2786,3.177415478594716,145.81750360584164
3747.1404,3.1769383578045858,124.07849142026443
3748.0044,3.176537970719623,122.47808726311115
3748.8667,3.1754298931791296,131.8666497584816
3749.729,3.173729202097298,131.97201611322154
3750.5938,3.172417697219248,135.69987835983412
3751.4565,3.1725425762059847,145.71962716889024
3752.3215,3.17442862928424,134.3962516093919
3753.1848,3.1775452144200527,124.21467071787949
3754.0503,3.1808859754265075,155.2697394294595
3754.9138,3.1832642755609224,141.11856414562718
3755.7776,3.1835973192172227,145.77772095038486
3756.6438,3.1811687153396795,130.78059066786705
3757.508,3.175940655844731,140.57904754898635
3758.3745,3.1684377564135016,133.14950149642706
3759.239,3.159542386571439,136.88765542716658
3760.106,3.1501932284778005,125.56734687831269
3760.971,3.1415724585996267,142.57652213455233
3761.8362,3.1348475446105337,155.18478065869346
3762.7036,3.130932278609285,136.57442695738538
3763.5693,3.1301162252601853,150.62063115126014
3764.437,3.13180937570498,151.97062399469257
3765.3032,3.134636399395229,139.5299969734555
3766.1714,3.1368647884541088,136.20084916437534
3767.0378,3.13708081319433,131.37184049987607
3767.9043,3.1348594076669194,146.13360094123706
3768.7732,3.1308553835868973,143.59898049355184
3769.6401,3.1264077229477105,128.32168419900412
3770.5095,3.1227908498546353,151.5763697304193
3771.377,3.120758055023772,139.4652449498223
3772.2466,3.120244937570096,152.80932642357297
3773.1145,3.120575869353228,131.06199046513012
3773.9824,3.1210067019538412,142.6309275967666
3774.8528,3.1213149401128235,158.42040430459534
3775.721,3.121834254348969,151.80794363232428
3776.5918,3.122890361002847,133.26181826370498
3777.4604,3.1242432377579727,134.97723051357545
3778.3315,3.125229556686611,138.7608649851669
3779.201,3.125386436979676,139.51901677391643
3780.0703,3.1248973979631525,150.54855808179474
3780.942,3.1243053718395624,140.27115817055707
3781.8118,3.123847864089683,144.1813958186272
3782.6838,3.123088446333711,131.17439953468565
3783.554,3.1212383470533203,132.08650762122718
3784.4265,3.1177840710417297,147.18373988092978
3785.297,3.1129699591967372,133.45046083756853
3786.168,3.1076992678085333,132.58094953193358
3787.041,3.1030817716746495,141.20554569880576
3787.912,3.099805573727916,170.27880889942395
3788.7856,3.0976308893467404,134.68746776646825
3789.6572,3.0956093711813595,140.29298785630564
3790.531,3.092676566720142,152.20651581003503
3791.403,3.088332161900679,158.27422328522124
3792.2754,3.0828134040223905,148.21887614650007
3793.15,3.0768903746595315,141.2755159814394
3794.0225,3.071449788886361,144.47425790740652
3794.8972,3.066906804589484,147.9410157038981
3795.7703,3.063060287521427,145.212602034286
3796.6455,3.0592301001671656,152.68212410512504
3797.519,3.0549096203433614,146.62690674361846
3798.3926,3.050178719879036,152.14474939732898
3799.2686,3.0456803068283924,182.67319540074453
3800.1426,3.042195197737221,142.30321573221804
3801.0188,3.0401567724290577,150.1117254313492
3801.8933,3.039660278571547,144.01023155139748
3802.77,3.040570536017113,153.16138678472174
3803.6448,3.0426025503931773,156.78815251146784
3804.522,3.045324530330311,152.69069534014176
3805.3972,3.0481487826278673,155.1290893852919
3806.2727,3.0504511637466774,155.4901144501382
3807.1504,3.05161274044136,142.18955043099425
3808.0261,3.051126789657885,157.50719876418216
3808.9043,3.048845160982441,151.34131491614087
3809.7805,3.0452561121228747,153.69992574133755
3810.659,3.0414323814795035,153.73100429469065
3811.5356,3.0386047191001264,155.5440584877976
3812.4126,3.037432955878385,147.90992965879434
3813.2917,3.037754210507169,167.69450593967065
3814.169,3.0388772234623755,145.31767164340422
3815.0483,3.0401118074981173,145.92441567988223
3815.926,3.0409714585329444,137.180156560887
3816.806,3.0410851440110624,140.72280522248334
3817.684,3.0401180723708583,142.59328405462153
3818.5623,3.0379040398233053,142.01226263132136
3819.4429,3.03452587125783,153.12845129682125
3820.3215,3.0302262250175587,152.28441932867136
3821.2024,3.025165971684342,153.2249255903241
3822.0815,3.0195422781165124,149.23335646725738
3822.963,3.0136859752663354,156.67185795819475
3823.8423,3.008170441266494,149.36299773119296
3824.722,3.0034613764035383,146.5720510769861
3825.604,2.999710054123293,157.08076269015132
3826.4841,2.996762500956702,155.5310213595815
3827.3665,2.994281462189803,164.60669679093132
3828.2468,2.991963604851286,166.9037151503581
3829.1296,2.9894805337902994,144.18586768824355
3830.0105,2.9863954513691557,158.9780145555302
3830.8916,2.98204160567451,158.63304260713383
3831.7751,2.975687513652751,143.81570847261835
3832.6565,2.9670351736207667,142.33225490246278
3833.5403,2.956600510004074,161.4228251535113
3834.4224,2.946122599266351,162.92675613325548
3835.3064,2.9379952692497606,157.49663914055412
3836.1887,2.934317252915703,172.21552331644062
3837.0713,2.9355177322464026,159.9224322627732
3837.956,2.9400648365634834,156.75760170407165
3838.839,2.9453966458811496,172.6002990658142
3839.7244,2.9496897469598866,160.5244123434534
3840.6077,2.952836802316355,163.61451759539335
3841.4932,2.9562113235887,163.09503667219022
3842.377,2.961353606374182,166.9060948730252
3843.261,2.968859096536151,160.9522175704105
3844.1472,2.9780050634842428,152.96400579718406
3845.0315,2.9871371887785676,142.42207672133355
3845.9182,2.994689897350898,166.663443292404
3846.803,2.9997774939743187,153.05155581559353
3847.69,3.002639367394532,152.24525577992068
3848.5752,3.004319789040194,138.4277967267081
3849.4604,3.006093026212556,137.15709701233718
3850.3481,3.008684689138474,160.21696241639572
3851.234,3.0117980445108574,140.6555030803739
3852.122,3.0144199980582895,170.8539655664173
3853.0083,3.015671298255485,147.57873633015373
3853.8967,3.015667318610376,144.572326955718
3854.7832,3.0154424344104944,168.42136199093824
3855.6702,3.016058402478557,138.70206149419727
3856.559,3.0177097215899242,167.14528705183625
3857.4463,3.0195839820769788,143.28479812184506
3858.336,3.020514599070544,147.2247100631044
3859.2234,3.0197302426670034,146.8630430277031
3860.1135,3.0172398094843853,143.81429460838444
3861.0015,3.013706171660285,151.32649375701524
3861.8896,3.0099501717981223,147.03514450902384
3862.7803,3.006536459368589,144.99054002634185
3863.6687,3.0036479205359328,142.68033847806825
3864.5598,3.0011185099286815,155.55406477565074
3865.4487,2.998596911421685,146.27061388565852
3866.34,2.9954627967483582,149.05929316718894
3867.2297,2.9909112574363155,152.0338286565856
3868.1213,2.984205650283517,161.539654643028
3869.0112,2.9752768307984736,149.48363924273923
3869.9014,2.9649044098715334,152.66748891797846
3870.7937,2.9544113091354167,159.3779080396839
3871.684,2.944967240749022,181.980969723798
3872.577,2.9367877401061477,156.82501384558645
3873.4678,2.9292804454670507,160.769875207121
3874.361,2.9213408463197146,160.1310434212201
3875.2524,2.912049786159482,154.27861791020632
3876.1438,2.9009182364597748,162.1937382179546
3877.0376,2.888153755672557,159.40704609367975
3877.9297,2.874781224157721,164.480530246103
3878.8237,2.8619647948387104,188.82382386330437
3879.716,2.850365706221052,178.6352140650573
3880.6108,2.83935136111732,156.47223357472188
3881.5037,2.8275357823210174,162.0551689957019
3882.3965,2.813663806496458,178.45901320288456
3883.2917,2.797622699388903,165.82193588763448
3884.185,2.780704918255007,186.9466787252228
3885.0808,2.76458552705092,188.92913814372275
3885.9746,2.7506326525441684,195.65057746084233
3886.8706,2.7390579405278803,179.01765173708336
3887.765,2.729425557559153,195.05946578331515
3888.6592,2.7212718344221996,171.4845243404632
3889.556,2.714917695083963,190.91280124057948
3890.4507,2.7115785520072726,180.605292231216
3891.348,2.7125899759422842,199.03930631566692
3892.243,2.7184543015161595,206.99382733899301
3893.1406,2.7282692105700983,194.11890183919684
3894.0361,2.7399699628892575,181.46125890500892
3894.932,2.751723354467518,167.78993522864278
3895.83,2.763038190889999,189.38323477672836
3896.7263,2.7747808481364777,173.3307057089332
3897.625,2.7882653973661053,171.76888105943718
3898.5215,2.8037132732349304,179.48840404864671
3899.4207,2.8202347818563025,170.6688986824184
3900.3176,2.836340413857042,180.69671533995225
3901.2148,2.8512869704852846,164.25449893844714
3902.1145,2.8652188169175243,175.888037295423
3903.0122,2.8785385075625975,160.5220723420551
3903.912,2.8914480237126297,179.5148494557315
3904.8103,2.9035083690368575,164.40901787973235
3905.7107,2.9142066727800455,165.4126051338132
3906.6094,2.9231850404522444,160.8773360682954
3907.508,2.9305460429105956,169.64863205915722
3908.409,2.936626726160704,156.91985919465608
3909.308,2.9417787673422118,141.97902456950945
3910.2097,2.9463552927677337,151.4983710075294
3911.1091,2.95057743001677,149.64561333166557
3912.011,2.9547462877531316,166.7082997750083
3912.9111,2.959478113722419,151.0062465293001
3913.8113,2.965941095676226,141.7263708796515
3914.7136,2.975339764115785,157.44429431043534
3915.6143,2.9877855843242442,160.65911466523625
3916.517,3.001840192028697,134.6499990788858
3917.4182,3.01491717579748,150.3129970028947
3918.3215,3.0249463655625566,146.98989481916618
3919.223,3.031265963078851,143.083993023839
3920.1245,3.0347237461215677,152.37598243826366
3921.0286,3.036596958170007,141.357031416582
3921.9307,3.03765556953939,153.52617831652026
3922.835,3.037989846777142,152.2942240257661
3923.7373,3.0374749339354348,131.192931404461
3924.642,3.0362942290944575,142.0740651034719
3925.5452,3.034949295608293,145.87775817124535
3926.448,3.0337751220643496,150.19098253824893
3927.3535,3.0325366994576903,155.29612962935505
3928.257,3.030546597116286,154.3506805698692
3929.1628,3.0271631873449074,150.52242313313576
3930.0667,3.022287087578407,159.48200624083447
3930.9731,3.0163320603706536,155.23577671362185
3931.8774,3.0100388257517827,145.49008658489956
3932.782,3.004053968493636,153.1726025372663
3933.6887,2.9987738246512095,141.15279338868982
3934.5938,2.994258406258997,154.12793764670906
