wavl,flux,ivar
3566.9744,2.3317387103120617,99.6104009635593
3567.795,2.317007362426165,81.24799910413273
3568.6177,2.310118218838125,41.651868394412524
3569.4385,2.311306481437037,104.88793066671835
3570.2617,2.3186640055718377,141.62230198593952
3571.083,2.32889255500871,62.128902549992496
3571.9065,2.338643492938895,54.06605433114113
3572.7283,2.3457722227089066,84.25832031075905
3573.55,2.3505838543622883,31.847855322573565
3574.374,2.3552981613145128,78.66491514689854
3575.1963,2.361500281741483,64.71290822107053
3576.0208,2.36749842644721,90.60226479648449
3576.8435,2.3685015098437265,138.11912013816274
3577.6682,2.360487301089374,80.32714432522495
3578.4915,2.343844791754337,165.02430178028055
3579.3145,2.322998491170983,171.10007791927598
3580.14,2.3028799310331767,134.6697274664851
3580.9636,2.286301208329703,97.91689313076236
3581.7893,2.2734111149474088,106.28763251931395
3582.6133,2.263558214125274,339.7169576582916
3583.4395,2.256816957021711,57.8835959467239
3584.264,2.2550747125522306,49.71832719649176
3585.0884,2.260973691984281,79.09362518914679
3585.915,2.2753990211972592,99.88491190761357
3586.74,2.2952197448459946,57.83636011852036
3587.5671,2.314316079197451,58.93324388200612
3588.3923,2.326348381197865,54.360824531497926
3589.22,2.3278792420907353,88.15935399033764
3590.0457,2.319258529384664,102.50450849875637
3590.8716,2.3043948616226566,133.5611517604311
3591.6995,2.289311499702095,85.88916623015818
3592.526,2.2798617594732167,136.68250714479555
3593.3542,2.2788766266664275,50.26411094418653
3594.181,2.285202778324466,101.83666918737498
3595.0098,2.2951211836261445,69.5365212610822
3595.8367,2.304948513748728,55.707798215482704
3596.6638,2.3126645227772387,49.19653462110864
3597.4934,2.317018082377051,87.19615749262454
3598.3208,2.3161303345243622,88.95350673961205
3599.1506,2.3079927797995734,58.33709520871479
3599.9788,2.292675290988609,74.11267079740288
3600.8088,2.273290236136121,67.73648789399874
3601.6372,2.2545013588778917,61.87414870543727
3602.4678,2.2393557881186545,53.4294990754403
3603.2964,2.228415383902045,57.18908225534085
3604.1252,2.220553024868438,137.4494527018734
3604.9565,2.2148539195006016,62.418976815717784
3605.786,2.2116028296100696,69.82924371600966
3606.6172,2.2119732045010547,427.5953089647895
3607.447,2.2169216475979114,66.71526988006424
3608.2788,2.2261597340967296,120.59066623146882
3609.109,2.238468703659267,86.01824597736058
3609.9392,2.253330685429778,70.35748608794563
3610.7717,2.2713489183914226,109.66606322733365
3611.6023,2.292386517376921,73.75085663759344
3612.435,2.313961537869736,89.4379086968396
3613.266,2.33130930246239,72.92477122578755
3614.0994,2.3405185297440596,46.53336600579687
3614.9307,2.3408564127348743,109.01042049787165
3615.7625,2.3352890933235555,68.47779794287736
3616.5962,2.3282667014532246,77.68360055710056
3617.4282,2.322750193713139,59.668276650454736
3618.2625,2.3182387297884564,86.07144997062693
3619.0947,2.311870728683618,70.87289295831336
3619.9292,2.301551310509134,63.88420904014737
3620.762,2.2886743210329246,69.38860404804733
3621.595,2.2773813757972157,83.75941206349755
3622.4302,2.2715173729978577,60.59103497088274
3623.2634,2.271929253664085,50.39717007045386
3624.0989,2.2761826245629115,88.67713789560237
3624.9326,2.2803854447075693,46.1864168029555
3625.7686,2.281276705083935,104.41971855716133
3626.6028,2.2774382850416033,78.57410098336551
3627.437,2.26970987036592,88.77973849184218
3628.2734,2.26076282360832,90.00162071548037
3629.1082,2.2541727147078103,67.32990597582766
3629.945,2.2531229924156637,86.31029036666104
3630.78,2.2597568618513013,52.86993532742649
3631.6174,2.2747554708394917,203.56458023470688
3632.453,2.296598635294537,113.6750299428283
3633.2883,2.3215621339989267,142.98982485087816
3634.1262,2.344909138796586,75.22993274744199
3634.9622,2.362865557659669,154.02841921835733
3635.8005,2.3739532374774175,77.73587128102328
3636.637,2.377445613069637,106.82530773202154
3637.4756,2.3724863547724153,67.0688586886149
3638.3123,2.3590876443203586,73.12200163967098
3639.1492,2.340039541393307,66.39009023493364
3639.9885,2.3208173430209635,65.99521474903167
3640.826,2.307052446861762,83.62321482156072
3641.6653,2.301064444670143,41.67311700327973
3642.5032,2.3009583097180757,84.22787789945166
3643.343,2.3018552073415544,85.18894408319386
3644.1812,2.298818792503947,76.63439381972758
3645.0195,2.289616018684522,73.24180205838901
3645.86,2.2756305535083334,87.21472532615428
3646.699,2.2605763138474466,71.58151094983828
3647.5398,2.247790267688679,102.76604628997198
3648.379,2.2391440763640196,166.64902387575464
3649.2202,2.235315616133098,70.11866171713434
3650.0596,2.236804206439686,78.89571428553639
3650.8994,2.2437874003304463,95.16050094793673
3651.7412,2.255513887903478,81.90576690865424
3652.5813,2.2699244378750487,101.45144400257544
3653.4236,2.2843572687286455,76.1234855154742
3654.2642,2.296075128458626,73.10485253056551
3655.1067,2.303030009474651,51.75700281768546
3655.9475,2.3041573706585985,73.94174694998091
3656.7886,2.300308176773976,45.197843246790306
3657.6318,2.2946415068359367,48.27973592232984
3658.4734,2.291461394007219,116.9681194139932
3659.317,2.293298646650184,105.24358859051304
3660.1587,2.2990688155756076,61.362195692111364
3661.003,2.305237392478187,52.91586590583397
3661.845,2.3085881049763466,106.05813670404396
3662.6875,2.3077892852951183,79.08504602292692
3663.532,2.30243472992018,71.26152552478028
3664.3748,2.2920930799956256,74.98465226556631
3665.2197,2.277067688998976,73.91782863574142
3666.063,2.2603628677184116,76.36237372598784
3666.9084,2.2472032622711406,69.32360116583794
3667.752,2.2421905812660845,145.40212346433586
3668.5977,2.2459396580890014,91.61338195314198
3669.4417,2.255271117337212,106.09774560018725
3670.286,2.266287881227193,60.923617271497285
3671.132,2.2769221118911465,106.16972515594864
3671.9768,2.286545458178023,80.31245367821441
3672.8235,2.2942600185865225,75.87310100030716
3673.6685,2.298275978986791,67.24196089972229
3674.5156,2.2978517959412934,69.68993104567782
3675.3608,2.295194071496612,90.02679868716466
3676.2063,2.2947396020519335,67.00192162427618
3677.0542,2.2997066553153127,105.72384567066854
3677.9,2.3091174715704303,66.22665289766874
3678.748,2.3186736501979035,79.12596048149577
3679.5945,2.3242275758822353,75.58656805253506
3680.4429,2.324689730993856,89.07817077770078
3681.2896,2.321704957466816,71.36325264143449
3682.1365,2.317842378874691,101.68901932915242
3682.9856,2.3155087690685177,69.24216595208584
3683.8328,2.3170155248278363,67.46539837584908
3684.6824,2.3242171416638615,66.43770523184513
3685.53,2.33681127794976,42.70864320272944
3686.38,2.350908572174061,61.69587507358285
3687.2278,2.359797573989514,118.92183610539762
3688.0762,2.358080616181846,55.29271672574744
3688.9265,2.3454105782017582,119.46812914903681
3689.7751,2.326954902574083,56.31983319668837
3690.626,2.309223636303786,79.35854562265546
3691.475,2.2955879885169255,64.287420547762
3692.3264,2.284628353672034,83.25490587179462
3693.1758,2.273421563681627,74.53644530196117
3694.0254,2.2616325143469758,87.33795629819627
3694.8772,2.2530358383971882,102.68945735038704
3695.7273,2.2527983363301303,71.3328333635949
3696.5793,2.2628394776290315,77.9731679625102
3697.43,2.27937468111891,86.14012275288815
3698.2825,2.2948078111409784,132.6100309192253
3699.1333,2.3023086292008283,45.32645620395892
3699.9841,2.300093936517383,132.20415222014228
3700.8374,2.2914537240127126,88.20608126060627
3701.6887,2.2817684028805747,60.364581131108814
3702.5425,2.275150010475793,67.91736765891257
3703.3943,2.2735891601181413,82.65218156177775
3704.2483,2.277375699073311,86.04408710203252
3705.1003,2.2856583237092205,71.40349755671937
3705.9526,2.2967401757318053,75.7366173702304
3706.8074,2.308537037256823,75.52271648280224
3707.66,2.319015808941662,92.54078356689757
3708.515,2.3265408122110367,64.34993207262868
3709.3682,2.3294224529237595,67.53321842806727
3710.2234,2.326252591263643,53.5225460465717
3711.0771,2.3169425592980297,50.88657792504068
3711.9307,2.3037205709231294,94.87730273319596
3712.7866,2.2904803979552755,73.24549408429051
3713.6409,2.280725995232233,68.24793724566577
3714.4973,2.275413493813963,82.61796702092695
3715.3518,2.27301584420624,107.97138880835072
3716.2085,2.2707403701526756,110.58871670210301
3717.0635,2.2660362907185765,110.21557494989688
3717.9185,2.2575583935392434,89.86903044343141
3718.776,2.2458220139078073,101.3274576750588
3719.6313,2.2333782908672255,113.98334911921289
3720.489,2.223457212500833,116.20833895237207
3721.345,2.218240674194544,57.99648889589747
3722.2031,2.217408328054415,148.3322751619795
3723.0593,2.218658709947797,95.3943825515059
3723.9158,2.2194858507056043,75.24843331600277
3724.7747,2.2189681883494483,127.99213058852848
3725.6316,2.218125629286257,132.21899052728742
3726.4905,2.2184848594838518,84.43862817417113
3727.348,2.2200916010815974,148.80283427219132
3728.2073,2.2208998029335825,62.82214365396582
3729.065,2.218255085785783,67.646701553215
3729.9229,2.2111088523094855,80.5391558721295
3730.783,2.2008493679709593,81.93263063638743
3731.6414,2.190465373116827,77.62117849475605
3732.5017,2.182849804638413,135.50226157333478
3733.3604,2.1799379816430764,65.90761731998077
3734.2214,2.182102383552677,93.85368285279706
3735.0803,2.187984808925701,75.7587920025847
3735.9417,2.195073496141378,66.77207030794992
3736.8013,2.2011776048553724,80.41822762455132
3737.661,2.2061115875210975,106.66885208068264
3738.5227,2.2116720030139816,95.24037004364762
3739.3828,2.219890481758976,122.51082496399762
3740.245,2.2312571685842273,54.01068174845615
3741.1055,2.2440480224535504,96.514885328839
3741.9683,2.2553666724522863,67.63290392449605
3742.829,2.262115215710365,72.36995789078851
3743.69,2.2621394740853376,58.232154460761606
3744.5532,2.2546926482929734,64.3655844935955
3745.4148,2.24083481756859,246.5153843817662
3746.2786,2.223091057430597,107.60521212513422
3747.1404,2.2049794160000538,90.32142155986607
3748.0044,2.1895138717908282,103.58644076199784
3748.8667,2.17799768957325,111.18566747421677
3749.729,2.168911525812921,118.10012903038647
3750.5938,2.159227603632105,58.81453788077192
3751.4565,2.1475077978022785,174.65018335564415
3752.3215,2.135902536981088,99.91093792851125
3753.1848,2.1290989449400572,102.62464469005752
3754.0503,2.130283084241135,135.18337888324697
3754.9138,2.1384520847386606,62.37745935345422
3755.7776,2.1493558577704612,157.1069326443481
3756.6438,2.1590006710480667,64.73973386966152
3757.508,2.1660706437904835,99.50699813522526
3758.3745,2.1716538742288525,91.98801691816871
3759.239,2.1768917814262214,87.68028090144377
3760.106,2.1816093934340284,70.58505601588791
3760.971,2.184470122275575,85.62054551054833
3761.8362,2.1843267493322163,59.03415662436096
3762.7036,2.1813436971782454,57.14894346910816
3763.5693,2.177537809634783,94.23818985828163
3764.437,2.1761754070426327,82.59472589476825
3765.3032,2.1802437542863795,103.99429645001048
3766.1714,2.1907511816856835,77.54628556207528
3767.0378,2.2060273629449365,80.24076405585859
3767.9043,2.2227412104814235,87.54338834939948
3768.7732,2.2374795649686123,71.20285980037252
3769.6401,2.2477941480388526,74.413980918943
3770.5095,2.2526823829188847,163.3549346421673
3771.377,2.2520410119941996,70.84029381896995
3772.2466,2.24644516397819,90.88393946325075
3773.1145,2.2370473664061756,65.58370607735128
3773.9824,2.225530596317743,90.71468941537465
3774.8528,2.2142104832358585,60.2508445033933
3775.721,2.2061506910370072,66.904553019276
3776.5918,2.204229268712631,107.20923286422342
3777.4604,2.2095988235546757,117.01500095910005
3778.3315,2.2202252961653426,73.57492432496298
3779.201,2.231196207644016,68.86269021096716
3780.0703,2.2371702166720446,61.94170991338254
3780.942,2.234965292703839,81.56522828877951
3781.8118,2.225017338121741,76.83795527069344
3782.6838,2.2108248047119856,103.06740854043997
3783.554,2.19726743740932,71.7456884830282
3784.4265,2.188387507696072,97.5900812818736
3785.297,2.1862372395944667,73.1769382721694
3786.168,2.1900280894253417,112.27097716334681
3787.041,2.196238365363798,106.25173378934733
3787.912,2.199574144645768,86.32099156314331
3788.7856,2.1954413514577897,64.59766878982357
3789.6572,2.1826676085441896,76.87433414124467
3790.531,2.1644090451870337,93.80608797940901
3791.403,2.1463501089405876,119.1595959736286
3792.2754,2.132834879445026,89.23002548095774
3793.15,2.1248024990333323,73.27957291746029
3794.0225,2.1206387160252493,119.64150737652218
3794.8972,2.1186773177370406,66.75539450009725
3795.7703,2.119040102811585,81.37298013236357
3796.6455,2.1230473628801136,103.96950438131998
3797.519,2.131153104357718,91.52073256686563
3798.3926,2.141442998589231,86.10700479807399
3799.2686,2.150048037656564,72.30691484545979
3800.1426,2.153304646830526,66.1574222479474
3801.0188,2.150430069452866,78.96420379352432
3801.8933,2.1443179194275395,120.32006251275115
3802.77,2.139779292422643,359.17678350086334
3803.6448,2.1404269422165862,108.34737367095804
3804.522,2.1464514739810787,70.06737619415799
3805.3972,2.1548758136701287,105.45720632754409
3806.2727,2.1616452953810166,75.55597152972737
3807.1504,2.1636231320758648,119.22931634077669
3808.0261,2.1597053952836527,79.9086298097711
3808.9043,2.150991949931281,98.0502161416369
3809.7805,2.140439505818416,72.48188773092812
3810.659,2.1319728077616,70.62478199704958
3811.5356,2.1294403790811782,86.67272059655468
3812.4126,2.1346177343732826,90.96338848446929
3813.2917,2.1454385485495475,106.68196653562462
3814.169,2.155701582548027,63.30721323378926
3815.0483,2.1581150812561236,101.0467590336837
3815.926,2.1487630407999716,59.47200577431431
3816.806,2.1299531234295475,98.99284778760918
3817.684,2.109008041757979,89.43739645870035
3818.5623,2.0936500524658,75.15442531496352
3819.4429,2.088274069113068,103.28921424877886
3820.3215,2.092959620123489,108.95083797950474
3821.2024,2.1047817662540034,89.6716028661605
3822.0815,2.1196703878370093,91.60001210284666
3822.963,2.1339897304419453,97.93362545135449
3823.8423,2.1451546563447623,82.66134874691406
3824.722,2.1521519602132133,117.63969029389766
3825.604,2.1550982270372714,83.76107645740827
3826.4841,2.1546880998146785,94.04748760866602
3827.3665,2.151816109564082,86.10434913104754
3828.2468,2.1474426971511376,90.22527572685043
3829.1296,2.1425132300234893,93.37521420470682
3830.0105,2.137838165189611,91.99370479517086
3830.8916,2.133565160658362,71.73770727758289
3831.7751,2.1288212367840993,72.95898519018829
3832.6565,2.1220433439721735,110.66327266700858
3833.5403,2.1120924240235435,85.7388310937517
3834.4224,2.099688669821493,123.51397091857655
3835.3064,2.0872856286274315,113.14993302964385
3836.1887,2.0777564841407736,119.98109960583261
3837.0713,2.072440505917932,83.20481909794565
3837.956,2.0707824315793535,104.20327469517899
3838.839,2.0713927096015325,106.08020386335127
3839.7244,2.0734048668366354,126.12652318573441
3840.6077,2.07676416087112,126.02602148252274
3841.4932,2.0813911079766543,101.96977116019914
3842.377,2.086228843164528,76.02739480893518
3843.261,2.0895305400075275,72.92343134292139
3844.1472,2.090097991786459,97.04687038294014
3845.0315,2.088393516462053,122.81190991370912
3845.9182,2.0862877065039807,109.49738874981938
3846.803,2.0856551868286983,95.6563528372407
3847.69,2.087161278117017,96.86416984789116
3848.5752,2.0903813650128034,79.70327026205328
3849.4604,2.09480609383107,100.86603620844743
3850.3481,2.1003443447437506,78.23905206048163
3851.234,2.1066547502251285,74.95587037031945
3852.122,2.112424699960562,88.50139601442534
3853.0083,2.1153766451860587,84.9946225132384
3853.8967,2.1134137651749594,75.31339270779725
3854.7832,2.105784404374654,130.0073526401458
3855.6702,2.0939071193505057,83.16805592279992
3856.559,2.081543709737292,92.4366853956318
3857.4463,2.073823446379968,128.46126943228617
3858.336,2.074709027274884,106.02517544092035
3859.2234,2.084800959040749,73.98715129968828
3860.1135,2.101168149835505,96.38794664991055
3861.0015,2.119244629576907,89.59822459781732
3861.8896,2.1355672264046888,79.44745952478856
3862.7803,2.148534682205331,76.16556271999043
3863.6687,2.1577548941744586,115.52226072851025
3864.5598,2.1637039299882397,79.02915786064186
3865.4487,2.1675971757705854,89.43296832192476
3866.34,2.1711599478415438,103.79842719743385
3867.2297,2.174924103251251,80.04183680720371
3868.1213,2.176947015214732,70.23291361176817
3869.0112,2.17386568816387,97.88428638883856
3869.9014,2.1640795937621142,84.4303138333648
3870.7937,2.1497585298030377,82.47846319287447
3871.684,2.1358497306016,92.79954647744529
3872.577,2.126695663363921,111.49950923520933
3873.4678,2.1238666236148145,100.62699600412415
3874.361,2.12567703150887,67.78290646515896
3875.2524,2.1284413416062495,109.80592323205785
3876.1438,2.128211774656969,77.99331165018057
3877.0376,2.1223697102997847,55.243830887455026
3877.9297,2.1106808729455566,122.65621602844807
3878.8237,2.09510795022899,74.27465070089448
3879.716,2.0788350963538846,104.87683539162977
3880.6108,2.06427217447921,87.34164252628773
3881.5037,2.0518310328917586,94.83822727634346
3882.3965,2.039544177762042,117.44498305724626
3883.2917,2.0247747014931883,85.07049418065239
3884.185,2.0065751537729883,80.36686109941868
3885.0808,1.986473705034398,108.12629467847079
3885.9746,1.9679732794576987,101.35340432952249
3886.8706,1.954379771707569,136.19397906700738
3887.765,1.9477027770386248,99.19947129704252
3888.6592,1.9480204436358313,66.22742639238666
3889.556,1.9540237109262943,127.96584573077901
3890.4507,1.9635852589770708,110.62126352688865
3891.348,1.9745933593519218,80.08567683257277
3892.243,1.9855569197772294,109.40721281772687
3893.1406,1.9964912744920376,86.59103480833443
3894.0361,2.0087377438020577,95.3083422637047
3894.932,2.024243574335441,134.68265643451969
3895.83,2.044012423621811,91.53251771373948
3896.7263,2.066838256433175,120.73172213027266
3897.625,2.0897140611456217,101.89783548770727
3898.5215,2.108639186181901,86.01764347374433
3899.4207,2.1207514294766625,93.48232784645693
3900.3176,2.1251656654798903,99.91271526916591
3901.2148,2.1233661302508664,89.79959213159204
3902.1145,2.1182219369958695,102.7710305661407
3903.0122,2.1127930560742705,106.38236398986632
3903.912,2.108881081806681,105.33937885282899
3904.8103,2.1062973658167308,134.66627994908293
3905.7107,2.1033508682026776,67.83124620563358
3906.6094,2.0987600849658503,79.30538759474334
3907.508,2.093100594165634,104.4782139196475
3908.409,2.0883707868150827,81.11476821504891
3909.308,2.086320330104198,77.47482869442871
3910.2097,2.087459554248977,96.87898603441069
3911.1091,2.0915597017479977,112.9148030733051
3912.011,2.0982026808153327,126.47973794211273
3912.9111,2.1063008240356793,86.24588739427155
3913.8113,2.1136172608049635,110.6268061304637
3914.7136,2.1171332916501213,92.8202022761756
3915.6143,2.114383850922146,77.5117330302557
3916.517,2.1047892817108793,95.82782544394654
3917.4182,2.09020806567142,115.93532626536236
3918.3215,2.0743612174351544,78.58985833979517
3919.223,2.061850725642208,97.64532832534951
3920.1245,2.0562488993422816,106.18261583218005
3921.0286,2.0587946395766408,102.73622345087904
3921.9307,2.0678802685627455,121.66297968012346
3922.835,2.0800598608528023,142.621865089201
3923.7373,2.091592908257462,80.26345417460435
3924.642,2.0999634491032797,134.1144143566778
3925.5452,2.1040161348755597,86.63709795492949
3926.448,2.1035960961917177,81.99312339356618
3927.3535,2.0988656252063738,78.97497604853704
3928.257,2.090529733212525,80.54393796329394
3929.1628,2.0805874084309215,97.69557855739116
3930.0667,2.072854265037576,140.5798819761282
3930.9731,2.071550147667535,129.81813028186193
3931.8774,2.0787802446651766,88.31303212019041
3932.782,2.0925995389903798,71.02777328066782
3933.6887,2.1078124176274025,82.25225667255381
3934.5938,2.1187958850652646,61.120126590905755
3935.501,2.122638253395488,96.68887385417167
3936.4062,2.1198480402962048,99.46222344717768
3937.3142,2.1131205464078655,83.14656613183773
