wavl,flux,ivar
3566.9744,1.2819114195560999,607.0692913955171
3567.795,1.278545307761358,650.0987845246311
3568.6177,1.2748287299516416,667.2789277956326
3569.4385,1.271074315062007,631.979698478726
3570.2617,1.2670062051958364,642.2176368694974
3571.083,1.2626036465081212,574.6939368245659
3571.9065,1.258643369349116,580.7532498763168
3572.7283,1.256399470407363,591.0550647922144
3573.55,1.2565347971341063,601.6769094919307
3574.374,1.2585785426569915,537.8541371111072
3575.1963,1.2612948939701891,638.8909602840795
3576.0208,1.263540334512727,739.7105841137572
3576.8435,1.2647291304738066,623.8117597315181
3577.6682,1.26492034716682,582.0394789495758
3578.4915,1.2646403802031645,588.1615146899503
3579.3145,1.2646345320369654,665.754018161946
3580.14,1.265471576865873,625.1095945517769
3580.9636,1.2671517845076523,628.1721982962582
3581.7893,1.2690805250687893,531.6505986410776
3582.6133,1.270468594415246,586.1265837333631
3583.4395,1.2709198581307797,630.699392440404
3584.264,1.2706036820623936,713.8934466832487
3585.0884,1.2699229117500004,519.0387097558954
3585.915,1.2689579129674764,720.4513393295474
3586.74,1.2672495021782324,575.0254592055081
3587.5671,1.2641300684082186,512.6791043875518
3588.3923,1.2594516510598757,578.4619238929442
3589.22,1.2539106150489565,833.3205518143263
3590.0457,1.2488133836662414,545.6407101298431
3590.8716,1.2452448176253577,705.6286263803347
3591.6995,1.2436751513067568,650.4215651535518
3592.526,1.2440285369709807,702.0447407058832
3593.3542,1.245904952942056,608.2648897596514
3594.181,1.2486332680584828,634.0711961314414
3595.0098,1.251316608231098,493.7273528837603
3595.8367,1.2530567259138161,547.2428330838185
3596.6638,1.2534198170998083,729.5611327190892
3597.4934,1.2525834454802323,592.0747542284565
3598.3208,1.251147049640406,646.532288937746
3599.1506,1.2497416585628847,598.8848604696234
3599.9788,1.2487409986059024,638.2153461606003
3600.8088,1.247998260419499,642.9040537399794
3601.6372,1.246805685460585,728.4550173901976
3602.4678,1.2442502917845857,643.6098111836026
3603.2964,1.2400217877513702,702.5511432511843
3604.1252,1.2349775228249582,589.8640545079356
3604.9565,1.230953109447295,545.138992583063
3605.786,1.2297172440619681,590.7221389282522
3606.6172,1.231642079310229,646.3138400033321
3607.447,1.2353077601722058,579.4619590688062
3608.2788,1.2384258231168437,567.6574106126176
3609.109,1.239375540731153,481.8919354864994
3609.9392,1.2381806032349925,578.3853270978572
3610.7717,1.2360615780961564,700.1956749007735
3611.6023,1.2342938910414216,643.9486984781794
3612.435,1.2333562486832164,569.6594316689899
3613.266,1.2330458910644213,638.6280529964826
3614.0994,1.2330226542009144,754.3150416301482
3614.9307,1.2331335920696385,746.0097117621236
3615.7625,1.2332690334057823,663.5859999121359
3616.5962,1.2331650949105806,598.6021522936896
3617.4282,1.2325227735241517,655.7743397131289
3618.2625,1.2312912228819322,625.9368001430121
3619.0947,1.229748301107642,571.1195046421424
3619.9292,1.2282431241624363,525.7927295276079
3620.762,1.2269681258295833,543.5287784079437
3621.595,1.2258858831460309,661.938948355633
3622.4302,1.2248158857259923,581.8109591701498
3623.2634,1.2234801493957648,579.7337849750951
3624.0989,1.221558338511918,587.5564655955519
3624.9326,1.2190008182460095,666.6072606420066
3625.7686,1.2163185498737552,771.6345356840116
3626.6028,1.2145026779454111,624.3276601547136
3627.437,1.2142758037903174,615.6098323887381
3628.2734,1.2154506220761878,745.6018971186663
3629.1082,1.2169557805384181,688.9387601691528
3629.945,1.217548562605338,769.0560035788334
3630.78,1.2164954101752727,636.148050244102
3631.6174,1.2138693806393093,630.980403638627
3632.453,1.2105348874231974,702.2280981996616
3633.2883,1.2078263031791345,756.8068255961614
3634.1262,1.206990635883676,809.0961908765694
3634.9622,1.2084495477903638,676.6396104437963
3635.8005,1.2114079291940643,791.8969128586879
3636.637,1.2142641875238793,586.1610305566415
3637.4756,1.2157278394632756,734.1000253408647
3638.3123,1.2156533912547045,484.0167257782144
3639.1492,1.214998027698154,658.6807500995325
3639.9885,1.2148866164468952,832.8328004271357
3640.826,1.2157091260034234,541.3491143990635
3641.6653,1.21695824210442,588.4888278314094
3642.5032,1.2177576756586055,581.776889026456
3643.343,1.217485477698401,603.8295022250784
3644.1812,1.2159658825532829,649.5713530125365
3645.0195,1.213305515575561,599.8294811811448
3645.86,1.2097442705922814,730.210277731833
3646.699,1.2058067443133678,574.9918571807143
3647.5398,1.2024024758990823,695.197668205209
3648.379,1.2006551642707022,721.0279456051887
3649.2202,1.2011604368299045,633.3532646105418
3650.0596,1.2034074331195987,687.7211693585164
3650.8994,1.2059570181096335,692.6975405193136
3651.7412,1.2073953539717142,640.5169914451485
3652.5813,1.2072514510494177,638.3200930246342
3653.4236,1.206069375144359,643.6547558768855
3654.2642,1.2046373853018282,805.061052115982
3655.1067,1.2032228569781642,600.5103123289978
3655.9475,1.2015643471052715,655.9222445598099
3656.7886,1.1994106298858027,718.892962429005
3657.6318,1.1970100134160295,587.4711678280484
3658.4734,1.1950673031822425,729.3587156841911
3659.317,1.1941867663301555,726.8154859832664
3660.1587,1.1944162552845967,515.0892302680458
3661.003,1.1952542327041638,769.0722035854868
3661.845,1.196154186318378,435.8027001462784
3662.6875,1.1969848536886534,806.3151510858701
3663.532,1.1979340761174957,697.6267140072576
3664.3748,1.1990561204981995,601.6736396731745
3665.2197,1.2000813785168298,606.1541318142177
3666.063,1.2006776000084658,601.6809469984911
3666.9084,1.200802230886053,611.1383064503748
3667.752,1.2005850955221302,733.4385799265328
3668.5977,1.1999077571359205,621.3302839535927
3669.4417,1.198294013934948,543.6243754824401
3670.286,1.1953956283965983,681.6296771473463
3671.132,1.1916184675704153,715.4322366234263
3671.9768,1.1882049399618775,782.7428686998418
3672.8235,1.1864997749992259,698.0901378478645
3673.6685,1.187144165908849,745.8066597001011
3674.5156,1.1897197568279154,652.622437336681
3675.3608,1.1930608783224252,687.7180372016492
3676.2063,1.1958720995569196,710.8696643733332
3677.0542,1.1971242831327928,644.6037496531428
3677.9,1.1962735394116584,707.4013713959201
3678.748,1.1934497596746803,607.5000509258768
3679.5945,1.1895367493475073,687.6461795461728
3680.4429,1.1858167316374837,561.2954037939729
3681.2896,1.1833411600154207,662.7912762296876
3682.1365,1.1823019149681613,573.7742348543148
3682.9856,1.182062315888108,665.9675776489289
3683.8328,1.181645110462685,608.0917725933923
3684.6824,1.1802953391452817,766.440607735032
3685.53,1.1778462227564213,600.8102381859046
3686.38,1.1747723251923101,857.0221709478297
3687.2278,1.1720141954270746,667.7195735260179
3688.0762,1.1704047129503232,994.645199627973
3688.9265,1.1701461432030094,776.0396782077554
3689.7751,1.1706775193809793,674.5184369330769
3690.626,1.1711932182756457,604.77743268182
3691.475,1.1714102563235902,752.1518457607858
3692.3264,1.1719145055497118,815.4448466292847
3693.1758,1.1737393596231493,631.2751484948212
3694.0254,1.1775750907686464,724.877278081439
3694.8772,1.1832504110760613,622.2301267590732
3695.7273,1.1897152436459697,623.6645080538664
3696.5793,1.1955740472595107,903.5066268703055
3697.43,1.1995334288571664,735.3265884915529
3698.2825,1.200954243817964,645.155660362415
3699.1333,1.2000271395770303,546.8976510810623
3699.9841,1.1976592020351258,748.9641188127151
3700.8374,1.1949856024752903,649.8220347587144
3701.6887,1.1929041421073825,671.0698867411688
3702.5425,1.1917430619139104,794.9938526572821
3703.3943,1.1912802444746176,743.6327031926885
3704.2483,1.190892261271608,675.8901869267225
3705.1003,1.1898573652502151,643.8742314637192
3705.9526,1.1876583097419524,623.9275434219899
3706.8074,1.1842012330137028,660.2142155170749
3707.66,1.1799150578840707,678.1247168157317
3708.515,1.1755468238465845,711.6535046171673
3709.3682,1.171960393746809,680.6656973891498
3710.2234,1.1697355275793078,658.0403999366442
3711.0771,1.1690017833425996,825.9684188411586
3711.9307,1.1694113895133502,641.4570387680103
3712.7866,1.1704181459643952,627.7614846225619
3713.6409,1.1715651821903423,589.4220016179744
3714.4973,1.1726328412228209,681.8818507686589
3715.3518,1.1735796803026117,669.8911190613949
3716.2085,1.1745190147200726,793.221534276056
3717.0635,1.1756656875395772,711.0637054040476
3717.9185,1.1771971440918076,924.7585992896143
3718.776,1.1790418806433862,707.3334987714046
3719.6313,1.1808570697925496,689.5568033236154
3720.489,1.1823146239863214,587.7380495291031
3721.345,1.1832871951967696,750.9792598781834
3722.2031,1.1838156102540047,742.9635622067051
3723.0593,1.1838830293895564,782.9783586269187
3723.9158,1.183341974645497,840.565812526284
3724.7747,1.1820293078693114,763.1678490984058
3725.6316,1.1800158513690042,777.4698129990749
3726.4905,1.1777441868107312,668.5303824768606
3727.348,1.1759452232372645,631.5676389253837
3728.2073,1.1751597324347545,637.9175837441911
3729.065,1.175306000367947,668.9835026671017
3729.9229,1.1757057707362142,708.7152891822547
3730.783,1.1756970066717491,662.8322814113062
3731.6414,1.175252151278959,781.9237139251791
3732.5017,1.174992791029334,694.1249070496712
3733.3604,1.1755658804029476,709.4176956021338
3734.2214,1.1769694962863986,675.4755773422977
3735.0803,1.1784606782751799,608.147006729247
3735.9417,1.1791676638983977,649.6643296817768
3736.8013,1.1787325122917343,692.1107278983475
3737.661,1.177442942327338,803.8339143540675
3738.5227,1.175831342752026,765.5876918483418
3739.3828,1.1743788694341994,795.6104589973269
3740.245,1.173539227182502,661.7602293545041
3741.1055,1.1738454678579437,671.8997052928128
3741.9683,1.1756439062193182,682.8256328414079
3742.829,1.1786514495878229,714.6241006847913
3743.69,1.1818555749977127,663.2876374189294
3744.5532,1.1838729479606591,767.9788612542778
3745.4148,1.183540161699127,652.7327302665385
3746.2786,1.1804504738090993,829.0243702264936
3747.1404,1.1751616669794969,742.8246233614195
3748.0044,1.1689206990746968,734.0546313742549
3748.8667,1.1632195166284662,741.0528714633214
3749.729,1.1591918359588562,638.6533627000206
3750.5938,1.1574639455908615,728.6461656895376
3751.4565,1.1582064187758654,731.8448384849175
3752.3215,1.1611504634766856,708.4053970680188
3753.1848,1.1655443799148437,720.4715495853567
3754.0503,1.1703158782913936,707.6002519750584
3754.9138,1.1744284591353418,720.0922552282351
3755.7776,1.1774512453862038,742.5524779804525
3756.6438,1.1796393383773704,658.9672706413567
3757.508,1.1815410469047876,724.2767078904836
3758.3745,1.1834747418051406,758.1912154813313
3759.239,1.1852504661614116,639.0581171082614
3760.106,1.186440213822642,706.2962381799159
3760.971,1.1867314792966976,588.3200114591622
3761.8362,1.1860726810872257,714.24618884415
3762.7036,1.184477392858066,757.2644195881903
3763.5693,1.1819065035663154,631.7272453162119
3764.437,1.1783754147159662,692.1936816084578
3765.3032,1.174218647216884,672.7332918501706
3766.1714,1.1700190586925339,620.0400698270287
3767.0378,1.166413472112621,684.2408763528377
3767.9043,1.1638097148955044,807.6162937354587
3768.7732,1.1623537686324132,789.0823014774937
3769.6401,1.1619153773446291,744.1420213264297
3770.5095,1.16205273622224,725.9166764434725
3771.377,1.1621496867981982,657.8873647438267
3772.2466,1.1617113139777868,734.6938848124101
3773.1145,1.1606223884395226,737.5532362606858
3773.9824,1.1591037366817143,626.3509490422988
3774.8528,1.1574562278517817,871.51359307735
3775.721,1.1559497313721079,645.0810880297188
3776.5918,1.154911018187044,833.867447075179
3777.4604,1.1548469723695267,692.0340681296303
3778.3315,1.156243741683133,839.5784933829636
3779.201,1.1592330400488366,702.0337708470855
3780.0703,1.1634217469058092,654.8648604966722
3780.942,1.1679708062314658,765.6618073022455
3781.8118,1.1718077930657582,801.2792106091051
3782.6838,1.17405795605432,752.8976799914449
3783.554,1.1743743237703,558.2568949272113
3784.4265,1.1731859906070299,712.3365224029758
3785.297,1.1715155995704676,651.0235576318084
3786.168,1.1704400759772444,678.8268698875513
3787.041,1.1705105388414307,799.4181122382276
3787.912,1.1714259640703584,716.7583949699354
3788.7856,1.172202972110798,658.8156756925856
3789.6572,1.1717687413648004,650.0617126093358
3790.531,1.1695895687646338,675.6237262176948
3791.403,1.1658281039151903,741.2725960583223
3792.2754,1.1609136822137385,716.2066085970191
3793.15,1.1550675217255815,770.4799265502967
3794.0225,1.1482835363841513,717.2209816749788
3794.8972,1.140552118190768,695.0447965028313
3795.7703,1.132345609747341,766.6420952648004
3796.6455,1.124580306516457,778.546839307866
3797.519,1.1185450583512742,777.3898391452525
3798.3926,1.1153805838191437,790.3602492799381
3799.2686,1.1157466485324539,778.0880597067819
3800.1426,1.119581172169263,800.2210854124191
3801.0188,1.1262040006714045,724.611135286717
3801.8933,1.1345466060922826,806.8001189326766
3802.77,1.1435761316608033,731.3169788132675
3803.6448,1.1523997638117782,675.8984317237529
3804.522,1.1605901170993274,797.2600796429554
3805.3972,1.1680222526951844,679.8012157916529
3806.2727,1.174792627471,748.8426307481471
3807.1504,1.1808200979327548,743.7620935047757
3808.0261,1.1857050529346405,660.1565804505017
3808.9043,1.1891134556740182,614.1099718845478
3809.7805,1.1911750547037168,740.8784346753228
3810.659,1.1927850485487113,696.1068002683794
3811.5356,1.195216762966262,873.8429968266142
3812.4126,1.1993795297737737,603.1805452967066
3813.2917,1.2051473719215535,719.7393748309565
3814.169,1.2112504338670758,618.6944636244277
3815.0483,1.2160123736641166,566.7318546964043
3815.926,1.2181335804654299,545.8569672226093
3816.806,1.2172768326836425,580.0519253536185
3817.684,1.2139416722292455,680.8140500062145
3818.5623,1.2090045600746524,767.4765304055157
3819.4429,1.2032574844349264,707.1021859735184
3820.3215,1.197240007987319,694.6174068149543
3821.2024,1.191094917419134,662.0530921301051
3822.0815,1.184764888553141,632.499623131597
3822.963,1.1780582689260661,704.5249671708251
3823.8423,1.1709405866650853,673.6355011838292
3824.722,1.1634517185206052,731.7918884919872
3825.604,1.1556066540254755,691.8419590675252
3826.4841,1.1473193887049724,707.8826873738756
3827.3665,1.1382881884149894,707.8893598747425
3828.2468,1.1282963206439782,787.4133602653397
3829.1296,1.117134419547085,714.2925320635086
3830.0105,1.1047971412637347,648.1257997357901
3830.8916,1.0912803005233416,683.3716966205278
3831.7751,1.076722962595098,772.4968584633781
3832.6565,1.0616724365943828,835.9664120768238
3833.5403,1.0469218080260188,901.8389042228381
3834.4224,1.033813052140252,1053.179446779335
3835.3064,1.023841105501815,871.0752164817042
3836.1887,1.0185262402037523,1108.8892110446975
3837.0713,1.0187248748349145,942.3246545238418
3837.956,1.0243213276544754,998.1315522940837
3838.839,1.034225762993053,670.3979832245444
3839.7244,1.047094609914139,892.4763570579935
3840.6077,1.0617873433549287,1000.1163315665602
3841.4932,1.077742655305594,927.1578758145642
3842.377,1.0944446434779043,823.8569755039726
3843.261,1.1114146866325336,711.8908429078148
3844.1472,1.128139886550247,720.6048086573647
3845.0315,1.1441347447491645,638.7854039702997
3845.9182,1.159287256715879,746.8287394283136
3846.803,1.1734764120115875,782.0128501215379
3847.69,1.1868037220651801,610.698757488733
3848.5752,1.1993670245599255,649.0279819195961
3849.4604,1.2115369048524463,628.1938301546811
3850.3481,1.22381231180971,605.0769441948058
3851.234,1.2364724869602242,640.0676336538348
3852.122,1.2494950194152243,562.8857388291062
3853.0083,1.2621787665950188,525.8784381954716
3853.8967,1.2735711088806037,612.4889715939547
3854.7832,1.2826462336608522,617.3365995344938
3855.6702,1.28890695185696,620.0391103490161
3856.559,1.2924577530361638,564.9595669608985
3857.4463,1.2939091861395504,618.0978558625093
3858.336,1.2940688295205716,505.4702256809378
3859.2234,1.2935273838866959,616.4220585251567
3860.1135,1.2924559600797436,543.098909306841
3861.0015,1.2906771527593401,548.9915818277528
3861.8896,1.2879086788710274,612.779550276132
3862.7803,1.2840421625659908,613.9233534452652
3863.6687,1.2793179131697223,540.6762719262705
3864.5598,1.274146940295375,669.5394648670098
3865.4487,1.26889022407564,604.2912189087768
3866.34,1.2634058478875487,577.0407225549129
3867.2297,1.2570999977294754,592.2533321365951
3868.1213,1.2491988879040001,609.470908616466
3869.0112,1.2394232854516065,570.3044164231545
3869.9014,1.2281445395301056,625.42299130678
3870.7937,1.2161749463587868,576.9184071036096
3871.684,1.2043426575988117,613.9305122131677
3872.577,1.1929036046166717,723.3171776393708
3873.4678,1.1817128790666904,745.8581563096728
3874.361,1.1702508477497318,650.1238222266452
3875.2524,1.158230416396599,755.8815576744516
3876.1438,1.1456284153971805,677.7447852817464
3877.0376,1.1326146064320695,836.7635753735333
3877.9297,1.1192864764810855,827.2279497537387
3878.8237,1.1052479794258088,734.400543094938
3879.716,1.090027153556618,871.7312326957267
3880.6108,1.0732196902749602,666.7313510114709
3881.5037,1.0549644844611958,934.9548476068969
3882.3965,1.0355021857946376,884.0817405207756
3883.2917,1.0149672507782974,1003.4245287247486
3884.185,0.9935022297583839,843.2571301310137
3885.0808,0.971180252869933,1030.6991778813033
3885.9746,0.9488025918332627,1211.8933652033747
3886.8706,0.9276056868673578,1087.6436311598281
3887.765,0.9094920207565589,1368.7730646564175
3888.6592,0.8963959798030988,1232.388623846708
3889.556,0.8900903554024503,1325.7565372982717
3890.4507,0.8916884012128835,1562.5870766199334
3891.348,0.9010337103097409,1319.1082931340793
3892.243,0.9165141917946937,1108.543707066726
3893.1406,0.9357908011073002,954.2048228444992
3894.0361,0.9564446943709607,863.2135663186384
3894.932,0.9770320389205347,1070.901332528412
3895.83,0.9970335054601447,1191.4272993668376
3896.7263,1.016397242141433,915.7264906256632
3897.625,1.035525553413863,947.0601845723559
3898.5215,1.0546316536348914,871.7220443328721
3899.4207,1.073920672826683,866.5645720154912
3900.3176,1.093040297164384,736.3115835387708
3901.2148,1.1115680451119205,813.4160812580295
3902.1145,1.129227216577082,787.595360929987
3903.0122,1.1461063816703594,628.7567084034549
3903.912,1.1629123987391035,777.343807401219
3904.8103,1.180261637760687,577.2381201183986
3905.7107,1.1985996726252082,716.8424647832451
3906.6094,1.217793430721715,590.4167316376213
3907.508,1.237523583162837,586.3745752666181
3908.409,1.257304136198381,588.1407283373795
3909.308,1.2763565682230107,609.4721773368929
3910.2097,1.2939790879985862,644.1061923397565
3911.1091,1.3094486185653123,527.7956854822063
3912.011,1.3226927396663697,552.8806008014575
3912.9111,1.3340882740976854,523.9321326645298
3913.8113,1.3444358501268374,590.9326258420609
3914.7136,1.3544207231813548,487.19668875072523
3915.6143,1.3642302436895735,521.9921940044065
3916.517,1.3736805342584977,513.3093361817705
3917.4182,1.3822832099621107,446.21786709996155
3918.3215,1.3897345846299365,555.6346834746433
3919.223,1.3959686715300388,508.3875773284574
3920.1245,1.4012326136456628,490.38641368722625
3921.0286,1.4058464014479042,440.8585202758594
3921.9307,1.4100645717698475,484.9509411873116
3922.835,1.4141176008324303,463.64856290470254
3923.7373,1.4180675568778807,483.9023408619796
3924.642,1.421765263708079,507.7606882016863
3925.5452,1.424718317448251,447.21904906919156
3926.448,1.4262916678475899,406.91819785437156
3927.3535,1.426010193050067,495.6165272614914
3928.257,1.4238838470110569,412.5570490340339
3929.1628,1.4203892625982733,424.4943046359774
3930.0667,1.4161424408569283,498.2325344211993
3930.9731,1.4115017204237572,516.3982290288022
3931.8774,1.4067120304648333,448.57806224084715
3932.782,1.402139231799132,456.30090826548843
3933.6887,1.3983498892453898,486.4655101763036
3934.5938,1.3956598001209084,580.1780662869903
3935.501,1.3935704660937043,427.887984940738
3936.4062,1.390932704242122,460.2074065215582
3937.3142,1.3866637321319344,508.02926902272895
