wavl,flux,ivar
3566.9744,2.698438904725363,29.309224477085102
3567.795,2.696766009111227,30.926896905207496
3568.6177,2.6829272407894598,40.09597001278253
3569.4385,2.661473815499911,81.10316062577769
3570.2617,2.641006781998068,41.22442722587774
3571.083,2.6304147788301493,95.5320622832278
3571.9065,2.634408088954193,68.35863125661002
3572.7283,2.651399759298545,42.31788630053404
3573.55,2.6741896153334603,47.010918965783986
3574.374,2.6935051723818226,70.59898893683905
3575.1963,2.7021880267386917,44.38851038423368
3576.0208,2.6982554729726673,40.55594219822294
3576.8435,2.6847189299057064,48.72878191743022
3577.6682,2.667103074908812,65.41024890377581
3578.4915,2.650006928258095,87.87305391945193
3579.3145,2.634312690685462,115.53726008684099
3580.14,2.618397870984131,67.84147476510415
3580.9636,2.602770733520608,73.63069437989299
3581.7893,2.5923024183638286,140.5726142218318
3582.6133,2.5925532406076703,70.76294049187591
3583.4395,2.603196018817136,43.378955520550576
3584.264,2.6174340720969544,32.47052750122582
3585.0884,2.6287920945562577,36.07582485337798
3585.915,2.6369767796483656,59.25820050507403
3586.74,2.6462408227434255,50.30084987326236
3587.5671,2.6590099531682245,57.45519882156208
3588.3923,2.6718542598998263,45.145559374449455
3589.22,2.6782248887697397,40.716832488954516
3590.0457,2.6739350826735584,50.695579251647295
3590.8716,2.660544548655321,70.6646940196437
3591.6995,2.6435584558827316,43.80291910071624
3592.526,2.6284537684454126,56.88515734260687
3593.3542,2.618108982420117,50.355694761862374
3594.181,2.613847859889376,42.13860758619036
3595.0098,2.6164318274557083,76.76358048440973
3595.8367,2.6251470032817665,62.06450240770481
3596.6638,2.6362963354753832,53.440622050437504
3597.4934,2.6441232102494694,52.186228274968784
3598.3208,2.64402335112916,252.27233773645276
3599.1506,2.6355825919834586,73.44665925146798
3599.9788,2.6232203557063625,70.46044373579275
3600.8088,2.6141566829434915,95.03399007173664
3601.6372,2.614538223857948,75.95710298266766
3602.4678,2.625139665948309,104.641507276168
3603.2964,2.6404876148364385,43.54382932428409
3604.1252,2.6532511108208707,43.50820605233271
3604.9565,2.6604169942146383,51.21241897971312
3605.786,2.6659491277787826,62.579278856696554
3606.6172,2.677571060429372,72.04992396690838
3607.447,2.700331632515787,114.46256800699928
3608.2788,2.7330890214452457,53.611985506990536
3609.109,2.769108181387931,53.05516380669399
3609.9392,2.799954677411924,34.317700023751975
3610.7717,2.817952215526529,31.830582172231995
3611.6023,2.8177872253217067,35.958178078176985
3612.435,2.798819876735881,34.281964995369364
3613.266,2.767058614944823,64.27740153260132
3614.0994,2.7335695195597154,46.17260525733553
3614.9307,2.7090173104752906,53.05267555803424
3615.7625,2.696612309894034,62.01372298991784
3616.5962,2.6913367851424344,40.26210600590513
3617.4282,2.6850276105548048,71.03766288961499
3618.2625,2.6728426415007407,44.06399154794156
3619.0947,2.655873500406977,54.93602692526117
3619.9292,2.638386286118746,57.20289861218838
3620.762,2.624056269919393,65.51788480797896
3621.595,2.613874024776734,54.32231759867627
3622.4302,2.6073177259174436,78.42057309784711
3623.2634,2.603743036160414,60.14030336675519
3624.0989,2.601898386243779,45.80774036362897
3624.9326,2.598697395088913,66.1238343106578
3625.7686,2.589305406623145,37.95092759961547
3626.6028,2.5695586204144294,60.630365111365194
3627.437,2.538791708718967,66.50003106332521
3628.2734,2.5016451659196326,36.05414277825856
3629.1082,2.468213648674594,79.9339817575688
3629.945,2.4502875793751224,142.23024197338674
3630.78,2.4560845659497086,223.89873146331493
3631.6174,2.4848210604035157,65.89084288020021
3632.453,2.526183949022148,44.43475796636845
3633.2883,2.5663322261111037,50.675824795341605
3634.1262,2.595690462974652,47.06696261627727
3634.9622,2.6132824209334653,33.36232866437813
3635.8005,2.6252118409718204,31.460990305601097
3636.637,2.6377728575760897,43.39710454518879
3637.4756,2.6525654545963637,59.675025548232156
3638.3123,2.66592370695758,46.908260265887506
3639.1492,2.6725233059209343,46.321146058359076
3639.9885,2.6689285860487537,144.12151430163888
3640.826,2.655835289490288,48.503536468375884
3641.6653,2.6376862114341932,72.13442135106037
3642.5032,2.6199743425035833,115.8182974535041
3643.343,2.6054706894627775,43.315965912995864
3644.1812,2.5936714288112426,62.661560295933064
3645.0195,2.5832110175164305,67.41509543282297
3645.86,2.574725190184273,65.18061402990664
3646.699,2.570354484528951,74.18517897501957
3647.5398,2.5706510320935263,70.9987384399883
3648.379,2.573087826951131,65.3788330479509
3649.2202,2.5738581534876617,55.395761445104874
3650.0596,2.570933086109152,56.75781779510354
3650.8994,2.564909276989935,50.773958165370814
3651.7412,2.5569546313283764,42.62972675797957
3652.5813,2.5468433765665575,73.4780944412413
3653.4236,2.533524847029095,52.221237696376654
3654.2642,2.517864918210781,93.98625055098469
3655.1067,2.5032339579241234,65.07860832835473
3655.9475,2.4933372514055447,78.51685376158309
3656.7886,2.4891155906042814,45.42175096758363
3657.6318,2.489030761947892,65.17040405371206
3658.4734,2.491840129671478,86.557884988144
3659.317,2.49850448385338,55.32855595864562
3660.1587,2.5109141136034476,52.56753417074542
3661.003,2.5294309044184624,51.52538117965074
3661.845,2.5515359538325977,50.10187628145849
3662.6875,2.5731703041189955,60.64339699173417
3663.532,2.5901773124678176,99.42451544900631
3664.3748,2.5994421594494503,52.48735665400441
3665.2197,2.5999431953657717,61.6473186490179
3666.063,2.593128172373778,34.83301214990201
3666.9084,2.5827908553142667,91.4491828499882
3667.752,2.5742312230626045,34.11111898714508
3668.5977,2.5727574793716226,62.14149119215819
3669.4417,2.5822124256221692,54.225516997927244
3670.286,2.603113482287594,81.71422752718746
3671.132,2.631599640835614,43.20595667327889
3671.9768,2.6601534316456097,34.79200283944919
3672.8235,2.681322077888489,42.5654404062588
3673.6685,2.690725434761704,41.02654463265745
3674.5156,2.6882312254823364,46.77172265471208
3675.3608,2.6761505738130174,41.43095704325137
3676.2063,2.65741434821243,46.575726440331906
3677.0542,2.635148328307965,118.49728841556676
3677.9,2.6134050558780526,48.40468955504943
3678.748,2.596661399653409,57.98701239388187
3679.5945,2.5891430015145307,51.65989833983789
3680.4429,2.5929767501071366,73.48188712859142
3681.2896,2.607226258735691,53.92007876872151
3682.1365,2.6279950905646916,38.27921664674085
3682.9856,2.6498384322560593,52.04963930933103
3683.8328,2.6675243780167235,49.03345084471167
3684.6824,2.6779024642588563,55.53962848663486
3685.53,2.679995770973019,98.27866496888325
3686.38,2.6745803338345633,49.74928508514141
3687.2278,2.663212805453665,35.413698989488005
3688.0762,2.6479037378302657,57.43997887103836
3688.9265,2.631698857896717,49.33225036152929
3689.7751,2.6191267268536733,87.13419001994842
3690.626,2.6148719768856927,95.6254694417276
3691.475,2.6217267414871284,31.857869022196294
3692.3264,2.6389247446819266,57.24181256956568
3693.1758,2.6623982651779214,63.347016743508696
3694.0254,2.687251385824221,38.20755074995514
3694.8772,2.710148580785293,72.25849627337908
3695.7273,2.7300223375198884,70.25385238758976
3696.5793,2.7469169384795094,59.103644798867975
3697.43,2.7593358678928754,42.49879862437977
3698.2825,2.764249949373565,27.268044353913936
3699.1333,2.7594913502521567,52.78044497162756
3699.9841,2.7463591010633888,66.97929656477683
3700.8374,2.7288222429184357,36.891862943061604
3701.6887,2.710833475941207,38.88570760297662
3702.5425,2.6945144064480315,43.39125337222367
3703.3943,2.681435482266463,66.90311137871429
3704.2483,2.67298966242277,88.54896186933601
3705.1003,2.6694536550353676,74.00778290772683
3705.9526,2.668926131529115,44.67253708256173
3706.8074,2.6690498581555455,50.89942173627328
3707.66,2.6694422649253657,32.7371415068157
3708.515,2.6716401729101444,68.79774277005689
3709.3682,2.676477459159805,42.3754260926501
3710.2234,2.682486102718393,52.88974810325328
3711.0771,2.6872448943341802,57.1075125984885
3711.9307,2.6899795616463087,70.34408541031546
3712.7866,2.692002538199721,54.496820295323595
3713.6409,2.6946814561237766,53.55887933720915
3714.4973,2.6972268239224246,51.910354711652296
3715.3518,2.696304832964324,52.956317737691364
3716.2085,2.687676441763464,43.48777767679105
3717.0635,2.6686789133835433,58.520617583443524
3717.9185,2.6403276201462154,85.93926269757334
3718.776,2.6081742182874064,54.93664458017182
3719.6313,2.581038879992556,58.93144820209038
3720.489,2.5664137796080855,39.714154878309294
3721.345,2.56687931503178,50.392705572060514
3722.2031,2.578765402047898,63.85774906379388
3723.0593,2.5945510365126476,39.134996497288085
3723.9158,2.6067686734514632,50.25783465506411
3724.7747,2.6106361525480577,49.58309192049887
3725.6316,2.604982963421132,50.72241091959552
3726.4905,2.591851441097511,48.52094613427087
3727.348,2.5753493485860157,52.12857997529443
3728.2073,2.5599381019407352,55.191810396595216
3729.065,2.549313170118128,43.68066227079688
3729.9229,2.545361999476264,57.89769485441694
3730.783,2.547793659451008,40.25858143019207
3731.6414,2.5537287034607266,105.81198006709033
3732.5017,2.5583711897889128,38.62060932420558
3733.3604,2.557142875496488,60.305772183833355
3734.2214,2.5485290410351342,52.637969673800114
3735.0803,2.535373253180278,54.887772654418995
3735.9417,2.522979560404998,74.97281753276255
3736.8013,2.515701917107094,59.67587182000271
3737.661,2.5141398165590183,53.64307379614817
3738.5227,2.5157838122313514,49.9666605964865
3739.3828,2.517712019706215,38.57735945320936
3740.245,2.5187648479850218,54.63727916641309
3741.1055,2.5192818921750146,90.25148220281187
3741.9683,2.5195296701574614,102.15085891083264
3742.829,2.519004031784219,82.20667856707702
3743.69,2.517321938455556,67.68687823722891
3744.5532,2.5152312024153916,68.7875095395264
3745.4148,2.514424527561648,72.94967868560107
3746.2786,2.5164567739825032,49.53160869549643
3747.1404,2.522151938186693,48.06462534098456
3748.0044,2.531893192679001,47.312695098986374
3748.8667,2.5456593634305267,67.55978367409702
3749.729,2.562473784427662,58.332240892706736
3750.5938,2.5795834884550115,46.90160224386875
3751.4565,2.5928914896287765,63.31443135000874
3752.3215,2.5996599706397365,52.69835484025316
3753.1848,2.6006689382796147,39.99645837337984
3754.0503,2.6001064552730284,70.03247602596295
3754.9138,2.6022463220967005,45.26765869477369
3755.7776,2.6080973501754694,70.73605936788186
3756.6438,2.6153900193948414,54.37512704016987
3757.508,2.6215696383080473,41.94637271060908
3758.3745,2.626260196755275,84.47348995734558
3759.239,2.6299569077331744,39.12752524458848
3760.106,2.631443839539095,47.2643580676086
3760.971,2.627683358436865,46.92177834524124
3761.8362,2.616956154378946,54.17074864701192
3762.7036,2.601335141532212,66.6896416450995
3763.5693,2.5857394176537687,43.81407745187618
3764.437,2.5740745066669986,51.499167089286146
3765.3032,2.5669271931075928,44.127846862330784
3766.1714,2.5618341467537395,76.16846582490477
3767.0378,2.5556961811781016,54.18277051583203
3767.9043,2.5467212988331642,53.45798293928842
3768.7732,2.535186077265119,47.02398232995207
3769.6401,2.5230387710732547,65.51678541291339
3770.5095,2.512332007681998,76.10327252230323
3771.377,2.504193715616524,103.51778510824204
3772.2466,2.4985539043026415,58.613289375524324
3773.1145,2.4953967984594394,35.397200738877466
3773.9824,2.495602414954101,71.60055305422759
3774.8528,2.5006629132615354,69.72964085712802
3775.721,2.5111882291701764,62.73720835400553
3776.5918,2.5258133348079026,52.19167220542311
3777.4604,2.540969290525116,37.06474479662547
3778.3315,2.5525696910850724,57.597167948752265
3779.201,2.5578799159700134,47.94222448284072
3780.0703,2.5571728695468137,51.749848171950305
3780.942,2.553021652343328,58.577318178055506
3781.8118,2.5481090187782973,43.37765905134018
3782.6838,2.5432234817558923,144.04692559182934
3783.554,2.5374015087052424,64.03794459190915
3784.4265,2.5294077737402394,42.0012170479941
3785.297,2.5191595328546286,53.384065657910654
3786.168,2.5075953947603846,46.67858352870953
3787.041,2.495990269931762,61.07764952744171
3787.912,2.485608154511558,75.57455141087226
3788.7856,2.477509547663632,48.456454338028884
3789.6572,2.472467824680072,59.40995505412613
3790.531,2.4701054116455423,56.34962816918075
3791.403,2.468824676858971,77.42063480892071
3792.2754,2.466831275473313,77.1451681925733
3793.15,2.463612739208194,51.33360174491893
3794.0225,2.4603088571343497,66.17731123033354
3794.8972,2.4584922380918446,61.65221721991118
3795.7703,2.458540487787348,52.26647784170338
3796.6455,2.458784356424965,50.56041117304965
3797.519,2.4563947417744445,73.24047471694715
3798.3926,2.4496675510238464,81.31319690464805
3799.2686,2.4400290106979083,57.00764045860674
3800.1426,2.4320213633731647,79.96322901254233
3801.0188,2.430583084486614,64.16321861967533
3801.8933,2.4380423690175084,93.52863119625701
3802.77,2.4527089299931117,43.058179373655925
3803.6448,2.4696959558013107,88.2319955892507
3804.522,2.483544361516268,40.534807302622376
3805.3972,2.490623699186363,45.61568527851887
3806.2727,2.4913695603116652,71.89460320403684
3807.1504,2.490319031856425,78.88366988839672
3808.0261,2.493856029479471,167.1128867969441
3808.9043,2.5063721646367503,61.811461702297194
3809.7805,2.527338685289917,116.16457454030524
3810.659,2.5519549829744164,44.063644009778585
3811.5356,2.57409524187939,58.9656722528457
3812.4126,2.590135759460049,54.55673263754477
3813.2917,2.599874515472733,41.34907224318164
3814.169,2.6052823675544747,48.13534905026974
3815.0483,2.60883285482594,47.510927280561006
3815.926,2.6120938846691675,58.29664122077218
3816.806,2.6149270506514797,51.870148059908246
3817.684,2.615213541609185,44.94542647509101
3818.5623,2.610201903252345,48.63320677157877
3819.4429,2.598829053396804,62.943760152922046
3820.3215,2.5832884153308533,52.73357968047172
3821.2024,2.5676628037591653,54.264465930304304
3822.0815,2.555138733673244,102.1025010492708
3822.963,2.5453791126060303,58.26922651248033
3823.8423,2.5350819680155663,59.819325765849555
3824.722,2.520485217386865,44.052839360042206
3825.604,2.5000583140484856,59.55254240729212
3826.4841,2.4753544180221265,78.56186065650748
3827.3665,2.4492480693458716,63.57754117069527
3828.2468,2.4242914547410064,60.98242936749264
3829.1296,2.4009391327287397,68.80548956751413
3830.0105,2.3782809550494997,97.596696443388
3830.8916,2.3551351324437975,59.06874260072672
3831.7751,2.3317048359136026,63.57715023968603
3832.6565,2.3099186323135625,83.76045578272877
3833.5403,2.2917555176284474,63.07199993560225
3834.4224,2.2781843052384336,85.76056864739336
3835.3064,2.268442052630558,79.69389976352022
3836.1887,2.261335467194023,53.1319726769077
3837.0713,2.25666082527157,80.87490221342254
3837.956,2.25597330768297,76.65764225447936
3838.839,2.26159089826449,92.57531383686184
3839.7244,2.2746945755524846,59.62010186964207
3840.6077,2.2939534067743033,83.8735918037357
3841.4932,2.3162698550324228,73.71816131762166
3842.377,2.338357988130566,56.563248227239775
3843.261,2.3587621261983114,114.36523009448652
3844.1472,2.3777637074879303,64.52798412305836
3845.0315,2.3959441829283343,45.49348286898656
3845.9182,2.41355689006612,68.16683543731153
3846.803,2.43075411503602,104.21549042808337
3847.69,2.4490028373333184,60.83624521589446
3848.5752,2.4704332306586054,69.24856961347733
3849.4604,2.4962560803972673,95.13807030557564
3850.3481,2.525151197985635,42.34747332917092
3851.234,2.5534161616608393,45.050794466593175
3852.122,2.5775672843732305,44.89053126956459
3853.0083,2.5958090058516525,47.67297998765805
3853.8967,2.609020013001914,60.60657627019168
3854.7832,2.619644167639812,64.6963595094857
3855.6702,2.630721371120518,54.88722213204885
3856.559,2.644297569752033,69.63102019503435
3857.4463,2.6596349184492594,49.01908480554089
3858.336,2.6726942086811336,49.6418854539599
3859.2234,2.6778813193448365,49.10438197638332
3860.1135,2.6722933415549592,41.8306843104467
3861.0015,2.658236486254665,60.971857269729846
3861.8896,2.6415947391374313,77.03839749998693
3862.7803,2.6274694626229165,54.62882859973344
3863.6687,2.6171869276377646,45.08855932636266
3864.5598,2.6086623490832515,66.31046396469061
3865.4487,2.5997236816338956,58.018386623925
3866.34,2.5901865301099765,50.894441118243655
3867.2297,2.581626052641218,55.97449507407747
3868.1213,2.5750856992247946,67.79283926603915
3869.0112,2.5697208722229417,63.81615750670551
3869.9014,2.5630947779262083,60.0486326870863
3870.7937,2.5528279288781692,57.89635972706054
3871.684,2.5380076253592696,53.58042805618581
3872.577,2.519039880557701,43.313943253887246
3873.4678,2.496967898394833,58.784900358089416
3874.361,2.4723318932296223,79.1483244674062
3875.2524,2.4460240947506806,72.80706742273787
3876.1438,2.420056383464898,61.44216400144592
3877.0376,2.397834329836948,65.05776274183025
3877.9297,2.382289427362084,71.86675558189471
3878.8237,2.372791892191684,83.20926930831044
3879.716,2.3648159973233525,76.28842512566914
3880.6108,2.352242352955068,56.07569646982626
3881.5037,2.3311037268867194,78.36277363635305
3882.3965,2.3011073783317957,65.25201492585425
3883.2917,2.264585878504895,58.766832024554716
3884.185,2.2244467056969897,79.71723091774662
3885.0808,2.181681864495081,64.54359214827134
3885.9746,2.1361653535271863,73.99675258523644
3886.8706,2.08761125257,67.74863843311881
3887.765,2.038623876103518,99.95864774756375
3888.6592,1.9948374542457719,96.41829312954548
3889.556,1.9638210404840513,106.16641759283718
3890.4507,1.9522351750248212,107.88708270671576
3891.348,1.9626193029883436,75.00537503418556
3892.243,1.9927677439575953,136.2549403743945
3893.1406,2.037283784547889,85.329588059483
3894.0361,2.0893150190228034,131.04431394197042
3894.932,2.143374182939549,76.28806479385132
3895.83,2.1961363999479837,112.88001173925973
3896.7263,2.2459774318354606,68.42918018284097
3897.625,2.2928143665203047,87.11587093406477
3898.5215,2.3359055268280833,64.81149492527871
3899.4207,2.374368206580917,48.1615335557342
3900.3176,2.406746528178916,53.6895443058754
3901.2148,2.4324587190964593,51.01526913831042
3902.1145,2.451693923614824,80.51810835718285
3903.0122,2.4653414319215945,69.3896814652984
3903.912,2.47522214193515,71.46462901611858
3904.8103,2.483633162372959,63.10739756874725
3905.7107,2.4931369679190842,56.11090355342275
3906.6094,2.5058527261414154,66.9961501555559
3907.508,2.523097670636287,89.8201311748022
3908.409,2.545003164279456,64.62682612547285
3909.308,2.570189143762471,94.77390510338174
3910.2097,2.596376495495963,46.54947467150908
3911.1091,2.6205906398872987,47.98411431448423
3912.011,2.6405444365124633,40.91694059458585
3912.9111,2.654996120274805,38.405700543372944
3913.8113,2.664488164616032,86.21507391299573
3914.7136,2.6707962288329448,53.0485288979448
3915.6143,2.675768141636955,59.16025116760694
3916.517,2.6800729990278973,57.38892272918274
3917.4182,2.682693669976127,55.29072895534305
3918.3215,2.6821950047751697,53.970013082352416
3919.223,2.678610534353637,40.95436540242493
3920.1245,2.6741168442276924,55.52558549967539
3921.0286,2.671657572425888,85.91311114009282
3921.9307,2.6729208771676287,43.77785069048128
3922.835,2.677421389204127,49.760953944592224
3923.7373,2.6830178743045527,75.50653187298781
3924.642,2.687010641275223,58.81081498944969
3925.5452,2.6871425252642114,44.85583926737052
3926.448,2.682847587339296,41.59262993323534
3927.3535,2.675853943273347,50.20596635324912
3928.257,2.6694425668664956,46.147037610923036
3929.1628,2.6661193162959234,62.055181555659
3930.0667,2.6658795763807293,61.73730682422388
3930.9731,2.6664091411625717,51.67421834765953
3931.8774,2.66528530586774,52.192315211287784
3932.782,2.6621102763288396,57.059378161119454
3933.6887,2.6586927954389448,59.67253101556133
3934.5938,2.6572983210201535,52.07119865013554
3935.501,2.6585937918590266,39.84220740067355
3936.4062,2.661139264342127,50.260895094219315
3937.3142,2.662351768009645,57.140650795497294
3938.22,2.6597149261146904,49.10082542168992
