wavl,flux,ivar
3566.9744,1.6582658586082517,452.50709389826847
3567.795,1.6589108598114155,494.4541074315614
3568.6177,1.655189621487241,569.6613846691129
3569.4385,1.648401892073161,471.92997784117404
3570.2617,1.6404834118118679,441.7282857338958
3571.083,1.6330758349093488,499.4277003124437
3571.9065,1.6268713964293962,475.1175397874905
3572.7283,1.6218694602487262,482.16503905153144
3573.55,1.6176913769216332,600.5537203943642
3574.374,1.6141313514458884,521.5332275328424
3575.1963,1.6115330664561933,527.2922491036426
3576.0208,1.6106029943841271,545.8509519070319
3576.8435,1.6117540610978853,610.3242053457325
3577.6682,1.6144029763265935,483.46429407942514
3578.4915,1.6170475370645476,528.5511802108999
3579.3145,1.618264871724647,465.4474781781577
3580.14,1.6177851058069388,451.2451641182044
3580.9636,1.6167742891632817,491.6053718932159
3581.7893,1.6169041037408165,550.7482734542158
3582.6133,1.6188967357524173,553.1165326217109
3583.4395,1.6218798460970572,403.62318937001555
3584.264,1.624208911916877,334.9526591185068
3585.0884,1.62500969869773,643.8144313490529
3585.915,1.6246941606787233,517.9728689681308
3586.74,1.6240617728250197,493.0593460236176
3587.5671,1.6230633123432487,487.6620912213811
3588.3923,1.620667219327129,493.42338595240324
3589.22,1.6158775464814013,535.4165128198304
3590.0457,1.6089104017633638,497.2918644013427
3590.8716,1.601229291834773,600.2212214271382
3591.6995,1.5946763821836012,484.8386624401644
3592.526,1.590424071055776,497.02617172833175
3593.3542,1.588357239856527,528.7940784561242
3594.181,1.587322334605021,509.2305642972569
3595.0098,1.5857185624574963,543.5857001821201
3595.8367,1.5823540303394754,576.8579563732537
3596.6638,1.5771198546262644,449.57471990354463
3597.4934,1.5711543599126796,545.120701473027
3598.3208,1.566293779490056,547.2519659287418
3599.1506,1.5638811135986264,595.6218709761575
3599.9788,1.5641029858711477,541.4336531210067
3600.8088,1.566068865860969,549.7345768994096
3601.6372,1.5686364940524375,430.1571683300021
3602.4678,1.5711933860485638,532.5069802071913
3603.2964,1.5737446235752188,608.728944935243
3604.1252,1.5765218131383458,446.005007009527
3604.9565,1.5794957184956568,507.68640346152733
3605.786,1.582302151887843,500.09208528703056
3606.6172,1.5846405714893264,500.0093120253198
3607.447,1.5865174743528279,565.71820086427
3608.2788,1.5881664353347649,529.383203855179
3609.109,1.5896405871409462,496.68788116890397
3609.9392,1.5907078759007645,559.364804621373
3610.7717,1.5911268659935747,506.3742099946806
3611.6023,1.590960227086839,527.5696615586733
3612.435,1.5904500298657291,515.9644043844411
3613.266,1.5895664303328843,518.3632113587552
3614.0994,1.5878096769128371,581.7045228390333
3614.9307,1.584621521657768,471.5393853714028
3615.7625,1.5799351250600877,506.4523002075671
3616.5962,1.5743368010172032,509.9100923280878
3617.4282,1.5687429482349837,563.2022437335021
3618.2625,1.5638485095589503,559.216407833987
3619.0947,1.56000518398838,640.2244049158238
3619.9292,1.5571515351745142,475.9905292548633
3620.762,1.5550401530380735,641.5535902274075
3621.595,1.5533867556927998,472.47104375832396
3622.4302,1.5520084375986138,663.8941601395774
3623.2634,1.5507389828656117,533.3583732402199
3624.0989,1.5492430479638117,544.1006058578122
3624.9326,1.5470618739359727,589.5395408254553
3625.7686,1.5438239691452014,631.9546990772436
3626.6028,1.5395646141984893,563.2809156036659
3627.437,1.5347881662832634,583.3551711982213
3628.2734,1.5303419107575107,665.7396920945868
3629.1082,1.5270616289069214,646.0204737540269
3629.945,1.5252062356123655,649.4646582422358
3630.78,1.5242579368411346,495.2035382121838
3631.6174,1.5231275188123918,515.9339158272342
3632.453,1.5208040764346726,508.84140130452903
3633.2883,1.5169007967144652,641.3822552120489
3634.1262,1.5118266819319621,575.1738364149265
3634.9622,1.506586893134909,544.9964385933416
3635.8005,1.5021673572564866,630.6681624742839
3636.637,1.4991661733468504,581.827861703624
3637.4756,1.4975874829894478,587.2493858011763
3638.3123,1.497108959465586,577.7199420377506
3639.1492,1.497263193901267,525.7965314745525
3639.9885,1.4974620337464695,576.0567970428186
3640.826,1.496945189630016,711.5911672760099
3641.6653,1.4949982974469331,591.1788894464314
3642.5032,1.4914244014907236,631.1984436550779
3643.343,1.4867867038417744,599.8081348592899
3644.1812,1.482199421011062,694.9072980023045
3645.0195,1.4786078989539317,761.3259043661253
3645.86,1.4763129169041993,597.7405451591889
3646.699,1.4749836975749404,538.4443103948369
3647.5398,1.4740430876398576,598.3389856971355
3648.379,1.4731028105457329,616.7819218098784
3649.2202,1.4720461235867186,556.1427458922253
3650.0596,1.4709049307054252,613.130663900352
3650.8994,1.4696901303574328,651.3331546959138
3651.7412,1.4684036808303944,554.4378758375319
3652.5813,1.4671775061521475,604.7290937887526
3653.4236,1.4663258571823676,710.5228649963846
3654.2642,1.4662078186486844,609.8272886368924
3655.1067,1.4669005217440825,570.1853524340247
3655.9475,1.4679968421919167,552.2738410071099
3656.7886,1.4687166283995627,625.0831570875547
3657.6318,1.468282117738263,616.0834395996163
3658.4734,1.466400315140921,617.6753887879142
3659.317,1.4635556486118502,604.0129585853479
3660.1587,1.4609468704075232,546.8323259628761
3661.003,1.459973998591614,724.2083477861682
3661.845,1.4616889354788674,532.2279251190514
3662.6875,1.4663763233026186,607.0407204672322
3663.532,1.4734555419505044,609.2927146502312
3664.3748,1.481539597880586,637.2558735874796
3665.2197,1.4889730728504256,521.9305829192368
3666.063,1.4943576340668185,505.4416315001885
3666.9084,1.4972346904859564,609.2157011074333
3667.752,1.4980390623165578,541.4113955377081
3668.5977,1.4976090118409735,666.1245992698625
3669.4417,1.49642705576913,596.2767304749564
3670.286,1.4943426961543855,500.66162891457253
3671.132,1.491029458895876,572.6708215720295
3671.9768,1.4867590705531806,540.2282570932928
3672.8235,1.4825226793437447,548.483790890966
3673.6685,1.4793870978363657,589.3679787362737
3674.5156,1.4775576546741063,552.1046893168345
3675.3608,1.4763374529532038,584.0368145289998
3676.2063,1.4748474549849762,721.2930017588947
3677.0542,1.4728215823857487,547.530497927314
3677.9,1.4707213450378591,712.7028483680076
3678.748,1.469209081239442,627.9486899178366
3679.5945,1.4686769720103865,530.1798881660981
3680.4429,1.4690256683267202,522.6659110312874
3681.2896,1.4697478340381778,554.7772123059334
3682.1365,1.470161030084442,569.0655210140533
3682.9856,1.4697505576108698,651.3257212766155
3683.8328,1.4684792393129695,686.8331155614882
3684.6824,1.4667795282850684,707.6512021951958
3685.53,1.4652450650182947,541.2246038380669
3686.38,1.4642313079664584,594.2528504486496
3687.2278,1.463781950631388,569.0053307269965
3688.0762,1.4638016793353203,637.388421205605
3688.9265,1.4642869967707703,596.4799012750165
3689.7751,1.4652991486098321,561.539416505673
3690.626,1.4667564505374557,677.766181821832
3691.475,1.468288088626143,603.2451073188
3692.3264,1.4693829526795874,605.8896630126462
3693.1758,1.4695932283130109,618.0732652643223
3694.0254,1.4686701021546913,717.2445545471542
3694.8772,1.466542594617839,533.6498959471164
3695.7273,1.4633240474519762,750.1025690943402
3696.5793,1.4592715072750293,585.7374612640306
3697.43,1.4548201554307558,617.1078026444052
3698.2825,1.4504530813455978,644.5756758628951
3699.1333,1.4466518362422705,595.2458402896623
3699.9841,1.443730917020302,616.0107300325362
3700.8374,1.441832832079908,705.3922292092884
3701.6887,1.4409021742240444,712.8584292865153
3702.5425,1.4405950559647018,636.5673523470767
3703.3943,1.4403413105596348,545.6334132821893
3704.2483,1.4395444402395017,731.5265607304561
3705.1003,1.4378213710382408,680.2338093820053
3705.9526,1.4350615869461458,600.9989520137677
3706.8074,1.4314130985866331,658.2965867407089
3707.66,1.4273649625762455,642.9609354621556
3708.515,1.4236593366186887,655.3772608240297
3709.3682,1.421090303618621,674.8275432854554
3710.2234,1.419988704587612,777.6778671286463
3711.0771,1.4200284475445057,686.05488001469
3711.9307,1.4204020017716823,606.8407296165888
3712.7866,1.4202752534949523,724.8070176199295
3713.6409,1.4191421686178143,631.0574247259924
3714.4973,1.4169968776655146,632.8957486998324
3715.3518,1.4144352472159736,626.9452190269867
3716.2085,1.412523324764889,705.1425350838994
3717.0635,1.4123634387482795,770.7727629572669
3717.9185,1.4143388995092083,721.9959788431402
3718.776,1.4177715850418855,655.9164168398881
3719.6313,1.4212894198920094,671.5661563387307
3720.489,1.4237756264297912,586.9345540675718
3721.345,1.424862566166422,655.3550607185163
3722.2031,1.4248130318559524,702.072641033612
3723.0593,1.4240608830534063,613.4586997709968
3723.9158,1.423039567743343,595.2378441945733
3724.7747,1.4222032147614332,587.0415310230071
3725.6316,1.4218977407354747,742.9388237135922
3726.4905,1.4220871704278417,550.8130477239371
3727.348,1.4223281509915155,603.8747933401671
3728.2073,1.422021474184082,662.2927483839286
3729.065,1.4206787869428341,651.8598533373276
3729.9229,1.418055980955485,616.3577907121304
3730.783,1.4142420152999249,635.1173526618121
3731.6414,1.4097539291805994,669.677624906543
3732.5017,1.4053336507386711,785.9034644420326
3733.3604,1.4016529492044032,678.9662931054704
3734.2214,1.3989242348470723,667.8432133962617
3735.0803,1.3969999045030808,621.6000813663059
3735.9417,1.3956689879449835,629.2425304203109
3736.8013,1.39499777654297,661.9820026998414
3737.661,1.395228950359055,760.114030309118
3738.5227,1.39645318952537,666.4587242980298
3739.3828,1.398337136924281,594.4420840484682
3740.245,1.4002246510030067,677.8898347086584
3741.1055,1.4014586118907264,638.0669169816766
3741.9683,1.401745720156262,574.0310359362803
3742.829,1.4011944112668364,706.7025088111166
3743.69,1.4000900723692176,697.2423014817518
3744.5532,1.3986166084475105,618.1447232194316
3745.4148,1.3968527536045894,774.9983522776209
3746.2786,1.3949472496495832,582.1924634841962
3747.1404,1.3932775117774994,743.8677314118315
3748.0044,1.3922841412148979,760.4237272447164
3748.8667,1.3922535273730448,695.6846445373313
3749.729,1.3931912803127873,780.5500416692662
3750.5938,1.3948809961133166,672.7486852930566
3751.4565,1.3968999345020376,685.0277003952029
3752.3215,1.398686973892213,584.1062182355321
3753.1848,1.3996839599605573,691.1864549192787
3754.0503,1.399635078661337,713.525950885253
3754.9138,1.3986920507305545,764.418989772038
3755.7776,1.3972687570035485,633.1397069446014
3756.6438,1.3957789839102162,696.2073942668387
3757.508,1.3944761040513276,701.9523279511241
3758.3745,1.3933668065953255,716.9745328339911
3759.239,1.3922694617328006,698.1584897000668
3760.106,1.3909289020307043,644.7941327939528
3760.971,1.38924262522601,667.1696200021838
3761.8362,1.3873533382243157,708.6710253328586
3762.7036,1.3855612272320261,657.8312104336076
3763.5693,1.3840920199740896,769.4627507600966
3764.437,1.382894816508848,725.2583750240068
3765.3032,1.38171163722002,722.5788437082159
3766.1714,1.3802480159298136,666.2172233253808
3767.0378,1.3783640674373359,671.9319182623357
3767.9043,1.3761234732113696,720.9598146449977
3768.7732,1.3737936980022833,655.2970849581267
3769.6401,1.3718007432364332,733.3952971241273
3770.5095,1.3705401973251514,766.0843286636529
3771.377,1.370257231914548,799.9012677845069
3772.2466,1.371015046066093,682.0291982993622
3773.1145,1.3728553117461497,771.4031547728517
3773.9824,1.3759089010819632,799.0678323629095
3774.8528,1.380286815608883,630.8236207501986
3775.721,1.3857873208531264,646.0663266451709
3776.5918,1.391867318545904,636.7102264775423
3777.4604,1.3976344264145326,615.2081598809657
3778.3315,1.4022113103815173,609.3923708432596
3779.201,1.404885525550932,652.0567972916799
3780.0703,1.405448916599353,682.9997435878877
3780.942,1.404301319141649,635.8485874557712
3781.8118,1.4023455742881554,639.8588213228596
3782.6838,1.40051289564374,670.2485624056889
3783.554,1.3993097138921538,631.5451070445557
3784.4265,1.3986418924753778,670.6355376246396
3785.297,1.3980194581482737,659.7524949339852
3786.168,1.3967904225959376,652.576247989746
3787.041,1.394352420472972,593.6962559540905
3787.912,1.390424082178598,751.4566857900253
3788.7856,1.3851895201505902,655.9490069375196
3789.6572,1.3792792493870554,684.5391112789118
3790.531,1.3732746866735004,672.7556894756602
3791.403,1.3674227490922406,620.236183625072
3792.2754,1.3614331259962498,654.7704858990203
3793.15,1.3546843711595096,730.8600459413205
3794.0225,1.3466133516835919,707.4817103214081
3794.8972,1.3370515852597336,735.5679921232389
3795.7703,1.3267824339956515,752.8481444415903
3796.6455,1.3173701357009864,705.381179824222
3797.519,1.3107126424035276,710.9894157836042
3798.3926,1.3080109495514813,775.4408952267503
3799.2686,1.309386334481013,750.9155555676249
3800.1426,1.3140825732802532,781.5992754915067
3801.0188,1.3211469200600068,667.651446750069
3801.8933,1.3297814960301049,852.0767953550715
3802.77,1.3393777456690386,695.0124454005073
3803.6448,1.3490741651513234,839.6207946645361
3804.522,1.3579584085005536,675.237530608945
3805.3972,1.3653693640093827,627.7858285827498
3806.2727,1.3715237463796515,660.6794925524674
3807.1504,1.3773126946537924,586.9340427671472
3808.0261,1.3835731325987186,630.3110684781476
3808.9043,1.3905397510762783,698.1018259674297
3809.7805,1.3976945017464966,640.474380969465
3810.659,1.4044160933610081,648.3630918608807
3811.5356,1.4103510419726135,709.5570345769778
3812.4126,1.4155906691875817,712.182409998732
3813.2917,1.4203096693339947,643.058114500073
3814.169,1.42437932541551,574.0287957530602
3815.0483,1.4273138762607922,749.0180623286514
3815.926,1.4283977987917982,577.842701828482
3816.806,1.4271169324194846,713.2698953261865
3817.684,1.4234266013128662,593.7044850374989
3818.5623,1.4177168652488958,713.179768766148
3819.4429,1.4105246327488559,700.8091847534797
3820.3215,1.4023777399904478,623.6786962527941
3821.2024,1.3936539424451961,695.3958065493031
3822.0815,1.384810639141322,726.2223655512397
3822.963,1.3761245386990115,670.8895786478231
3823.8423,1.3675542026567995,648.4552685090662
3824.722,1.3584869033815206,698.8260038050666
3825.604,1.348120031379589,811.9295474365589
3826.4841,1.336070076193967,776.7029229431151
3827.3665,1.3224443644578832,803.8770041595596
3828.2468,1.307868207010442,774.6241698066397
3829.1296,1.292790102406044,724.078635569852
3830.0105,1.2774256742456844,783.6579150103978
3830.8916,1.2614703216182606,842.4319456379961
3831.7751,1.2445232229527614,791.753827235887
3832.6565,1.2267834809803548,767.4018721300341
3833.5403,1.2092555472342956,1112.935497353066
3834.4224,1.194178627413662,1095.2522749197447
3835.3064,1.1840765132669349,986.2250548238034
3836.1887,1.1807902793480094,1107.426282090982
3837.0713,1.1842113955239604,1070.4602536080326
3837.956,1.1922528736360485,1006.5693619894645
3838.839,1.2019802304253175,762.0306564355698
3839.7244,1.2118076982501376,986.0264213945821
3840.6077,1.2226565085812198,820.9079676675033
3841.4932,1.2373556442632203,1033.7634724818552
3842.377,1.2579668775762183,757.5683814634755
3843.261,1.2840689747714076,713.4696431334065
3844.1472,1.3129592710904665,729.9536839796469
3845.0315,1.341204429346183,799.6330883016285
3845.9182,1.3665713654685747,719.1495956203838
3846.803,1.3877547615262196,595.3547131091606
3847.69,1.4045123688960868,669.5069842649128
3848.5752,1.417045395136885,601.656615287952
3849.4604,1.4262190593442121,627.6415666305246
3850.3481,1.4332614595708815,694.7223730361904
3851.234,1.4394324769065996,678.0797867632801
3852.122,1.4458326879339762,680.8923956592499
3853.0083,1.4530258111554815,593.8612045233767
3853.8967,1.461031774159936,609.6037178345739
3854.7832,1.4692193282056525,605.3697890845134
3855.6702,1.476681987122712,647.2315920561915
3856.559,1.482581801236672,556.499107404371
3857.4463,1.4865469297977918,616.8085533131791
3858.336,1.488895919407397,596.0136096893085
3859.2234,1.4902966508274216,566.6023681273815
3860.1135,1.4912814952435296,625.6521571204372
3861.0015,1.4918116961970291,590.7628104339768
3861.8896,1.4913470389273582,581.3654003341014
3862.7803,1.489252718409305,573.4993860756157
3863.6687,1.4852998450228774,591.4269377984856
3864.5598,1.4798097368644052,563.3697931034117
3865.4487,1.473528797719779,629.7101728359298
3866.34,1.4670493666071367,608.2884882806537
3867.2297,1.4605264127354853,583.7894117445902
3868.1213,1.453469772062786,613.8943808188759
3869.0112,1.445093881502862,636.7081002337495
3869.9014,1.4346373171622526,648.1649799927051
3870.7937,1.4218399703007085,679.2651640738846
3871.684,1.4073208336796434,630.3908891973364
3872.577,1.3922219985250865,743.6176216349427
3873.4678,1.3779291108818685,722.6607713060646
3874.361,1.365139296900604,706.650315602759
3875.2524,1.3537767816909954,717.3719674155951
3876.1438,1.3428784285013782,715.7161736486332
3877.0376,1.331132742692042,667.0785207268372
3877.9297,1.3174449386010705,749.7854943087249
3878.8237,1.3009992870463563,813.0984490585594
3879.716,1.2815341079687816,933.6820825779822
3880.6108,1.2590240526092822,850.5376685081396
3881.5037,1.233986742362822,976.7026559607184
3882.3965,1.2069773889527955,968.8122558937376
3883.2917,1.1785262720767742,944.4623203071794
3884.185,1.1493716552775584,1007.6592977717415
3885.0808,1.1201808619725235,1095.056234249385
3885.9746,1.0923721917343119,1109.9358274115255
3886.8706,1.0676078275432943,1286.70383651744
3887.765,1.0480758293238468,1066.0624489163442
3888.6592,1.035688593305994,1411.2319441892705
3889.556,1.0317952662197785,1225.0311474646933
3890.4507,1.0367007860645283,1157.4954048130953
3891.348,1.0495021357144239,1316.9593948163208
3892.243,1.068361375152661,1169.9271274935254
3893.1406,1.0914552047266193,1042.8272435120773
3894.0361,1.117146583510805,1043.0439071492287
3894.932,1.1444595778278972,991.5882575070702
3895.83,1.1725525490558426,1037.0464182090227
3896.7263,1.2001814800521282,832.5435199860785
3897.625,1.2262939832151099,712.845242479332
3898.5215,1.249993846030177,741.7591007242739
3899.4207,1.271520386352487,788.3876904143002
3900.3176,1.2917520585532196,754.3683610817254
3901.2148,1.3121558739039085,589.4446592805659
3902.1145,1.3339226153608297,797.9078289340736
3903.0122,1.3573087442110223,673.8753389270043
3903.912,1.3819336133906204,668.8354051256824
3904.8103,1.4066155720598645,654.605510453499
3905.7107,1.430134275737587,699.2537756559165
3906.6094,1.4511636795307914,659.52971319521
3907.508,1.4690674696444461,661.5497633131284
3908.409,1.4840929716461413,630.4286691220066
3909.308,1.4971865289915227,589.0545089452478
3910.2097,1.5096252725743824,626.4618360384374
3911.1091,1.5221260730933128,532.7117862596572
3912.011,1.5349036836476926,559.6536819265334
3912.9111,1.5476578090141886,509.3941250117193
3913.8113,1.5601125057152823,544.630404197161
3914.7136,1.5720908120446622,504.5619112342281
3915.6143,1.583398824461926,494.27398096483404
3916.517,1.5939378966048199,526.3591176980124
3917.4182,1.6035055150089605,520.2429194141895
3918.3215,1.6120410205682678,498.6880326489129
3919.223,1.6195451178137918,512.6039931970196
3920.1245,1.6262529126327745,510.915222428994
3921.0286,1.6324596353331504,500.78045044461703
3921.9307,1.6382531160002993,489.7052512127183
3922.835,1.6434539240330799,459.94744898682245
3923.7373,1.6476142984482576,518.9153892219715
3924.642,1.6504094598029058,557.3949547502622
3925.5452,1.6517724446382875,499.9379595860888
3926.448,1.6519211111424035,481.2460577727148
3927.3535,1.6511864951595494,494.94342258766096
3928.257,1.649942748862636,452.3006936472157
3929.1628,1.6485511055444273,486.12856748836356
3930.0667,1.6472633254792666,512.0553867524131
3930.9731,1.6460071802251959,566.2301979299455
3931.8774,1.6443249588011055,515.6489494731936
3932.782,1.6415536134819941,488.02852641582416
3933.6887,1.6372660307128024,484.7903515317338
3934.5938,1.6316466964791072,413.70338182645287
3935.501,1.6253194225799148,493.6206295117161
3936.4062,1.6189368784608802,520.2479290942522
3937.3142,1.6125895605311142,468.13614504132255
