wavl,flux,ivar
3566.9744,1.3974723539737355,29.45312845989512
3567.795,1.3821526140310114,182.18609698193916
3568.6177,1.3662482324342653,30.70463581687205
3569.4385,1.3514634843093962,85.51724636892163
3570.2617,1.3391162479522638,19.429319593003957
3571.083,1.3313042114727789,24.041455693356546
3571.9065,1.3308998056124874,29.30914737379762
3572.7283,1.3402358107550982,53.81236336061327
3573.55,1.3588326983009413,101.06753066021228
3574.374,1.3824511811145699,24.354369602134618
3575.1963,1.4038286575145265,28.462445979246475
3576.0208,1.4155622191253951,10.565749618580579
3576.8435,1.4128988624831016,19.755272768444478
3577.6682,1.3965181705122907,18.68471209625808
3578.4915,1.3726927004313598,56.392881907989235
3579.3145,1.3496045140307096,23.89600129981733
3580.14,1.3322328859099244,17.856906035862924
3580.9636,1.3202267763152002,22.18908910475754
3581.7893,1.3102565076305026,56.70199754807391
3582.6133,1.3010164117877918,119.09129496855836
3583.4395,1.294956400425475,63.804951302262225
3584.264,1.2957865712531493,51.34226096023539
3585.0884,1.3040370380633874,685.2388609918569
3585.915,1.315558531275465,42.2109982877198
3586.74,1.3240669521714579,24.485690637523234
3587.5671,1.3258146517428326,122.80063707094698
3588.3923,1.3217679444739676,144.35622742795604
3589.22,1.3159368841055232,145.63203633996397
3590.0457,1.3112482843861586,108.30767689286183
3590.8716,1.3063016299838361,101.62349813432995
3591.6995,1.2964260164160024,72.81194866602831
3592.526,1.2789214621635225,17.81433835156025
3593.3542,1.2575710884866698,65.59585318601454
3594.181,1.2416275350287647,11.350090216165242
3595.0098,1.2386601076101584,232.17912373931625
3595.8367,1.2491114375776158,29.416388400457727
3596.6638,1.267164220668055,23.356276378369003
3597.4934,1.2861489456698196,155.97803999392556
3598.3208,1.301731628495765,51.546469303751614
3599.1506,1.3117652622911815,112.49726853230888
3599.9788,1.315000956093313,104.55809002419143
3600.8088,1.3125167576974133,13.475530104877668
3601.6372,1.3090216777827426,569.9100259566007
3602.4678,1.3110760045230676,168.96688616790038
3603.2964,1.3224262309306598,23.514771791823325
3604.1252,1.3404607655379503,28.635873409191298
3604.9565,1.357282946130929,12.353854099310515
3605.786,1.3647256368333807,29.818648957923898
3606.6172,1.3597580427675455,33.507155191883356
3607.447,1.3451818792627328,14.908049242163996
3608.2788,1.3259733330982189,161.2515537428228
3609.109,1.3056285432092896,26.367710219885932
3609.9392,1.2856427995247688,1037.6595704668289
3610.7717,1.2682139985449454,21.04043910120366
3611.6023,1.257650133037049,801.0217127507572
3612.435,1.2578759417376901,99.82819302530085
3613.266,1.269029553725225,31.561384241980036
3614.0994,1.2863173527687268,382.2659716592199
3614.9307,1.3022749514419862,38.54334106619122
3615.7625,1.3107923186604995,17.672134956278207
3616.5962,1.3092436640413554,21.711090439326455
3617.4282,1.2987613473303568,58.07593471868617
3618.2625,1.2829083024425318,56.02077993608685
3619.0947,1.2660592583153751,51.26576672997692
3619.9292,1.251593822635666,68.96898794634583
3620.762,1.241738751629707,280.2749973834058
3621.595,1.2378571797504172,19.929106108613926
3622.4302,1.240743922494297,104.50798985198132
3623.2634,1.2494216754187157,49.908682053762995
3624.0989,1.2601052153525483,30.38761591056208
3624.9326,1.2669857303101963,167.43310242591605
3625.7686,1.265411838199915,32.32616751923817
3626.6028,1.2546597125564731,11.042971592236867
3627.437,1.2381932505492337,36.61781695358997
3628.2734,1.2214079066697343,127.12298909933962
3629.1082,1.209777139857148,31.607546222429377
3629.945,1.2082618428341168,135.69421058032842
3630.78,1.2212059070348555,78.99293840169523
3631.6174,1.250227944961903,245.23359295848434
3632.453,1.2910463649366748,58.76204120236238
3633.2883,1.33335328499591,37.6884168029709
3634.1262,1.3638604506295957,41.28630966648575
3634.9622,1.3720770156272863,192.34419120499473
3635.8005,1.356715553209472,20.08012631372725
3636.637,1.32725869699097,44.0423534942631
3637.4756,1.2989966060613576,1621.7030280944728
3638.3123,1.2851669106589751,490.39496303637424
3639.1492,1.2908497291067493,25.06671432019968
3639.9885,1.3134276892530907,229.07793593011306
3640.826,1.345902375203693,2118.5605816955763
3641.6653,1.3809782273032236,18.987381139800124
3642.5032,1.412301717485416,107.23787836710784
3643.343,1.4350833113689891,30.322138960258016
3644.1812,1.4455689031953014,20.29996020249933
3645.0195,1.4426740173361015,74.52672071026105
3645.86,1.4297461282987687,23.873545853416825
3646.699,1.4148630986554507,107.09771105582033
3647.5398,1.407008357175322,27.995722220385453
3648.379,1.41093115825449,73.61135795338524
3649.2202,1.4240345748318244,30.006180683316806
3650.0596,1.4375370004913788,37.69693354028381
3650.8994,1.4409960643769986,32.410884259507036
3651.7412,1.4272632297973888,105.96600767111875
3652.5813,1.3966898473624962,19.1951111684305
3653.4236,1.3575210202799992,97.15396812769418
3654.2642,1.322407135047514,20.143616315414423
3655.1067,1.3012135770372297,47.537003487405045
3655.9475,1.297378214414726,22.34745996593366
3656.7886,1.3083915498624457,12.973775135083928
3657.6318,1.3291555865517573,184.73556173803138
3658.4734,1.3535573751493435,38.13503439291284
3659.317,1.375990733689089,19.493441672893283
3660.1587,1.3932082006131672,13.757528667421782
3661.003,1.406204600106103,20.722274497939406
3661.845,1.417866774407604,133.8176804727517
3662.6875,1.428992838421767,12.377798943398282
3663.532,1.4360275963310087,16.229563591106093
3664.3748,1.4332059796233834,43.90261027885468
3665.2197,1.4172490975395429,21.005841399367533
3666.063,1.3912012008008372,30.91895499570822
3666.9084,1.364101635717386,928.4625310130476
3667.752,1.3467992146877872,31.613063730422
3668.5977,1.3453196744562599,30.603051049650873
3669.4417,1.3578442741577081,61.472150741775835
3670.286,1.376138859671594,37.832783209542164
3671.132,1.3900858720855875,35.738578994137036
3671.9768,1.3919932734832718,17.544266150143578
3672.8235,1.3796228257412428,66.55834858023987
3673.6685,1.3570236508828613,45.725362154352474
3674.5156,1.3326734475262483,217.94945047937122
3675.3608,1.3155358141562643,310.18819541163913
3676.2063,1.3094946038310067,20.07493269770553
3677.0542,1.311257322049437,23.66990256845655
3677.9,1.313434991587715,70.17484465263827
3678.748,1.3114607496161579,38.19086946042363
3679.5945,1.3076475486789485,202.10189805540537
3680.4429,1.3077191452923997,27.45008327755253
3681.2896,1.3132205116897653,50.829821729970604
3682.1365,1.3184220939253448,20.52704451428957
3682.9856,1.315468584174044,60.6499501821768
3683.8328,1.3021097620070192,56.52589507386263
3684.6824,1.2837232102305183,135.45727236567762
3685.53,1.2688841562973971,89.76242124894125
3686.38,1.2631062006380622,83.80467761495696
3687.2278,1.2665240269679283,165.71904048091372
3688.0762,1.2747473984795252,88.15911694866674
3688.9265,1.2816350602451336,85.2110099833068
3689.7751,1.2825788111665894,8542.243278860335
3690.626,1.2774630767365496,59.1461933135622
3691.475,1.2710807085758018,300.3779314245145
3692.3264,1.270481667555801,107.88782734012636
3693.1758,1.2813539475016806,71.70456938663736
3694.0254,1.305341196898254,330.7292015281744
3694.8772,1.3386058037293798,21.907362761820128
3695.7273,1.3711284629857732,15.418850130798518
3696.5793,1.3899731680380703,21.55601013716003
3697.43,1.3854241226024913,35.70371159902325
3698.2825,1.357774622383361,10.179018788555606
3699.1333,1.3181046505044027,32.06568831352936
3699.9841,1.2816455634513073,98.90341090002327
3700.8374,1.2597996087003513,15.874855643640734
3701.6887,1.2562179260928055,56.515382979651356
3702.5425,1.2675871582904348,59.23793883466877
3703.3943,1.2872560309122283,28.63382390078575
3704.2483,1.3085504213075823,23.44965804745216
3705.1003,1.3262578303494246,56.21108865048764
3705.9526,1.3374773915418237,11.11041690761145
3706.8074,1.3409710967024533,25.14455212180469
3707.66,1.33637862238082,323.1536907020736
3708.515,1.3237076049370637,33.15963207119598
3709.3682,1.303729212802021,18.406526402490435
3710.2234,1.2784774025560168,30.089794249930495
3711.0771,1.2515129561205536,46.09036744681748
3711.9307,1.2266033265509741,28.24780756292062
3712.7866,1.2071876525753007,391.88384238019734
3713.6409,1.1969119561701793,113.67909170729358
3714.4973,1.1993980223469531,344.76891096246646
3715.3518,1.2168524023570975,55.98032078674157
3716.2085,1.247633440558118,52.9274100789421
3717.0635,1.2844402180040468,49.987897545459425
3717.9185,1.315931095996382,34.11378540251005
3718.776,1.3308962706738263,270.10559343732984
3719.6313,1.3240948587845904,1944.984702314795
3720.489,1.300167920131687,31.2979381327637
3721.345,1.2719163302632241,46.71527738075117
3722.2031,1.2530332884168385,22.222867427649557
3723.0593,1.2508576306025334,38.05874401293918
3723.9158,1.2629847133230196,31.853325986103417
3724.7747,1.2804842863022703,17.403533297752464
3725.6316,1.2933607184252762,38.39931876545345
3726.4905,1.2952791574555111,13.993017062309812
3727.348,1.2849986638972781,60.20117557268975
3728.2073,1.2659305961847245,49.363786598754785
3729.065,1.2445151413570998,57.14608945716723
3729.9229,1.227241151145131,62.904500829697795
3730.783,1.2179280407878037,42.12235783097237
3731.6414,1.2163198275547666,48.721783907487044
3732.5017,1.2192169671845448,77.82663025278
3733.3604,1.2236856452523117,95.44811374819236
3734.2214,1.2295435564425887,20.13566335712462
3735.0803,1.2390784121943799,51.909232887331356
3735.9417,1.2547997452412645,28.467943191268148
3736.8013,1.2766046191205804,124.88020993974528
3737.661,1.3008748425073229,41.3304286554552
3738.5227,1.3214138048789865,23.163130953393143
3739.3828,1.3319153875833278,61.281462628528566
3740.245,1.3290207744683697,34.433088977658095
3741.1055,1.3136576058499723,38.457215597146934
3741.9683,1.2909637289988676,48.60243753777257
3742.829,1.2694194540315764,46724.39474653479
3743.69,1.258176237115489,38.72771154981353
3744.5532,1.2637666804168866,38.47488908366814
3745.4148,1.2863924524236636,158.16737136427668
3746.2786,1.3186266139402407,20.432390575408427
3747.1404,1.3473711934538128,12.898295538878068
3748.0044,1.3599462764257,67.35197351442629
3748.8667,1.3498939492546005,71.89397455342579
3749.729,1.3204283868240394,21.052715244195838
3750.5938,1.2819097117617324,39.642258560441306
3751.4565,1.2460144473695771,38.30498089905709
3752.3215,1.2191024478162908,18.11844830604172
3753.1848,1.2013113625595948,52.41828909016178
3754.0503,1.189100327492185,18.487111501195148
3754.9138,1.1796925798912365,192.3330991997222
3755.7776,1.172531198434212,54.109970613408755
3756.6438,1.1682460156468588,23.95626360744524
3757.508,1.166752512868154,67.44338988437235
3758.3745,1.166706599361089,101.64423239980138
3759.239,1.1669233549664744,42.13815024394365
3760.106,1.1681970474502654,27.861721490499214
3760.971,1.1736008751795006,37.904509387589044
3761.8362,1.1864194251758613,61.5222157154537
3762.7036,1.2069061795918847,55.13620936644053
3763.5693,1.2301807288056976,76.1352984335537
3764.437,1.2480209080011977,90.99350844473332
3765.3032,1.2528143646349685,31.03585576268451
3766.1714,1.2419319309813832,67.04845253698961
3767.0378,1.2189963090895644,47.31121610631929
3767.9043,1.1919359361709108,41.881315580368714
3768.7732,1.169748923588777,18.04640811507216
3769.6401,1.1598988438321143,169.75693895220837
3770.5095,1.1660369573905425,42.86250020031952
3771.377,1.1869716534125396,44.46184544370807
3772.2466,1.2167925839308011,13.376209099766449
3773.1145,1.2465221493227376,47.92091678565593
3773.9824,1.2679974438169501,12.491469188379424
3774.8528,1.2767760257763279,100.12268877116362
3775.721,1.2734849805391326,17.94698440065969
3776.5918,1.263188528258821,34.26300509533283
3777.4604,1.2529253883904128,119.94338092333395
3778.3315,1.2481622244726518,88.26241200581103
3779.201,1.2503831868882778,106.52095714267624
3780.0703,1.2570416462888072,24.7715703257285
3780.942,1.2641729901167227,40.933047341261485
3781.8118,1.2688433247250612,17.022071240761946
3782.6838,1.2694627122683466,48.45189555779222
3783.554,1.2642258378911424,194.85114631099583
3784.4265,1.2509039424420092,202.38443877732297
3785.297,1.22938245467329,35.90959947045644
3786.168,1.2036532509182172,85.99010979136594
3787.041,1.1803954810004773,39.73231286858568
3787.912,1.1648703058521501,61.05282778993991
3788.7856,1.1577603562547598,39.801297933521525
3789.6572,1.1564754503392027,37.65469113010999
3790.531,1.1579003126812388,23.29369199614554
3791.403,1.1602615668542746,61.63315966055025
3792.2754,1.1631440503177017,27.740010093623276
3793.15,1.1670486993211626,50.18873080190247
3794.0225,1.1732438412232629,49.786854057429004
3794.8972,1.1833579179394715,55.4412001933104
3795.7703,1.1978770431671546,36.59038434876896
3796.6455,1.2151788028438621,93.85122577069704
3797.519,1.2317492833744148,30.386957185370164
3798.3926,1.244141956333794,40.38950945558284
3799.2686,1.2502960817114839,49.935565091799766
3800.1426,1.2500515429758154,7.7452757502020475
3801.0188,1.2451163115405597,23.78012890426131
3801.8933,1.2384804597054415,26.571652550368512
3802.77,1.2335184385344626,21.928625791586875
3803.6448,1.2332975779894557,160.27739147996533
3804.522,1.239678915037914,85.26036882420017
3805.3972,1.2520607012883418,4607.1326033109
3806.2727,1.26668048570405,27.19047830731018
3807.1504,1.2778720394282779,30.698820044107265
3808.0261,1.2811403748560493,32.3853997351163
3808.9043,1.2757548606491702,76.02138195220999
3809.7805,1.2645219644186994,39.704519350917174
3810.659,1.2518938729323579,40.65104736560965
3811.5356,1.2426774511057461,38.64944871174364
3812.4126,1.2409865887084768,140.22022192976476
3813.2917,1.2491672786818182,22.810170796359486
3814.169,1.2662213261709943,28.35079736511684
3815.0483,1.2876863879562226,29.09080923516654
3815.926,1.3070502817393044,28.558661911864732
3816.806,1.3189475196968246,22.466134353539033
3817.684,1.3211198286948411,19.105205698501962
3818.5623,1.314801684305036,58.65638899795967
3819.4429,1.3028298074903926,81.14765930937878
3820.3215,1.2878005088615048,29.162088493226527
3821.2024,1.2708344338803812,41.05321265843195
3822.0815,1.2519318023192292,31.390683538292777
3822.963,1.2304565796297822,40.28607190483193
3823.8423,1.2067063621123235,58.945558543873034
3824.722,1.1825877544922754,26.197465615616228
3825.604,1.1615849109597582,80.17038152187263
3826.4841,1.1473242193745121,50.82834114924749
3827.3665,1.1413274439695802,71.59252595204003
3828.2468,1.1421990667177992,36.86896629570702
3829.1296,1.1456503325102518,68.995694325144
3830.0105,1.1458595008445576,30.779652166654184
3830.8916,1.1377954668156074,29.948131210411894
3831.7751,1.1193106023336608,596.3270655472769
3832.6565,1.0921733493051726,85.87603072133861
3833.5403,1.0610167535954838,52.68973640617597
3834.4224,1.0326345233290721,94.42239534289473
3835.3064,1.0138987217227182,159.93919723035242
3836.1887,1.009651179502247,343.86579224940226
3837.0713,1.0196841323829253,20.6136077460435
3837.956,1.0384050353256526,35.96856185137007
3838.839,1.05734530572526,60.91675024983578
3839.7244,1.0698990432107487,27.732963156295348
3840.6077,1.0742458340188608,30.158415814228782
3841.4932,1.0739017737612784,116.87704027585133
3842.377,1.0754845731022775,86.10469763039548
3843.261,1.0854122353799671,71.57674327193573
3844.1472,1.1066911351003599,39.16566779200093
3845.0315,1.1368677167720231,96.51479532252237
3845.9182,1.1694493209889012,29.28459821132681
3846.803,1.1971287355537146,285.73762165916014
3847.69,1.2162440622714938,41.60341895613898
3848.5752,1.2272700163229848,57.867723507771395
3849.4604,1.2330712350997588,46.15788648812233
3850.3481,1.2364292766054352,258.83897627087975
3851.234,1.239747314402225,45.832834721493576
3852.122,1.2458000091604597,31.959987757026493
3853.0083,1.2571416494130312,22.443930828078265
3853.8967,1.2746705933489035,95.6562463107631
3854.7832,1.2970353346068781,41.20378852785556
3855.6702,1.3226333737493516,22.15701042383978
3856.559,1.350913323487629,28.27017575806117
3857.4463,1.3806306355038411,55.78987957368555
3858.336,1.4070697099408878,305.41144953646153
3859.2234,1.4214197547654848,14.875550881048067
3860.1135,1.416088786683361,16.770976208982702
3861.0015,1.3902340557931105,35.966447741634674
3861.8896,1.3508756701489861,46.79482811133131
3862.7803,1.3088648966738896,30.702930130856046
3863.6687,1.2743491050259173,68.98510540226398
3864.5598,1.2530249682817034,41.37243664254395
3865.4487,1.2457702948648897,157.25086698365232
3866.34,1.2486079210118397,50.073309406015575
3867.2297,1.2549518454576782,24.7432129491676
3868.1213,1.258627228855854,2094.3576973042873
3869.0112,1.2562261850900072,20.60646831846821
3869.9014,1.2477241888175743,59.781552884854136
3870.7937,1.2353886089132653,44.42738962168683
3871.684,1.2221540946703906,58.51828968887489
3872.577,1.2096426198899213,46.077383237076226
3873.4678,1.19738126230607,51.23713302552321
3874.361,1.18292560205228,134.75953869088266
3875.2524,1.1637483158700843,75.29410364013567
3876.1438,1.138871363062164,128.75638948880336
3877.0376,1.110012439921145,31.065523440669303
3877.9297,1.0816322866904942,32.18789028531606
3878.8237,1.0585446495586857,51.195821406013025
3879.716,1.0432150168386365,55.98012159562889
3880.6108,1.0332623927657645,36.41483187174918
3881.5037,1.02292707823422,114.2182954137794
3882.3965,1.0069105180341291,67.95821608980452
3883.2917,0.9837557805133412,113.80909236213067
3884.185,0.9558662001934028,69.00208479111777
3885.0808,0.9261860827719856,56.55745164475583
3885.9746,0.8967145738570239,160.11080177188649
3886.8706,0.8689490850955106,84.55008464850208
3887.765,0.8467434964072453,56.223650768411545
3888.6592,0.8361889287027162,192.92779420028955
3889.556,0.8429150482446781,94.9539711924731
3890.4507,0.8677535672713674,94.75443367350785
3891.348,0.9051104190583052,110.41660827605165
3892.243,0.9448998420160244,75.2763447690838
3893.1406,0.9783165591244017,107.48491211772664
3894.0361,1.0014331516532513,44.334570748823644
3894.932,1.016780661139916,84.59869756155207
3895.83,1.030315100706771,110.49330142689132
3896.7263,1.0472081827437298,71.2730229748106
3897.625,1.0691787802115449,94.15129718537543
3898.5215,1.0940711480314782,74.14953054527457
3899.4207,1.1184081968347195,64.43958284959488
3900.3176,1.139185491709191,60.366663771193444
3901.2148,1.1553378019697764,195.01602298718169
3902.1145,1.1671636694053895,55.154948934431246
3903.0122,1.1754375223449898,39.17037516784828
3903.912,1.1808863515226815,66.78961209352457
3904.8103,1.1837578909363837,87.67291127540571
3905.7107,1.184166978410522,31.16328852495097
3906.6094,1.1826239511228434,50.304531464931316
3907.508,1.1803733757585229,45.284871575161624
3908.409,1.1789255168162307,82.71923664379496
3909.308,1.1792246427905622,165.07330215462363
3910.2097,1.1814275660319449,25.24397211619648
3911.1091,1.185578730352509,25.373115849343623
3912.011,1.1921418598944098,56.81214372272129
3912.9111,1.2012540230743243,80.40341467876026
3913.8113,1.211780536357013,92.18830957397779
3914.7136,1.2214305396022394,37.84359753395085
3915.6143,1.2281631951298926,51.5717124282174
3916.517,1.231799597951721,85.73551082064536
3917.4182,1.2341414237361252,42.791266724587395
3918.3215,1.2378945051467598,42.903639964853525
3919.223,1.244784765402924,38.91745022618538
3920.1245,1.2544258225933709,34.42226668435004
3921.0286,1.2648236115579776,39.930232107740125
3921.9307,1.2740868872679918,24.049679502705775
3922.835,1.281966980191495,31.53832369889935
3923.7373,1.289435934890918,61.13442026171765
3924.642,1.297555109370611,29.723432891357245
3925.5452,1.306243275992298,28.398760576904515
3926.448,1.3141020258297067,35.0805766810126
3927.3535,1.3188502232246495,53.563479198482206
3928.257,1.3183845489038906,38.75538748900315
3929.1628,1.312074165696599,42.39462782026897
3930.0667,1.3014553594594531,63.04547077901248
3930.9731,1.2899921215069954,80.54790520042263
3931.8774,1.28234714198829,151.40687983732406
3932.782,1.2825060237232981,77.36015587945579
3933.6887,1.2919122017233688,52.646820778990566
