wavl,flux,ivar
3566.9744,2.951013084258414,132.9455979958796
3567.795,2.9468216131381437,110.21842762619586
3568.6177,2.943871788952225,118.82990065708015
3569.4385,2.940534652715574,122.03436864793764
3570.2617,2.9361856407004976,122.13287625905447
3571.083,2.932070319811155,110.39964660111303
3571.9065,2.93009354023964,124.15766297416249
3572.7283,2.9309954663337896,127.23475377010874
3573.55,2.933581680152354,114.96877781744074
3574.374,2.9357418794541132,136.1050627566674
3575.1963,2.935927083191463,124.17052546179907
3576.0208,2.933808192226863,141.63334574286517
3576.8435,2.929878060924457,135.17189775030857
3577.6682,2.9248809285968367,128.15829872943243
3578.4915,2.9198186023279935,139.4331987807754
3579.3145,2.9159752612300296,112.26194523244614
3580.14,2.914547254812187,147.89231792831163
3580.9636,2.9158304177446004,143.5368720127979
3581.7893,2.9187381905532117,122.01711745192446
3582.6133,2.921278054340379,129.34628175438556
3583.4395,2.9217247404813422,120.48334597887983
3584.264,2.9194796655187463,133.55411903837359
3585.0884,2.9150580427502457,126.53512451533547
3585.915,2.909287959530493,144.88229740766218
3586.74,2.9026869964495274,131.05768363043637
3587.5671,2.8953444713682805,118.16018228605259
3588.3923,2.8874910998059065,133.84199460412475
3589.22,2.879603405111768,130.89080594267298
3590.0457,2.8723015564285763,140.05426398716077
3590.8716,2.8657134799089903,123.77174118632672
3591.6995,2.8593130083127725,127.90862145306814
3592.526,2.8521772438353112,125.85779909541743
3593.3542,2.8434117418771625,137.57210579869223
3594.181,2.832815363818241,117.83590372099827
3595.0098,2.8210843386448174,131.24374206586435
3595.8367,2.8099876678359874,148.77173197600968
3596.6638,2.801503366456396,153.4556454455149
3597.4934,2.7967350627360243,148.77490816429173
3598.3208,2.795014272910057,134.88568791758806
3599.1506,2.794172273245573,166.67029308310583
3599.9788,2.792232276174195,128.88185293365805
3600.8088,2.7890471372634544,127.99509511695744
3601.6372,2.7865521877473802,149.57693028711867
3602.4678,2.787169476733851,143.22780307158567
3603.2964,2.7918243621903027,155.87072791855525
3604.1252,2.799251843987778,139.222944087299
3604.9565,2.807043400659579,137.67480165421847
3605.786,2.813110616857775,134.63727173161897
3606.6172,2.8165413043128886,128.32171948467064
3607.447,2.8171774662704236,123.61453882365028
3608.2788,2.8150581069611134,126.47231748765986
3609.109,2.8101807940289496,140.1533627798268
3609.9392,2.8027609350908174,134.5533054087212
3610.7717,2.7936248741228753,135.9514559853735
3611.6023,2.7842983784289426,167.18232110474622
3612.435,2.7763045230493004,144.6986831494966
3613.266,2.7707028787225925,157.77498928806318
3614.0994,2.767731513456025,156.35317178096201
3614.9307,2.7670683589947913,150.6944094774934
3615.7625,2.767947263463656,152.2409477035666
3616.5962,2.7692597149298317,147.5734727014753
3617.4282,2.7696776449811225,142.97723413994174
3618.2625,2.7680393351697505,155.59308668856895
3619.0947,2.763784347752273,131.09280298552648
3619.9292,2.7571024704380265,151.71149486360346
3620.762,2.7488641556632745,147.03203713120558
3621.595,2.740199928501975,158.009174568149
3622.4302,2.732246284049184,149.34384273365606
3623.2634,2.7260449785306067,177.1670255634536
3624.0989,2.722361460400938,169.2727662516252
3624.9326,2.7216468323323246,162.00124059380684
3625.7686,2.7235802844232886,162.52826122681734
3626.6028,2.7267755403542187,159.02339992739826
3627.437,2.7291376614977767,152.4039871495896
3628.2734,2.728830701542069,150.17095370944398
3629.1082,2.725140110783246,143.67556542759374
3629.945,2.718503027895159,143.16462548913566
3630.78,2.709971822055076,162.66877052969758
3631.6174,2.7005067121171282,169.68981328189545
3632.453,2.69096219264961,144.52249953831188
3633.2883,2.6819959653072667,146.65977063411734
3634.1262,2.6741723302381972,144.60511848880824
3634.9622,2.6678971861112153,145.74005780912182
3635.8005,2.663075638017721,154.13821948244106
3636.637,2.659187558961904,150.54004381455422
3637.4756,2.655496536409637,156.64054562117238
3638.3123,2.6517015069716905,188.3503253606445
3639.1492,2.6481325782077425,139.10232430772837
3639.9885,2.645371712640481,149.9046470273388
3640.826,2.6435633341094062,167.18445443201054
3641.6653,2.6421425370924867,155.57649853577507
3642.5032,2.640381065159257,155.1925122851942
3643.343,2.6380073658556804,141.39771203249677
3644.1812,2.635309051234787,174.3247479684452
3645.0195,2.632528348452037,176.08818399091484
3645.86,2.629303851671825,159.71942310261628
3646.699,2.624777888778061,176.09059548359764
3647.5398,2.6182812942727334,159.74447982161405
3648.379,2.610144375422899,162.87780774981272
3649.2202,2.6015555083355846,179.6673227107538
3650.0596,2.5938800530173003,167.67131260134508
3650.8994,2.587679891071923,148.4746720759753
3651.7412,2.582752858997709,143.2176575734221
3652.5813,2.578786574529963,168.50953969434335
3653.4236,2.5758033553493878,164.20057523573905
3654.2642,2.574136097464188,180.98210347580516
3655.1067,2.5740659427307544,168.8980829467484
3655.9475,2.5757763220943324,181.44247724192496
3656.7886,2.5792922441227257,162.42386569468653
3657.6318,2.5841898179029528,176.2257078779262
3658.4734,2.5894354028909112,184.68362431537113
3659.317,2.594102011344411,161.8554872159431
3660.1587,2.598154729917122,172.35352776335517
3661.003,2.602445406753069,190.04420314524566
3661.845,2.6074221857313162,159.9367125795843
3662.6875,2.6122471240902345,176.40696390344175
3663.532,2.615241948475349,156.5598717748143
3664.3748,2.615381886557441,160.98653973473174
3665.2197,2.6132792629782213,170.49587738723088
3666.063,2.610733252228308,155.110402045416
3666.9084,2.6094632671045925,153.01760991305486
3667.752,2.6101744731445735,158.83640397646076
3668.5977,2.612331633451587,167.31720014518675
3669.4417,2.6145260116700837,182.0692753847332
3670.286,2.615184868733079,144.70340670409578
3671.132,2.61329580203838,149.3855489826126
3671.9768,2.6088980185045627,174.40419621317469
3672.8235,2.602910144346253,152.63586291639646
3673.6685,2.5965089077721037,182.43001156491061
3674.5156,2.590264514025451,146.54934883911466
3675.3608,2.5839364438145878,155.00785798028753
3676.2063,2.5767343729339767,162.8367299905529
3677.0542,2.568131949935594,155.7901004526507
3677.9,2.5585106487961293,184.1389708561115
3678.748,2.5488495659062314,197.4738214268825
3679.5945,2.540201862324963,171.91496481650353
3680.4429,2.532923154675297,163.733216787625
3681.2896,2.5269040412690336,161.22918566504052
3682.1365,2.5219709733693896,190.71380664775134
3682.9856,2.5182178049944564,180.33641388032711
3683.8328,2.5158155234480484,168.91492355478758
3684.6824,2.5146792237407833,179.75683141695873
3685.53,2.514530545458207,177.99617195830803
3686.38,2.5150646417557923,171.32645671077725
3687.2278,2.516055443575885,202.61181879637104
3688.0762,2.517323584422866,185.2664072739515
3688.9265,2.518710240625176,174.21775874047665
3689.7751,2.520124929994132,174.07457038452657
3690.626,2.5215985379149175,156.51096520965476
3691.475,2.523156317512548,165.83368725340807
3692.3264,2.5247062272059217,168.66592128204005
3693.1758,2.526028322256083,188.67951577569136
3694.0254,2.526968222492888,157.69595584127111
3694.8772,2.527512370457463,175.8179287063859
3695.7273,2.5276730044369544,198.8452361547986
3696.5793,2.5273145304842766,159.11519485684823
3697.43,2.5261470122979857,179.13956142433648
3698.2825,2.5239681325561194,182.7194030286125
3699.1333,2.521010153468052,167.15722481898672
3699.9841,2.5179808872327296,175.71557379220178
3700.8374,2.515687939512555,171.80760565957965
3701.6887,2.5144356905978964,171.68721481766212
3702.5425,2.513672703496665,183.45501664011812
3703.3943,2.51234892847038,192.11307109882782
3704.2483,2.509584250155883,183.67563260711074
3705.1003,2.5052098018662297,158.63004303697292
3705.9526,2.499768993745465,154.99816644085325
3706.8074,2.4942078147252493,180.58496042032033
3707.66,2.4894521654320516,199.10736084852667
3708.515,2.4858813672571474,193.14272642293383
3709.3682,2.483275693121375,196.0730816921818
3710.2234,2.480959447269848,170.50094234362268
3711.0771,2.4782672254119107,183.71868378828353
3711.9307,2.4748234705091843,176.1231302527126
3712.7866,2.4705807159106885,176.18923222864046
3713.6409,2.465689192232093,181.12887744796973
3714.4973,2.4602614545087014,176.13040975964853
3715.3518,2.4545059677960173,173.67201648984909
3716.2085,2.448815908661978,174.34812999627027
3717.0635,2.44397029502531,197.35006196592215
3717.9185,2.440874933192905,183.59720892005217
3718.776,2.4402455315996634,193.04863488899437
3719.6313,2.442244574626779,190.7248071464235
3720.489,2.4463439416264383,211.6071699498891
3721.345,2.45140170840868,184.49817803239645
3722.2031,2.4559616284685033,198.426287235705
3723.0593,2.458497707240918,170.10810250801075
3723.9158,2.4579596126672247,163.62790645043228
3724.7747,2.454224102728897,175.45328765277748
3725.6316,2.4483396790082828,172.93133993129015
3726.4905,2.4419796016054938,178.65383183446076
3727.348,2.4365547768043188,207.46044046657317
3728.2073,2.4323000104654713,190.5963137204405
3729.065,2.428324055158014,197.75756341127553
3729.9229,2.4233805761805596,184.89095536361359
3730.783,2.4169778449080375,186.0588108608244
3731.6414,2.4098759888747865,178.79403770824376
3732.5017,2.4033599340702376,214.50872383582455
3733.3604,2.398199975583451,206.0265255016335
3734.2214,2.3939720924429055,182.73064549543204
3735.0803,2.3896657407720383,180.23222050734333
3735.9417,2.3845440747938875,186.50705208513835
3736.8013,2.3787038902001014,200.00822111907317
3737.661,2.372785070696121,199.36589769087456
3738.5227,2.3676439139929615,176.11120942679557
3739.3828,2.3642029549283166,211.7693334568139
3740.245,2.363162663331371,207.2286999845676
3741.1055,2.3646635132745746,191.44541475817863
3741.9683,2.367947772626299,199.42828192787778
3742.829,2.371444963367733,187.16962567650174
3743.69,2.3734255521803416,218.75113241240896
3744.5532,2.3727868288483784,179.8524402439923
3745.4148,2.3696708501494923,196.67764128512968
3746.2786,2.3654519484086816,190.96355653500873
3747.1404,2.3621029173197914,183.51754812568558
3748.0044,2.3611114592008873,195.77574264893263
3748.8667,2.362769303345061,171.6409953687428
3749.729,2.3661197119055504,194.39355925026103
3750.5938,2.3696436275677946,186.69410375645566
3751.4565,2.3719990029103615,215.87102710626635
3752.3215,2.37247472736498,205.1930086294536
3753.1848,2.3709962958601656,203.7344275821708
3754.0503,2.368139028709203,189.59738824882646
3754.9138,2.365060258514663,216.99562619608142
3755.7776,2.362909912991675,242.4447399128973
3756.6438,2.361954599012717,235.89454966064903
3757.508,2.3611326928062417,207.87206349972007
3758.3745,2.358726586600432,202.59756346481876
3759.239,2.353798361039823,188.64276549878963
3760.106,2.3469925099070985,211.9343082536718
3760.971,2.3401892185086384,199.3713740341474
3761.8362,2.3351423565062697,200.43327993510195
3762.7036,2.3325790817473915,212.8583231945513
3763.5693,2.3320897753218857,218.54222327668185
3764.437,2.332618539891442,202.83994623198527
3765.3032,2.3331227423658962,203.63574562815543
3766.1714,2.332962809118556,186.46729256651906
3767.0378,2.331916699842568,221.68044307691736
3767.9043,2.3299798734261095,204.7203346448168
3768.7732,2.3272939029162556,205.64051608020824
3769.6401,2.3243326183025084,191.7323330982489
3770.5095,2.3218019118001196,208.876838613795
3771.377,2.3201385858026664,210.1893486266175
3772.2466,2.3189111991545244,200.84502179158554
3773.1145,2.317060319007813,188.98427594231057
3773.9824,2.3137746645083603,206.17587034784114
3774.8528,2.309211905774307,193.4220466570719
3775.721,2.3044702877045493,196.7345791442645
3776.5918,2.3007911694468532,215.83548009558396
3777.4604,2.2989387969622337,224.5836545551265
3778.3315,2.298880036075148,207.28017264793078
3779.201,2.30005203816077,217.68129701913827
3780.0703,2.3017665842956143,200.4580541451686
3780.942,2.303574991592003,193.17530585085024
3781.8118,2.3053965660502884,191.34575381023146
3782.6838,2.3073682613285538,218.96840626125527
3783.554,2.3093530656316807,245.6205710127187
3784.4265,2.3106651842609987,190.79003325252998
3785.297,2.3103333733520146,199.1224890350263
3786.168,2.307875141224796,199.7270263584862
3787.041,2.3037368481803897,205.47587045876227
3787.912,2.2990595552002477,214.20381610484444
3788.7856,2.2949187830200466,219.47061568171873
3789.6572,2.2919818499626246,220.37680919527398
3790.531,2.290435888320067,223.4839650485717
3791.403,2.2900982064030075,234.0854487209279
3792.2754,2.2903001889615444,195.72570106985847
3793.15,2.2899639245949905,210.4356835783593
3794.0225,2.288026697095852,217.72441369954657
3794.8972,2.2839519886913053,190.7739146898864
3795.7703,2.2779958495340176,215.64266249391966
3796.6455,2.271027868129186,215.34689790463153
3797.519,2.264381022215201,217.59068944777874
3798.3926,2.259392556110152,227.25446142161306
3799.2686,2.256902534056941,210.76662350434117
3800.1426,2.2567022111686557,209.86967566027002
3801.0188,2.2574734625289605,213.39720559571234
3801.8933,2.257600667593204,210.31240466067655
3802.77,2.256256435180912,220.36007577639862
3803.6448,2.253821616331527,222.1494070024545
3804.522,2.251246176918855,223.00283061484234
3805.3972,2.249189832276089,200.58881183858077
3806.2727,2.2477584648005484,173.57582995167098
3807.1504,2.2469497291988234,237.21985721338194
3808.0261,2.246863376961483,203.11655968357977
3808.9043,2.2473650894875,226.5191250501158
3809.7805,2.247855921596914,195.483148748126
3810.659,2.2476564571816913,228.36511283055646
3811.5356,2.246568660687523,221.83229142601004
3812.4126,2.244932217012053,247.31721729654143
3813.2917,2.2432188320314435,213.36763328933745
3814.169,2.241756543358335,215.81868214944288
3815.0483,2.2407199942924616,241.6490020225816
3815.926,2.240196489800945,219.07022611407143
3816.806,2.240099995324417,217.30305844884504
3817.684,2.2402023318867865,230.08734575806082
3818.5623,2.2402700853324533,227.5472940290938
3819.4429,2.2400566266061803,222.20560248554983
3820.3215,2.2390953176282125,236.7180738551525
3821.2024,2.2366564348691207,224.7900028927437
3822.0815,2.2321790729226025,214.64405609547168
3822.963,2.225774004402251,240.37901950462253
3823.8423,2.2184336336792154,231.70418218794734
3824.722,2.211464915731614,236.40263902873826
3825.604,2.2058678082929934,224.56207691034348
3826.4841,2.2019992890048607,222.85163753303743
3827.3665,2.199524133703799,235.32986551902795
3828.2468,2.1977135406612174,261.4267346591252
3829.1296,2.1956165453237144,222.42364112584218
3830.0105,2.192391495450234,259.18183076552333
3830.8916,2.1876408369199707,227.87401332527887
3831.7751,2.1816623849198598,233.56703877590564
3832.6565,2.1753872369740814,222.25116292095308
3833.5403,2.1698092826099327,232.80507758479345
3834.4224,2.165613455030569,237.26492175657648
3835.3064,2.16282928012727,262.14249629538085
3836.1887,2.1609527835843867,228.19420920815256
3837.0713,2.159182504347694,230.17281201172221
3837.956,2.156876305379176,230.29198508921488
3838.839,2.153970307453983,233.22764464946437
3839.7244,2.1510096712005953,218.1589834735693
3840.6077,2.14878961579775,259.09486718074305
3841.4932,2.1477581221228657,231.4186151683714
3842.377,2.1479189172400734,229.72466912639868
3843.261,2.149238298754899,227.32703120724258
3844.1472,2.152122837159637,244.49809050026226
3845.0315,2.157241580041294,237.10682721417052
3845.9182,2.1648745823217097,256.30309548175677
3846.803,2.174202756865217,213.8660311056265
3847.69,2.1835339832653258,226.15764009064998
3848.5752,2.190871564764963,215.71448457311698
3849.4604,2.1949053658365227,234.29993062427314
3850.3481,2.195441261170414,241.8929196733874
3851.234,2.19340887471142,223.24443594700432
3852.122,2.190338796844789,258.2501847571022
3853.0083,2.187561392550638,239.0805779271964
3853.8967,2.1854867181405466,230.22028009745875
3854.7832,2.183606372645141,257.31485201864166
3855.6702,2.1810846282742085,210.35744200580444
3856.559,2.1775351781521315,228.13255710510325
3857.4463,2.173288989069013,235.4253174277076
3858.336,2.168951695382249,233.59846640777138
3859.2234,2.1649590994087005,226.23871420564774
3860.1135,2.1613294414455484,247.04019280268423
3861.0015,2.157900786432874,228.93683055415548
3861.8896,2.1544119635204826,257.58327527934296
3862.7803,2.1506265707869203,246.8198887110683
3863.6687,2.1465599296457927,243.68876285080648
3864.5598,2.1426340566916258,242.97511351345494
3865.4487,2.1396541788650465,257.55971990718274
3866.34,2.1381903225780463,256.90552696095705
3867.2297,2.138099258510165,211.0704546601008
3868.1213,2.1384731198547553,229.0082030448303
3869.0112,2.1381597128605,260.6053024142968
3869.9014,2.136376182935302,231.32455014176554
3870.7937,2.133028022989172,247.50509859167192
3871.684,2.1286943791854225,271.899274190273
3872.577,2.1242368126778994,233.4467713404212
3873.4678,2.1205208899016714,241.70281427806788
3874.361,2.118196636426403,221.42007257901628
3875.2524,2.117775703068664,259.6614943670168
3876.1438,2.1194395560936714,269.0344640141864
3877.0376,2.1226940811839254,230.6413431574185
3877.9297,2.1260851866498442,259.70346594908233
3878.8237,2.1276043015342,232.14159872937145
3879.716,2.125588360950802,248.2941583498784
3880.6108,2.1196540215153643,265.6460507034446
3881.5037,2.110988887484422,244.86064996030237
3882.3965,2.1016219006889587,232.4577051599647
3883.2917,2.0933518998851355,249.76094083756198
3884.185,2.0870205219542215,270.43561357167204
3885.0808,2.0823054513450745,251.126005579709
3885.9746,2.078374431459112,262.576504624504
3886.8706,2.0744248165927566,241.14191195746596
3887.765,2.0701554153059454,246.89483104153177
3888.6592,2.065758500872346,269.09966907514314
3889.556,2.061726991543293,277.21255843548767
3890.4507,2.0585641074686856,251.11725482386916
3891.348,2.056515896986114,236.6113894076646
3892.243,2.0556876590912383,264.8469863522514
3893.1406,2.056179809088709,274.36900797373113
3894.0361,2.058115329769897,283.8239579006387
3894.932,2.0614126644130866,262.3774708738519
3895.83,2.065588618651074,258.91074347173964
3896.7263,2.0698579195632982,256.9894620994876
3897.625,2.0737079339078615,251.05636078537842
3898.5215,2.0772974512709226,278.42378256020714
3899.4207,2.081537574734307,243.39836936905346
3900.3176,2.0874291437403514,268.77834658403964
3901.2148,2.09537345904227,273.74225422501786
3902.1145,2.1047765765549165,261.5726316963146
3903.0122,2.1142467751874414,243.41850022928426
3903.912,2.122455340645509,248.92149639234498
3904.8103,2.128613856723051,242.83978615048764
3905.7107,2.132884796662517,241.4944502969359
3906.6094,2.136124737263669,247.45299240789308
3907.508,2.13943568629842,241.53606281310738
3908.409,2.1434651548397445,240.75263245943927
3909.308,2.1479914204983817,210.3921480703267
3910.2097,2.1522284078246057,209.08115832429291
3911.1091,2.1554251973241993,228.25969320220815
3912.011,2.15745301477746,231.64684861190594
3912.9111,2.1587082967918,230.71860030787198
3913.8113,2.15974252311656,234.13594597971397
3914.7136,2.1608462090005434,227.69823156330438
3915.6143,2.1619031484324105,231.2657676973519
3916.517,2.162565461773645,253.43605392247525
3917.4182,2.162561875169622,256.31927368048594
3918.3215,2.161923140905899,232.16390976724065
3919.223,2.160900506164008,235.53875655183793
3920.1245,2.1596930076375203,244.52252051280902
3921.0286,2.15830416417059,250.8265946985731
3921.9307,2.1566602746725883,239.80158992106698
3922.835,2.154776174293828,227.84955354373542
3923.7373,2.152836401766628,246.3805709929568
3924.642,2.1510316534802167,252.52743303065316
3925.5452,2.149421697435656,253.58633692222963
3926.448,2.147868998453094,225.90180162509057
3927.3535,2.1461914315582926,223.0505083226153
3928.257,2.144355835687386,247.08531628945434
3929.1628,2.1424705048929056,231.1702839464171
3930.0667,2.1406719391463316,236.68866745694402
3930.9731,2.1389310308783793,265.4743230961481
3931.8774,2.1370516056196047,249.34110975709245
3932.782,2.134712918397016,234.8544916635281
3933.6887,2.13157761740269,257.32648091480496
