wavl,flux,ivar
3566.9744,3.0284122088673207,215.12676548014738
3567.795,3.0248168873310295,229.51401127638601
3568.6177,3.0213944774444257,225.90156152414662
3569.4385,3.0174167258795324,271.08349100214195
3570.2617,3.012387226041337,202.35346220392336
3571.083,3.007031629755546,303.4141955335451
3571.9065,3.0031809583007587,267.2462389279699
3572.7283,3.0027548289265065,214.9273103903037
3573.55,3.0063365569263074,193.2052603984544
3574.374,3.0126954777939776,253.36508322819878
3575.1963,3.019333934973655,223.69931268090969
3576.0208,3.023963082777447,210.2738776586382
3576.8435,3.025619673383252,221.85522176280352
3577.6682,3.024935574143137,225.80284347450106
3578.4915,3.0231542404726572,213.6135601984358
3579.3145,3.0209822010855416,225.38857374008035
3580.14,3.018312925233885,231.765712343157
3580.9636,3.0149826676406706,229.75830530695455
3581.7893,3.01155220171389,190.4979948384645
3582.6133,3.0093913662147758,263.4374180086522
3583.4395,3.009764702866555,216.57683535435046
3584.264,3.012791850509591,236.10073771728756
3585.0884,3.017006653935378,203.2436321816702
3585.915,3.0198926380140763,233.1077505707184
3586.74,3.0190525785491698,223.5991058072451
3587.5671,3.0134888077570374,212.4318801103165
3588.3923,3.004224655902776,214.33482365159796
3589.22,2.993637236903748,231.2865280195078
3590.0457,2.9841816307038695,216.12599641089702
3590.8716,2.9769690306998116,246.4703829490507
3591.6995,2.971826458545337,192.2973065915084
3592.526,2.9682139971705865,243.031822729341
3593.3542,2.9658823555501193,264.47790521832206
3594.181,2.9648235334280995,217.07256149763526
3595.0098,2.9647334107483325,195.10337759350614
3595.8367,2.9648530262024186,251.33183673729346
3596.6638,2.964193411249015,250.22366532608822
3597.4934,2.9619453007859486,254.91033179165507
3598.3208,2.9580839706668263,226.98810816516718
3599.1506,2.9538167861174944,192.03665114614384
3599.9788,2.951291761921406,288.50615008153784
3600.8088,2.9519776752874485,212.659220681551
3601.6372,2.955160751496709,207.25741983392024
3602.4678,2.9581902198952448,236.92024734913
3603.2964,2.958565485864105,253.3210647183744
3604.1252,2.9560435371273086,222.42119952025877
3604.9565,2.952646832291305,242.25804228392127
3605.786,2.950825118851878,281.91499206438334
3606.6172,2.9513859151741757,259.5392652928344
3607.447,2.9530982481476302,211.96875718106128
3608.2788,2.9539184176960176,227.24958777817722
3609.109,2.9525950355440522,237.84775414194596
3609.9392,2.9494166843228733,236.08928327393713
3610.7717,2.945725134519908,239.72576589191894
3611.6023,2.9428543056313203,246.1235626699221
3612.435,2.9412197827092093,240.427982394448
3613.266,2.940336811926136,201.28679951371527
3614.0994,2.9394402124113705,200.88373053349423
3614.9307,2.9381976595277446,247.68226218181852
3615.7625,2.9367926262657225,244.04083308643334
3616.5962,2.935435585554545,255.54203229124778
3617.4282,2.933895161450938,249.05895396426345
3618.2625,2.931547612415019,234.91417135934526
3619.0947,2.9278559427550177,235.8663413069287
3619.9292,2.92257214555518,228.32523784930677
3620.762,2.9157454483662106,242.1862952960767
3621.595,2.9076070977739428,216.72166802516435
3622.4302,2.8987707517973553,260.51056159815244
3623.2634,2.890426292938148,240.86764606602975
3624.0989,2.883927806952152,246.28649290368472
3624.9326,2.880366319884943,240.2264648904178
3625.7686,2.8800063154606175,258.66899705610496
3626.6028,2.882457390899917,255.73054252518114
3627.437,2.8872386440942006,267.32009244870585
3628.2734,2.8942142392615575,236.2463938828996
3629.1082,2.9031450256510927,218.10901836295633
3629.945,2.9129498435671515,261.13130253812506
3630.78,2.921216833829369,231.1089562013932
3631.6174,2.9252012356874717,248.8445136979504
3632.453,2.9231363052577697,242.01728911979484
3633.2883,2.9152378984428413,246.60190517215077
3634.1262,2.9033420340899307,236.3373884900109
3634.9622,2.8900383863491266,233.9516568882436
3635.8005,2.877511890601409,231.2333760320372
3636.637,2.8674347033146894,267.455985557442
3637.4756,2.8607826950788273,259.68030637123456
3638.3123,2.858055793063385,243.5813218742095
3639.1492,2.858906946731571,246.10732744258704
3639.9885,2.8619514646906183,260.2229364973548
3640.826,2.864916456152315,251.58432343618915
3641.6653,2.8656234421734914,270.7029960139289
3642.5032,2.8630199439201585,226.58918774201112
3643.343,2.8574751368443683,263.61864977552904
3644.1812,2.850145672888727,260.2045221752931
3645.0195,2.8420520408855445,239.82138743933223
3645.86,2.8338719451886236,256.6163869870849
3646.699,2.8262955615914684,269.5701694933391
3647.5398,2.8200619768487787,274.2373444234022
3648.379,2.8158126050150902,239.84483662109253
3649.2202,2.8136032745899837,266.08607824676767
3650.0596,2.812944100370219,268.4461888997888
3650.8994,2.8131214342739876,257.6598427331815
3651.7412,2.8136498505343126,264.77798926279684
3652.5813,2.8143838918182826,221.99684603040728
3653.4236,2.8152962150747145,244.5204194806824
3654.2642,2.8161099090667405,268.29982595983347
3655.1067,2.81618489255902,254.9918975930747
3655.9475,2.814869271854985,240.54775747446044
3656.7886,2.8122207974787448,263.9278317596467
3657.6318,2.809429481071299,252.3380252110907
3658.4734,2.8083500351348696,273.63611000103316
3659.317,2.810196984607377,248.7821811875702
3660.1587,2.814509489694402,241.32796390936252
3661.003,2.8192544318487807,259.09778354257844
3661.845,2.8219342991971774,274.01075439774365
3662.6875,2.8211005970956844,286.2891958539284
3663.532,2.8169923345529964,233.23422538545296
3664.3748,2.811195199999267,246.94588275227912
3665.2197,2.805504769543249,280.16309850420515
3666.063,2.80115626279489,244.77711145342855
3666.9084,2.798553965685118,245.3798657635972
3667.752,2.797586627036368,313.095791353823
3668.5977,2.7977351709992044,301.0428842944136
3669.4417,2.7981155127617434,258.9596037842379
3670.286,2.7976815662229346,247.54700894836628
3671.132,2.7957253111392726,275.92848953219357
3671.9768,2.7923221605318598,252.5144120673973
3672.8235,2.788213403814912,286.45282369824673
3673.6685,2.784338350263409,276.49251863448814
3674.5156,2.781342847488105,255.9914947590835
3675.3608,2.7796139727303135,272.73742657807577
3676.2063,2.779329268109697,274.67999050727394
3677.0542,2.780339789256987,271.8595723217949
3677.9,2.7818460797657676,272.558671724218
3678.748,2.782498881364853,232.0622002554598
3679.5945,2.781074948827463,258.6650806996264
3680.4429,2.777319582119118,244.76586929585505
3681.2896,2.772233115952904,256.7917328321924
3682.1365,2.767469693736494,244.89026075005665
3682.9856,2.764430019186664,270.77810461620413
3683.8328,2.7636041654041708,309.4064066116471
3684.6824,2.764498228255074,265.3486663844003
3685.53,2.7661754480003227,266.5995233805229
3686.38,2.7678755368740586,311.53156197243004
3687.2278,2.769257130347639,239.74715360487016
3688.0762,2.770314233986489,239.49750719859105
3688.9265,2.7711661788328765,243.01209178176518
3689.7751,2.7719955982749602,239.83835295688408
3690.626,2.7730793865455774,242.26552678173599
3691.475,2.7747255903493615,285.0473317494715
3692.3264,2.777139917324353,239.16634156410592
3693.1758,2.7801446708790833,242.64011984118562
3694.0254,2.782949010319581,241.59241636817288
3694.8772,2.784119394111395,247.5132451875208
3695.7273,2.7822054263254423,254.15018489987548
3696.5793,2.776828225014341,249.13081102959154
3697.43,2.769257174262533,276.7182572563267
3698.2825,2.761553631275746,292.111307813492
3699.1333,2.7551364348363787,273.1501264925842
3699.9841,2.749832706872025,277.62225342409147
3700.8374,2.744484180625329,252.88021952176962
3701.6887,2.7382050486600114,293.24760571027855
3702.5425,2.7310423549645133,255.3052818663674
3703.3943,2.7240130516956698,324.5522199147923
3704.2483,2.7183232218401474,257.31163553568695
3705.1003,2.714740301054092,294.99306980050545
3705.9526,2.7130744558563538,268.69918854479573
3706.8074,2.7124998927974513,291.78298470370464
3707.66,2.712293939732193,273.840176385184
3708.515,2.7123369645881246,264.28796536678703
3709.3682,2.7129021429877995,250.76667192257773
3710.2234,2.71410181031053,263.32724195192696
3711.0771,2.7156527762480627,289.8683806654256
3711.9307,2.717100110600062,247.91719563948263
3712.7866,2.7180734081316356,279.0512599686293
3713.6409,2.7183327524564462,305.5676946338737
3714.4973,2.717721445816743,258.57175750104443
3715.3518,2.71616703621681,295.8914269847426
3716.2085,2.71376682066522,280.95329810028267
3717.0635,2.710855002472353,250.74412352182486
3717.9185,2.7078087118811047,268.77984291573057
3718.776,2.7047826262099424,299.5083189671258
3719.6313,2.7015932740725495,275.80673956001704
3720.489,2.697819717569596,271.9681110199243
3721.345,2.6932937963610226,244.9060757666609
3722.2031,2.6884593891862685,259.93856074992124
3723.0593,2.684462728423763,303.75655471765094
3723.9158,2.6824477060228022,287.4127080207929
3724.7747,2.6827320973665234,322.2980497487633
3725.6316,2.684404290542691,287.2728038129164
3726.4905,2.68584932532126,252.53611102070892
3727.348,2.6858015078679975,284.51738680462665
3728.2073,2.6841844582783283,303.7268851936762
3729.065,2.682107212561188,286.7460329219928
3729.9229,2.68100601395966,288.93787501272186
3730.783,2.6815463110494187,288.70669195900064
3731.6414,2.682970672298768,272.6786344448244
3732.5017,2.683469166504314,288.23629637937887
3733.3604,2.681461129443831,289.7630759688381
3734.2214,2.676951446641593,277.5030513495067
3735.0803,2.6718861025345393,297.2798094278384
3735.9417,2.6689488257020972,253.97583233704847
3736.8013,2.669957838963499,298.0241951319284
3737.661,2.6748541170511233,270.9255853527902
3738.5227,2.6819997821224564,321.9337138307375
3739.3828,2.6889833082213297,289.74204421658385
3740.245,2.6935927698187845,298.749240062356
3741.1055,2.6943187392867904,285.19133125812795
3741.9683,2.69080895961292,268.2873338273988
3742.829,2.6840196580662607,292.1617280981555
3743.69,2.676002521581192,291.9108716390066
3744.5532,2.669316493689932,327.99727457011585
3745.4148,2.666150604415101,302.95509525534976
3746.2786,2.667255202217565,298.6159246167812
3747.1404,2.6715456046667705,241.11853165531198
3748.0044,2.6765432951282477,284.7436095326045
3748.8667,2.679430002118685,281.00448485185217
3749.729,2.678321070907373,302.92022083389435
3750.5938,2.672964037222859,294.5894541210246
3751.4565,2.6648735838531166,320.8189754494259
3752.3215,2.65650362925513,278.6372587766279
3753.1848,2.650172390689696,333.9951716811887
3754.0503,2.646981674676656,284.5758781707536
3754.9138,2.646815964767266,294.99936153650617
3755.7776,2.6488739973757265,271.65911669551326
3756.6438,2.6523569028392378,268.9225752763044
3757.508,2.656664287175,273.83306055278763
3758.3745,2.6613453291752056,304.70199959771037
3759.239,2.6657782203122133,294.0833172152841
3760.106,2.6690961019081954,292.81621087097597
3760.971,2.6701780231607284,273.81995098397044
3761.8362,2.6680259540054276,276.1607489467045
3762.7036,2.6621206247229456,279.9157254859247
3763.5693,2.652801121023399,307.65204813912703
3764.437,2.641168952739579,299.2862882837464
3765.3032,2.628886331897169,310.735258747649
3766.1714,2.6174681583778074,319.69539073122587
3767.0378,2.6080203469085483,289.21731354007045
3767.9043,2.6009169496447733,316.68672540696997
3768.7732,2.5959920199388082,295.0467889527615
3769.6401,2.5928330868494736,276.6899113081349
3770.5095,2.5910886107548428,311.2196932062522
3771.377,2.5908862398059376,278.302396303531
3772.2466,2.592800878664514,316.3444390901433
3773.1145,2.5974278954597962,289.7529262981346
3773.9824,2.6049674622845003,297.95776370811376
3774.8528,2.6152538116456974,346.6505470502707
3775.721,2.6278805254027358,291.2772817728413
3776.5918,2.642348630950775,309.314274073274
3777.4604,2.657425074796002,291.5914830250026
3778.3315,2.6714097375496686,288.6924532994997
3779.201,2.6825063621586636,313.7973283419437
3780.0703,2.689966658602521,277.2189157346791
3780.942,2.6942244620395535,279.8393912647292
3781.8118,2.6962262203143155,273.41538158079874
3782.6838,2.6965535780661205,246.39019891706803
3783.554,2.6950595808990196,288.20848900733375
3784.4265,2.6913104978250137,286.7354688776492
3785.297,2.6852224253040387,296.08050097699265
3786.168,2.6772218889265633,259.3610109292937
3787.041,2.6680304830252393,297.03374933426545
3787.912,2.6583292120515,291.559114523638
3788.7856,2.648300074857106,288.12777123954044
3789.6572,2.6378245718348015,292.88711661678695
3790.531,2.626473417252177,292.7587278646747
3791.403,2.6137822574234866,292.4265775042435
3792.2754,2.599005548119447,325.2140660115022
3793.15,2.581282830514143,290.02479815603255
3794.0225,2.5602943196577153,296.690057616521
3794.8972,2.53662405360983,292.47890813376546
3795.7703,2.5124890717339228,311.7405930338648
3796.6455,2.4910326654066104,367.309796704802
3797.519,2.4758248889369656,336.4436613053979
3798.3926,2.469381157705066,340.4805089215262
3799.2686,2.47253995450966,361.60038173192146
3800.1426,2.4842113445089806,347.0134207690731
3801.0188,2.5020683460041977,323.84656833104566
3801.8933,2.523375406334507,279.7657686181438
3802.77,2.5461482588034405,364.75053490996055
3803.6448,2.5691041721922123,303.33689335946923
3804.522,2.5918506306898617,265.84326691796707
3805.3972,2.614021402956535,260.27276835799364
3806.2727,2.635425244090673,237.96680180354383
3807.1504,2.655841802268612,302.7522819042745
3808.0261,2.674961317971174,265.55217593812205
3808.9043,2.6927103618957555,261.08747563135074
3809.7805,2.7087743017089454,282.93670053775946
3810.659,2.7228989883248595,251.6865067277101
3811.5356,2.734742870747623,269.94328249578143
3812.4126,2.744346291280117,267.0328813937701
3813.2917,2.75199162962875,285.63427957408004
3814.169,2.757801035246106,306.6076132394956
3815.0483,2.761514052925842,218.72620436835223
3815.926,2.7624707539415554,266.26103587322524
3816.806,2.760064586575282,246.28295746493
3817.684,2.754033896699657,289.237073369284
3818.5623,2.7445646287911964,284.78668338660896
3819.4429,2.7322996809182953,272.60356537937366
3820.3215,2.7183039320277262,276.3383838640552
3821.2024,2.7033229200566296,266.75803022891705
3822.0815,2.6875116318688463,292.3238330094471
3822.963,2.6702134766872625,286.1612333047607
3823.8423,2.650841887381577,297.49806198993167
3824.722,2.62906572228786,316.00284526536063
3825.604,2.6048411486571563,300.50262787016095
3826.4841,2.5783384248702474,282.95261053125046
3827.3665,2.549435192239939,340.00216541212643
3828.2468,2.5182958235958606,293.70306421325233
3829.1296,2.4847900721483085,309.28580337919317
3830.0105,2.448999842630607,384.36043337516196
3830.8916,2.4107472437418944,349.38421486493036
3831.7751,2.37029116139047,347.60219581346536
3832.6565,2.329299979595627,385.7709068988729
3833.5403,2.290422067293431,388.0877065689224
3834.4224,2.2577314688092653,457.2474070879062
3835.3064,2.235097382137187,418.11939411139474
3836.1887,2.225666592739403,430.7739622294363
3837.0713,2.2307042854453387,433.6908701310461
3837.956,2.2495460565385272,464.48048148870566
3838.839,2.279627424467424,445.17654503554996
3839.7244,2.3176849073581227,406.6855807534429
3840.6077,2.360268584247589,383.3733940589686
3841.4932,2.40507732043118,348.06747748743595
3842.377,2.4502932520785445,342.0694157487669
3843.261,2.4949943303462634,318.1510687076245
3844.1472,2.53848472638854,315.91345052895343
3845.0315,2.57978376111916,333.4040823363641
3845.9182,2.618467969531462,290.82726710186523
3846.803,2.6542484068767536,270.46759007759476
3847.69,2.687846229730397,268.154046485739
3848.5752,2.7198472412444756,245.05542871087408
3849.4604,2.7505750168217835,295.77653911657524
3850.3481,2.7797167518691124,270.90260655464795
3851.234,2.8065259557510913,244.11685898800542
3852.122,2.8308103428579465,237.88230679133702
3853.0083,2.8524105343341106,228.47041354788487
3853.8967,2.871287651705892,245.83123113735866
3854.7832,2.8868889496210444,257.81773161637176
3855.6702,2.898814385476244,235.3053600491809
3856.559,2.9072875628829804,228.55773479690862
3857.4463,2.91343553201534,234.13355459734413
3858.336,2.918852161908134,234.90270645119006
3859.2234,2.9244409521758246,229.34418915960975
3860.1135,2.929878858311096,226.36242591079204
3861.0015,2.933786768161324,257.8961093997276
3861.8896,2.9348304239566194,241.68869778755746
3862.7803,2.9325492626203955,241.04519841903422
3863.6687,2.9275770160532337,243.66769712500337
3864.5598,2.9209870153776696,236.18278791826643
3865.4487,2.9135446649878904,243.94679692345
3866.34,2.905121104553471,242.42192538806304
3867.2297,2.8950436035189147,230.45824579214747
3868.1213,2.8824895338726115,253.71132689515002
3869.0112,2.8670509054170825,251.14827301494333
3869.9014,2.8485649153177017,264.5997026288947
3870.7937,2.8269929083516363,272.10425814822503
3871.684,2.8025677256246255,257.5145373747325
3872.577,2.775581461715093,269.1669038841997
3873.4678,2.7469555270037747,265.79423402262023
3874.361,2.7174350176690023,268.513575761518
3875.2524,2.6874569940790227,256.5441168385107
3876.1438,2.656041078908744,310.3184892385818
3877.0376,2.6210732807112014,316.67292674341206
3877.9297,2.5806322440820355,285.2235935842544
3878.8237,2.5337476136683335,297.30894023298805
3879.716,2.4817220500977064,366.84263368698305
3880.6108,2.4267718832549123,326.83637478983337
3881.5037,2.371677569237201,376.9627039427209
3882.3965,2.3178600003022685,383.2681841204982
3883.2917,2.2654845590092063,398.86271702940144
3884.185,2.214158745399941,410.37950429847245
3885.0808,2.162520217995781,403.5915564119897
3885.9746,2.110062474554481,455.9159791318495
3886.8706,2.057323725388656,483.0624573501062
3887.765,2.0079053637023567,562.0286142746902
3888.6592,1.9675482497136494,539.148215784206
3889.556,1.9427278579683482,649.6422805006757
3890.4507,1.9380980930882752,576.4983776572382
3891.348,1.9543365819057696,524.3136422279713
3892.243,1.9884831645123036,496.7426496215475
3893.1406,2.036069073104029,566.8787143526905
3894.0361,2.0921569438362266,484.4292664467398
3894.932,2.152823796438259,440.0033680540103
3895.83,2.2146832048815335,411.9935952840067
3896.7263,2.2742824690201076,405.10854958818044
3897.625,2.3295333657626216,387.19872216787144
3898.5215,2.3792875633934556,369.97404741884736
3899.4207,2.4249441359922304,346.9684360680331
3900.3176,2.4689801583158637,346.256571806521
3901.2148,2.514554920934732,329.9927039548065
3902.1145,2.5636440421319415,299.0689321850418
3903.0122,2.615870571691574,301.86964769511303
3903.912,2.6696027730179073,302.3539790337637
3904.8103,2.722071541954739,246.74503350934873
3905.7107,2.7714948152269625,244.025952898489
3906.6094,2.816869089643123,261.8629406110229
3907.508,2.8586078741905787,248.60449027730547
3908.409,2.897565633975092,241.0041037097157
3909.308,2.934150718502618,225.22517128380704
3910.2097,2.9686936570837723,241.69548127032365
3911.1091,3.000911601411555,215.421617916025
3912.011,3.0308524453958987,207.91634578275927
3912.9111,3.0583798107768834,219.04724962044747
3913.8113,3.0836951612301444,208.27250876460675
3914.7136,3.107168866980234,217.56698715558366
3915.6143,3.1292033614618533,200.9127997201444
3916.517,3.1503999403300185,203.69294254710053
3917.4182,3.1708470779974327,211.42094994917602
3918.3215,3.190438892304946,204.6134899939085
3919.223,3.2089103584867416,192.05599653674398
3920.1245,3.226513306120675,191.67824122206497
3921.0286,3.2436383363790275,194.27461124395495
3921.9307,3.260060599982511,206.13282215831836
3922.835,3.2749515430163236,184.13361070058127
3923.7373,3.28705365190177,186.49193503662542
3924.642,3.2956709558863575,182.10890946169403
3925.5452,3.3007626074370986,182.7196703937937
3926.448,3.302929959059443,186.86690788643233
3927.3535,3.303057188647277,175.94837262854804
3928.257,3.30218571856441,185.22766631425287
3929.1628,3.301330040526903,201.65119961931856
3930.0667,3.3010814086885354,194.76912808301077
3930.9731,3.3012132694406144,192.57451057033566
3931.8774,3.3007600592967736,197.2336208853703
3932.782,3.298565100012098,180.30295120699145
3933.6887,3.293699183314703,208.33962027890345
3934.5938,3.285417066176,188.182944172126
3935.501,3.272848592465725,193.6647744510555
