wavl,flux,ivar
3566.9744,11.321567683098353,9.374126126554252
3567.795,11.378521748961274,9.041617108214576
3568.6177,11.439912967563611,10.592656226800502
3569.4385,11.493231189401042,7.714222347009369
3570.2617,11.530383648986778,7.0356249715492165
3571.083,11.547728364452496,7.782801038952281
3571.9065,11.546111881323418,5.1783519305115195
3572.7283,11.52868900640447,7.65537679492586
3573.55,11.49932548002761,7.502696032481598
3574.374,11.461730992694033,9.15425917236343
3575.1963,11.419769800368877,7.542795084025752
3576.0208,11.376527285729756,8.857671720928922
3576.8435,11.334757345270688,8.801251026851787
3577.6682,11.296322328459254,8.567036118796441
3578.4915,11.26315464540937,10.56334785904505
3579.3145,11.235855028726746,8.203286021174414
3580.14,11.212609051963268,8.559983413514884
3580.9636,11.189862271709279,8.951995228164819
3581.7893,11.164835364500249,9.376481882143953
3582.6133,11.13862747777396,9.635140351854655
3583.4395,11.115044616156005,12.990193731727514
3584.264,11.097664183442186,10.270432995462556
3585.0884,11.087053788308149,9.909850047353645
3585.915,11.081790782644385,9.343771134076844
3586.74,11.081170502844438,7.761975208249396
3587.5671,11.086797660156833,8.51209065245031
3588.3923,11.100835400726249,7.927226422491826
3589.22,11.121645037355401,10.453071929147058
3590.0457,11.140573434575515,8.12904870208948
3590.8716,11.1452907018713,8.344028271380376
3591.6995,11.127101710379765,7.469150597874927
3592.526,11.08676526751076,10.306389892965683
3593.3542,11.032696044020113,8.531094333942548
3594.181,10.97524521994448,7.810737175393246
3595.0098,10.92066617264697,8.291928072205385
3595.8367,10.871439693223515,10.613866085814424
3596.6638,10.827601264122029,9.67639105972465
3597.4934,10.789239439304609,9.485933242177861
3598.3208,10.757095263125054,10.02850491271667
3599.1506,10.731634542746896,7.904257067738118
3599.9788,10.714457419584386,8.861317292400512
3600.8088,10.708809261023102,8.600565809580809
3601.6372,10.718732204575643,7.459728398686965
3602.4678,10.744928948897861,12.606747426540348
3603.2964,10.78103964267025,11.095163829652739
3604.1252,10.8157482066205,7.004728014561991
3604.9565,10.83913763310418,10.853693387356794
3605.786,10.84799062882027,9.45345471182829
3606.6172,10.846246044553775,8.570224329105963
3607.447,10.841593610296156,9.680884262463339
3608.2788,10.842808446273219,12.559177348461251
3609.109,10.85695293402162,8.864471254211422
3609.9392,10.884910710790264,11.183722452191034
3610.7717,10.9183763205432,10.704660915908715
3611.6023,10.942759805999122,8.629336030502168
3612.435,10.94652043726957,11.888263668734139
3613.266,10.927514293366414,11.263473120534552
3614.0994,10.89173342362788,9.70510523553248
3614.9307,10.846933110008367,11.728052081771864
3615.7625,10.797793376934223,8.930773231930756
3616.5962,10.74790911275704,7.607351082092656
3617.4282,10.703500119030148,11.104393691783724
3618.2625,10.671725905902518,9.846952532937825
3619.0947,10.65603348544403,11.71550001418943
3619.9292,10.65181747519453,10.095545022167418
3620.762,10.649642220996764,10.537958178036329
3621.595,10.64282338216509,10.961639163374645
3622.4302,10.633428558912458,10.57332270486304
3623.2634,10.631042220865547,10.673656695241013
3624.0989,10.644431146568648,9.83040502260691
3624.9326,10.673044033795234,14.603453445815076
3625.7686,10.706057074927683,9.274931598065079
3626.6028,10.728957618722275,9.133345209670097
3627.437,10.732411357706996,12.991247495482446
3628.2734,10.71422746152306,7.578122120175479
3629.1082,10.676264802474742,9.936500634028162
3629.945,10.621566211213723,10.048986182605923
3630.78,10.557418283378965,10.341295758670071
3631.6174,10.497157442670435,14.010344222368044
3632.453,10.457510832288875,12.393277218480005
3633.2883,10.44754669586579,10.913038820476414
3634.1262,10.462567786266424,13.100084892000265
3634.9622,10.48700709921604,9.930555399687659
3635.8005,10.504941794474153,8.860675634500277
3636.637,10.507751410415628,9.666115527310003
3637.4756,10.49547339611533,9.607350679170386
3638.3123,10.473424669925718,12.8828449045709
3639.1492,10.4483917178632,11.05993689284928
3639.9885,10.425831931007664,9.582856129175058
3640.826,10.408138803816659,9.269612267626831
3641.6653,10.394376608032813,12.660001806120823
3642.5032,10.38316954887989,9.609351936522149
3643.343,10.374936177151937,10.49819928336147
3644.1812,10.371629944598315,10.622750895560976
3645.0195,10.373844106959647,9.985116577324776
3645.86,10.37913365089221,11.0148465048055
3646.699,10.382765357117039,10.61609168980102
3647.5398,10.379742669389053,10.807352298009405
3648.379,10.366132155271528,11.01291681932653
3649.2202,10.340211855876866,12.275093284838412
3650.0596,10.305095741410886,9.137775877987368
3650.8994,10.270248176626561,12.30921195484489
3651.7412,10.249459467220941,13.867672077489617
3652.5813,10.253194759093285,14.847033732928445
3653.4236,10.280385593260144,12.879051066872798
3654.2642,10.31738803937416,10.251640432625337
3655.1067,10.34616638651148,8.158107133553772
3655.9475,10.354427871320812,9.434513668977688
3656.7886,10.341804158534154,10.406602258860918
3657.6318,10.317663906570598,11.574864735212564
3658.4734,10.29478408953036,9.841797706629926
3659.317,10.282373867264615,9.39273586158093
3660.1587,10.28347111561787,11.240407928704355
3661.003,10.295796446223916,12.76145286915389
3661.845,10.314082507117824,10.216200273290891
3662.6875,10.33170836076392,11.873512368505347
3663.532,10.341434223919938,9.287698992584286
3664.3748,10.337228460948129,9.50959163883312
3665.2197,10.3170178753758,11.190136377482217
3666.063,10.28425673070522,11.354884029015004
3666.9084,10.246544042699052,10.55658462606202
3667.752,10.21337199786138,10.888855176509349
3668.5977,10.192274978947655,11.878964648588328
3669.4417,10.18660356563823,15.312230680661816
3670.286,10.193893594436217,14.015878943278354
3671.132,10.207714396519238,9.580603079671418
3671.9768,10.221223939567837,13.631458659031955
3672.8235,10.230760957160236,9.191768214436154
3673.6685,10.236638516853844,11.77975029479732
3674.5156,10.2416542609121,11.374981651578711
3675.3608,10.247671821285396,12.543629689196292
3676.2063,10.252689306328703,8.835101416074977
3677.0542,10.250759432239096,10.20601367196543
3677.9,10.236594835080986,10.716910213050744
3678.748,10.211873220314594,10.849562036479314
3679.5945,10.187460465835212,11.878103984419392
3680.4429,10.176681033688265,11.449056047570192
3681.2896,10.18509743682834,10.776115912619158
3682.1365,10.205246517329977,7.649015105238736
3682.9856,10.222351146235535,8.925611668834211
3683.8328,10.225190952298519,8.8351784256282
3684.6824,10.21285630861339,11.27995744057047
3685.53,10.192249669114718,13.926477420137735
3686.38,10.171030530748267,11.724773228198101
3687.2278,10.15380130373479,10.814217948389116
3688.0762,10.142309382657487,10.353568457948313
3688.9265,10.1374889002074,11.341572155578206
3689.7751,10.13936755720263,11.460707866802357
3690.626,10.145905720497225,11.916479240148337
3691.475,10.153193640016106,10.520126973346814
3692.3264,10.15733131607243,11.967511909425324
3693.1758,10.155892465142491,10.128778820872794
3694.0254,10.148404991181115,10.349943930741551
3694.8772,10.13617066460274,11.668246616401175
3695.7273,10.12198991575721,11.520907119277387
3696.5793,10.10875302843689,12.700923482282134
3697.43,10.098415828619196,9.636951571978926
3698.2825,10.091762626689617,9.838082771111525
3699.1333,10.08895087700296,11.758392734536907
3699.9841,10.088434454765709,11.662928325176031
3700.8374,10.085602393801551,11.233275788292056
3701.6887,10.074215220842078,9.999290833934298
3702.5425,10.051150374483823,11.786720131905325
3703.3943,10.020419439362582,14.433350488357826
3704.2483,9.9906370734964,14.485709824725928
3705.1003,9.96894966931065,12.057603565482369
3705.9526,9.95581116536233,10.894041677308246
3706.8074,9.946400615313376,12.832479653424674
3707.66,9.935449716115496,10.871064603125884
3708.515,9.921001098717701,12.507295970094345
3709.3682,9.905428808495255,13.474178111804697
3710.2234,9.89305626986017,11.557030075127342
3711.0771,9.88643588243048,13.433673762868759
3711.9307,9.882776129085364,11.34058952092185
3712.7866,9.874752671931235,9.539607534481354
3713.6409,9.856209075334784,10.810586348285137
3714.4973,9.827722556446385,12.083249383684445
3715.3518,9.796715029840346,12.621178688026738
3716.2085,9.77076430369823,11.968279774082763
3717.0635,9.752226029075349,10.198559459151145
3717.9185,9.7374322108953,14.175859827959853
3718.776,9.721120948228387,11.830334233707921
3719.6313,9.70088647044964,13.809322915914624
3720.489,9.678099580635738,13.487148009332037
3721.345,9.656414501036618,11.530303644677831
3722.2031,9.638699534200102,13.733582811078465
3723.0593,9.626070760986968,13.482631817958858
3723.9158,9.617619704316743,12.485475988084584
3724.7747,9.61069764450532,14.835173311952408
3725.6316,9.60114651469607,11.868484807674
3726.4905,9.584841149265326,12.28256095896926
3727.348,9.560716719882853,12.305494014516029
3728.2073,9.53183678362206,13.375595806437625
3729.065,9.50381132394602,13.189746841373406
3729.9229,9.480489209325514,11.976246183935364
3730.783,9.461529253122723,10.604976611067224
3731.6414,9.443360234103734,12.704588062814045
3732.5017,9.422713576855848,15.234793030520438
3733.3604,9.400485593298189,10.691969166997069
3734.2214,9.38159849473816,12.354051603251724
3735.0803,9.372503250134896,10.002187836791988
3735.9417,9.377427432679227,13.730397419223943
3736.8013,9.396315073139249,11.858606170699273
3737.661,9.424146234135618,14.635598209796573
3738.5227,9.452068576116389,14.568973189448279
3739.3828,9.469874717825643,11.93502865799366
3740.245,9.469864371607715,11.242337830176584
3741.1055,9.449390326753786,12.312483878114419
3741.9683,9.412090660464523,12.516955112832544
3742.829,9.367401457363211,14.13611329007268
3743.69,9.326442057195672,13.304562420486842
3744.5532,9.29716967864799,14.003268499413444
3745.4148,9.281109293808086,14.827605823218654
3746.2786,9.273529343543482,12.188819085875062
3747.1404,9.268058303035408,12.246743714248701
3748.0044,9.262237884339433,15.349524021392194
3748.8667,9.26355832909771,13.50618855135019
3749.729,9.293919618499714,15.677093676248091
3750.5938,9.388341136786503,15.092831112413307
3751.4565,9.577948970783451,15.987252771661987
3752.3215,9.86092319409528,14.246889410480081
3753.1848,10.17214644836143,9.349092166154765
3754.0503,10.399032602175657,12.771179037807881
3754.9138,10.438622589933301,11.465999586583644
3755.7776,10.27199570459791,11.593841950010116
3756.6438,9.975899952333712,13.844497788639508
3757.508,9.671105774971092,13.385095362033352
3758.3745,9.441906838933564,15.634634347044527
3759.239,9.308274605653517,12.031220339735544
3760.106,9.241392136824246,11.38495687470202
3760.971,9.20426423161401,12.767412477549716
3761.8362,9.172882001627801,15.552679477620995
3762.7036,9.138621695642785,13.849830773406405
3763.5693,9.100743321733983,14.650425491970244
3764.437,9.060020515681849,12.49586300705696
3765.3032,9.017902648716687,13.13450904331368
3766.1714,8.976259172077512,12.353904152918744
3767.0378,8.938324511805373,14.450875051597013
3767.9043,8.907922321692967,16.108469857651887
3768.7732,8.888639889090962,16.162768644951576
3769.6401,8.881566502642821,16.110659400856104
3770.5095,8.883113597955745,13.139830137592483
3771.377,8.886552486709208,12.811778878787443
3772.2466,8.886854793836452,17.300368776636752
3773.1145,8.885387345335088,13.93086702553821
3773.9824,8.8896842522937,14.900519870507594
3774.8528,8.907521082539201,17.462016721962218
3775.721,8.939869228681522,10.94889714287399
3776.5918,8.979992827895325,13.959399174093074
3777.4604,9.017983165988992,11.07309991812476
3778.3315,9.047690443797645,14.85388100406147
3779.201,9.067556151756763,11.281875260794726
3780.0703,9.078454813776938,13.798176727837845
3780.942,9.080670084450562,15.561331617966792
3781.8118,9.073564080387428,13.467290847646131
3782.6838,9.056530433949312,14.344344054451387
3783.554,9.03030342031128,13.429049036138034
3784.4265,8.998059719450817,14.42986514744095
3785.297,8.966765345601932,12.720225221918472
3786.168,8.944685500994334,14.06019612647904
3787.041,8.936662009530993,15.851360201292058
3787.912,8.939582996914826,12.532285606849966
3788.7856,8.942671658967408,13.915184210345252
3789.6572,8.93288397189753,12.474353517840507
3790.531,8.90087690413296,12.516566212415876
3791.403,8.844205189655911,14.986447548276107
3792.2754,8.766711436968643,11.863304375939679
3793.15,8.677107751578408,13.56514226302259
3794.0225,8.587691659059903,18.348116682034735
3794.8972,8.50955923426591,16.196569435557418
3795.7703,8.450507336075495,20.276248783264396
3796.6455,8.411922475681811,15.960752252507907
3797.519,8.391132326916763,17.18920097767207
3798.3926,8.383851137851874,17.8418928579703
3799.2686,8.387387830085412,16.43119167884931
3800.1426,8.401692022016842,15.66433367842309
3801.0188,8.428773822190793,15.692026333599781
3801.8933,8.470159344137077,15.96512474060282
3802.77,8.525082258924154,16.289250177516372
3803.6448,8.589723336396357,15.450461738929633
3804.522,8.660759956579394,14.928921267082938
3805.3972,8.735899898756093,21.789320433995826
3806.2727,8.813323627253336,16.306045509593858
3807.1504,8.888135953440123,12.659055820807023
3808.0261,8.952310330872065,15.888015705932347
3808.9043,9.000215021122763,14.722222850616236
3809.7805,9.03110674876199,17.899601239036304
3810.659,9.049528151340793,14.703193827129443
3811.5356,9.061153417638264,12.978538260412236
3812.4126,9.07023865111807,12.389325106126577
3813.2917,9.07871524983649,11.851279575967435
3814.169,9.086646740830744,13.956136100699577
3815.0483,9.092814585513349,12.024127740267657
3815.926,9.095078990279662,15.091003894807276
3816.806,9.091591903386156,12.349740005153912
3817.684,9.081874165194451,14.43227086713631
3818.5623,9.066271814794199,12.191341188181747
3819.4429,9.043646348127233,13.727362710579321
3820.3215,9.010091378133971,12.636372683038289
3821.2024,8.960090105399251,14.59706736767423
3822.0815,8.89102008812537,13.247333109678227
3822.963,8.80455302854153,13.617698568062307
3823.8423,8.706525001518964,15.423331186261294
3824.722,8.602416610873213,14.27233438360862
3825.604,8.49596423442629,17.727390345373426
3826.4841,8.389937403269213,17.4436810791719
3827.3665,8.28478350852044,15.443185633824335
3828.2468,8.180952139523841,17.3802711867475
3829.1296,8.077044154023259,18.00591969828174
3830.0105,7.971690386230073,20.235467762544218
3830.8916,7.861598661103169,15.933218873359408
3831.7751,7.743671316371837,17.449176128624728
3832.6565,7.619473961593629,18.725025121636655
3833.5403,7.496322660957656,21.40536817163318
3834.4224,7.38934544295054,23.930397212361207
3835.3064,7.314603136744751,25.72874603211765
3836.1887,7.284708439674405,21.678420590172685
3837.0713,7.303848812800394,19.491306776915444
3837.956,7.368798164995139,30.93878169612834
3838.839,7.470892807558683,19.58435862552096
3839.7244,7.600689800353572,20.94170851046072
3840.6077,7.748205282400191,18.728747370026674
3841.4932,7.905164476427275,17.267522928316527
3842.377,8.061640264190705,17.92135837732791
3843.261,8.20896931902636,17.85376626771269
3844.1472,8.340536753216925,16.479401902532437
3845.0315,8.452456213201867,16.25981042417598
3845.9182,8.545465353892824,15.768136852110118
3846.803,8.621864615130388,17.232259384676897
3847.69,8.687065584807158,12.784876219427408
3848.5752,8.747788093842068,12.92373441359005
3849.4604,8.811329715043385,15.415017620687603
3850.3481,8.882030204657106,12.437709790434905
3851.234,8.958307970075087,14.72629136711485
3852.122,9.034452487506764,12.027970846506634
3853.0083,9.102491176483884,13.565509247189999
3853.8967,9.157559933809829,12.120205358868516
3854.7832,9.199007601553774,14.927808882941367
3855.6702,9.231261116720841,13.105282397876204
3856.559,9.26108787723814,13.69384855730217
3857.4463,9.293775457124056,12.949515293365938
3858.336,9.329582390951808,12.66900399248956
3859.2234,9.361888945548413,12.169118733819444
3860.1135,9.381457267849106,11.463671197823299
3861.0015,9.38193851567644,13.65938564298102
3861.8896,9.363750985849451,13.00247997634324
3862.7803,9.332263816409153,11.83415109904317
3863.6687,9.294374471422053,14.488628126157398
3864.5598,9.254968089989294,15.776896446909037
3865.4487,9.216664694461736,12.815461990808497
3866.34,9.17918167832763,14.470998622456836
3867.2297,9.140760201181132,13.4360534864878
3868.1213,9.098016247580736,15.64371468844907
3869.0112,9.047094325978188,15.005749157543352
3869.9014,8.983952192803022,15.533911292553958
3870.7937,8.905936932152063,14.584344593528973
3871.684,8.81349104617426,13.965310871035918
3872.577,8.708573082446879,14.307833431524884
3873.4678,8.595233161620456,15.197059400066898
3874.361,8.47639755584298,16.252599097862678
3875.2524,8.355482624636377,17.362589440367547
3876.1438,8.234047674884629,17.04995581247844
3877.0376,8.111884614050739,17.259346165645887
3877.9297,7.98746295794592,20.956963641209764
3878.8237,7.856520575414675,20.46328075160422
3879.716,7.715971943757379,17.702696521357726
3880.6108,7.563425921466445,20.450918174491942
3881.5037,7.400338259863268,20.038408793452927
3882.3965,7.228577990549135,20.177886553204956
3883.2917,7.049889034268689,26.34475125867112
3884.185,6.867103439789706,25.302510287012225
3885.0808,6.682436175073526,26.17153156260171
3885.9746,6.5032050073260805,29.273898727955775
3886.8706,6.339270935240696,27.288351845411654
3887.765,6.204930646312613,27.468982600983132
3888.6592,6.113246167431298,35.85449573603617
3889.556,6.073960963248875,32.96557970991079
3890.4507,6.090809580111493,32.018087733510335
3891.348,6.160232854473913,33.2901516929936
3892.243,6.272464143428242,36.55313587683988
3893.1406,6.416031728970886,30.515209507876328
3894.0361,6.578518287084554,22.571470109732132
3894.932,6.750641750065596,22.713006948412993
3895.83,6.925406582211553,20.825398874641056
3896.7263,7.096799828049182,24.124987655910328
3897.625,7.263103909106021,22.946833032155403
3898.5215,7.423300793120249,24.570087374801346
3899.4207,7.579078974646839,19.24238940874371
3900.3176,7.729786894834373,18.979366144335785
3901.2148,7.875309020890883,17.39255750787805
3902.1145,8.016120110273857,20.01411677721293
3903.0122,8.15351596945278,16.626331638763567
3903.912,8.291252480101297,19.613465943890304
3904.8103,8.43074862002331,14.43971473359403
3905.7107,8.57176811402802,15.28303121610665
3906.6094,8.710190644861617,13.57124321334739
3907.508,8.841837118089984,13.505726334748532
3908.409,8.963226189319057,14.985778056570485
3909.308,9.071476820040136,14.217695509823669
3910.2097,9.166708616831864,15.647083193105885
3911.1091,9.251064477932873,11.722255853945983
3912.011,9.331094209032972,13.984126854615905
3912.9111,9.414141230116591,12.311162957974934
3913.8113,9.505556878033985,12.388463307249198
3914.7136,9.604643782441963,12.752383845014911
3915.6143,9.704006203755396,11.799843282199298
3916.517,9.795354720893018,11.746431013402642
3917.4182,9.872893523433266,13.486817345995636
3918.3215,9.93650396223049,12.525616049324968
3919.223,9.988239462541518,9.64999938301224
3920.1245,10.030626442740735,12.580135778918214
3921.0286,10.065342068416369,10.884907699980223
3921.9307,10.093741465209021,10.924426599841695
3922.835,10.117619315136091,9.592131312590931
3923.7373,10.137925451412904,11.30379738326335
3924.642,10.154649142719519,11.171266013427688
3925.5452,10.166988621745597,10.692841561232726
3926.448,10.17493286104105,11.35716842745844
3927.3535,10.179889304209691,11.514485242773594
3928.257,10.184140310873952,10.362128333078244
3929.1628,10.189543076819133,10.713427236381802
3930.0667,10.196222448051511,10.212420258341618
3930.9731,10.202390154265759,11.224011899375906
3931.8774,10.204757241000852,10.265659332131996
3932.782,10.199375487702781,11.35148674434451
3933.6887,10.182200511312022,9.992146606155403
3934.5938,10.1503233815649,10.15810060441023
3935.501,10.102950876669995,11.596672200727975
3936.4062,10.042482235479886,11.368474442898556
3937.3142,9.972535101009823,12.51551795963676
