wavl,flux,ivar
3566.9744,5.782942378127969,65.8230938398918
3567.795,5.778108362064851,64.7629307778175
3568.6177,5.768909945959233,62.10786802759311
3569.4385,5.754809055880765,66.76671326516204
3570.2617,5.738049136533661,66.81155461424189
3571.083,5.7228582609767065,72.197821262084
3571.9065,5.712834728912275,70.67469772622566
3572.7283,5.709280167408194,65.35556969379944
3573.55,5.710631995253957,67.79124068211742
3574.374,5.713796166124324,67.7555184775657
3575.1963,5.715931597097268,65.09447202554848
3576.0208,5.715834750215768,58.79105588782431
3576.8435,5.714107216782033,68.68034806840937
3577.6682,5.712315558991227,74.60542859488096
3578.4915,5.7117728100267104,75.44134947911151
3579.3145,5.712682343234348,70.02513413336526
3580.14,5.714068457540117,65.97964749765201
3580.9636,5.714069734042261,73.71138319613164
3581.7893,5.710322816026783,70.00016506471735
3582.6133,5.700678719739028,75.20864678628493
3583.4395,5.6843999298620504,68.30031475254255
3584.264,5.6634690796199365,68.99489865357195
3585.0884,5.641947732931878,68.58435917176502
3585.915,5.6240113464647,81.51487645467485
3586.74,5.612022689687986,76.45883783043037
3587.5671,5.605717424208418,58.47176191426092
3588.3923,5.60337026399837,69.19328223993621
3589.22,5.602878115190815,69.50518039637495
3590.0457,5.602457050338028,70.15073724766397
3590.8716,5.600535089431296,68.45612297467814
3591.6995,5.595376715918889,78.37055127454681
3592.526,5.585160419375326,72.54544966738996
3593.3542,5.568620417373487,70.3703496504208
3594.181,5.546168260450241,74.07012970238432
3595.0098,5.519907252784807,72.55953012007714
3595.8367,5.493518195283096,72.65299877899476
3596.6638,5.470877214934984,76.24530394273515
3597.4934,5.4553393519966695,79.93063476516598
3598.3208,5.44900073152802,65.58804650368116
3599.1506,5.451808732930096,77.77895364250176
3599.9788,5.461388793615582,74.10369405774735
3600.8088,5.473471083874132,71.08644240848591
3601.6372,5.483227231254282,75.52397014846169
3602.4678,5.4873999201061565,72.49393890108544
3603.2964,5.485394634087977,75.66622365181888
3604.1252,5.479145470233883,68.52065567703322
3604.9565,5.471721790599734,76.3980221399527
3605.786,5.465814922606205,69.86746834791722
3606.6172,5.4623056086997925,81.61371624024488
3607.447,5.459985777209808,76.35430658191605
3608.2788,5.456499790900841,76.31262282549889
3609.109,5.450279959094379,70.2793466683929
3609.9392,5.441590322668573,78.69029173368445
3610.7717,5.4318057117485345,71.27332556602607
3611.6023,5.421980436743076,79.60818215628144
3612.435,5.412232693585572,72.57406913533913
3613.266,5.402848978579246,77.0807293646481
3614.0994,5.394765709240914,77.64447923181922
3614.9307,5.389038680416404,86.20476528799752
3615.7625,5.385533403414337,76.8530336687642
3616.5962,5.382875147601191,83.69057717981036
3617.4282,5.379452542818292,77.09441243578033
3618.2625,5.374411074644324,77.35988890792986
3619.0947,5.367933088343728,82.93773692587708
3619.9292,5.3606410191486065,73.47426334008547
3620.762,5.353092700689781,82.60837033889025
3621.595,5.345302925796469,76.53107510495171
3622.4302,5.336785631020222,76.70898348650373
3623.2634,5.326971444066343,79.4273205869788
3624.0989,5.315690585091617,78.58708329129135
3624.9326,5.303979576857296,80.18804329008749
3625.7686,5.2938816622192775,81.47135628762939
3626.6028,5.287678655384593,87.97281406008418
3627.437,5.286297048951543,88.9949732825442
3628.2734,5.288696927005558,71.05834541232815
3629.1082,5.292396780761305,78.99902766722839
3629.945,5.2948495588869235,79.22349085848516
3630.78,5.294444579389668,78.59361229085565
3631.6174,5.290766882768514,74.76787030730588
3632.453,5.284268541649675,82.26569671481252
3633.2883,5.275827324384325,81.90407415760022
3634.1262,5.266625657174694,78.89501917550166
3634.9622,5.258194215056415,82.60589863442264
3635.8005,5.251703561539372,83.43390189328528
3636.637,5.24708716758969,90.91560367863816
3637.4756,5.2424224043242935,82.8898435495967
3638.3123,5.235183665855256,76.71748307702522
3639.1492,5.224296326723057,83.84097774694199
3639.9885,5.211240227817245,78.63024037955059
3640.826,5.19902744862897,88.2296094941219
3641.6653,5.189629217275823,80.48955129996136
3642.5032,5.182842203547681,86.27774185045263
3643.343,5.176863689768834,79.55689082770614
3644.1812,5.170361571113064,79.28757244807935
3645.0195,5.163718168151551,87.75531909604703
3645.86,5.158716691960399,84.06174499716649
3646.699,5.156999507117801,85.4514590827153
3647.5398,5.158689194957839,80.63551599008895
3648.379,5.162443667445386,88.88624609136816
3649.2202,5.166595156129499,88.53715982620776
3650.0596,5.1701747198126675,80.31862689927902
3650.8994,5.173116307157002,85.48501557356626
3651.7412,5.1755340746103515,77.41874961189914
3652.5813,5.177071944890067,77.63514827955689
3653.4236,5.1769494365636,82.75447824729837
3654.2642,5.174514670125805,83.87599068919556
3655.1067,5.169841685086909,85.24685939000152
3655.9475,5.16398044595538,86.46683498910241
3656.7886,5.158588083478187,76.84417033290188
3657.6318,5.155272980450419,83.1377866059534
3658.4734,5.154892128751715,80.08544491129476
3659.317,5.157273753021519,79.95158696489455
3660.1587,5.161747029032617,84.41766851291672
3661.003,5.167995523237558,96.5313374080557
3661.845,5.176174982373548,80.20961976853032
3662.6875,5.186401682684281,77.07542160055316
3663.532,5.198011500078586,75.88906110525963
3664.3748,5.209402164284647,80.51259385049545
3665.2197,5.2185905662501995,81.84464784544137
3666.063,5.2235224476486,82.469811142937
3666.9084,5.222915967215394,76.17222883513445
3667.752,5.2170494153250395,73.68038322101486
3668.5977,5.208017278242061,88.67701672280546
3669.4417,5.198814496475986,76.50794796756104
3670.286,5.191483764798907,80.77936338725395
3671.132,5.186175800056888,78.58252221099264
3671.9768,5.1816271882811815,86.27132918998689
3672.8235,5.176451649025186,75.68891011986727
3673.6685,5.170367649157283,83.16982251613423
3674.5156,5.164286852295116,91.95788260330843
3675.3608,5.159619057295863,90.22375306977831
3676.2063,5.156986444532326,81.0918962094801
3677.0542,5.155610545797163,81.19522081451083
3677.9,5.1536925050360525,77.56301886638764
3678.748,5.149559578938017,79.27377939281415
3679.5945,5.142765459951078,83.65570391261849
3680.4429,5.134180047119374,83.32640328976785
3681.2896,5.125439492703689,99.72436608965626
3682.1365,5.117964009220694,84.31474153212727
3682.9856,5.112483783107705,87.88450477163265
3683.8328,5.1089678276423784,94.97030371540752
3684.6824,5.10678808845655,83.18150355852315
3685.53,5.105216378758661,91.8368519163551
3686.38,5.103754728857654,91.84031193471989
3687.2278,5.102394688842027,81.41726355718599
3688.0762,5.101639177807978,84.61499317864393
3688.9265,5.102320512222966,81.71881843041115
3689.7751,5.105034932569728,88.52705872847572
3690.626,5.109498094565447,86.77498573310476
3691.475,5.114300502763936,80.22566733809151
3692.3264,5.117576840894793,81.74372446227217
3693.1758,5.117980094253673,93.40642238759827
3694.0254,5.1154707167244515,85.68684420126417
3694.8772,5.111173313704981,84.55831148974265
3695.7273,5.106570964644344,91.55915720227927
3696.5793,5.102346314427254,92.22845104708273
3697.43,5.097929141589084,82.15727132406613
3698.2825,5.091956974862323,79.20805133761094
3699.1333,5.0836079351841255,83.5770216732576
3699.9841,5.073382660463043,88.37999739362658
3700.8374,5.062739103052567,82.15687292385216
3701.6887,5.052894852782397,99.64837707081591
3702.5425,5.0436751489146445,95.67222208555403
3703.3943,5.034052601577645,85.06501475024157
3704.2483,5.0231807453686725,85.41589769785962
3705.1003,5.0114290486871,82.73161350650366
3705.9526,4.999919838917558,93.94080005487305
3706.8074,4.989722393622643,96.25511472132338
3707.66,4.981376474526299,92.42003488624485
3708.515,4.974796879123308,83.53278630708603
3709.3682,4.969715244751773,87.79211212121885
3710.2234,4.9654937006917095,95.59936762387912
3711.0771,4.961025689239603,88.0352716024535
3711.9307,4.954954988028291,83.60167927804866
3712.7866,4.946597294280498,99.46168181333057
3713.6409,4.936831000826812,94.98460106516525
3714.4973,4.927683912448678,94.32186517550873
3715.3518,4.9211924264940965,86.97043248193454
3716.2085,4.918026161645417,88.33834676847627
3717.0635,4.917473249403356,88.356386360776
3717.9185,4.918240750792085,93.26710255211106
3718.776,4.919455889547146,94.79723524849479
3719.6313,4.920925176914337,86.10216612022823
3720.489,4.922683766498408,85.16358672000064
3721.345,4.924227269183147,88.88245397386648
3722.2031,4.924217160318934,86.83292789105865
3723.0593,4.921040734342026,85.80031431195098
3723.9158,4.9140673048777925,94.04178658629286
3724.7747,4.90450700925385,92.08084532599547
3725.6316,4.895040230181145,96.85052433286339
3726.4905,4.887968140159692,95.47710681793853
3727.348,4.883877162864315,89.96398383426082
3728.2073,4.881414264384102,90.7921706002788
3729.065,4.878390752488043,90.55537065070705
3729.9229,4.872880492960376,90.96277089358637
3730.783,4.863985646759169,89.18917758659616
3731.6414,4.852396176762852,91.20920890710559
3732.5017,4.840147070274235,97.52523608923744
3733.3604,4.8297269285699125,94.53874122537762
3734.2214,4.822362106660527,92.15423629725073
3735.0803,4.817464996955557,97.15881917824194
3735.9417,4.813090968996417,101.67646270005687
3736.8013,4.807344074381576,92.27462605920904
3737.661,4.79927471877167,95.91485618869751
3738.5227,4.789156044333362,95.98695790207753
3739.3828,4.778251722281482,93.20074543883618
3740.245,4.768019092710995,92.95907788783737
3741.1055,4.7597092768941005,96.03804039866121
3741.9683,4.753883240584456,95.87791860952632
3742.829,4.75052014922288,104.67536113466227
3743.69,4.749014390967304,97.25540195533148
3744.5532,4.748567706540583,99.68466680056333
3745.4148,4.748646776161076,94.46802350800697
3746.2786,4.749231492258856,107.6415488094251
3747.1404,4.75063082959428,94.75773497501493
3748.0044,4.753133618545176,96.54751854505382
3748.8667,4.756724149134267,93.86726670526451
3749.729,4.760919991215102,99.93559816579055
3750.5938,4.76468261840284,106.61475183855046
3751.4565,4.7667920985883745,102.6061288557681
3752.3215,4.766788217168045,99.34514670778943
3753.1848,4.765425570577212,96.30684255958359
3754.0503,4.764037520932625,99.39562032586373
3754.9138,4.7632263023444,96.36376182922906
3755.7776,4.762149794127595,105.91117330813171
3756.6438,4.759183855484507,99.92857615009399
3757.508,4.7532869829254745,100.12898029502531
3758.3745,4.744601603377267,98.14632027620122
3759.239,4.7340586418423785,110.77825521692914
3760.106,4.722387813981115,100.06672915646786
3760.971,4.710173662082649,101.13480731196849
3761.8362,4.698117361904238,97.23137972627816
3762.7036,4.687356646326296,102.20100692164898
3763.5693,4.679043096810546,101.71505958903607
3764.437,4.673372455745345,103.66072894936754
3765.3032,4.669414568700736,100.5897136689901
3766.1714,4.6656822317416,106.47089163974124
3767.0378,4.6614589574521235,99.28842019022854
3767.9043,4.657508766035746,102.59780081727907
3768.7732,4.655597215074306,101.34735325695846
3769.6401,4.6570177421137195,107.7102552650139
3770.5095,4.661306380919941,99.97937980213648
3771.377,4.666246394879713,96.85336014083443
3772.2466,4.669236436653164,98.77928135828235
3773.1145,4.668737186105905,101.57276677227291
3773.9824,4.664932816588584,104.5079196102929
3774.8528,4.6591499098617355,99.39394989290095
3775.721,4.65299494501807,109.04719581778957
3776.5918,4.647732716204335,105.68663132709838
3777.4604,4.644495990031999,100.10414630714367
3778.3315,4.644304089041852,113.88542837287446
3779.201,4.647751075727483,100.56632196477943
3780.0703,4.654347318210038,101.09622146434582
3780.942,4.66245582790133,90.89057055944781
3781.8118,4.6700517326403,105.79595141350111
3782.6838,4.676043697279089,107.53177332891612
3783.554,4.680591891634803,106.58479073820203
3784.4265,4.684509014984374,93.58622614890965
3785.297,4.68805865549668,102.97052339939872
3786.168,4.69055133570089,107.35335594673961
3787.041,4.690648708694848,103.48278606032987
3787.912,4.6870858537131745,97.73804280729992
3788.7856,4.679345590519459,105.98293057789981
3789.6572,4.668253315254401,96.59850658141838
3790.531,4.655841579873017,104.2170711724375
3791.403,4.6447445731411,104.69659463245276
3792.2754,4.636735050849383,101.4072052467804
3793.15,4.6319355098959205,110.6349860183913
3794.0225,4.628909544126917,106.3329600647458
3794.8972,4.625490851562436,100.1761932844998
3795.7703,4.619919450340864,106.06177079413308
3796.6455,4.611442909050052,110.95268883197681
3797.519,4.600598391062052,116.67769993783912
3798.3926,4.588855598808455,106.4943079191537
3799.2686,4.5781083571307,115.65554521002352
3800.1426,4.570080871560048,102.6032833619868
3801.0188,4.565586367921432,114.50823929519058
3801.8933,4.56444457207605,108.85869936095217
3802.77,4.565484517238088,105.51467067689312
3803.6448,4.5669620575272925,110.96921570531161
3804.522,4.567287681443215,106.74126976359324
3805.3972,4.565817548302922,107.25434695549244
3806.2727,4.563118946655238,96.13314436661943
3807.1504,4.560380496600627,111.82279802492768
3808.0261,4.558545251455326,105.54304691626636
3808.9043,4.557850642665913,102.48688686774393
3809.7805,4.55816840225897,113.12033909987426
3810.659,4.559584180427028,106.4476656053354
3811.5356,4.562647996066173,114.35729517304632
3812.4126,4.567995280076219,113.81506050543906
3813.2917,4.575546213007855,112.7292530765599
3814.169,4.583870893136655,108.0457690777793
3815.0483,4.590588773187532,101.27799562981485
3815.926,4.593301283771411,102.24181921854287
3816.806,4.5908562069749,111.86443564148088
3817.684,4.583853565618424,108.30255166383738
3818.5623,4.574277977138393,114.26426689546027
3819.4429,4.56442594157143,104.36534108434539
3820.3215,4.5558053473548945,110.96842385674185
3821.2024,4.548262445626023,111.62783986830604
3822.0815,4.540399925076025,111.61390969855054
3822.963,4.530490686456008,109.2060729964324
3823.8423,4.517803149256267,107.24231263628835
3824.722,4.5029065699336135,104.27935167888809
3825.604,4.487208656812383,112.50084710225711
3826.4841,4.4721165081017755,116.98937282091823
3827.3665,4.458213528006189,109.573808665135
3828.2468,4.445820448819665,107.16962482620539
3829.1296,4.435366050584996,112.04057644067812
3830.0105,4.427793127695376,104.91077189566779
3830.8916,4.4237774186299355,112.40518999450208
3831.7751,4.422964705733378,111.60474300995412
3832.6565,4.423572031215938,116.51649797124963
3833.5403,4.423002701560493,117.27575406690676
3834.4224,4.419231289798796,114.65193412875176
3835.3064,4.412001961542814,118.68301170753136
3836.1887,4.403102638076089,107.06039814060297
3837.0713,4.3953139252488365,110.60324113528013
3837.956,4.3910173128022825,107.4807077685452
3838.839,4.391249494073281,112.79130281089363
3839.7244,4.395667814473586,119.01446949785404
3840.6077,4.403209876048305,118.27860644887316
3841.4932,4.412743274377194,106.41026213062321
3842.377,4.423041278076638,113.254430427946
3843.261,4.432777941563552,116.23768767108749
3844.1472,4.4405375249180326,122.17535577480507
3845.0315,4.445235125320808,115.37632151922901
3845.9182,4.44673867478277,104.9711752117443
3846.803,4.445808342856242,124.27810932141314
3847.69,4.443547833369802,113.5656949531998
3848.5752,4.440719738460714,115.17530311124949
3849.4604,4.4375753606870365,115.05755895976228
3850.3481,4.434259214916891,112.96209227746243
3851.234,4.431170184245151,115.2133163183224
3852.122,4.428756461628805,111.23909871552772
3853.0083,4.4271796399013335,116.5793120109164
3853.8967,4.426062222107127,111.85192559142165
3854.7832,4.424601176970513,114.57883460667848
3855.6702,4.421826811858978,116.06442973139787
3856.559,4.417074451492711,104.84527772690535
3857.4463,4.4105219531289706,110.91273062421702
3858.336,4.403148204791424,117.40784928600677
3859.2234,4.396166951523019,123.7462153207971
3860.1135,4.390045841142038,114.03932683679056
3861.0015,4.384517288449889,112.50062517440416
3861.8896,4.379112236216187,107.90013541620748
3862.7803,4.373843227666877,118.67737248660745
3863.6687,4.36919549895017,121.57753782267136
3864.5598,4.365568561400737,118.41744262281719
3865.4487,4.363105912261807,117.8448863067907
3866.34,4.361690475615796,128.96058719828278
3867.2297,4.361064714659569,107.82620893054909
3868.1213,4.360671260790156,108.62367332645934
3869.0112,4.359595457245341,116.98893012392838
3869.9014,4.35681418457048,114.81939172508545
3870.7937,4.3516483498724305,125.90188282396477
3871.684,4.3441146142640905,115.4319070994557
3872.577,4.334791145088716,115.850449181121
3873.4678,4.324746348158794,116.71452251082725
3874.361,4.31509286261444,123.20934572099596
3875.2524,4.306806453232597,122.30253379507518
3876.1438,4.3002427707867845,117.18477184757053
3877.0376,4.29523151350727,125.8656314216353
3877.9297,4.29135752359673,125.66314230607617
3878.8237,4.287912641619076,120.0017948280768
3879.716,4.2836970723597245,125.12368140132295
3880.6108,4.2770003188153805,111.06771195352064
3881.5037,4.266553210888379,111.33789653262617
3882.3965,4.252525642404847,114.58203821500648
3883.2917,4.236726076597242,130.21364802607553
3884.185,4.221686967519055,132.66653962112122
3885.0808,4.208977247124734,127.62618526853674
3885.9746,4.198990693886414,126.2873241212354
3886.8706,4.1914159432862,128.6946546830755
3887.765,4.186396788652096,127.66407511262119
3888.6592,4.184570929362598,130.47527672724718
3889.556,4.186457767567011,122.47014409272354
3890.4507,4.191713107122422,129.76411457094343
3891.348,4.199258092404985,126.08583132714426
3892.243,4.208006642859152,128.0544898922759
3893.1406,4.21782869727228,121.81658520553364
3894.0361,4.229418710358848,129.06626359604755
3894.932,4.2436151322163385,130.68643091690902
3895.83,4.260188741380646,129.09426542872671
3896.7263,4.277272667373359,119.8326585450614
3897.625,4.292527237182275,119.21174773061075
3898.5215,4.3044416927944305,113.98194789076992
3899.4207,4.313564809135692,127.49885269216568
3900.3176,4.321654683611661,122.4858435335261
3901.2148,4.330374153691739,119.65649582747633
3902.1145,4.340169428107041,119.52160013647412
3903.0122,4.35029716080312,113.17678051558825
3903.912,4.359866006717112,117.77335369895519
3904.8103,4.368527122959918,125.69777186314143
3905.7107,4.3769573072006285,123.96971144963945
3906.6094,4.386352632570675,113.61725231412271
3907.508,4.397749477807551,116.63614590470952
3908.409,4.411177763494625,113.51711372776353
3909.308,4.425268112081968,109.72338675853287
3910.2097,4.4380512029687536,96.65142511877237
3911.1091,4.447867713800167,121.52070319088428
3912.011,4.454437862937043,105.88210585112354
3912.9111,4.458493364550034,110.61401100397207
3913.8113,4.4609694763609,107.02939991669315
3914.7136,4.462186430794622,112.87968182746594
3915.6143,4.461959528567184,107.17253123456597
3916.517,4.460297206912081,121.06463236040328
3917.4182,4.457831275715038,114.57125541017588
3918.3215,4.455554371379414,102.9658807717026
3919.223,4.454316501494458,114.19002985198783
3920.1245,4.454466596729748,114.92360907217174
3921.0286,4.455846565154895,111.36238041370973
3921.9307,4.457828700504637,110.89299269596913
3922.835,4.459473679601283,108.33962161010265
3923.7373,4.459846053479037,114.12790572511415
3924.642,4.458496481625852,106.12310440544645
3925.5452,4.455645535450894,115.91983444137051
3926.448,4.45185645964322,114.89663160130853
3927.3535,4.447535972796627,117.88806593957526
3928.257,4.442812889719415,114.8158027855898
3929.1628,4.437587771382563,116.46614377506084
3930.0667,4.431668950587512,119.40725899011186
3930.9731,4.42456368552251,112.02615685833078
3931.8774,4.415693802907164,116.10546994820693
3932.782,4.404696580989053,115.95241301115274
3933.6887,4.39184942022703,121.62710172907656
3934.5938,4.378087026250066,114.94769587616516
3935.501,4.364367352602753,119.84393746727035
3936.4062,4.351569219722068,116.31668537675604
3937.3142,4.340183126327377,119.88971490111962
3938.22,4.3305108556345075,119.28920470397543
3939.128,4.322264250785671,119.4897224281714
3940.0342,4.314740841108041,126.07892913508836
3940.9407,4.306991135368972,113.83299337289992
