wavl,flux,ivar
3566.9744,0.8347548086892985,878.8173575590104
3567.795,0.8328675239040274,1169.7854415202737
3568.6177,0.830981135949598,877.6620091985305
3569.4385,0.8290748916651686,860.7210330139671
3570.2617,0.8271389222535006,948.8795848132468
3571.083,0.8252886910003837,906.3163643744847
3571.9065,0.8238685186718492,990.9660014130695
3572.7283,0.8235293761301823,994.2870429880719
3573.55,0.8249035311859979,757.481035453905
3574.374,0.828067220583478,959.4370101745949
3575.1963,0.8321831162342194,764.5311016741949
3576.0208,0.8359230174226236,1003.5821696979616
3576.8435,0.8382683124709693,687.8058699133222
3577.6682,0.8392374053935713,953.7360152679191
3578.4915,0.839770906528515,1097.167188940759
3579.3145,0.8410043862889482,990.840122923744
3580.14,0.8434080154246292,953.5825309417003
3580.9636,0.8464145225492562,951.1687507456099
3581.7893,0.8488463855089352,910.3209184148678
3582.6133,0.8496407095595797,705.1878163621029
3583.4395,0.8484412836077473,868.1764325280315
3584.264,0.8456530687230432,761.5565481252482
3585.0884,0.8421453304441172,811.180940949532
3585.915,0.8389040520697095,1224.7849740708132
3586.74,0.8368031451069472,814.3656528483693
3587.5671,0.836331045789014,1045.7362265023198
3588.3923,0.8374075228327023,1010.6356486647676
3589.22,0.8393110791341203,937.7221437116542
3590.0457,0.8409365087487208,876.8255207212347
3590.8716,0.841360336613638,1016.3493049215616
3591.6995,0.8402842209455283,749.107494829081
3592.526,0.838182032670321,937.1226480175211
3593.3542,0.8360312834433978,861.8115461910198
3594.181,0.8348250190567337,1146.2554376347664
3595.0098,0.8349837679052948,863.2055955469856
3595.8367,0.8360816230880126,923.523185365683
3596.6638,0.8370671367302942,1153.1989440213829
3597.4934,0.8369309075962327,781.2696345409128
3598.3208,0.8354036822979729,1228.340906672436
3599.1506,0.8331499028372196,645.5851023161671
3599.9788,0.8313072186531741,1253.0546965636156
3600.8088,0.8306403709092391,898.4540972783993
3601.6372,0.8311022241303808,938.1426937383884
3602.4678,0.8321026616241528,696.7035076756218
3603.2964,0.8332293567305528,798.7264418161978
3604.1252,0.8346879759815963,1207.6328975085835
3604.9565,0.8370057227093483,931.882440682075
3605.786,0.8403253074722857,859.6063410035493
3606.6172,0.8440858291380176,859.1232313841498
3607.447,0.8472573951960344,754.7917289088799
3608.2788,0.8490048599412783,706.8348393379033
3609.109,0.849005598109328,777.1145622130877
3609.9392,0.8473802888341656,756.8133313591453
3610.7717,0.8443544244659044,936.5927984315704
3611.6023,0.8401281074711902,858.2395737579109
3612.435,0.8349050962608742,823.7610583193501
3613.266,0.8291925733714599,806.9640576670739
3614.0994,0.8238008901198602,1514.9312158623015
3614.9307,0.8196960503824788,865.3543937130321
3615.7625,0.8174071495220445,1119.9755085385111
3616.5962,0.8167545271517821,892.0200617272918
3617.4282,0.8170126277307386,968.5840005271401
3618.2625,0.8174791117122915,1089.834837974137
3619.0947,0.8179462607455149,888.768991435739
3619.9292,0.8186960741546978,844.571509944984
3620.762,0.8200636366071304,1098.7368975500863
3621.595,0.8220321521178459,950.4353977610315
3622.4302,0.824201430256355,1153.2875492064368
3623.2634,0.8261008098835712,769.8838613757368
3624.0989,0.8275306572819847,914.4667561932426
3624.9326,0.8284724626819991,1032.3482005816975
3625.7686,0.8288286373247968,1391.5506817548894
3626.6028,0.8283163680750587,789.7128974950646
3627.437,0.8267488334078131,794.4940960657744
3628.2734,0.8243182724575453,728.3891930419102
3629.1082,0.8215270020565478,1052.5641547119174
3629.945,0.8186784089935352,977.9006915466855
3630.78,0.8155938575672327,927.2511612382884
3631.6174,0.8118287118996766,886.4426879651866
3632.453,0.8074705998474745,837.2391549505995
3633.2883,0.8034808324322195,955.593888164968
3634.1262,0.8012021291963302,951.3404850162925
3634.9622,0.8012631461375372,1333.1583135677176
3635.8005,0.8029232728038533,932.8889163367596
3636.637,0.8046444385421782,952.4304942316891
3637.4756,0.8054042906240341,1002.8693264081262
3638.3123,0.8055113021989544,872.9630692113906
3639.1492,0.8062601103066395,951.2995078922371
3639.9885,0.8087454469622721,918.1949247666438
3640.826,0.8128730246683102,1052.4182419726749
3641.6653,0.8174272478516399,715.5475512893371
3642.5032,0.820884104176798,739.7970132569518
3643.343,0.8224378849371429,888.2229538150114
3644.1812,0.8223274314683457,795.847697482159
3645.0195,0.8215163696587782,949.9047598853097
3645.86,0.8209505589207546,1072.4109627093858
3646.699,0.8209624514267958,639.786922731774
3647.5398,0.8211435963756052,1180.0154971461125
3648.379,0.8207825700225336,963.0114940756105
3649.2202,0.8195115199752988,1014.1063422839986
3650.0596,0.8176292657439815,813.5371663103338
3650.8994,0.8157567688672763,815.9553140767607
3651.7412,0.8142124744352816,824.2482792770351
3652.5813,0.8127648153703727,798.8287207006472
3653.4236,0.8110490234037183,900.7668350714353
3654.2642,0.8092435957722827,945.076022507572
3655.1067,0.8081065167668566,1116.6541388170053
3655.9475,0.8083245219095235,1022.8529343977999
3656.7886,0.8097723834894553,851.3289737894636
3657.6318,0.8115381131457391,851.0369011333624
3658.4734,0.8126501691371139,952.9161673456979
3659.317,0.8128577174691257,703.3103788333971
3660.1587,0.8126986335283181,1165.0976697324174
3661.003,0.8129852000312099,914.0610320819248
3661.845,0.8142449875542792,1025.022336048287
3662.6875,0.8164953822423849,888.8631479574206
3663.532,0.819236966301734,1085.6635352666553
3664.3748,0.8215326801375531,794.7092384720972
3665.2197,0.8223977539211894,740.9021261437169
3666.063,0.8213562405641133,783.1627141885173
3666.9084,0.8188552884962031,895.7802005238422
3667.752,0.8160703620709103,1232.198467308909
3668.5977,0.8141307805459573,1170.3282175813038
3669.4417,0.8134469812855862,1231.7517960296395
3670.286,0.8134916529073754,983.1371503529094
3671.132,0.8132633620495268,653.9224642814396
3671.9768,0.812027317286825,893.688982991219
3672.8235,0.8098677762742583,864.3525529702626
3673.6685,0.8077206555982318,1076.536360772227
3674.5156,0.806777136655769,747.216445944083
3675.3608,0.8077030441296983,1077.4125425953457
3676.2063,0.8101410937105584,994.7452139603568
3677.0542,0.8129465825261487,731.936648611016
3677.9,0.8148588587943393,1068.6594197214542
3678.748,0.8151660596121637,962.8622926750506
3679.5945,0.813814695716022,888.3011544038266
3680.4429,0.811198123219156,794.0921412076214
3681.2896,0.8079063185755748,1031.38231950611
3682.1365,0.804538603440748,878.3417228019898
3682.9856,0.801609049512299,927.8377157892013
3683.8328,0.7994121901898443,780.618384311028
3684.6824,0.797860470804299,1120.358625661381
3685.53,0.7966115015145298,1377.989101692176
3686.38,0.7952998694173636,1315.7664508403516
3687.2278,0.7938311401089087,1024.8686127155943
3688.0762,0.7924755051961011,943.5880466898323
3688.9265,0.7918127594195022,1031.050328307357
3689.7751,0.792469846009209,788.3801035138381
3690.626,0.7947458692359742,800.7750727032088
3691.475,0.7983561991858714,1079.8112237940609
3692.3264,0.802570756001403,1121.490011277298
3693.1758,0.8065147215816466,1048.8361695623285
3694.0254,0.8095725951719503,852.67624103928
3694.8772,0.8114835191503618,911.8337785791254
3695.7273,0.81231942298627,958.1948620091068
3696.5793,0.8124434707086191,977.465366543021
3697.43,0.8124059741470302,822.6101339462982
3698.2825,0.8128055646553362,805.2229021436187
3699.1333,0.8140345990390061,1021.6795450472795
3699.9841,0.8160153546215088,961.3145309833272
3700.8374,0.8181454808923369,768.4916089878159
3701.6887,0.8195669681010254,974.0994121337616
3702.5425,0.8196731388572933,963.1180681446738
3703.3943,0.8183798961541895,1052.8102634241934
3704.2483,0.81604651063439,934.211912754761
3705.1003,0.8131762645930292,873.7683756248115
3705.9526,0.8101307426389817,878.7210109290464
3706.8074,0.8071546318985209,906.5897303440379
3707.66,0.8045681429611067,807.055522763162
3708.515,0.8027495333950926,1129.7117490791907
3709.3682,0.8019789371082732,887.1716504148048
3710.2234,0.8021685687990298,917.4560176132862
3711.0771,0.802883953293996,982.3743503449048
3711.9307,0.8035749349818767,862.0103473896903
3712.7866,0.803808473824105,960.1812344119468
3713.6409,0.8033596375646787,880.834221334205
3714.4973,0.8022266652373974,1001.6254706779454
3715.3518,0.8006320246241798,1232.9740419762174
3716.2085,0.7989175256516184,1144.1163889111663
3717.0635,0.7974065063560747,853.4302236312503
3717.9185,0.7963173459360094,989.3969539692524
3718.776,0.795934024582283,950.9478792553905
3719.6313,0.7967455319581717,825.9417562825771
3720.489,0.7992492195314137,1160.276596526319
3721.345,0.8034837932271595,1074.065411169562
3722.2031,0.8088323618261481,877.8571392860124
3723.0593,0.814173252238949,847.7998278137129
3723.9158,0.8184348244415163,798.4724349000517
3724.7747,0.8208971849436804,966.3591017547008
3725.6316,0.8213151888371566,967.8721725633982
3726.4905,0.8199638371723476,930.0528312353712
3727.348,0.8175479815347413,764.9861748720623
3728.2073,0.8149815355344228,1113.7497617428633
3729.065,0.813113933991747,951.4253691016104
3729.9229,0.8124331207228395,985.1936369043163
3730.783,0.8129442636866201,850.7333676681875
3731.6414,0.81410494402021,1048.1047732687466
3732.5017,0.8149445950241156,969.0220313395889
3733.3604,0.8144317318608645,964.1053865252395
3734.2214,0.8120349098013472,839.7809274508301
3735.0803,0.8081377201370266,908.7637818510459
3735.9417,0.8039090301603504,920.2902039434196
3736.8013,0.8008084051518842,973.6352492028667
3737.661,0.7997942515726577,1026.5523555300633
3738.5227,0.8009161860033768,975.3834876289046
3739.3828,0.8033497839798409,932.1016949527475
3740.245,0.8058909804181471,863.9470064232282
3741.1055,0.8074665007860982,918.8773391215418
3741.9683,0.8075044881481785,900.2984306116151
3742.829,0.8059894288102889,813.7843657857973
3743.69,0.8033801295478107,984.9795519382137
3744.5532,0.8003861279258915,979.4029424413425
3745.4148,0.7977131696187532,906.8432286923831
3746.2786,0.7957531464132692,1099.0714913647826
3747.1404,0.7945512920644561,1035.1081801857115
3748.0044,0.7939531825810817,793.3149480002754
3748.8667,0.7939369921401972,927.9042243416703
3749.729,0.7947292102735639,1225.2372159472618
3750.5938,0.7965957243768848,941.2598157718626
3751.4565,0.7994528099507573,1125.608156647693
3752.3215,0.8028136060429923,841.3815713910406
3753.1848,0.8060595258762059,1134.8259328597076
3754.0503,0.8088803538753337,974.4794786961957
3754.9138,0.8112607188208472,1203.3453900534255
3755.7776,0.8132473575576623,759.7730196449885
3756.6438,0.8147060741211813,859.6381488672794
3757.508,0.8154320693971465,965.713136292408
3758.3745,0.8154951664948593,894.9944232583832
3759.239,0.8153815330955335,924.7421603296169
3760.106,0.8157307164934575,1027.4453960218361
3760.971,0.8167856072628488,1021.2815321338868
3761.8362,0.8180867257756201,905.4745438404474
3762.7036,0.8187587320896071,907.8268086726112
3763.5693,0.8181595243891032,926.8337146988066
3764.437,0.816300628981952,880.58545099963
3765.3032,0.8137125049510912,1139.0999520974408
3766.1714,0.8109675780583915,862.3507894792552
3767.0378,0.8084218057758585,725.0322206519701
3767.9043,0.8062244272302991,1022.6321932683463
3768.7732,0.8045226364233174,1138.4085424378286
3769.6401,0.8035098333965799,929.9404115439817
3770.5095,0.8032606553689218,1059.0536583440794
3771.377,0.8036484033403933,927.9702204254319
3772.2466,0.8043894610493001,948.4170690252441
3773.1145,0.8051426024516904,733.1900922386799
3773.9824,0.8055813833437202,951.2933548245804
3774.8528,0.8054818873705962,966.8221255307285
3775.721,0.8049001188591862,763.4423391951884
3776.5918,0.8042477676897485,789.2691687623394
3777.4604,0.8040770523272462,896.4318397077676
3778.3315,0.8046388348243331,987.7314645711796
3779.201,0.8056369789318535,933.9493879048264
3780.0703,0.8064624015493219,864.917242880286
3780.942,0.8067479885643805,704.0234150388854
3781.8118,0.8067831021199936,979.5831202265612
3782.6838,0.8074152786822522,980.3995449044857
3783.554,0.8094443467459255,1107.849645687156
3784.4265,0.812985141687122,833.5263969357147
3785.297,0.8172154256475179,773.4267540193354
3786.168,0.8208497695708454,891.5974647596826
3787.041,0.8228368029042633,878.2907982816996
3787.912,0.8228608649181229,752.471542576036
3788.7856,0.8213609581762917,907.0335814230765
3789.6572,0.819117068312765,929.9228624286922
3790.531,0.8167306919442567,915.3598421142433
3791.403,0.8143625001667063,849.1242023300036
3792.2754,0.8117577914239189,829.0322131395166
3793.15,0.8086221881638138,813.084694906343
3794.0225,0.8050095095111277,1062.9739692469482
3794.8972,0.8013082841375205,861.4304456979669
3795.7703,0.7980352490639386,891.806017050923
3796.6455,0.7955455952268723,856.0571621197743
3797.519,0.7941365302308858,957.2593622665339
3798.3926,0.7941366068892742,1204.6973689141766
3799.2686,0.7958334190466746,997.4407055572258
3800.1426,0.7991277778723508,908.4089800304743
3801.0188,0.8033593841381619,948.5207909653903
3801.8933,0.8073896877956509,933.828678216878
3802.77,0.8100900975622379,790.3758079564421
3803.6448,0.810769777444043,913.3899943725523
3804.522,0.8095654098752697,1008.0792340108989
3805.3972,0.8074634928148591,1106.0124881357758
3806.2727,0.8059032140944892,904.2543803514054
3807.1504,0.8060606496732928,1150.6050722035266
3808.0261,0.808159584149096,852.2490266316139
3808.9043,0.8113783181325176,836.6100019265537
3809.7805,0.8144707947338738,819.0645117937621
3810.659,0.8167698930367671,1029.7882731598368
3811.5356,0.8186128951064824,1135.5049566698026
3812.4126,0.8210127439387706,862.4211088941573
3813.2917,0.8247639767343083,867.2259928304279
3814.169,0.8297151434780454,1107.866716186175
3815.0483,0.8348421529560143,497.3923064024407
3815.926,0.8388254058673934,770.7473423108502
3816.806,0.840869486870305,814.2682952599016
3817.684,0.8409070353191113,953.3757895775086
3818.5623,0.8393795016594056,819.8958630853227
3819.4429,0.8368036714688578,794.4617086667733
3820.3215,0.8336069392348762,749.9778119779778
3821.2024,0.8301228337479984,900.8910134159578
3822.0815,0.8267679516385456,871.4611786093427
3822.963,0.8239685448860065,823.3131035260419
3823.8423,0.8219719503378005,803.1629833814756
3824.722,0.8205083272855636,898.796607328657
3825.604,0.8188225175275945,659.6805430728622
3826.4841,0.8160911533104351,937.5204620977065
3827.3665,0.8118595130464155,863.1886539081725
3828.2468,0.8062247383156893,902.4962778411607
3829.1296,0.7995180108279379,917.0811218913747
3830.0105,0.7921305355785285,915.9535744581219
3830.8916,0.7843152430185277,1094.777589272234
3831.7751,0.7763089605901864,879.3806005989874
3832.6565,0.768490432399849,924.1215090015403
3833.5403,0.7612617612461353,1159.2976127094093
3834.4224,0.7551995225881788,1062.9598631263736
3835.3064,0.7509198056036555,908.4760786422423
3836.1887,0.7490924723093435,1108.6159091823477
3837.0713,0.7501164644688546,1209.2008468979402
3837.956,0.7538914015552091,1050.1850462685104
3838.839,0.7597642462263972,800.0912684097243
3839.7244,0.7669431651814651,930.7262025371037
3840.6077,0.7747548668303584,1008.2337451484445
3841.4932,0.7828368734303186,1058.0369347616984
3842.377,0.7908726222833702,1017.6680366868148
3843.261,0.7986472535034351,944.9044795175477
3844.1472,0.8059890833034958,981.8051625279847
3845.0315,0.8126807860492481,957.9210385714159
3845.9182,0.8185674378625063,827.294199127163
3846.803,0.8235617361294918,962.6289232965684
3847.69,0.8278944109089015,1038.608401054165
3848.5752,0.8319179144981915,765.9291050042199
3849.4604,0.8359066749674726,864.5782058086426
3850.3481,0.8399123625529785,831.1800654510017
3851.234,0.8438946977112061,878.6855103882693
3852.122,0.8479897908655109,840.8022257716219
3853.0083,0.8523658981360853,826.0783343271962
3853.8967,0.8570188352933686,691.4760331683283
3854.7832,0.8614931195913684,942.2424950999219
3855.6702,0.8650623652686888,750.6240283026583
3856.559,0.8670035856610663,995.0099122108526
3857.4463,0.866940708435515,824.3557661571745
3858.336,0.8650872815305473,739.7298642208141
3859.2234,0.8622744277856421,760.3301679418373
3860.1135,0.8596306347835551,740.8350447686835
3861.0015,0.8580708231261183,864.333184791022
3861.8896,0.8577648214553535,981.8026333699402
3862.7803,0.8581600316299501,805.9793751384485
3863.6687,0.8584366512630592,794.7310795841917
3864.5598,0.858058039225542,880.3723372831566
3865.4487,0.8569809157718459,824.7693684182403
3866.34,0.8554410373208753,870.2290019504932
3867.2297,0.8535751647419713,844.6915846526298
3868.1213,0.8511482246076968,748.4044083405086
3869.0112,0.8477304178985251,844.4901487132059
3869.9014,0.8430991272932179,830.3783796231978
3870.7937,0.8375519777864879,924.9796301657072
3871.684,0.8318079893570272,824.3248515770009
3872.577,0.8264492536974103,855.3170179381023
3873.4678,0.8216852543542561,778.6556596090558
3874.361,0.8173020828857269,958.4842854607061
3875.2524,0.8130588710090488,975.7468059086593
3876.1438,0.808817362002913,1118.6731659267873
3877.0376,0.8045114604816045,902.0990238458953
3877.9297,0.7999929006060301,1018.3022873675096
3878.8237,0.7949085120662793,1072.1658310339817
3879.716,0.7889589269276394,777.0535806202548
3880.6108,0.7820364827957184,945.541374873684
3881.5037,0.7743417535385326,1108.5151013402615
3882.3965,0.7659838000332087,1031.4747121937155
3883.2917,0.7566903048682992,933.1477582347587
3884.185,0.7459124574051224,1040.8944258499487
3885.0808,0.7331298343973284,1141.179912389201
3885.9746,0.7186640796022817,1264.5265145374506
3886.8706,0.7036864253016707,1297.724644952962
3887.765,0.690222887939903,1515.9446260721706
3888.6592,0.6803828844028909,1364.5990653623724
3889.556,0.6758652902499536,1536.243887742322
3890.4507,0.6773847717793636,1508.734902006237
3891.348,0.6842640583386015,1429.171282707396
3892.243,0.69461262708689,1305.5932789013277
3893.1406,0.7063177572753309,1060.4284200353054
3894.0361,0.7178804741555241,1293.2725086849232
3894.932,0.7290940268852235,1432.2660180693445
3895.83,0.7405426162912957,1116.3836180950007
3896.7263,0.7526472543719603,1110.5296401441908
3897.625,0.7652182949199343,1036.843873599345
3898.5215,0.7772215455842917,1000.5583644846931
3899.4207,0.7875837348200573,934.566255188413
3900.3176,0.7956285751067148,856.8867745321592
3901.2148,0.8016497223619515,719.9574274645986
3902.1145,0.8066480695428331,1015.6858410639379
3903.0122,0.8117527013244862,884.7932941095966
3903.912,0.8177018553464251,985.6239516726503
3904.8103,0.8244988355006725,918.2030909054058
3905.7107,0.8317410769779565,884.3158140537719
3906.6094,0.8389410737233229,853.9838296541035
3907.508,0.8459103125717989,855.7997868569822
3908.409,0.8526824691392644,1021.2403016594109
3909.308,0.859262312387334,739.7127576001358
3910.2097,0.8656028012517568,908.4833696037388
3911.1091,0.8715179087706008,805.4002207144655
3912.011,0.8769060792679836,843.6022411212265
3912.9111,0.8816856833242791,754.4087969677631
3913.8113,0.8858943414973738,814.2468917398736
3914.7136,0.8896518554519802,718.530283372528
3915.6143,0.8931243525670242,679.7838228823822
3916.517,0.8965105252569625,820.7426370325038
3917.4182,0.8998497487257877,739.2972475807155
3918.3215,0.9029778400761146,680.6542029172678
3919.223,0.905499937480039,670.9302474853413
3920.1245,0.9070084420950679,729.8616962032164
3921.0286,0.907245574606607,675.0921551133292
3921.9307,0.9062434225230043,663.2150182156253
3922.835,0.9043666707035333,910.1599817461083
3923.7373,0.9022445677800625,887.1362757806895
3924.642,0.9004753837337931,755.1732442727404
3925.5452,0.8993152938413819,827.5885083924966
3926.448,0.8985398515650879,740.8439582507016
3927.3535,0.8977631284539913,737.455895656341
3928.257,0.8968947458537062,904.4027089358362
3929.1628,0.896255242346289,744.450804911579
3930.0667,0.8962734949518302,837.5483957133118
3930.9731,0.8970733469299227,865.9473876730079
3931.8774,0.8983430130341167,698.3732284760158
3932.782,0.8995004198382766,749.4515975120349
3933.6887,0.8999089339150694,612.5204922214245
3934.5938,0.8990673183854808,812.2247896680665
3935.501,0.8967937637264474,823.5087317873052
