wavl,flux,ivar
3566.9744,1.199166348134583,266.3314598987079
3567.795,1.195426246859494,266.7996197483389
3568.6177,1.1924474733044588,262.4009134904852
3569.4385,1.1906894085627866,244.96558257485702
3570.2617,1.190164204970268,294.1085947517075
3571.083,1.1904847993332306,249.1812695033931
3571.9065,1.191209640001745,210.50675310415798
3572.7283,1.1921838974955337,283.3355020470326
3573.55,1.1934917248531078,253.83866001189375
3574.374,1.195100206287232,272.2074898216114
3575.1963,1.196658964657658,297.0865924965399
3576.0208,1.1978149902625455,257.2122367627307
3576.8435,1.198691245453059,266.3083726452902
3577.6682,1.2000545318623692,300.16573590532204
3578.4915,1.2027779215899215,275.8274579153634
3579.3145,1.2070572322000284,219.3150680728695
3580.14,1.212067536839716,243.03745738485128
3580.9636,1.216310798924551,220.70504030228508
3581.7893,1.2185130461709976,238.05664805256112
3582.6133,1.2181691043240717,257.29380417584787
3583.4395,1.2156281438015257,258.8339684287574
3584.264,1.2116563861002903,230.95519103321334
3585.0884,1.206824187151883,284.977475488635
3585.915,1.2011685452068799,252.2092140760723
3586.74,1.19431353356665,366.09971680711806
3587.5671,1.1858197254254823,295.52684521600975
3588.3923,1.17603226474367,260.76019106039837
3589.22,1.1664466883879243,247.5501434220585
3590.0457,1.1595358737249437,306.372010824277
3590.8716,1.1571461472737292,230.2496291205038
3591.6995,1.1591761111316672,249.89078816536326
3592.526,1.1634537713706479,233.28461385967765
3593.3542,1.167267566935849,265.16081211882766
3594.181,1.1690974567110382,277.5983762863362
3595.0098,1.1692740769396441,263.2353833289488
3595.8367,1.1691126497168374,259.2015922826581
3596.6638,1.1696201185253354,268.7186270578387
3597.4934,1.1708810072290574,254.37023437009077
3598.3208,1.1723925139386502,279.9751873500617
3599.1506,1.1737236994603462,356.05246371425517
3599.9788,1.1746685549204001,237.1042288221259
3600.8088,1.1750097137173892,206.65171339544182
3601.6372,1.1743164688397096,278.7827934444351
3602.4678,1.1721100589982874,318.41002493199164
3603.2964,1.168238695546287,299.92204919048964
3604.1252,1.1630962682182602,298.74569416089076
3604.9565,1.157620699152472,298.3159909740569
3605.786,1.1531050174255253,261.6827860541475
3606.6172,1.1506883945865363,253.87528992518068
3607.447,1.1509513292528242,203.9541908264448
3608.2788,1.153498705297463,251.26813370490197
3609.109,1.156945371106916,271.8724840536989
3609.9392,1.159428498842669,226.3925761210606
3610.7717,1.159356080456581,349.3503524752889
3611.6023,1.1560902850264352,303.6414014275188
3612.435,1.1502099716627983,447.704899044722
3613.266,1.1433824601633193,316.73520048702244
3614.0994,1.1376574301228473,387.83024808178584
3614.9307,1.1347018899190056,313.21857976477423
3615.7625,1.134979248787254,306.53607917991116
3616.5962,1.1376992331180102,280.3045677881952
3617.4282,1.1412960792400146,330.4708246239824
3618.2625,1.1442479343647436,275.8349556371061
3619.0947,1.1455938514520816,295.86697732552153
3619.9292,1.1451571794693283,250.53839723164825
3620.762,1.143329766232779,349.71958094496136
3621.595,1.140668753958144,236.53039204874977
3622.4302,1.1375078707849902,243.99659479215958
3623.2634,1.1338009839791683,319.0125886191085
3624.0989,1.1291094621433222,280.8865491551275
3624.9326,1.1229843099631274,280.50978403760433
3625.7686,1.1154002321459975,275.0666193432839
3626.6028,1.107323372406452,405.5666632973942
3627.437,1.1005066251403537,290.49496340160965
3628.2734,1.0967595243781818,281.41665994618245
3629.1082,1.0969110694607784,362.3246225049875
3629.945,1.1002182137414647,295.48602780799297
3630.78,1.1048110367792303,263.0528479267228
3631.6174,1.1088814123516213,266.4008541891673
3632.453,1.1115476087246203,305.4236186725795
3633.2883,1.1129968721782935,273.0524049626179
3634.1262,1.113826880668907,250.4737313822797
3634.9622,1.1144956617228636,268.0071581444754
3635.8005,1.1152539795812106,278.428262425516
3636.637,1.1162586498348137,374.21803791219656
3637.4756,1.1174963616877662,253.55991611611722
3638.3123,1.118474563058574,477.3770580474289
3639.1492,1.1181747934332649,331.00971180062663
3639.9885,1.1154636475828386,304.1528424912805
3640.826,1.1098315665568406,292.3595442864229
3641.6653,1.1017876819776362,235.9298753939097
3642.5032,1.0928428844999152,322.5870649890993
3643.343,1.0847799700739136,375.2693954714203
3644.1812,1.0789874993374966,301.1668763438882
3645.0195,1.0757867791276265,434.1419747650474
3645.86,1.074585369850475,350.5276363023173
3646.699,1.0745617975609831,273.3870789765457
3647.5398,1.075347580456472,334.7854044307904
3648.379,1.076974068352408,313.0751963511464
3649.2202,1.0791277907528047,312.5795948602013
3650.0596,1.0806695603792005,277.51642731999203
3650.8994,1.0802869072614918,332.90434974876405
3651.7412,1.0776198992918047,353.31617772213605
3652.5813,1.0737308304554185,295.7720520699754
3653.4236,1.0702821053941869,314.5719577665351
3654.2642,1.0683990453232337,253.59107788692967
3655.1067,1.068084530846136,277.43552468067406
3655.9475,1.0686350033580432,343.9437103938726
3656.7886,1.0693685931957906,326.30740746904564
3657.6318,1.070076401441814,372.47750373155316
3658.4734,1.0709241345660852,367.106759678426
3659.317,1.0720164784775597,403.84163607664135
3660.1587,1.0730347416504644,244.53295483606055
3661.003,1.0734019971224615,297.85783786071056
3661.845,1.0728375132535186,286.512102691606
3662.6875,1.0717750567122384,313.21562068700314
3663.532,1.0710939743376726,342.8275282992309
3664.3748,1.0713451453614555,272.7357367281749
3665.2197,1.0721666464056088,314.682456735337
3666.063,1.0724990927947557,307.91448525729703
3666.9084,1.0714751990492106,300.8066192995535
3667.752,1.0692431072510373,434.15052446809165
3668.5977,1.0670090320618342,331.0004111517987
3669.4417,1.066274533145088,365.5006898934376
3670.286,1.0677175430120558,361.7299497458009
3671.132,1.0706561526502716,343.02820493941647
3671.9768,1.0734005713685328,311.8083323625931
3672.8235,1.0743485018806322,291.37913283110026
3673.6685,1.0729038971719422,360.3891457149537
3674.5156,1.0696726509896053,327.06075231913456
3675.3608,1.0658872309825427,243.4920499233026
3676.2063,1.0624791934761502,281.4466054118112
3677.0542,1.0595494254435907,320.72735674791693
3677.9,1.0564838255650462,337.7925182561496
3678.748,1.0525238077123384,278.1925025253078
3679.5945,1.0475032636549972,352.31006611967587
3680.4429,1.041939711917184,323.6079620937216
3681.2896,1.0367226033236834,343.39109765493913
3682.1365,1.0325552992743752,359.26108199849455
3682.9856,1.0298849246813135,334.27900360970824
3683.8328,1.0290365073058652,335.04100486230453
3684.6824,1.0301637718993881,515.8710478031891
3685.53,1.0330437257321068,324.3012061047698
3686.38,1.0369875368783037,369.458161099265
3687.2278,1.041043833423222,348.4657791417049
3688.0762,1.0445275774993341,331.4156073164212
3688.9265,1.0472725556654185,333.8566225956181
3689.7751,1.0495155665498417,370.3100060645594
3690.626,1.0515869276659742,360.8935870019374
3691.475,1.0536594452047015,339.5362069506378
3692.3264,1.0558389414386133,289.0397049585495
3693.1758,1.0581582637143419,355.22019923237957
3694.0254,1.060413997671499,414.836027970722
3694.8772,1.0619493076207025,273.3971397678755
3695.7273,1.061882673257177,274.58681294755706
3696.5793,1.0597871662654141,352.9502015544881
3697.43,1.0562213675624372,309.52486773173615
3698.2825,1.0525490254631347,394.082174936769
3699.1333,1.0502084169629482,398.88891688388804
3699.9841,1.0498279897378373,288.78339782530594
3700.8374,1.0509243021663626,346.79225853191775
3701.6887,1.0521559714404156,321.8610404513448
3702.5425,1.0520514548377697,334.7450470113248
3703.3943,1.0497713459063214,313.1591980139534
3704.2483,1.0454798799249607,312.1509030476744
3705.1003,1.040126289555916,331.1394641066727
3705.9526,1.0347676527366039,421.8797447038746
3706.8074,1.0301880792620244,302.03166897324303
3707.66,1.026857192831113,427.5719413427071
3708.515,1.0247958379797484,381.42157738123694
3709.3682,1.0235466042639434,355.45440064831513
3710.2234,1.0223509498723238,348.421048372011
3711.0771,1.0207923439863282,335.60874570602
3711.9307,1.0191678379047275,398.01344173165387
3712.7866,1.0180953539941793,373.47712795113114
3713.6409,1.0176714148065462,391.654594816928
3714.4973,1.0170923168131116,290.3748340375421
3715.3518,1.0153279177449352,410.8265525786843
3716.2085,1.0122613185394393,372.8009902804872
3717.0635,1.0092502613879015,415.7365034382983
3717.9185,1.008307706260134,499.9809306962493
3718.776,1.0105892506242988,328.24245716608556
3719.6313,1.0153863697612973,360.9886683721363
3720.489,1.0206953906370773,301.3206330508215
3721.345,1.0246923990001247,533.0019199410756
3722.2031,1.0269598883703295,296.103541408827
3723.0593,1.028254987285734,372.8103414098443
3723.9158,1.0294688297000245,416.6309456966297
3724.7747,1.0307235566272988,313.55059789202693
3725.6316,1.0313736607029598,351.42034531940436
3726.4905,1.030737135968097,384.96750180487606
3727.348,1.028773611312691,326.6753947860542
3728.2073,1.0261245646021726,314.24889820465273
3729.065,1.0235464279996782,379.37436912001476
3729.9229,1.0212214902149137,415.2995705274502
3730.783,1.0186689944858025,325.1527413612289
3731.6414,1.0152715827685501,332.2526268839222
3732.5017,1.0108800746312412,413.29136462144106
3733.3604,1.0061345132428288,428.8418073801586
3734.2214,1.0021283446454285,359.7110369299934
3735.0803,0.9999373787091785,356.35393159490786
3735.9417,1.0000203892965849,350.5629537657743
3736.8013,1.0020020624629846,334.71807368816377
3737.661,1.0048341555792792,328.25658960426495
3738.5227,1.0073998311220682,412.71064045715076
3739.3828,1.0091254241511676,313.69851466784104
3740.245,1.0101925352375072,335.22514282047155
3741.1055,1.0110974696410062,333.5763317023553
3741.9683,1.0121018438929075,459.28722779273085
3742.829,1.01296500235589,351.1067525075018
3743.69,1.0131488790011685,300.8479412423647
3744.5532,1.0121672625075462,372.17595461223794
3745.4148,1.0098750332891082,371.0556738776212
3746.2786,1.0065011991039865,352.58664521620625
3747.1404,1.002401910449372,384.27315967422885
3748.0044,0.9971959851006456,379.88713112644496
3748.8667,0.9886035663443912,342.7594880125849
3749.729,0.9715919791024272,430.64594279097673
3750.5938,0.9397878948354765,387.13352896156675
3751.4565,0.8908486049274702,382.6686664772922
3752.3215,0.8320567982396356,393.23545969279564
3753.1848,0.7821576018229378,307.7462243849115
3754.0503,0.7616728787668201,9.035855768855175
3754.9138,0.7799365772331516,344.0872770499263
3755.7776,0.8281303186859035,343.9514620781969
3756.6438,0.8863642200038419,322.10937201921894
3757.508,0.9360015712160202,378.30621762281044
3758.3745,0.9688173002737812,332.7467009023193
3759.239,0.9855158647498908,365.28498402400135
3760.106,0.9913571119247314,434.1784343995219
3760.971,0.9916397310360199,333.1868047472622
3761.8362,0.9901178756172458,385.2874880219037
3762.7036,0.988682365265408,389.3782023895932
3763.5693,0.9878023779237017,401.7686397698742
3764.437,0.987194431562949,364.31371530005504
3765.3032,0.9865144943899408,347.485167587915
3766.1714,0.9856981328006218,356.94529965961726
3767.0378,0.98495436572621,394.77324356505915
3767.9043,0.9845217742157005,442.4688080896811
3768.7732,0.984445599790169,357.7648062056139
3769.6401,0.9845107387523653,306.3026428744049
3770.5095,0.9844077962280259,378.44076372737635
3771.377,0.9840015773406035,361.30994692960843
3772.2466,0.9834416529769304,322.62887673682224
3773.1145,0.9830051736440618,581.090210788103
3773.9824,0.9828029290780134,432.43649346339714
3774.8528,0.9826155930238138,460.83272622286097
3775.721,0.9819934025620316,459.2087526889496
3776.5918,0.9805642202592783,404.2080408057976
3777.4604,0.9783933555080103,400.4496541684418
3778.3315,0.976048139525923,426.35428463955077
3779.201,0.9743275632612963,355.9262618728305
3780.0703,0.9736668562369126,331.2471597018692
3780.942,0.9738019668114924,360.6244096972722
3781.8118,0.9739496324130656,527.8484911591464
3782.6838,0.9734550091957774,378.35865150275674
3783.554,0.9723802711281954,422.3384322187197
3784.4265,0.9715073090901449,463.0706077239174
3785.297,0.9717622968384476,400.92652266321
3786.168,0.973497932407123,396.3305733963269
3787.041,0.9762521135339698,439.358205851811
3787.912,0.9790141656623739,423.36995851417544
3788.7856,0.9808185241071546,342.8754179397562
3789.6572,0.9811058519698177,345.72889510993645
3790.531,0.9798577318237737,408.6158538656651
3791.403,0.9774861878771554,537.2965273439727
3792.2754,0.9746773526148972,353.62503293434355
3793.15,0.9722319844069371,453.5672627617678
3794.0225,0.9707942236368402,422.883025371822
3794.8972,0.9704275134215372,364.86759341643517
3795.7703,0.9704602975473465,315.494701160883
3796.6455,0.9697820080276912,410.04039594688294
3797.519,0.9675166976964066,367.75107613425615
3798.3926,0.9635595065629617,444.77880310533544
3799.2686,0.9585992549558677,418.4919804276098
3800.1426,0.953718736227551,395.96612317166273
3801.0188,0.9497498116337317,339.390783609594
3801.8933,0.947105786201931,398.1045883919255
3802.77,0.9458175440319706,438.8341279848417
3803.6448,0.9457256138669556,410.81527250834546
3804.522,0.9464747176336218,490.99820672160274
3805.3972,0.9476224275501361,469.6573265460636
3806.2727,0.9490182137820709,369.63604340297866
3807.1504,0.9511209967056583,396.55248130560136
3808.0261,0.9547186431471428,438.8420623643731
3808.9043,0.9601917123010731,363.829327285403
3809.7805,0.9668931942203506,426.92622620146165
3810.659,0.9735329529553219,397.4600570603773
3811.5356,0.9788649732898282,351.76033620670677
3812.4126,0.9822837433393184,373.06451711297814
3813.2917,0.9836222762494409,284.2893122456916
3814.169,0.9828513584212202,475.1694130322547
3815.0483,0.9801442024822354,356.316003846012
3815.926,0.976187257337946,412.2126696858657
3816.806,0.972124887145945,444.378769042896
3817.684,0.9690868276935897,332.5823833233008
3818.5623,0.9675237222864355,386.8251447794274
3819.4429,0.9670767756347163,388.30899834374105
3820.3215,0.9668880041036528,444.17267959450663
3821.2024,0.966099234680814,322.2088740417403
3822.0815,0.964263336103013,409.83408794167553
3822.963,0.9614562598016326,416.5886611871669
3823.8423,0.958127623823876,420.42278971055345
3824.722,0.9547457195656067,426.7613764587315
3825.604,0.9516223779126805,550.4287002502177
3826.4841,0.9489356738336693,484.8102832330995
3827.3665,0.9467160431278963,415.62732203047926
3828.2468,0.9448686015195032,411.3747787514604
3829.1296,0.9431460005703112,459.22663686900916
3830.0105,0.9413483354281657,376.0419315283851
3830.8916,0.9394385156698002,357.8132267348402
3831.7751,0.9374616392577885,424.97255517975054
3832.6565,0.9353229550103851,517.585627216742
3833.5403,0.9327378771380883,475.17705760534426
3834.4224,0.9296462861106876,412.81501091736015
3835.3064,0.9265494746407963,455.9996428079686
3836.1887,0.924441563129076,400.3842443319506
3837.0713,0.9241084927156547,498.7405499672573
3837.956,0.925512174798346,632.0020634648264
3838.839,0.927724277306585,481.03787887749405
3839.7244,0.9295842977021112,452.26442265180737
3840.6077,0.9304789527882066,456.6552372996611
3841.4932,0.930732211163319,583.3340327325644
3842.377,0.9312762491889833,473.06098658601286
3843.261,0.9329819806677441,388.0234541215576
3844.1472,0.9361336559657051,527.8139515668232
3845.0315,0.9402785992183591,350.2703616094005
3845.9182,0.9445212454924947,544.4120782739217
3846.803,0.9478882090103785,379.58261221164764
3847.69,0.9498716531830073,380.8949274754281
3848.5752,0.9506364800070061,419.9108071880061
3849.4604,0.9509329247640874,381.8934995654084
3850.3481,0.9516405297357539,427.975363832402
3851.234,0.953274950729827,403.11348784296877
3852.122,0.9556762183117059,427.45949322186357
3853.0083,0.9579723296579943,400.96226837088903
3853.8967,0.9590494005700047,345.80411382570014
3854.7832,0.9582484788530321,374.2687636574168
3855.6702,0.9559059352189359,341.1426317693282
3856.559,0.953166439102349,459.0471360108342
3857.4463,0.9512281248240059,421.7861594198247
3858.336,0.9505263974824645,381.5430801172582
3859.2234,0.9505842720920571,440.89591658845393
3860.1135,0.9504736885379486,413.9414587882113
3861.0015,0.9494955693031222,426.6006739787646
3861.8896,0.94749823012489,400.65532572293256
3862.7803,0.9447086471310076,403.7797416385489
3863.6687,0.9414447760733531,343.70187135935436
3864.5598,0.9379213890203054,357.3456263783532
3865.4487,0.9343589629393968,422.04522484104217
3866.34,0.9309348365903619,383.3679816657508
3867.2297,0.9278290177149366,421.3870196031235
3868.1213,0.9252053172736661,365.8378191798095
3869.0112,0.923345371164038,387.2344488099217
3869.9014,0.922528688224595,589.388268859896
3870.7937,0.922762837802565,449.27992908533565
3871.684,0.9235902917593742,437.6668910010963
3872.577,0.9243541887207791,363.14160403171024
3873.4678,0.9247071770055687,402.72152094777414
3874.361,0.9248189903085634,367.65928673613064
3875.2524,0.9249970688290124,437.79999742616377
3876.1438,0.9251893321277603,390.09570782741724
3877.0376,0.9248814112922095,417.87488832441517
3877.9297,0.9234128844280979,404.8448793429561
3878.8237,0.9203500725663604,496.76053870738883
3879.716,0.9157469456838631,407.9347661428712
3880.6108,0.9101042950133369,488.7359346581001
3881.5037,0.9041927933221362,536.1233746479211
3882.3965,0.8985629628586324,390.8449038475093
3883.2917,0.8933820189892437,627.6348824512895
3884.185,0.8886524006271238,579.492463064746
3885.0808,0.8844134870516398,486.02778512437015
3885.9746,0.8808708055710529,593.6612083900532
3886.8706,0.8781030159099242,549.5354387591465
3887.765,0.8759791832891547,526.6914249899066
3888.6592,0.8742496841335827,510.8001980296661
3889.556,0.8728825945324495,468.096373850644
3890.4507,0.8722563399589484,564.8961802795508
3891.348,0.8729662617941623,488.69176758039356
3892.243,0.8753804819961449,474.4407551903661
3893.1406,0.8793069916767098,391.29695826029126
3894.0361,0.8839922216169265,418.862245299147
3894.932,0.8885922541231471,471.3909023737841
3895.83,0.8925862240858169,382.06201099164235
3896.7263,0.8959589331331722,478.58187186895157
3897.625,0.8991280997860167,472.0760119511176
3898.5215,0.9024556860417878,454.3386145035416
3899.4207,0.9058877278231078,432.0945293278371
3900.3176,0.9088266657140852,407.4861004356115
3901.2148,0.9106302249549009,437.2784733925725
3902.1145,0.9111766358839413,457.56697755160116
3903.0122,0.9111331206788142,404.0178203443559
3903.912,0.9116591427904954,473.31461589360333
3904.8103,0.913747676161897,470.29526937827296
3905.7107,0.9176868853290341,377.32880424250516
3906.6094,0.922897556975383,444.9568288571619
3907.508,0.928313263007455,424.09214481044773
3908.409,0.932881670966902,415.14504822178156
3909.308,0.9359202533860779,336.6625310380017
3910.2097,0.9373339280995354,445.51936677630613
3911.1091,0.937517946852699,599.4919271220581
3912.011,0.9371996817267583,468.6244266117293
3912.9111,0.9371149728878128,408.38860951621854
3913.8113,0.9376999083552794,434.0980857233161
3914.7136,0.9389855347719023,397.4743758096256
3915.6143,0.9407027654393004,459.7296822271987
3916.517,0.9424797092360506,426.4775978061932
3917.4182,0.9439079093505768,401.8355176650345
3918.3215,0.9446268294542367,386.0907395156449
3919.223,0.944417687015119,472.3008482904224
3920.1245,0.9433238360249115,394.1732071460801
3921.0286,0.9415953980046193,378.9886776069962
3921.9307,0.939536487768506,396.3796688892527
3922.835,0.9373330595228357,432.3128185132365
3923.7373,0.9350835050014595,472.8802340780015
3924.642,0.9328173166552456,403.02840497258785
3925.5452,0.9305439640661194,418.7916675482198
3926.448,0.9282195402322112,378.7755557557052
3927.3535,0.9258519003400103,452.5418442851879
3928.257,0.9236468014733682,442.04380280192476
3929.1628,0.9219260724056872,438.8331772514317
3930.0667,0.9209468964490565,409.83915735623026
3930.9731,0.9206839046517313,430.7451852743495
3931.8774,0.9208571209471713,444.8201048185845
3932.782,0.9210985710046613,379.63047047516244
3933.6887,0.9211630705650986,438.85689347960476
