wavl,flux,ivar
3566.9744,0.7338285102600381,397.4094378184508
3567.795,0.7301523384923366,275.94941866259006
3568.6177,0.7271080626428542,285.91795150051985
3569.4385,0.7246599680014628,386.9668942915369
3570.2617,0.7229447497164266,338.67282756037173
3571.083,0.722425551449968,315.1636742716185
3571.9065,0.723522603447201,508.7465880482503
3572.7283,0.7262785077546684,347.1104483997073
3573.55,0.7303626404155078,478.7798509534998
3574.374,0.7352918594039738,435.1925895993139
3575.1963,0.7404624535885544,247.13948084792906
3576.0208,0.7451136086902751,308.27417424849443
3576.8435,0.7482128013620025,243.07562746326167
3577.6682,0.7488966417173619,245.72676664162833
3578.4915,0.747045409754219,334.5768169321321
3579.3145,0.7436647726832893,633.2018096253113
3580.14,0.7405005262694598,406.1989516997533
3580.9636,0.7391346960563261,679.6648233283307
3581.7893,0.740069324300008,330.92102755860816
3582.6133,0.7425374939986996,257.90758210828255
3583.4395,0.7449824666290797,480.32584328680605
3584.264,0.7458092955661944,325.7581435671038
3585.0884,0.7441626600041247,342.4412748219852
3585.915,0.7402733481683919,474.16205691775605
3586.74,0.7353074812985255,378.73992032671805
3587.5671,0.7305831473539287,298.5037246796622
3588.3923,0.7269155919475674,307.34099817593386
3589.22,0.7243091155599355,378.48569970481486
3590.0457,0.7223810575472303,298.108663450656
3590.8716,0.720806913063302,382.76306957713825
3591.6995,0.7195377934709042,296.0548618957223
3592.526,0.7185927352817321,375.8631680723962
3593.3542,0.7177178277591725,290.7736384427711
3594.181,0.716323133364158,465.61993161379127
3595.0098,0.7137411189092016,311.21428646071774
3595.8367,0.7097208115184466,359.9126942906239
3596.6638,0.7047073044266128,526.3289831636482
3597.4934,0.699793219248468,397.45819045886367
3598.3208,0.6963044516357795,289.15393973258773
3599.1506,0.6950987074363632,474.6932724281386
3599.9788,0.6962734439232289,441.04461777088306
3600.8088,0.699269190656643,422.92317434440446
3601.6372,0.7032665877487023,377.4168768650641
3602.4678,0.707487581907224,456.168861773397
3603.2964,0.7111151924955271,316.45287593238737
3604.1252,0.7133913585725262,319.82454399504445
3604.9565,0.7138762505150148,329.2897218651078
3605.786,0.712827180884276,330.8625789204772
3606.6172,0.7112039755681867,480.23859176513275
3607.447,0.7102070273489838,481.500638396424
3608.2788,0.7106674658872141,302.97414228406586
3609.109,0.7127170455391206,271.5238723582918
3609.9392,0.7157859624790052,319.6240003725969
3610.7717,0.7188378095269695,282.1909540237446
3611.6023,0.7207425703539009,313.73164820665374
3612.435,0.7207924938197166,374.5339769403797
3613.266,0.7189377178052808,357.1925018191473
3614.0994,0.7156570467203722,367.453192137443
3614.9307,0.7116164188688147,404.4430290991678
3615.7625,0.7073689546846829,284.03126773515237
3616.5962,0.7034029394859517,424.56159822872945
3617.4282,0.7002230563639305,404.7085224780863
3618.2625,0.6981672563404212,358.6668090527703
3619.0947,0.6972640012003632,415.95588051767123
3619.9292,0.6971972811452046,502.6793898529362
3620.762,0.6975413382128006,413.20612303469426
3621.595,0.6979094272520667,373.5975158719224
3622.4302,0.6979258057243528,420.5909860477538
3623.2634,0.6972225776817976,399.40378712102995
3624.0989,0.6956716565735023,263.17238971522795
3624.9326,0.6936873873913039,354.02970767386455
3625.7686,0.6921168068288924,467.4813383391818
3626.6028,0.6917189070914072,590.3982219089676
3627.437,0.6925513954605882,352.30674267827635
3628.2734,0.6938779710012837,391.3280628752122
3629.1082,0.6946223957027429,425.4353183279376
3629.945,0.6941268591370474,539.6605580576294
3630.78,0.6926191491011984,326.0618159536107
3631.6174,0.691012777136477,332.7957890178004
3632.453,0.6901814284231872,507.2640485346022
3633.2883,0.6902882114777976,272.9422740960355
3634.1262,0.6909088008897535,400.06654570771184
3634.9622,0.6917238477467238,313.710836046443
3635.8005,0.6929566772242551,483.5930087591804
3636.637,0.6948971197787881,386.4443865002775
3637.4756,0.6971183236454893,310.60473060192925
3638.3123,0.6983566873542446,289.32624088104814
3639.1492,0.6974587706872069,339.6936008653214
3639.9885,0.6943635644314982,394.9194319222204
3640.826,0.6902604783315933,343.70758443327037
3641.6653,0.6866575825237267,324.6781731460119
3642.5032,0.6843961215790414,390.8473090977768
3643.343,0.6832160607376286,311.82888158939795
3644.1812,0.682226930949492,315.8893854017711
3645.0195,0.6806305947381611,433.3301337297996
3645.86,0.6781830717826094,469.9027358927921
3646.699,0.6751721062271744,361.2049958650278
3647.5398,0.6720292424918334,337.37037788481285
3648.379,0.6690561760052193,425.7205199406087
3649.2202,0.666274021006631,366.9909571009836
3650.0596,0.6635979618194144,337.86494245721764
3650.8994,0.660972958561257,348.9494595931562
3651.7412,0.6584866151244116,448.7682289081908
3652.5813,0.6563374635922102,362.3224934882205
3653.4236,0.6547206514026735,690.8443921496514
3654.2642,0.6538304546725366,419.4349843737296
3655.1067,0.6538201075153247,346.87780207561923
3655.9475,0.6547408786851064,554.8428664309445
3656.7886,0.6563702835746138,267.88534335409474
3657.6318,0.6580923026594461,394.56688834039784
3658.4734,0.6590266317832671,442.2596097270841
3659.317,0.6585091372105879,364.11358444438525
3660.1587,0.6565129813303965,393.0432600341089
3661.003,0.6536198205154041,461.5425496786065
3661.845,0.6506024123541118,475.86981010138595
3662.6875,0.6479667322866142,404.8263463435717
3663.532,0.6459928489620996,356.0646617909317
3664.3748,0.6449903184203688,515.8079575750348
3665.2197,0.6453610801855221,436.15179462537463
3666.063,0.6474283946353466,549.4838179599568
3666.9084,0.6511767479152654,348.8351894375744
3667.752,0.6559942873226275,493.7363029418194
3668.5977,0.6606901872916436,355.5256847822311
3669.4417,0.6637663825524721,324.6211696914259
3670.286,0.6642639056189068,363.83530622126506
3671.132,0.6623491099886577,598.7142990447828
3671.9768,0.6592296961303498,318.6855697449669
3672.8235,0.6563199357382814,373.53079360683444
3673.6685,0.6545027025961078,510.9781264863163
3674.5156,0.6539006860160801,372.92196174626986
3675.3608,0.6542182874290257,333.4721383232654
3676.2063,0.6550976432309232,435.5062414445466
3677.0542,0.6562936339541322,429.5198978007565
3677.9,0.6576595837539211,444.5949497560875
3678.748,0.6591216560898882,406.1733443874673
3679.5945,0.6605446673542325,424.08612932902577
3680.4429,0.6616036758165316,360.58676241914065
3681.2896,0.6617018563503119,352.3347945951956
3682.1365,0.6601707776278026,414.9911620508943
3682.9856,0.6566312760840705,416.81168656673134
3683.8328,0.651376666792758,397.23634338976166
3684.6824,0.6453145864931439,393.3357583023457
3685.53,0.6396655767134705,481.02984944024803
3686.38,0.6353064198723175,425.92784141521963
3687.2278,0.6325843367210756,509.61076153731585
3688.0762,0.6313302316531479,471.8136616920776
3688.9265,0.6311823598753195,664.0464740908201
3689.7751,0.6318208327299235,498.15245006451823
3690.626,0.6331307147992152,592.691414624252
3691.475,0.6352000710144347,511.21316694597783
3692.3264,0.6381782581439535,367.1631659275005
3693.1758,0.6420246222216348,407.78618729197115
3694.0254,0.6464628943896584,569.3700252834282
3694.8772,0.6509885754509745,313.4151728547886
3695.7273,0.654924359460725,479.43348094419866
3696.5793,0.6576871775177493,392.28102605011316
3697.43,0.658981916215597,345.855300498035
3698.2825,0.658917226632143,357.8358167212073
3699.1333,0.6577730690870491,349.8144259178621
3699.9841,0.6557900339461783,376.55075364611196
3700.8374,0.6532103188790213,388.46811380858975
3701.6887,0.6504736591913793,503.44094500306846
3702.5425,0.6481171644754112,360.6248796618414
3703.3943,0.6465277455364009,414.3331394967408
3704.2483,0.6456418051855178,440.061379919056
3705.1003,0.6449844859871421,372.4089579655081
3705.9526,0.6438840308066539,390.0964909522762
3706.8074,0.641770456181032,513.8675544966403
3707.66,0.6384370682935218,364.0353794221109
3708.515,0.6341123929468472,543.7363392417644
3709.3682,0.6294601062255065,632.8953883903126
3710.2234,0.625220573493307,392.38830250735924
3711.0771,0.621902529272537,430.53607649336226
3711.9307,0.6194935670447329,449.1355098975608
3712.7866,0.6175920611201895,496.2959099148532
3713.6409,0.6157984145298896,494.95663408652126
3714.4973,0.6140536619145296,429.5904227236895
3715.3518,0.6127185621055685,718.0976411639721
3716.2085,0.6121933099230761,494.64853422136827
3717.0635,0.6125209113001236,486.06727556824296
3717.9185,0.6133243076943397,430.3058525084073
3718.776,0.6142021561430967,379.73892530419073
3719.6313,0.6151501168340812,515.7674143047432
3720.489,0.6166110398720143,430.56635374582936
3721.345,0.6190084806930902,495.86053644029573
3722.2031,0.6222196502977417,482.17421580352953
3723.0593,0.6253661968617066,458.43060724500975
3723.9158,0.6273098827737366,384.3281210649262
3724.7747,0.6273642677612543,418.21721562144955
3725.6316,0.6257403065391619,452.1201986845651
3726.4905,0.6233167522750056,412.72367371576325
3727.348,0.6210472744349158,504.34836019080046
3728.2073,0.6194856503069112,450.06573016981804
3729.065,0.6187587532327743,468.3347781936878
3729.9229,0.6186879479079902,359.20307112545106
3730.783,0.6189397438473734,482.8667976002682
3731.6414,0.6190916333076235,485.3405050540115
3732.5017,0.6186909804164215,407.1176955011779
3733.3604,0.6173622914687035,425.7198574473036
3734.2214,0.6149830185871962,478.39387130903856
3735.0803,0.6118680666725356,534.7020226156931
3735.9417,0.6086616776736151,311.65931699371475
3736.8013,0.6061321535961411,526.9714706317496
3737.661,0.60487046805383,491.7753751467965
3738.5227,0.6052161308505559,384.5408377268047
3739.3828,0.6071646765001345,570.8961221158872
3740.245,0.6102406219699127,466.7412152540787
3741.1055,0.613437770424367,517.6724481386746
3741.9683,0.6155685873591974,376.92960918385984
3742.829,0.6157507723688626,486.5558474548677
3743.69,0.6138574419306368,471.7709381323846
3744.5532,0.6105109538753805,557.746737325652
3745.4148,0.6068470217701091,656.5771643660156
3746.2786,0.6040283991914229,433.19047796130394
3747.1404,0.6028305284722827,751.6683023590401
3748.0044,0.6032546540488438,365.7937406095234
3748.8667,0.604584259077459,528.8122514091702
3749.729,0.6058588690249166,513.8911111570725
3750.5938,0.6065153014594713,465.85649361067925
3751.4565,0.6067422425371135,541.7644853141414
3752.3215,0.6073081826298934,407.67878853578054
3753.1848,0.6089454691968289,541.4230201891947
3754.0503,0.6118006581000757,515.5019907707019
3754.9138,0.6152774873736004,434.59979852147455
3755.7776,0.6183989544546074,477.032031869031
3756.6438,0.620243118790996,522.5079715325392
3757.508,0.6203115633420881,482.7453469874082
3758.3745,0.6187697259935993,430.6326523454386
3759.239,0.616381006519745,598.8838287947717
3760.106,0.6140819654233031,346.73939127250276
3760.971,0.6124922834960322,442.99000394885843
3761.8362,0.6116095147165833,427.4866184570413
3762.7036,0.6110043900175359,483.61340982728984
3763.5693,0.6102404213821152,566.0467265844052
3764.437,0.6091807283692142,412.2764698595934
3765.3032,0.6079729583166453,480.42317065926386
3766.1714,0.6067193825049498,468.81383251952093
3767.0378,0.6052151585841368,486.73585154471465
3767.9043,0.6029817030586898,596.7132288949977
3768.7732,0.599644831850322,528.5730603775035
3769.6401,0.5953830729367742,517.7359361867705
3770.5095,0.5909754508172516,501.0018093020682
3771.377,0.5875612380521112,521.8479100820546
3772.2466,0.5860026323944263,551.5963516578928
3773.1145,0.586501080198007,457.5686606965546
3773.9824,0.5884929022576298,407.14499489373856
3774.8528,0.5909417693555774,520.8130822157698
3775.721,0.592707508989593,444.6135842269844
3776.5918,0.593011685265133,429.07134195831037
3777.4604,0.5917644498911128,507.2888164842776
3778.3315,0.5896293998444598,591.9371875564726
3779.201,0.587623154073006,654.347219832552
3780.0703,0.5864573187248112,664.9323280397525
3780.942,0.5862563492994589,485.6723559743041
3781.8118,0.5867465022232183,698.5374846125133
3782.6838,0.5875852525651678,418.69053228122226
3783.554,0.5884997472390135,553.2118620269392
3784.4265,0.5893276709251742,625.702474394482
3785.297,0.5900607639668911,509.08316046041335
3786.168,0.590872432112228,416.4380689641729
3787.041,0.5919728093654996,660.8777642512679
3787.912,0.5934290072171621,526.8015641663559
3788.7856,0.5951664985593412,518.8414925192286
3789.6572,0.597037613352484,434.68248494256846
3790.531,0.5988733604825477,572.808080339877
3791.403,0.6003503238450543,541.9195029545431
3792.2754,0.6009982578337294,413.1183902433131
3793.15,0.6003835500376979,481.416398390136
3794.0225,0.5984092471094086,471.87298504618843
3794.8972,0.5953762650527121,552.1607233116642
3795.7703,0.5917976214336395,371.37069691221103
3796.6455,0.5880552024996494,531.5653618067264
3797.519,0.5843672890813949,460.7696809405533
3798.3926,0.5808715640640142,373.95614234901643
3799.2686,0.5777722742798033,678.0649635086874
3800.1426,0.5752536094805084,602.1768620866903
3801.0188,0.5731984218065221,556.4318066525652
3801.8933,0.5712396503817161,404.2214652988095
3802.77,0.5690626081446727,503.84841468743
3803.6448,0.5667883127320221,626.0300597150779
3804.522,0.5648853208206203,674.4006545146638
3805.3972,0.5638247907932247,645.2332455885538
3806.2727,0.5637571855261452,640.49557553808
3807.1504,0.5645887596352823,418.18828788705315
3808.0261,0.5661398590208772,562.3779733227116
3808.9043,0.568171787416254,493.73100174375196
3809.7805,0.5702969095349446,567.5538261425028
3810.659,0.5721712696116757,457.71109472300986
3811.5356,0.5737589204969213,542.6407808749929
3812.4126,0.5753774021246187,657.8983907779927
3813.2917,0.5772625873726066,547.2454380698726
3814.169,0.5791257443347236,579.0232441887849
3815.0483,0.5802449667855396,469.42297826282277
3815.926,0.5799522318516075,442.2807371962129
3816.806,0.578135846314944,560.3134294278946
3817.684,0.5753438149925235,519.0322730027565
3818.5623,0.5724894107014545,527.7420086187483
3819.4429,0.5704557545092851,600.9832807512214
3820.3215,0.5697922828781993,560.5263228388769
3821.2024,0.5705229757738162,829.3796821991607
3822.0815,0.5721748325389939,563.4612242404999
3822.963,0.573988336200393,473.43304640084295
3823.8423,0.5752489963889589,521.9122785774961
3824.722,0.5756260398778548,477.72184155573814
3825.604,0.5751803679442695,655.442791692322
3826.4841,0.5741121253613564,520.8014368924036
3827.3665,0.572462431068549,502.8115976285812
3828.2468,0.5701056193544224,599.1519446969684
3829.1296,0.5669584393022095,486.09614793056653
3830.0105,0.5632819586530518,582.442147505578
3830.8916,0.5596216955602447,679.5085596318562
3831.7751,0.5565310395200976,550.8043467036746
3832.6565,0.554276919429732,635.6035294995911
3833.5403,0.5527478805153946,620.9911269209608
3834.4224,0.551716615534897,645.4465852090658
3835.3064,0.5509885888835908,649.6700726873261
3836.1887,0.5504113867145508,449.98396010035515
3837.0713,0.5498066198201866,634.252075261031
3837.956,0.5490508710709058,534.4458882191577
3838.839,0.5482100964052572,710.4965275977039
3839.7244,0.5474917819001729,627.8703262633155
3840.6077,0.5470250107109365,660.2232732861391
3841.4932,0.5466599888113455,649.0888513374683
3842.377,0.5460881756773629,648.2926650350473
3843.261,0.5452208024093306,587.179488106913
3844.1472,0.544525149122708,579.9976465314024
3845.0315,0.5449444349994993,739.1630839755089
3845.9182,0.547320462835881,678.5075427333695
3846.803,0.5516996229544275,576.8745484219907
3847.69,0.5571639604138277,610.7238223763414
3848.5752,0.5622295390409969,532.3799855601847
3849.4604,0.565720361299611,532.4283670326322
3850.3481,0.5672695099192463,632.3947746398379
3851.234,0.5673025325363757,530.1140294188161
3852.122,0.5666086711316999,660.1936257024831
3853.0083,0.5658066312428555,650.8478042279718
3853.8967,0.5650734042207141,573.1838262568937
3854.7832,0.5642539794313385,584.8171014000872
3855.6702,0.563115554882102,523.2641010788637
3856.559,0.5615001230703808,621.6760232636833
3857.4463,0.5592920703986854,603.8802472069846
3858.336,0.5563637401600839,520.4435305353499
3859.2234,0.5528053993355555,509.7853464641271
3860.1135,0.5491140911706941,620.9001069847034
3861.0015,0.546199153409151,508.0511081640119
3861.8896,0.5448226008174243,606.6689462980721
3862.7803,0.5451075918792888,586.366684940908
3863.6687,0.5463961653945814,575.0451114170087
3864.5598,0.5476239929257248,548.759972219889
3865.4487,0.547838889665355,593.6974755275193
3866.34,0.5465959953485214,520.6753094915688
3867.2297,0.5440768767466905,610.5622963499533
3868.1213,0.5409733083850727,502.24648401355904
3869.0112,0.53822024529748,638.1221023908554
3869.9014,0.5364919915594425,513.0085280179412
3870.7937,0.5358347460440075,655.1224510815262
3871.684,0.535662513465599,727.7785511630524
3872.577,0.5352179032590899,561.3724042720096
3873.4678,0.5341545654763372,546.7785431817886
3874.361,0.5327256779046435,588.0724629148292
3875.2524,0.5315259669079964,732.5985173839711
3876.1438,0.5310213513872679,798.730679448004
3877.0376,0.5312945559225994,658.6872870294129
3877.9297,0.5320660206688864,591.4964444734543
3878.8237,0.5329326270543757,620.3864893779199
3879.716,0.5336141104479519,817.4049280065208
3880.6108,0.5340738191552579,631.2915835122353
3881.5037,0.5344332737134069,644.2975151193674
3882.3965,0.5348303216828377,569.8746114417486
3883.2917,0.5353087532460734,637.6837638781507
3884.185,0.5357776451472496,547.5288315159912
3885.0808,0.5360340449383703,567.0362242582796
3885.9746,0.5358386279783984,746.4848303549968
3886.8706,0.5350804157030323,690.578436047665
3887.765,0.5339358743944973,644.8045543642328
3888.6592,0.5328515202091135,770.8546187034275
3889.556,0.5323206382272702,574.3169706282723
3890.4507,0.5325888037680651,567.1356160741576
3891.348,0.5335216516483534,677.4169158642854
3892.243,0.5347448719511537,571.004916682823
3893.1406,0.5359318795825637,752.3674145604779
3894.0361,0.5369517058514426,570.8306724829142
3894.932,0.5378629383495183,620.3870650932581
3895.83,0.5387443842428746,768.7749027927563
3896.7263,0.5395300531108906,517.2599237242515
3897.625,0.5399881679478015,698.4980908728131
3898.5215,0.5398649939875275,621.6812470236084
3899.4207,0.5391201512297357,524.6666396225294
3900.3176,0.5379744444301185,1028.3709339805673
3901.2148,0.5366927825317602,646.7183139967661
3902.1145,0.5354123352261785,939.9164940905002
3903.0122,0.534261058597367,485.9459316460191
3903.912,0.5335579575697836,1035.3347985722303
3904.8103,0.5338089252435356,522.9325075582468
3905.7107,0.5354029556111393,593.2012829684097
3906.6094,0.5383307348201494,618.5145716406805
3907.508,0.5421614482896897,681.8409813370185
3908.409,0.5461882249473754,556.0502770206324
3909.308,0.5496033727154449,642.1003117933998
3910.2097,0.5517800984014769,626.7911584725306
3911.1091,0.55241580894463,632.2133738443622
3912.011,0.5516914442801082,668.2171465072661
3912.9111,0.5502314187120874,565.7705468628407
3913.8113,0.5488930568170605,527.4200104740837
3914.7136,0.5484214136302211,521.0511960717536
3915.6143,0.5491319278835601,575.7975737218485
3916.517,0.5508091250844935,723.553889637032
3917.4182,0.5528693532210992,642.4567111727026
3918.3215,0.5546833909366328,698.3425414135232
3919.223,0.5557705302868506,552.5887966385507
3920.1245,0.5559053716382806,526.420264359008
3921.0286,0.5550978014053605,518.6050985809054
3921.9307,0.5536025549751099,632.4526940999224
3922.835,0.5518467706299457,683.57897420525
3923.7373,0.550278019902919,683.7055970803559
3924.642,0.549106014574183,717.5372574747909
3925.5452,0.5482238234180311,556.991528845482
3926.448,0.5473099064811495,547.3832080168918
3927.3535,0.5460865800587702,624.0870312542285
3928.257,0.5445158683422952,496.1529879452471
3929.1628,0.5427723526994133,548.3060367709304
3930.0667,0.5411040661865293,689.8924633452128
3930.9731,0.5396040322888058,728.502221593566
3931.8774,0.5381587201654636,671.1943761170336
3932.782,0.5365100250952377,626.2111248927723
3933.6887,0.5344670168796617,573.3577397473424
3934.5938,0.5321042327143529,508.6380174954024
