wavl,flux,ivar
3566.9744,2.5344035999941235,91.59520147314142
3567.795,2.5328390844089492,71.56641270335781
3568.6177,2.5316908152756388,80.4829522308469
3569.4385,2.530519809683897,76.80124767128203
3570.2617,2.527140473653084,93.39186218900981
3571.083,2.518910607520959,74.55353338311701
3571.9065,2.5047923605592195,73.13363977374908
3572.7283,2.4870039079286554,84.37028108444262
3573.55,2.4702484453217832,96.2353274219217
3574.374,2.459486570822293,103.49194914623737
3575.1963,2.457544321404966,95.17299723268157
3576.0208,2.4637128754117295,89.83207386224998
3576.8435,2.474282050007415,64.07070322112632
3577.6682,2.484637336548622,82.7696261830083
3578.4915,2.491586832320518,105.84669785222876
3579.3145,2.4946802871352864,100.61412619304079
3580.14,2.495137066205897,119.68710637565006
3580.9636,2.49390258443008,76.75001654225517
3581.7893,2.4907508756168366,78.66275111545772
3582.6133,2.4851403256693145,88.61610130616941
3583.4395,2.477521050423127,81.72188307863706
3584.264,2.4698531437660955,75.08533278171252
3585.0884,2.4646079920827577,93.9197237527197
3585.915,2.463431081929827,91.95243776623387
3586.74,2.466319542956393,110.0383635717548
3587.5671,2.4720151967170363,83.24729299941582
3588.3923,2.47909320527095,77.39481741039717
3589.22,2.4866593453834795,100.08229138138843
3590.0457,2.49362993249023,87.31646285807616
3590.8716,2.4981052257882386,74.47457596975829
3591.6995,2.497782784995456,68.53207410812865
3592.526,2.4916198623499204,86.39223270760989
3593.3542,2.4808431142753977,88.39338072704243
3594.181,2.4682977398630808,83.79614309516563
3595.0098,2.4564361490603734,79.1952016548644
3595.8367,2.4461417189134256,127.6255792981659
3596.6638,2.436483150960431,82.94413024592627
3597.4934,2.425932279536447,67.86291059410536
3598.3208,2.413867854453843,64.0050517906181
3599.1506,2.4010888449977057,155.11745943208788
3599.9788,2.3896591112797534,112.73667193076972
3600.8088,2.3815659719811064,93.23938958100855
3601.6372,2.3779372758366657,137.35219082889
3602.4678,2.3786701475547254,104.52171845815025
3603.2964,2.3830653623582316,103.29321656974061
3604.1252,2.3906556688954907,86.28373559497119
3604.9565,2.401435897196207,87.38865222386232
3605.786,2.414980236243393,118.72137160286803
3606.6172,2.4297392687379875,74.53554756357524
3607.447,2.442834542938746,99.69071277268584
3608.2788,2.4514500141194158,63.88923505634239
3609.109,2.454185703156213,95.91982952262613
3609.9392,2.4520389093522446,74.07357568912191
3610.7717,2.447714953821428,89.69908740644938
3611.6023,2.4438992490796996,75.72683821876758
3612.435,2.4414664243370123,67.5132198109127
3613.266,2.4392900844531837,78.51800421054651
3614.0994,2.4354260301719064,77.61071180547783
3614.9307,2.4286472353110886,91.00317653088747
3615.7625,2.4189965932963102,93.94345917479548
3616.5962,2.407600248675324,89.74627752373388
3617.4282,2.3962741796576137,90.45313104086588
3618.2625,2.386806226099282,100.08650070392362
3619.0947,2.380597395216241,84.82936238848656
3619.9292,2.3782087314261036,93.01328132929129
3620.762,2.3795625575790083,82.8195672320206
3621.595,2.383965804134642,99.73651828854088
3622.4302,2.390030182869779,93.88516071995714
3623.2634,2.395708180556549,92.63983172150932
3624.0989,2.3991667745539322,88.85321919708113
3624.9326,2.3995958832863145,87.65029241857594
3625.7686,2.3972567407746523,105.32457592861911
3626.6028,2.3924587309654317,120.40787219176497
3627.437,2.384824664639905,103.58188481473447
3628.2734,2.373941860960857,89.00945141111663
3629.1082,2.360731505948353,109.20437266387782
3629.945,2.3473116962883913,89.05240223620041
3630.78,2.3357631503894285,81.98581870348006
3631.6174,2.326554154602546,99.17774268324872
3632.453,2.318904235360014,100.99510467713476
3633.2883,2.3117008825316834,89.2737154148225
3634.1262,2.304367226233927,101.7573903414809
3634.9622,2.296891446868212,101.60290360787096
3635.8005,2.289243396818785,97.72384940141647
3636.637,2.281284327749033,179.27613952723397
3637.4756,2.272723928860035,100.14117332986177
3638.3123,2.263370454386672,95.51356899643075
3639.1492,2.252798756907872,103.8939035941839
3639.9885,2.2405100876653194,103.9606613798852
3640.826,2.227050583437182,102.56156815524858
3641.6653,2.2148333424264153,101.76920496522034
3642.5032,2.2076068465395706,95.55309413570212
3643.343,2.207622634986616,89.51178508045837
3644.1812,2.2137246668958555,97.41352155259509
3645.0195,2.2221849952208688,80.46825179874146
3645.86,2.2294283486226565,104.23260568811604
3646.699,2.2337586438378874,96.78213392961368
3647.5398,2.2352607881306885,94.19269204371761
3648.379,2.234674799026905,101.89527895493282
3649.2202,2.2328769204255514,112.07376686623309
3650.0596,2.2309081571679825,122.2295524767489
3650.8994,2.2298358445886888,104.84735360339823
3651.7412,2.2301445403204574,118.03695622686782
3652.5813,2.2310617621553592,107.12567531554001
3653.4236,2.2307469833949596,116.2622967753493
3654.2642,2.227541988323069,102.90061332861386
3655.1067,2.221336567691694,107.8107529558952
3655.9475,2.21388039125371,110.60515848462133
3656.7886,2.2075622262680574,108.49600197943224
3657.6318,2.203990090926146,114.77132063189039
3658.4734,2.203431520878271,100.64977409851275
3659.317,2.2052838716835423,116.84297360992257
3660.1587,2.2089040250962326,115.88715533856116
3661.003,2.2139704690167843,108.64575277301566
3661.845,2.220165969708676,95.31372948171763
3662.6875,2.226873891236687,120.62115773761245
3663.532,2.2330697327052267,95.20931544292749
3664.3748,2.2376784628321724,98.4772189874482
3665.2197,2.2401070949359387,132.60341343578713
3666.063,2.240219076996163,108.92955594938147
3666.9084,2.238136919407606,115.02861463555632
3667.752,2.234246751316765,126.10968968830113
3668.5977,2.229476065514126,101.24812319499051
3669.4417,2.2252877751958704,127.58456253726894
3670.286,2.2227235732190165,118.42321584479662
3671.132,2.2214728615870034,103.14574723059664
3671.9768,2.2200082624901025,107.16762991724613
3672.8235,2.2170147070149233,94.27739362716707
3673.6685,2.2128982184726076,94.44350113712174
3674.5156,2.2096768341787394,92.602913307475
3675.3608,2.2092915077643203,108.61214756962866
3676.2063,2.2117024180190126,104.88259247598609
3677.0542,2.2147538841829815,114.54447940946594
3677.9,2.2157246206781336,90.98475918826337
3678.748,2.213225692018621,148.33438113987788
3679.5945,2.2078954131076376,87.13948229414298
3680.4429,2.2018298020694185,107.16540221720074
3681.2896,2.197551307379515,135.60523746213894
3682.1365,2.196807130521199,97.79901356606136
3682.9856,2.1998888905595324,105.72125696757792
3683.8328,2.205481064391938,97.42897469105566
3684.6824,2.2112820261868995,100.08998681548098
3685.53,2.214787629607838,113.07607996785153
3686.38,2.2142490041525993,117.57606357168056
3687.2278,2.209241390230202,99.37906606617315
3688.0762,2.2007854381341456,118.92863855788148
3688.9265,2.1909116046826105,114.35763229966216
3689.7751,2.1821470122479107,107.49069957012894
3690.626,2.1768494459358387,91.31134737391693
3691.475,2.1766097863949874,101.79939585614007
3692.3264,2.1811396152329237,137.2474940776893
3693.1758,2.1878562940901225,123.6647249394008
3694.0254,2.193179199101814,120.52226270642723
3694.8772,2.1949067320840334,93.41160589491729
3695.7273,2.1938146461153876,93.31753209299146
3696.5793,2.1929186949449737,120.88712347502134
3697.43,2.1949376155843616,116.95611520896654
3698.2825,2.2001647391575307,104.3022204739913
3699.1333,2.2063178267251664,100.55382884554143
3699.9841,2.2103310877805917,106.10073739129449
3700.8374,2.2103336119357992,86.14082623109275
3701.6887,2.2065783936274936,104.54803853855046
3702.5425,2.200890957366464,100.94284534220898
3703.3943,2.19540439114939,119.50168752989198
3704.2483,2.1912937500377825,120.19893277076088
3705.1003,2.188399234474968,124.59349873874284
3705.9526,2.1854537004849597,121.28984273714687
3706.8074,2.1809461641340064,98.61642689838989
3707.66,2.174091888956173,102.12197292194523
3708.515,2.165217383114464,118.98724959010201
3709.3682,2.155612274523675,134.62458828657222
3710.2234,2.1465640831659525,107.74849849337409
3711.0771,2.1388928429114884,101.08702642018726
3711.9307,2.1328924727656466,101.84661104633658
3712.7866,2.128860743810184,100.97452334577285
3713.6409,2.127273117677847,114.55174069502354
3714.4973,2.1282737864768073,131.5646255701919
3715.3518,2.1312355232259708,117.80089187723937
3716.2085,2.1349236639116773,114.11742521500418
3717.0635,2.138058459335412,124.36623262026868
3717.9185,2.139770981576429,108.20209716283244
3718.776,2.1396297330134018,139.6868431257351
3719.6313,2.137889562951459,108.79840223953641
3720.489,2.1359882690699474,112.3130883319738
3721.345,2.136457837369482,114.74243328405339
3722.2031,2.141444167372304,138.9196415092073
3723.0593,2.150598528638233,128.189460331708
3723.9158,2.160440934121092,94.17216074638154
3724.7747,2.1661154178358055,134.2566753703123
3725.6316,2.1644572542654696,121.46577735917104
3726.4905,2.1559259684654886,105.8679995914743
3727.348,2.14381442222837,118.09174118535533
3728.2073,2.1317536604569143,112.1251915092484
3729.065,2.1220695403486776,106.31393434997763
3729.9229,2.1154476047092268,121.90220744588265
3730.783,2.1118282122951313,118.8228497014893
3731.6414,2.110928946881286,107.20169446606394
3732.5017,2.112059759897758,104.36676395489941
3733.3604,2.113908220946795,116.68332627141129
3734.2214,2.11488923298838,118.32795334104028
3735.0803,2.113993908421567,119.01203503264357
3735.9417,2.111385893695806,118.62570316198206
3736.8013,2.1080451747574145,128.27656044114093
3737.661,2.104724713727726,121.89794208483717
3738.5227,2.101347054404076,115.74153624668455
3739.3828,2.0973787762441516,127.33033298739068
3740.245,2.0925472694566514,111.02476867235443
3741.1055,2.0872207242680427,129.21063383193837
3741.9683,2.081960461169819,104.01026861939614
3742.829,2.0771906297374647,148.86730287824145
3743.69,2.073093036281205,122.71032174532348
3744.5532,2.069906251543224,163.99681042276939
3745.4148,2.068020880304752,114.64868029241677
3746.2786,2.067681323139302,117.45370916489324
3747.1404,2.0687116536762247,106.81409995641818
3748.0044,2.070519487796267,144.4070835271062
3748.8667,2.07252191567105,120.0817951686798
3749.729,2.0746944337479354,128.2762532587923
3750.5938,2.0776429069870623,108.88486462641303
3751.4565,2.082018912082251,100.66585366613255
3752.3215,2.0877951346647583,106.54066610108055
3753.1848,2.0938436514501575,151.20195293435197
3754.0503,2.0985048698609248,121.46715604338256
3754.9138,2.1004739510034978,128.64853746084782
3755.7776,2.099545092958264,133.57122205950114
3756.6438,2.0963351816296245,140.3577462920145
3757.508,2.091556119534221,113.43903588578367
3758.3745,2.085461899644477,101.15085393372769
3759.239,2.0782216356374077,119.90324627618116
3760.106,2.070461150974527,126.7708987629842
3760.971,2.0636238338025454,152.32193706228057
3761.8362,2.0592681153589862,118.1101257846604
3762.7036,2.058230874782298,135.38646961582438
3763.5693,2.060042900290199,132.09959921527522
3764.437,2.0630462681977355,119.86786725536925
3765.3032,2.0650839287727796,122.78808847122713
3766.1714,2.0645237705693087,128.64613515142935
3767.0378,2.0611077433164025,106.95851213990791
3767.9043,2.0560799863908654,140.38355937198236
3768.7732,2.0513096383552503,139.14424970859457
3769.6401,2.048101478383665,122.20460450399372
3770.5095,2.0464832413599554,114.74437519341645
3771.377,2.04556651726861,108.78926598914933
3772.2466,2.044221506919964,111.87637520324769
3773.1145,2.0417104459572806,142.40784683030353
3773.9824,2.0380109141583467,122.8336684766125
3774.8528,2.0338303919329226,141.54455468728415
3775.721,2.030318014991451,141.36828541238847
3776.5918,2.0285572531457223,129.42860105394615
3777.4604,2.0293854613212052,123.30652133538763
3778.3315,2.0332441120554146,122.29141324293937
3779.201,2.0399788016572096,135.42691295413726
3780.0703,2.048761682938803,122.42198801689798
3780.942,2.058290093577644,98.25278159636967
3781.8118,2.06713591977658,118.40331208617766
3782.6838,2.0742540876565294,100.9266195092817
3783.554,2.078951520620315,113.10800069649416
3784.4265,2.0809640484577225,113.37743230598504
3785.297,2.08023145898532,148.54528257523478
3786.168,2.076777930886409,112.46607626282112
3787.041,2.0706743274455714,135.40519237266665
3787.912,2.062467619523978,117.3143898356232
3788.7856,2.0534702401635005,109.12740991922017
3789.6572,2.0456944640263734,116.08074234720559
3790.531,2.0406510387501875,144.81119467072187
3791.403,2.0383750132100333,147.53020693652692
3792.2754,2.0372171151998075,96.87897515226626
3793.15,2.0349599360864676,127.20096178193296
3794.0225,2.0302066629014752,103.83777278718372
3794.8972,2.0230228246453077,143.20202046357144
3795.7703,2.0147774704466217,122.4619149986318
3796.6455,2.0072185099575153,136.58048493196222
3797.519,2.0016876473338594,109.41310954163224
3798.3926,1.9983735670506926,140.99343421435645
3799.2686,1.9964237326817162,146.9246687379296
3800.1426,1.9947722807982475,98.24686953556726
3801.0188,1.9932053123242341,130.25122722635658
3801.8933,1.9928226657695582,139.25485640918282
3802.77,1.9952582036310176,152.66780852835424
3803.6448,2.0012104518048925,155.66241891129718
3804.522,2.0094728943165507,122.2255569263979
3805.3972,2.017060732022836,106.51327496903309
3806.2727,2.02080101748772,111.26295552393584
3807.1504,2.0190526127479504,132.92147765506766
3808.0261,2.0127381271967266,108.78003788710029
3808.9043,2.004711020116902,118.71653451876375
3809.7805,1.9981468908916924,122.37307977174035
3810.659,1.9949101481285159,139.966892922212
3811.5356,1.9952894565684447,127.50874616480075
3812.4126,1.9984688763274476,143.88170550031782
3813.2917,2.0031907225097965,128.2840891161017
3814.169,2.0080507367549827,127.756238317967
3815.0483,2.011934235805892,153.2740081196103
3815.926,2.0143510188132105,144.18675400189773
3816.806,2.0155105752705404,126.4929105620454
3817.684,2.015688131444815,156.3910220132978
3818.5623,2.0147180864064413,133.96679222718058
3819.4429,2.0121851402303403,117.19170918982564
3820.3215,2.0080851696730613,121.84685892642472
3821.2024,2.0029211850846553,137.9907578480924
3822.0815,1.9972799086692887,131.62417284890296
3822.963,1.9913580541648126,137.87791022821114
3823.8423,1.9852707499494726,115.11853313126281
3824.722,1.979342764628309,131.76712359766105
3825.604,1.9741077775291929,140.88426113539867
3826.4841,1.9699120433086459,146.27680987476458
3827.3665,1.966549068748219,118.34562098324268
3828.2468,1.963522212307546,139.5250741648646
3829.1296,1.9603854886359517,141.86781542041635
3830.0105,1.957042275573978,137.42165070348992
3830.8916,1.953599557948091,159.29089930246172
3831.7751,1.950149778481188,151.1825153797817
3832.6565,1.9466721078990175,143.87467933480542
3833.5403,1.9430679732128806,126.10926695385213
3834.4224,1.9394404715426663,128.5729107139639
3835.3064,1.9361201656213438,123.66206583795659
3836.1887,1.9336125998301466,123.33413431529637
3837.0713,1.932385777296847,143.7673522773
3837.956,1.9328655261064944,143.92651083425056
3838.839,1.9354412427226775,132.48542086379942
3839.7244,1.9403316236376638,132.66802767576755
3840.6077,1.9471612951079673,118.63184326373747
3841.4932,1.9547564178616879,129.39825612941252
3842.377,1.9612004998144514,150.81437863519434
3843.261,1.964650105753407,121.80768142582207
3844.1472,1.9641266093007586,159.55547918856607
3845.0315,1.9600667727375152,118.03011867172165
3845.9182,1.9541680399570331,167.0886218518577
3846.803,1.948762590212256,119.57916313027394
3847.69,1.9458327460558542,150.4531287535095
3848.5752,1.9463743414205852,119.22155251115956
3849.4604,1.950035578374569,172.22357534478516
3850.3481,1.9553489974847644,107.96233092441052
3851.234,1.9603260321275708,127.34261472504637
3852.122,1.9635226231519562,136.67562337163918
3853.0083,1.9647099893759694,141.0213962967246
3853.8967,1.9648688416998963,144.91132465702856
3854.7832,1.9652741112680407,130.1265337239551
3855.6702,1.9665505431729935,132.0747382868505
3856.559,1.9683965025098773,117.00727592078402
3857.4463,1.9700513720334152,129.01853243532636
3858.336,1.9710119782184221,125.65187997051838
3859.2234,1.9712658068387732,125.29144470776015
3860.1135,1.970962690785455,133.98645623848884
3861.0015,1.9699040827922256,127.17229947274429
3861.8896,1.9675020198917361,131.68275985932564
3862.7803,1.9633390055133662,142.43660281940228
3863.6687,1.9578938949607974,136.48551219864044
3864.5598,1.9525597346145789,158.89229136140406
3865.4487,1.9490065934355045,154.61948977106545
3866.34,1.9479191867750192,164.0996660743029
3867.2297,1.9483492785610808,150.10959555477007
3868.1213,1.9481436661576024,130.38445197541756
3869.0112,1.9454271685684108,142.75657166143438
3869.9014,1.9399129004219564,119.7618478281448
3870.7937,1.9329132109127956,151.45187625352645
3871.684,1.926204356639771,137.86908529483256
3872.577,1.9206113920043282,136.11428063816888
3873.4678,1.9158430384432477,180.9705851011665
3874.361,1.9111968648664992,123.47038181512791
3875.2524,1.9066691042927801,136.73301998295665
3876.1438,1.90302968071662,153.32448532852138
3877.0376,1.9009763983071222,157.33995781423826
3877.9297,1.9000795367479117,157.82073331975164
3878.8237,1.8986133137165924,173.74937375816117
3879.716,1.8946421873781967,131.19752915818728
3880.6108,1.887359205531415,121.6518041484065
3881.5037,1.877722315937643,172.32916014396412
3882.3965,1.8676679239797493,134.1571686102096
3883.2917,1.8588877457746296,182.5017031124754
3884.185,1.8520513063186848,161.6725442919411
3885.0808,1.8466787657367212,178.7330480154598
3885.9746,1.8419394264837485,159.95115132011819
3886.8706,1.8372873093657411,148.7244636387765
3887.765,1.8328942441058231,155.1944338092817
3888.6592,1.8293435843483103,129.0344984939317
3889.556,1.8271872685099388,170.06354164761126
3890.4507,1.8267609539543561,138.66261939832393
3891.348,1.8283292845062606,146.83951253692874
3892.243,1.832145609507067,196.10517458477096
3893.1406,1.8380850890363754,138.9139232989443
3894.0361,1.8451236249133973,143.7503718262479
3894.932,1.8516763205951174,165.5469752759504
3895.83,1.8564743281468383,160.67125773569265
3896.7263,1.8593904457083807,153.47228494608
3897.625,1.861571825496292,179.56915170080703
3898.5215,1.8646518295363461,135.08763627037604
3899.4207,1.8699012496730574,171.54671026331985
3900.3176,1.8775875887310658,164.3918387195603
3901.2148,1.8870737707443075,149.50364883653322
3902.1145,1.897280875516323,138.25690499300964
3903.0122,1.9072182895980963,139.2856628965995
3903.912,1.9164644472590187,179.99792554527244
3904.8103,1.9248390958824853,146.0998142924008
3905.7107,1.9322899255324069,149.20646045210805
3906.6094,1.9387656617954354,127.76319716914385
3907.508,1.9446013436172285,140.35229173264312
3908.409,1.9505289621382864,143.0846338603762
3909.308,1.9572345919407133,121.45740077452007
3910.2097,1.9649263186510884,130.40845347407557
3911.1091,1.9731160681598363,139.53181261822533
3912.011,1.9812139089206724,126.95968933068261
3912.9111,1.9888123501906403,136.90883967884702
3913.8113,1.9957248183558498,125.17772724661123
3914.7136,2.001458303851009,116.82820065141706
3915.6143,2.005038053517638,114.1319738328587
3916.517,2.0056325070949073,128.3052968021863
3917.4182,2.0032141599431883,118.0737413193685
3918.3215,1.9986364369292242,124.264112953985
3919.223,1.9929768156624044,116.157176306703
3920.1245,1.9867878843939617,123.25565845333523
3921.0286,1.9801755630405675,147.7059612570942
3921.9307,1.9735038044793878,147.22752753231936
3922.835,1.9677092101229299,130.1160995426757
3923.7373,1.9640683190120987,146.21729340545542
3924.642,1.9632722236796682,129.72523578193648
3925.5452,1.964901270365287,146.69531710894046
3926.448,1.9675198911383716,118.42387326256274
3927.3535,1.969407015234631,155.27634333713092
3928.257,1.9692640071236671,113.55807282308672
3929.1628,1.9665867078720471,119.69697336323519
3930.0667,1.961686443247881,131.0291520349257
3930.9731,1.9555632316084899,133.59403721586398
3931.8774,1.9497395916631266,153.72672371920837
3932.782,1.9455205256855888,163.0682135476834
3933.6887,1.9433435011503557,132.1796175266351
