wavl,flux,ivar
3566.9744,6.19636483355063,23.920983355091874
3567.795,6.150595339906841,14.398568261234512
3568.6177,6.099593200244563,20.83446460692834
3569.4385,6.055268740249092,22.918094804507607
3570.2617,6.026160339005124,25.81417138891508
3571.083,6.015725691117874,19.17349241815818
3571.9065,6.021103902207162,18.608178526098534
3572.7283,6.0346608306204335,16.644222336138178
3573.55,6.047273308974117,18.84562210773038
3574.374,6.0522602203365965,18.069404958040774
3575.1963,6.047249959265377,21.31069394326896
3576.0208,6.03270421544879,19.158250289923583
3576.8435,6.009049077067423,20.068158370188073
3577.6682,5.9756099293974865,15.151766636609137
3578.4915,5.93360796386865,21.15899075566709
3579.3145,5.889015175359917,19.885706619930183
3580.14,5.852689590422407,20.939642516466993
3580.9636,5.836312274900379,21.816645036509442
3581.7893,5.845475126250894,21.356989868075015
3582.6133,5.8764390882550614,19.794166931278774
3583.4395,5.918528599916711,20.275813966452905
3584.264,5.959722360211225,26.249856552050325
3585.0884,5.992137740970045,18.79765100546638
3585.915,6.01258797111694,18.74850513793401
3586.74,6.0212212829195355,20.350628473586838
3587.5671,6.020871427039515,18.894990248105486
3588.3923,6.015785348672634,18.196810941689762
3589.22,6.009189517110614,19.011341718768197
3590.0457,6.001028237572026,19.436807695792666
3590.8716,5.98850450359258,18.644755481787968
3591.6995,5.9694922626254785,21.597393741692184
3592.526,5.945215007083585,22.382893301692867
3593.3542,5.919055920488339,21.797677442167732
3594.181,5.894054565123979,22.059436122894866
3595.0098,5.87075308583366,23.198232578109522
3595.8367,5.848302740935829,18.70548373927142
3596.6638,5.825779349517445,21.59189279735831
3597.4934,5.803393450913004,19.0990940029868
3598.3208,5.782229571482023,22.7186264687247
3599.1506,5.762468567472114,22.961433989421494
3599.9788,5.743161879161466,22.427325965292383
3600.8088,5.723154502379243,17.128717089505756
3601.6372,5.7040604802334745,24.359364171973976
3602.4678,5.690895314004869,21.82726122864164
3603.2964,5.689682195632571,16.659152296590737
3604.1252,5.702692260291922,17.886589010650262
3604.9565,5.726494513934636,30.320726305117642
3605.786,5.75364378489148,26.08412830940558
3606.6172,5.777355132015846,21.064467775208875
3607.447,5.7942071297640085,15.801339394295969
3608.2788,5.8048766922721065,21.062356578032478
3609.109,5.81202388213015,22.830935530315145
3609.9392,5.818264884803342,19.09618800056326
3610.7717,5.82502603647018,19.366803447138516
3611.6023,5.832560238360173,22.074790595790727
3612.435,5.839956742902335,24.71668179935831
3613.266,5.844310668355583,19.084157491295368
3614.0994,5.841066787980038,24.94493833663375
3614.9307,5.826560333105224,18.110070795818366
3615.7625,5.801460934997159,21.73248169733769
3616.5962,5.7717214732460125,25.465751292609482
3617.4282,5.74565531042252,22.09988131817892
3618.2625,5.7284002655200394,21.059681424044147
3619.0947,5.719401520706487,18.499880203390994
3619.9292,5.713276862783397,24.888771337549795
3620.762,5.703924163655048,23.555383956486022
3621.595,5.68795366681563,24.4664516226493
3622.4302,5.6660067213877685,20.16126359201873
3623.2634,5.641943490314223,21.19935786246434
3624.0989,5.620237882927652,24.118683627767805
3624.9326,5.60449314575475,20.506451387154506
3625.7686,5.5961526195764835,28.2820379672962
3626.6028,5.594384217945572,26.05073956252925
3627.437,5.59571179307342,21.959419468577693
3628.2734,5.594886384322332,21.562046872379298
3629.1082,5.587175484729663,18.71574923043319
3629.945,5.570939048575023,23.574554280210815
3630.78,5.548690058924447,32.58242386243466
3631.6174,5.525456376656727,19.66928523553919
3632.453,5.5071058810698625,20.24610343252769
3633.2883,5.498593075696968,26.960250101846647
3634.1262,5.503361650377649,20.78496137969116
3634.9622,5.521506836217829,28.235475282851382
3635.8005,5.5478012721981855,35.452521966103056
3636.637,5.571642329966511,19.98289595129578
3637.4756,5.581979306037065,19.858035098902562
3638.3123,5.573027078406422,23.582858844568136
3639.1492,5.546967353130972,18.883125483045745
3639.9885,5.510640475255628,22.204526850746078
3640.826,5.4708634456172245,29.469227923517654
3641.6653,5.431407023335511,25.10848477339576
3642.5032,5.395244572085048,34.00645362764636
3643.343,5.366171979658586,20.559770668792535
3644.1812,5.348813199252161,24.90458774947511
3645.0195,5.344888398335113,28.972294677435556
3645.86,5.351014688071187,23.86788179122623
3646.699,5.3598442549389524,22.634388599928304
3647.5398,5.364698926591043,26.152327990187455
3648.379,5.363354462127329,27.637956479249667
3649.2202,5.358153692644534,24.236883431271135
3650.0596,5.352972898014084,23.630349668015096
3650.8994,5.350255328768026,28.683386465740682
3651.7412,5.350248260736078,25.372103973781577
3652.5813,5.351473651929324,22.098844423162884
3653.4236,5.351280630034438,29.520707858840918
3654.2642,5.3465140498148385,21.798409623003163
3655.1067,5.334935530327045,35.10059246993511
3655.9475,5.31724598871442,32.40481610138266
3656.7886,5.297927514545742,25.38756431257007
3657.6318,5.284062683575809,24.41514177782053
3658.4734,5.2818981799647275,33.85432493288728
3659.317,5.292716662303965,27.46670860524956
3660.1587,5.3114658923601485,28.986919733980383
3661.003,5.329627747674085,28.711377374061687
3661.845,5.340073563755918,32.28880558870618
3662.6875,5.341413810635246,23.767158415623545
3663.532,5.338114122956057,25.406211433603914
3664.3748,5.3370919634693195,26.77245213771544
3665.2197,5.342250466732454,31.470855132837563
3666.063,5.351011653587308,26.84273031940166
3666.9084,5.356353631478026,22.105929638072233
3667.752,5.3530508965333,24.802368925467146
3668.5977,5.34249704584297,27.580446809479408
3669.4417,5.331043855567602,22.545118978290418
3670.286,5.323461275412836,30.889752824427102
3671.132,5.318591952144761,34.88442891813398
3671.9768,5.311166288837884,22.390048481940696
3672.8235,5.297340564265218,49.100155563654354
3673.6685,5.278228283423044,22.001038762155474
3674.5156,5.257651385358357,30.56048735948279
3675.3608,5.2377229338516,31.620292433405098
3676.2063,5.216177117124381,30.78120614826288
3677.0542,5.188843119661414,23.826492233885087
3677.9,5.154522920387543,31.66507705105297
3678.748,5.117064757466917,24.322260271450187
3679.5945,5.084618631502627,32.97093157970414
3680.4429,5.064892354318077,27.945560708571037
3681.2896,5.061661051735873,32.06630632293766
3682.1365,5.072371592381607,38.43823068581536
3682.9856,5.089044649852653,25.7198016170626
3683.8328,5.101570855239999,20.963353659669593
3684.6824,5.103086713754161,22.378122876407204
3685.53,5.093416916783314,30.17750025659343
3686.38,5.078586030982054,25.47585858796459
3687.2278,5.0668475514877676,32.52658598584363
3688.0762,5.063973092888777,29.195410267510994
3688.9265,5.071311379874584,26.703706542853936
3689.7751,5.086362769064015,23.05864627137034
3690.626,5.105120729333766,36.11279820299351
3691.475,5.1236552734959835,23.946070943534377
3692.3264,5.138934014622289,27.643507012363077
3693.1758,5.148174162447366,32.07276455607622
3694.0254,5.148932428073714,31.08635686769572
3694.8772,5.13948955382304,19.54733036134811
3695.7273,5.120222468429143,24.7072733412241
3696.5793,5.094418414843465,28.885995409437193
3697.43,5.068201655264205,32.8158799392232
3698.2825,5.047861937807227,33.47834953390878
3699.1333,5.037054551969337,34.437390848460204
3699.9841,5.034939564266741,25.222179957294742
3700.8374,5.037891408179259,27.931826497674738
3701.6887,5.042378725707598,31.03334375805263
3702.5425,5.046473561651968,28.06632504966082
3703.3943,5.048892985484607,26.299900786868026
3704.2483,5.047833939262989,23.414141931260353
3705.1003,5.0411913742936685,23.91678511637039
3705.9526,5.027899445341775,32.795830250021325
3706.8074,5.008846589831806,24.272881974096407
3707.66,4.9868322068439515,22.379693110389614
3708.515,4.964756927602046,30.249393701787888
3709.3682,4.944437878121863,30.71572904617909
3710.2234,4.925805469826542,30.875207387496573
3711.0771,4.908444737740948,31.233319018462183
3711.9307,4.89265999439252,27.054812757748618
3712.7866,4.879516935252341,31.40091364447894
3713.6409,4.869884100084597,24.937955421392015
3714.4973,4.863551445865982,33.37927477006835
3715.3518,4.859493490332859,39.943288580970865
3716.2085,4.8558749908514764,29.10196112570887
3717.0635,4.850460430032815,29.3406849040076
3717.9185,4.841832746211477,24.644525327723766
3718.776,4.831101743307347,29.478440210574497
3719.6313,4.822311692009566,39.40757103034939
3720.489,4.820387549103676,34.43285354760278
3721.345,4.828525221444732,34.59307254576697
3722.2031,4.846285648281629,30.941475086436558
3723.0593,4.869055772885959,34.42167737497003
3723.9158,4.889652966137474,36.57405215051922
3724.7747,4.901153752905828,25.690149636676292
3725.6316,4.900130621855444,24.532275192976744
3726.4905,4.888176065215446,29.219060063709755
3727.348,4.870251561682058,35.392678911112974
3728.2073,4.851319876284516,31.923819167938323
3729.065,4.834142749027524,33.121801418245425
3729.9229,4.818733246773592,28.254810530026603
3730.783,4.804054310467848,33.30897413598326
3731.6414,4.790018761665791,35.137634813271625
3732.5017,4.778008524442929,32.896037176422915
3733.3604,4.770321083286682,33.508129483904426
3734.2214,4.768620974675033,30.363309790400805
3735.0803,4.772998154605203,28.953005764454726
3735.9417,4.78125995320261,35.26476479153453
3736.8013,4.78882823205661,30.518519111174875
3737.661,4.790425909572295,23.268161700755645
3738.5227,4.783146576001908,31.14023061240696
3739.3828,4.768982678294866,25.957977344679936
3740.245,4.753550389369912,42.57761773631656
3741.1055,4.741900903646423,31.868260804024054
3741.9683,4.734578557431633,29.73555361520456
3742.829,4.728375698404823,39.02845862823321
3743.69,4.720000752380368,27.624142047608593
3744.5532,4.709043655047556,35.13894396809616
3745.4148,4.697677363854062,28.685670502342763
3746.2786,4.688264750344137,27.095233175577143
3747.1404,4.682182267041062,33.048345553406776
3748.0044,4.679814271259958,30.787019877278702
3748.8667,4.681296949224683,29.113220295499598
3749.729,4.686706422891113,33.25290744633998
3750.5938,4.695952485314805,25.339200768203575
3751.4565,4.7084257545091175,34.2245725187495
3752.3215,4.7231430598469535,31.254278509685474
3753.1848,4.738568876814375,35.864105750571014
3754.0503,4.752708522150541,27.096835168586203
3754.9138,4.762736555479839,38.9594359638446
3755.7776,4.765818818964896,34.09581389902113
3756.6438,4.7602304447989825,38.19622809027237
3757.508,4.7465854578272175,28.844268712748036
3758.3745,4.727674912431228,31.438250133664724
3759.239,4.70747886391147,31.83134861824348
3760.106,4.689236306527047,32.383828068794095
3760.971,4.674778278744169,30.162659852034615
3761.8362,4.664164161950197,33.509596464492056
3762.7036,4.656490658694374,33.03712676388971
3763.5693,4.650480527713412,33.59710679191738
3764.437,4.644552639028444,33.29261221634311
3765.3032,4.6371273544471014,39.43272228299143
3766.1714,4.627132006741697,37.61087510918857
3767.0378,4.614641818607159,41.537530513082174
3767.9043,4.600208923524448,33.082369247155434
3768.7732,4.583642629253479,36.583071238869955
3769.6401,4.5639869371423885,43.08725962770206
3770.5095,4.541004844482142,37.75728181524003
3771.377,4.51766152259436,34.002840937444354
3772.2466,4.4993517040319135,42.56307501715369
3773.1145,4.491158104262559,33.912639365851675
3773.9824,4.494371269781008,36.577993736841556
3774.8528,4.506395089800089,37.291057551106114
3775.721,4.52300929148916,35.76020248408568
3776.5918,4.541310252893974,45.106871710519854
3777.4604,4.559961914133773,37.16517726070418
3778.3315,4.578185924224242,31.90869469780079
3779.201,4.5939679489338525,30.49899426494727
3780.0703,4.6043872287296965,40.362685939197995
3780.942,4.606600153879493,34.75180748378147
3781.8118,4.599156868361716,34.47228164809973
3782.6838,4.5828086507676415,35.89577463200233
3783.554,4.560617557597045,41.208415073350444
3784.4265,4.536614429717625,30.717323226360097
3785.297,4.5146528840562326,36.33124091311494
3786.168,4.497031693560562,34.470500435416405
3787.041,4.484794011240167,34.24446072593291
3787.912,4.478143720707854,32.021321692156704
3788.7856,4.476058028022922,33.633512122091716
3789.6572,4.475965393170542,38.77122411786397
3790.531,4.47409756557421,36.777929889777795
3791.403,4.4669306862414455,34.92336196398608
3792.2754,4.452372859322985,26.997421744860173
3793.15,4.4300794586706,34.80613159361661
3794.0225,4.40175156560044,48.241644450277995
3794.8972,4.370837208503066,41.930479999941745
3795.7703,4.34251197343244,47.79402070895236
3796.6455,4.321591743086582,43.9182821181928
3797.519,4.311162123414792,34.36539098554792
3798.3926,4.311486294955982,41.54041843304787
3799.2686,4.320919307827204,40.18292346977009
3800.1426,4.3369121087662865,42.91631504023718
3801.0188,4.356957895962126,33.12711395594122
3801.8933,4.378559016992459,42.154448126406706
3802.77,4.399612706267226,44.030031147110726
3803.6448,4.418078218708579,37.71279327163765
3804.522,4.432480071794308,41.79706575399554
3805.3972,4.441898192474591,35.66909528508158
3806.2727,4.446557536639425,29.105320107459093
3807.1504,4.4475646440438625,43.71840921975787
3808.0261,4.4465609551533465,33.978468412889896
3808.9043,4.445598482452248,33.15587959957608
3809.7805,4.44719548362661,33.51851367065325
3810.659,4.453803278234953,39.067788021222505
3811.5356,4.466411931049055,28.39722503741404
3812.4126,4.483555963473357,36.647699710248496
3813.2917,4.501722974902141,33.800648234402715
3814.169,4.516917703201262,44.22611902147793
3815.0483,4.526588624718939,34.93452637906116
3815.926,4.52990800795358,34.70532120610638
3816.806,4.527511302501625,36.442374340687586
3817.684,4.520690683699369,36.449824584609
3818.5623,4.510811434023348,34.95912459185727
3819.4429,4.49901679217444,33.62882863435295
3820.3215,4.486134693290346,33.40847656140322
3821.2024,4.471905366407157,34.525862335394535
3822.0815,4.4546736078663995,36.55210394208567
3822.963,4.431575930914504,40.558432141861815
3823.8423,4.400610967202137,36.89467913337645
3824.722,4.3619444961264,44.4656779308497
3825.604,4.317958857405691,45.103419773602326
3826.4841,4.2718718571304874,41.51338163115679
3827.3665,4.225165844341826,38.13868607085167
3828.2468,4.178280554217818,46.97217159392882
3829.1296,4.130980466062823,52.23406706553979
3830.0105,4.084310545591377,40.539939572142934
3830.8916,4.039605990553994,41.61858733663241
3831.7751,3.998170283949738,33.96331605619924
3832.6565,3.9613115817161724,47.9957056483372
3833.5403,3.929743983382793,49.849196710027734
3834.4224,3.904463858037853,53.15322102903117
3835.3064,3.8863685665075964,56.1753869188854
3836.1887,3.876855228471468,49.82538732319646
3837.0713,3.876924013617845,52.026992793814046
3837.956,3.8861203223415157,57.06947951063619
3838.839,3.9019526846123944,57.752034061316415
3839.7244,3.9215597631411954,39.41085907823914
3840.6077,3.9438022110311937,50.87353885312565
3841.4932,3.970549140565687,49.65020116572736
3842.377,4.004653933266597,49.687158463600994
3843.261,4.047339408899617,59.43460178510329
3844.1472,4.096087859250969,43.88401841784184
3845.0315,4.145075611272041,42.258343886020576
3845.9182,4.18929304993447,37.877621422035695
3846.803,4.226812019664371,40.60862644060753
3847.69,4.260047535870351,37.62096290472857
3848.5752,4.292615727034896,45.376202795012816
3849.4604,4.327050049483101,42.82325465456552
3850.3481,4.363534173040744,36.87169334079394
3851.234,4.400192333819357,37.75196516434113
3852.122,4.434680872744152,32.20684057309395
3853.0083,4.463988323890255,38.33466116443007
3853.8967,4.485373422251425,33.442337159923035
3854.7832,4.496414893406465,35.65446849772584
3855.6702,4.496404282493556,33.814486932807476
3856.559,4.487302631746366,33.61980558722382
3857.4463,4.474616280798268,33.73434832825751
3858.336,4.466136351077962,36.609692071142284
3859.2234,4.468544563865879,45.81543564280299
3860.1135,4.483141222569495,40.59061544426547
3861.0015,4.504482104399555,32.97849867879104
3861.8896,4.523805671318192,31.587551439432417
3862.7803,4.534011728183476,34.20533041683034
3863.6687,4.532475675426274,36.03876278291339
3864.5598,4.520370313121315,38.53333235072118
3865.4487,4.500374999556531,44.89600301268569
3866.34,4.475116275636855,37.64286418243371
3867.2297,4.447425607545083,37.41820314441077
3868.1213,4.419577384355044,34.34308307879166
3869.0112,4.392504295254816,40.750228631194
3869.9014,4.364587502404513,38.79979460840452
3870.7937,4.333054168609464,33.94862312291435
3871.684,4.296919825522284,45.11356923963321
3872.577,4.257908035078354,34.25517009198771
3873.4678,4.219504638369296,40.690083399568906
3874.361,4.18289041138902,50.15278436700929
3875.2524,4.145977084389594,38.64369378696225
3876.1438,4.104457327641359,42.76958334762003
3877.0376,4.055504690991199,48.28826030431176
3877.9297,4.00036730840182,48.89061694580671
3878.8237,3.942661930364787,49.06906431048049
3879.716,3.886277526246005,54.513418770218756
3880.6108,3.831906080049539,52.19845906446454
3881.5037,3.777764360971702,49.9979440387536
3882.3965,3.7204154456068563,51.72121645955705
3883.2917,3.6572804860498493,64.95239877039337
3884.185,3.58835270874378,73.55706313487643
3885.0808,3.5148648467189756,62.84882164179706
3885.9746,3.439781187112404,64.09097068226203
3886.8706,3.3659305613111594,47.10028116863189
3887.765,3.297543912774258,67.79081828076552
3888.6592,3.239352325386662,72.51258024461336
3889.556,3.1967188901845947,88.94401543712799
3890.4507,3.1747963547098497,74.49432189245617
3891.348,3.176522028199502,91.2352401064947
3892.243,3.2019586302360494,85.30010037132853
3893.1406,3.2481587246729444,71.6976526238144
3894.0361,3.3095454570163514,66.87125561197028
3894.932,3.38035471108929,51.790428995566266
3895.83,3.455973872526112,58.381449343514376
3896.7263,3.532764921423562,61.83497873465919
3897.625,3.6084763332427516,55.583882335394314
3898.5215,3.6797684664474466,66.74793815752336
3899.4207,3.744265582319681,48.016115810456384
3900.3176,3.800859752783002,46.33062689052679
3901.2148,3.851882352724298,55.074542511056315
3902.1145,3.9010461621916077,50.669716477998385
3903.0122,3.950553826543331,42.58290227372409
3903.912,4.0006160344993065,49.735725629171455
3904.8103,4.049490475797104,42.48825909892833
3905.7107,4.096254637416176,40.23907580688495
3906.6094,4.140940270507291,40.48304521918071
3907.508,4.184714108310083,39.234785449821075
3908.409,4.228519947438816,35.70544125869844
3909.308,4.272266576802564,51.56439851775884
3910.2097,4.315808265480442,37.90530647907186
3911.1091,4.358713803553794,38.72723902660422
3912.011,4.40148850287875,42.64857760070725
3912.9111,4.4444893531791685,40.82627686530871
3913.8113,4.487800346308257,37.67042674630263
3914.7136,4.530125458407939,34.55144041988671
3915.6143,4.568501771045845,35.06098261123415
3916.517,4.6001741522838815,30.05999719265927
3917.4182,4.623777611421719,34.31300919344312
3918.3215,4.6409843741689025,37.64472208633852
3919.223,4.6554695310215255,30.231632582956703
3920.1245,4.671060472281094,37.06389580266992
3921.0286,4.689444074608203,34.386856238743
3921.9307,4.709467517027115,32.043523268415875
3922.835,4.728691736552451,32.13883660250231
3923.7373,4.744761959708999,35.872115840434105
3924.642,4.7566067482439225,30.11463521948752
3925.5452,4.764075006172982,27.32503003287665
3926.448,4.76787132399063,31.539745500670943
3927.3535,4.76940493007938,26.716118407510745
3928.257,4.770683274721579,31.764600603288468
3929.1628,4.773559251513588,34.939839268684864
3930.0667,4.77825475510133,31.88625017191267
3930.9731,4.782370679518142,33.11889400509609
3931.8774,4.781461683656304,31.50700991099481
3932.782,4.771552782317286,27.285429307227364
3933.6887,4.7516312462109624,33.11943117401956
3934.5938,4.724601176290607,36.128238180640246
3935.501,4.695330103834395,31.449113100463663
3936.4062,4.668412098429329,34.8726304767473
3937.3142,4.645761441554954,38.37954382879092
3938.22,4.62677467341163,32.313211336738625
3939.128,4.608754301728528,31.29662344960175
3940.0342,4.588731703418689,33.59378069607409
