wavl,flux,ivar
3566.9744,0.7509925940694733,286.9035708718397
3567.795,0.7488560867552819,301.78630104147
3568.6177,0.7471476003286123,519.8245282163637
3569.4385,0.7459221827480805,301.2580097008268
3570.2617,0.7445494846477053,389.1856053919532
3571.083,0.7424291194917272,352.73925781620557
3571.9065,0.7396897332488281,365.0880410131888
3572.7283,0.7373149306367021,326.53393430312394
3573.55,0.7365234374983917,534.4697032142103
3574.374,0.7380165509811333,577.4345764550604
3575.1963,0.741417153172386,584.0844742940747
3576.0208,0.7453623574353457,353.1698089323548
3576.8435,0.7481965939078719,289.2992659547582
3577.6682,0.7490246083538884,373.0897912427591
3578.4915,0.7481665570781943,451.69363444148246
3579.3145,0.7468005918370704,361.2382422200591
3580.14,0.7460251873159062,287.999953929959
3580.9636,0.7461175572770482,261.7306108739817
3581.7893,0.7464558237522771,391.2957897444645
3582.6133,0.7461267952516399,312.8732506075217
3583.4395,0.7446307171238574,503.4228749545283
3584.264,0.7420829999347455,369.10946510737807
3585.0884,0.7388156575344299,363.1104118170684
3585.915,0.7349958565566078,419.46669023172444
3586.74,0.730773499649324,354.00828190920305
3587.5671,0.7266129286115746,304.0568598805095
3588.3923,0.7234287320048643,450.4077930846506
3589.22,0.7220041185877878,425.7850927907219
3590.0457,0.7224305978986109,462.8129830325998
3590.8716,0.7239511055481453,372.64949062192085
3591.6995,0.7254238716472535,350.7396209758643
3592.526,0.7258718695154867,478.68804496834036
3593.3542,0.7248052063247239,416.2305221634772
3594.181,0.7222507849585547,406.12240946162524
3595.0098,0.718676222023707,403.67197670453214
3595.8367,0.7149475250824072,321.26199434281904
3596.6638,0.7120463097023927,400.6928051975372
3597.4934,0.7107027118569726,346.9072347101432
3598.3208,0.710999381334317,342.29128886727653
3599.1506,0.7122385048796259,355.95512459866796
3599.9788,0.7132474503475399,495.5756483405817
3600.8088,0.7130071838254051,324.28671886264203
3601.6372,0.7112510549325101,334.6487148457383
3602.4678,0.708655947039203,263.65431103452283
3603.2964,0.7064715401390927,443.88112134114834
3604.1252,0.7057433634813534,444.58779851489385
3604.9565,0.7067881380192761,306.6244029183249
3605.786,0.7090943613769392,397.30079817045674
3606.6172,0.7116678017994867,495.9466456874702
3607.447,0.7135070355366155,409.756287971803
3608.2788,0.7141416109339314,306.84466722062683
3609.109,0.7138468991799312,397.42047680152643
3609.9392,0.7133852625408597,439.3351236430242
3610.7717,0.7133485405077464,368.5407093023676
3611.6023,0.7136799830880283,393.5133830180702
3612.435,0.7138104421453124,466.1459856446843
3613.266,0.7132798303083778,373.7809847360276
3614.0994,0.7122545373836713,452.6179340824845
3614.9307,0.7114632122609847,556.6707842503754
3615.7625,0.7115715214614207,427.6170974137748
3616.5962,0.7126153850790727,527.9597730767309
3617.4282,0.7139824616445672,457.6589191245252
3618.2625,0.7150035778323028,380.68238966158293
3619.0947,0.7155079541882191,534.6799268854858
3619.9292,0.7158675383821285,536.6214249394567
3620.762,0.7165045614732941,393.7770473872736
3621.595,0.7174372188104617,332.1751898169759
3622.4302,0.7182336545365506,567.1556781678313
3623.2634,0.7183200489548512,562.4773894215015
3624.0989,0.717334510405616,595.7693605479141
3624.9326,0.7152498493924344,497.5908941332744
3625.7686,0.7122448713087942,493.97746993749143
3626.6028,0.7085798524729705,569.7253283808739
3627.437,0.7045055762195739,340.84432622807867
3628.2734,0.7003350771203642,439.3458279322329
3629.1082,0.6965048926193611,474.7507528545977
3629.945,0.6933890461811799,519.4339327368431
3630.78,0.6911444438456279,428.5758166043603
3631.6174,0.689496613983877,427.89115346889
3632.453,0.6878829702999434,516.8278571877433
3633.2883,0.6857904810435025,304.84184361784065
3634.1262,0.683178763636111,344.3871007392909
3634.9622,0.68060053010586,387.4735606177305
3635.8005,0.6787618024262155,490.0153377759088
3636.637,0.6779549172483308,383.76278196866815
3637.4756,0.6777004300026336,469.0378093321072
3638.3123,0.6770422580182697,384.16088913976375
3639.1492,0.675236338685797,379.33774085394333
3639.9885,0.6723353989644689,376.218444714406
3640.826,0.6692132803713254,556.5384775971219
3641.6653,0.6668750553311406,456.299131341804
3642.5032,0.6657718230582619,503.05749591655
3643.343,0.6655355638840572,675.5339334788227
3644.1812,0.6653505936743638,326.7749207287013
3645.0195,0.664468918890661,440.1461193391824
3645.86,0.6625386124392774,565.5613871405524
3646.699,0.6597349056892704,445.03242517407267
3647.5398,0.6567123413285542,525.6149381254096
3648.379,0.6544738585143228,516.5925583380271
3649.2202,0.6539085531358354,555.5644336330882
3650.0596,0.655269770717554,562.9242390203597
3650.8994,0.6578599881915304,403.038808612237
3651.7412,0.6603418039581972,638.086629186111
3652.5813,0.6615184983494634,382.40516789575895
3653.4236,0.6610675822404936,465.19693034626283
3654.2642,0.6595164015149807,600.228341318602
3655.1067,0.6575928325061469,529.5045653872443
3655.9475,0.6556898624976946,509.3260445615374
3656.7886,0.6539228845709778,366.4400490033885
3657.6318,0.652586492484294,505.41687076706694
3658.4734,0.6522958225693795,632.992668246331
3659.317,0.6536019378528735,365.0575844256828
3660.1587,0.6565207439185348,616.1127327416651
3661.003,0.6604013406694456,495.89134565209577
3661.845,0.6640900341993357,348.5777480685791
3662.6875,0.6664543096577293,460.8206654388645
3663.532,0.6668628152196557,471.32587243958386
3664.3748,0.6655627004186386,579.6846582406323
3665.2197,0.6635733451443018,508.8084539400592
3666.063,0.6620724827315767,757.6272079897415
3666.9084,0.6616113825314978,516.3156718905819
3667.752,0.6618422015349048,442.7767002714178
3668.5977,0.6619454930131312,334.52056439749384
3669.4417,0.6614354148488447,539.7605672273737
3670.286,0.6605768207945106,416.92770271588137
3671.132,0.6600027903621379,576.591143651186
3671.9768,0.6599790890334667,442.66274654462353
3672.8235,0.6601339948388187,348.86473210441073
3673.6685,0.6598927676631298,522.781891292673
3674.5156,0.6589758293293062,534.181582820763
3675.3608,0.6574628730872565,491.387850739116
3676.2063,0.6556040922311963,480.61046242300574
3677.0542,0.6537884473730877,485.3216655564981
3677.9,0.6525655306005014,490.7293625609144
3678.748,0.6523985160755472,502.29794825515734
3679.5945,0.6533733456607702,463.6410887830457
3680.4429,0.6551140111058942,398.40325018636213
3681.2896,0.6569491474209499,525.3180854194396
3682.1365,0.6581194673672632,680.5401978292365
3682.9856,0.6578949125995166,432.56195069322314
3683.8328,0.6558696982663781,625.6332519465901
3684.6824,0.6523544826990972,455.4784552962327
3685.53,0.6484971419476292,423.0484010927754
3686.38,0.6456462610313165,574.4914298297026
3687.2278,0.6445128401720389,518.7239458098461
3688.0762,0.6446687241512851,494.8937001852647
3688.9265,0.645002773999713,590.3935053035273
3689.7751,0.6446396652027313,608.0141714362217
3690.626,0.6435790353326065,577.8292795143047
3691.475,0.6425676180323663,488.2749286587108
3692.3264,0.6424290351144759,476.50397278006835
3693.1758,0.6434968722664893,520.8779607632648
3694.0254,0.6454693240001422,474.5285997179891
3694.8772,0.6476420002184846,524.40903690442
3695.7273,0.6492293014987481,454.13490085666496
3696.5793,0.6496866049398634,384.5622189771173
3697.43,0.6488500534049004,581.578372823123
3698.2825,0.646959693958405,574.4177840434699
3699.1333,0.6445520572119179,449.51760860051496
3699.9841,0.6422303953235341,474.2048121100779
3700.8374,0.6404468475310855,450.74135786699264
3701.6887,0.6393311774911516,562.6573437068023
3702.5425,0.6386165020206528,498.7204472711115
3703.3943,0.6378664883696293,679.5570396337312
3704.2483,0.6368178985708637,542.01434221335
3705.1003,0.6356004243516747,472.3036381740352
3705.9526,0.6345432206966697,468.61757266572846
3706.8074,0.6338252428346826,702.4182010201683
3707.66,0.6333460462040016,683.3580810246722
3708.515,0.6329260073303137,530.7792092180804
3709.3682,0.6325591450554838,548.5434871631841
3710.2234,0.6323196601036175,471.6556315266583
3711.0771,0.6320518508565772,453.58591378714146
3711.9307,0.631299176617477,421.31519047455686
3712.7866,0.6297212459683175,799.061784365142
3713.6409,0.6276126893038025,433.61574123647273
3714.4973,0.6258261731911822,675.1081991416308
3715.3518,0.6251470838866204,515.4858107753506
3716.2085,0.6256577399408407,616.642272578904
3717.0635,0.6267838157625778,475.5001489147304
3717.9185,0.6278555754118053,572.8798517563071
3718.776,0.6285949565783732,575.9319491206085
3719.6313,0.6291524727640151,458.15422817899173
3720.489,0.6298298326380896,547.6002538346175
3721.345,0.6307358858813079,536.2847817177919
3722.2031,0.6316350506418114,665.7721663120603
3723.0593,0.6320206606059222,512.9552339408077
3723.9158,0.6314290085353786,529.8621906464618
3724.7747,0.6297394052472994,713.0188873900174
3725.6316,0.6273250335915682,591.9122465208014
3726.4905,0.6249015512647343,496.7892951557756
3727.348,0.6232390293373279,753.5758565041779
3728.2073,0.6226920476741897,655.288747158505
3729.065,0.6229036154696068,563.4116555885596
3729.9229,0.6229182771398869,551.2397417528111
3730.783,0.6217894281470634,477.4187246481946
3731.6414,0.6192368459043189,410.1779413627851
3732.5017,0.6157811509812318,584.5239450339308
3733.3604,0.6123746331552419,575.1575287429516
3734.2214,0.6097953244484314,646.8408636294022
3735.0803,0.6084196804469293,666.2687526446784
3735.9417,0.6082290722718131,455.182311331402
3736.8013,0.6090376884245197,495.57045346697
3737.661,0.6106133966962244,504.77301935478215
3738.5227,0.6126742993164194,587.0430380576194
3739.3828,0.6147737727608232,479.0792359782879
3740.245,0.6163286906946798,456.74279615381045
3741.1055,0.6167470141621687,447.7795352401775
3741.9683,0.6156591228721069,730.195640128011
3742.829,0.6130387032129758,476.8710024291783
3743.69,0.6092558731937231,605.0228782376415
3744.5532,0.6051114489086613,642.487987384625
3745.4148,0.6017348506850639,607.533488666402
3746.2786,0.6000223530655504,670.8529735015742
3747.1404,0.6001281869583831,625.7237156944964
3748.0044,0.6014203650514666,544.306872212263
3748.8667,0.6031615693210837,514.8524836587167
3749.729,0.6051841926006939,954.1549884997928
3750.5938,0.6077874827542953,657.4384408457023
3751.4565,0.6110069331544145,643.6894272567026
3752.3215,0.6142207040553018,500.64980608407205
3753.1848,0.6164264230753033,744.0623344197431
3754.0503,0.6170328229984094,502.94505293340694
3754.9138,0.6162551143721469,640.060281054974
3755.7776,0.6149040369733514,696.8707484412421
3756.6438,0.6137592508358757,656.3760644001829
3757.508,0.6131142586104177,432.13441687694865
3758.3745,0.612752343094751,467.7246866964405
3759.239,0.6123103960409445,501.2716165353108
3760.106,0.6116033649063514,605.5029267572204
3760.971,0.610697850813975,599.7602855981883
3761.8362,0.6097324687826112,765.6214842193616
3762.7036,0.6087583059616073,515.4000130376972
3763.5693,0.6077459088694458,588.993030464159
3764.437,0.6066721058509654,594.6890487804225
3765.3032,0.6055755746732722,490.59847221361287
3766.1714,0.6044643780409474,505.68530708087275
3767.0378,0.6032544269247655,673.6216517754691
3767.9043,0.6017900543845286,648.4509174964114
3768.7732,0.5999936190164434,542.8106902457794
3769.6401,0.5980090503378289,556.7823490531767
3770.5095,0.5961235470810624,710.7270045891449
3771.377,0.5945765414533151,709.4628140874082
3772.2466,0.5933189479254165,658.191999032093
3773.1145,0.5920930342799137,583.8929157799608
3773.9824,0.5906787669956951,516.8578541792577
3774.8528,0.589075788420969,623.5653824616306
3775.721,0.5873992259687546,651.063601452215
3776.5918,0.5856255577121136,511.9884462774436
3777.4604,0.5836553450007407,644.019413244922
3778.3315,0.5815577792416136,636.7050200236608
3779.201,0.5797788769735295,539.8391894904346
3780.0703,0.5788938277452312,619.6383810344328
3780.942,0.5792229030474911,751.4427489624053
3781.8118,0.580612367124049,470.66011233227454
3782.6838,0.5825942967174841,741.2684370451486
3783.554,0.5847058678877366,618.3044355155093
3784.4265,0.5867590288501474,547.9098468446279
3785.297,0.5887785754978155,585.9944060014375
3786.168,0.5908418640224116,550.1434200426647
3787.041,0.5928923677155689,495.37378102488435
3787.912,0.5947019199349665,556.8851311037345
3788.7856,0.5959949492933997,669.4834244851191
3789.6572,0.5965287001819205,655.2120219693793
3790.531,0.5961943018269151,557.4513183902577
3791.403,0.5950482631190022,645.3325023717379
3792.2754,0.5933153319173192,701.4508267529593
3793.15,0.5913126727731188,769.5025491589272
3794.0225,0.5893152063277466,637.4381992061273
3794.8972,0.5873910546947104,660.7395487135844
3795.7703,0.5854767502724066,584.606910894646
3796.6455,0.5835457209230618,576.41166250794
3797.519,0.581826533048795,745.90841687102
3798.3926,0.5807664418164603,511.1369420149655
3799.2686,0.5808485056993715,684.8175622490587
3800.1426,0.5822929079959085,618.0687764842855
3801.0188,0.5848176243002512,597.1759145202104
3801.8933,0.5875736527791604,610.5576475437961
3802.77,0.589449623003828,431.92297325051436
3803.6448,0.589518222271258,621.7853173119782
3804.522,0.5874664266000488,501.578342938624
3805.3972,0.5836636110757542,701.5017956572077
3806.2727,0.5788767042542471,576.789697252406
3807.1504,0.5739738244774764,517.6685521464146
3808.0261,0.5698325113981093,792.4017532309292
3808.9043,0.5671928413806001,583.6500379324782
3809.7805,0.5665173961224845,659.7288535642325
3810.659,0.5676701497479599,789.5709718495061
3811.5356,0.5699253012229799,612.6012938366434
3812.4126,0.5723278133450276,679.7290990143357
3813.2917,0.5741298006910026,637.1483770750639
3814.169,0.5750005726583716,573.7470690900113
3815.0483,0.5750039059098901,594.3630957275581
3815.926,0.5743932754464923,934.7052848237191
3816.806,0.573438041958644,768.3232863509323
3817.684,0.572364976991509,753.641482823631
3818.5623,0.5713880899165656,805.8689882286632
3819.4429,0.5707502455149612,840.582258122116
3820.3215,0.5706482439574927,863.166157659108
3821.2024,0.5710809832828181,748.5933408161126
3822.0815,0.5718104007284472,524.5066178766494
3822.963,0.5724850040296536,717.8814841414461
3823.8423,0.5727883744926509,632.7228104952167
3824.722,0.5725166666555666,594.4228962635965
3825.604,0.5715636003859762,790.2737325141072
3826.4841,0.5699526756038736,790.7320002574188
3827.3665,0.567849709660479,602.064213668905
3828.2468,0.5655283468373496,800.7397467630494
3829.1296,0.5631653780075658,759.906468859909
3830.0105,0.5607973763873293,606.211322279792
3830.8916,0.5584225296466052,706.1376435697084
3831.7751,0.5562347119138629,595.9218062211546
3832.6565,0.5546182710709749,775.8150840592998
3833.5403,0.5538305213352425,968.3165809032851
3834.4224,0.5538337593943212,730.7264373214612
3835.3064,0.5544106836355421,804.8543587334664
3836.1887,0.5554357281091664,532.7572792204448
3837.0713,0.5569169210649074,576.6649724684614
3837.956,0.5587558756102904,728.6293405264356
3838.839,0.5605265976047369,635.8974728350187
3839.7244,0.5616072710743534,515.2172173134564
3840.6077,0.5615247970130618,769.7041643709562
3841.4932,0.5603324920429836,529.956585339679
3842.377,0.5587058245755776,768.4078444155178
3843.261,0.557667484636053,894.0027184161024
3844.1472,0.5581177476788743,690.1549667061065
3845.0315,0.5603900127803587,1027.9536100844712
3845.9182,0.5641118070243847,529.9203267270921
3846.803,0.5683440242792019,772.2370363407052
3847.69,0.5720547149391214,666.0810129193062
3848.5752,0.5744837325525487,569.0639681322284
3849.4604,0.5754503981536133,800.4897206068916
3850.3481,0.5752847344566121,654.6541938772432
3851.234,0.5745737921848002,708.2488730279966
3852.122,0.5738227507283223,674.9706999478278
3853.0083,0.5732544999598069,634.724225971748
3853.8967,0.5728162805866281,617.3387258242204
3854.7832,0.5723595022112924,629.5067023615336
3855.6702,0.5717549204001597,680.8351517376408
3856.559,0.5708638581008361,727.2682359842656
3857.4463,0.5694770098220702,541.0249052737369
3858.336,0.567404965077646,634.0898456956204
3859.2234,0.564778745699931,588.9750460459863
3860.1135,0.5621455772734375,818.4537823621639
3861.0015,0.5602850652573814,724.3443465019471
3861.8896,0.5597035538198716,779.0770896645594
3862.7803,0.5603833987231471,706.9294845244201
3863.6687,0.5618460457275238,658.4664864635353
3864.5598,0.5634654867548903,598.7964877224871
3865.4487,0.5646842226694503,791.0806845126752
3866.34,0.565130119930105,544.592775012693
3867.2297,0.5646124241506456,551.71503576072
3868.1213,0.5631553987161058,640.9785007149926
3869.0112,0.5609994423784846,688.410747314367
3869.9014,0.5584650872841761,660.4305339729178
3870.7937,0.5557442988829887,727.6651979585822
3871.684,0.5527719301880646,719.8310870264949
3872.577,0.5492834483424909,595.7092835752651
3873.4678,0.5452440532119699,605.7188961680603
3874.361,0.5411127896071273,913.9958632930858
3875.2524,0.537828604197744,825.3185546824769
3876.1438,0.5361952176782844,735.2469202131915
3877.0376,0.536353937185983,862.0831167748961
3877.9297,0.5376558232746548,600.5178691235394
3878.8237,0.5390655826811841,563.4958765941664
3879.716,0.5397135359263903,735.9025946342114
3880.6108,0.5392679216591828,583.440517674516
3881.5037,0.5379629659502627,985.8789099436796
3882.3965,0.5363715430874882,805.0061056366891
3883.2917,0.5350483283172417,616.5678885760838
3884.185,0.5342356504627775,787.9309825553643
3885.0808,0.5337541806566137,863.2339166584638
3885.9746,0.5332108632896839,866.6373122048773
3886.8706,0.532319815889753,793.8758947436954
3887.765,0.5311383689599203,716.2420403356562
3888.6592,0.5299875670505791,694.5514171404677
3889.556,0.5291813480613948,855.891969627605
3890.4507,0.5288397378187298,640.1042152101932
3891.348,0.5289636377822194,662.6947652190412
3892.243,0.5296646414027549,690.9425549032051
3893.1406,0.5311999650353285,891.7980730199832
3894.0361,0.5337028710868734,859.4579078438909
3894.932,0.5369645126475949,670.2065353759017
3895.83,0.5404750153483807,677.4149763354524
3896.7263,0.5436324306255766,718.7201198872609
3897.625,0.5459614424078848,678.9491144359778
3898.5215,0.5471089968215965,688.9100383395402
3899.4207,0.5470019389283381,596.1555738495489
3900.3176,0.5459715286601198,837.2927782041842
3901.2148,0.544683350852048,709.6312199868714
3902.1145,0.5437993879228508,767.6517545254718
3903.0122,0.5437120094239196,793.3457038498492
3903.912,0.5445558338353185,795.0943308845483
3904.8103,0.5463794138483394,746.8431435511095
3905.7107,0.5491938469860642,684.552495941894
3906.6094,0.5527911975905754,708.1973881204032
3907.508,0.5566450496534362,668.7312800944851
3908.409,0.5599927641847939,472.18445378669213
3909.308,0.5621643918195977,613.0172140096761
3910.2097,0.5629893799770316,759.7147669900274
3911.1091,0.562810444479494,676.7248355381547
3912.011,0.5622405254226924,693.2892070206825
3912.9111,0.5618797901047807,854.7556228644335
3913.8113,0.5621888737169926,603.1501633367179
3914.7136,0.5634286382312519,647.2872010344195
3915.6143,0.565527971384823,706.2898329039297
3916.517,0.5680543473667135,613.6325994087196
3917.4182,0.5703471561947278,588.6652592826372
3918.3215,0.5718666371142023,657.4005288911867
3919.223,0.5723843433629108,585.4479963485785
3920.1245,0.572015916409439,615.0381362196215
3921.0286,0.57105465729376,645.023869496145
3921.9307,0.5698279769748331,581.9001201590227
3922.835,0.568586236149098,593.4346749538215
3923.7373,0.5674989687007905,708.1521283419199
3924.642,0.566654969152521,630.0414109025282
3925.5452,0.5661268067054376,775.8013853073309
3926.448,0.5660137253311018,671.340023523793
3927.3535,0.5664854012369022,676.8688730796288
3928.257,0.5676949029032928,733.6596042592936
3929.1628,0.5695603786121979,614.1857573490589
3930.0667,0.5715271278634211,648.9151817405784
3930.9731,0.5726688990812251,594.7199984245651
3931.8774,0.5720976319483912,591.194050395938
3932.782,0.5695054747666454,604.8258195317536
3933.6887,0.5653283397611253,586.3738134650707
3934.5938,0.5605187141289064,730.1568066260008
3935.501,0.5559744451438171,598.7016358558733
3936.4062,0.552225481642814,970.1726661393427
