wavl,flux,ivar
3566.9744,4.753713873714941,3.971751269886636
3567.795,4.753068153997507,4.642289803411009
3568.6177,4.750571254220214,2.710286054301463
3569.4385,4.742271188153598,4.641403467020726
3570.2617,4.722642166971442,3.495271069407772
3571.083,4.6899413006797825,2.8152015082707336
3571.9065,4.648503399735787,3.2409156498677785
3572.7283,4.607386335543247,4.025455999291917
3573.55,4.574477237512293,4.745657466210773
3574.374,4.552655442753458,3.857804075608234
3575.1963,4.540139908401,4.1095244958042745
3576.0208,4.533643349909456,3.3132822165153057
3576.8435,4.531400296238653,3.7870363823715256
3577.6682,4.532756369689579,4.211784219708164
3578.4915,4.5361719218161305,3.6272920891952083
3579.3145,4.538153430879919,3.870779937264449
3580.14,4.534647645088374,3.737911791485584
3580.9636,4.524045719481668,3.999737619762007
3581.7893,4.509115646986469,4.1638957573448465
3582.6133,4.496128963000363,3.1417680764409455
3583.4395,4.490974361186146,5.029461991294975
3584.264,4.495855666764692,4.9319660271302075
3585.0884,4.5084735737297805,3.766757497941327
3585.915,4.52402172379057,4.1166812385922835
3586.74,4.537197878506968,4.441575985243382
3587.5671,4.543771632783585,4.200052496562185
3588.3923,4.5414887003721764,5.462062549405085
3589.22,4.5315335625460875,4.296194674610387
3590.0457,4.519026714617383,6.8473873500985105
3590.8716,4.51087281780496,3.4287836047168714
3591.6995,4.51173681374056,4.20954246576375
3592.526,4.520399790729837,3.0390950275060105
3593.3542,4.5298951332157396,4.677364778405237
3594.181,4.531816240185857,5.007933098736242
3595.0098,4.521852929743209,4.462294022255243
3595.8367,4.501840357255501,3.991784336898206
3596.6638,4.476857411028691,3.823934148375688
3597.4934,4.4506204007149,5.610519922724666
3598.3208,4.423299149040961,6.390008367633462
3599.1506,4.392141410279398,4.80552044418595
3599.9788,4.355471122895008,4.6903076682894405
3600.8088,4.3153984777033445,3.5221348113764965
3601.6372,4.279690648047951,4.036300095418129
3602.4678,4.258688735472153,5.069863556484546
3603.2964,4.260204636663158,7.14765785597741
3604.1252,4.283976874423014,6.06778301668752
3604.9565,4.3217260244909355,4.111497490299996
3605.786,4.361394149673765,5.232599118684085
3606.6172,4.393572560587238,4.698813897256572
3607.447,4.413677490773271,5.112401842468476
3608.2788,4.421952777326097,4.831389046888441
3609.109,4.421033101264651,6.3833755261787175
3609.9392,4.413939955659042,3.751878833760186
3610.7717,4.402772938184877,4.246166964137073
3611.6023,4.389177643871287,4.307414601980331
3612.435,4.375207281439072,4.111049440263886
3613.266,4.364250868397923,5.099264459898678
3614.0994,4.361628880418694,3.8772707784630027
3614.9307,4.377160565110475,4.117035615877649
3615.7625,4.427727511471601,4.660383947888548
3616.5962,4.534455940570816,5.442463743324365
3617.4282,4.7068992401529135,4.422282270919187
3618.2625,4.923316315549766,4.676343441674481
3619.0947,5.118591156157132,3.38414210836053
3619.9292,5.211890116580502,3.438573456283274
3620.762,5.153587662460587,5.505028147059999
3621.595,4.963012007552911,4.998904100755416
3622.4302,4.71385546950375,4.5433759344442715
3623.2634,4.487444789957907,5.567592833082479
3624.0989,4.326924282498898,4.783145139013974
3624.9326,4.236042487836927,4.790376171297326
3625.7686,4.196597515092464,5.396798622468247
3626.6028,4.189766825968243,4.108824084751839
3627.437,4.20086742477805,5.4540684282871315
3628.2734,4.217314034886123,5.646089376361782
3629.1082,4.22752719317767,5.389563909252595
3629.945,4.225234847311593,5.7025661143005735
3630.78,4.213485835457146,4.827632491370254
3631.6174,4.2030644396895855,6.197019380032469
3632.453,4.205301535720434,5.224196583586089
3633.2883,4.224520542336187,4.694726618311952
3634.1262,4.2565364792515,5.769817603636868
3634.9622,4.292507332347422,10.287862482410683
3635.8005,4.325677952714454,4.550123547926461
3636.637,4.35398878022715,3.7587170178320086
3637.4756,4.379451628312629,5.101602702532314
3638.3123,4.403472740970755,4.487236887597912
3639.1492,4.423929350688935,4.447971330513799
3639.9885,4.434938807100654,8.181931572261018
3640.826,4.430498607040232,4.013994072528226
3641.6653,4.409343522711229,3.6126571554369544
3642.5032,4.376838986248913,6.237631865947252
3643.343,4.3416994769082065,4.747652840931913
3644.1812,4.31121368582066,4.790214140887011
3645.0195,4.288121225371063,5.331031019203887
3645.86,4.272651284527189,4.2987253021567655
3646.699,4.265419880341858,3.797343315442925
3647.5398,4.267326464950834,5.431113185580718
3648.379,4.277255046692767,4.658241187398646
3649.2202,4.2907575957767925,3.9380827331874224
3650.0596,4.301928561416931,4.4422659577024115
3650.8994,4.307233172439294,4.041947429940651
3651.7412,4.30697551505369,3.652861580665984
3652.5813,4.303739969816615,6.326745205142977
3653.4236,4.299614777382789,3.1543189770280353
3654.2642,4.295007907265755,4.6044486475304325
3655.1067,4.289089831244119,5.0204130967997
3655.9475,4.280602134396365,5.378167978849063
3656.7886,4.2680357073248585,4.739003046121978
3657.6318,4.250108912888462,4.943074152590736
3658.4734,4.226877109187615,6.001098793205705
3659.317,4.19998751263486,3.998081132630924
3660.1587,4.172658370397262,5.596594111931996
3661.003,4.148450981378161,5.809914360688861
3661.845,4.131359952343575,5.61377709549583
3662.6875,4.124884305695399,4.695399844786582
3663.532,4.130959575047538,5.757242708365924
3664.3748,4.147804188914605,6.625356133134244
3665.2197,4.169204060841615,5.902314103044687
3666.063,4.18591027226143,2.916929632679734
3666.9084,4.1898127809341315,4.251639728425113
3667.752,4.17784250215502,5.4521936212371855
3668.5977,4.153796059935104,8.018865088286828
3669.4417,4.126637733413266,5.947156656268552
3670.286,4.105701961285967,5.421332102674049
3671.132,4.096589670478258,5.374875702054647
3671.9768,4.099468712856055,6.8478252481451385
3672.8235,4.110477347973359,6.354183177102429
3673.6685,4.124771609089502,5.249031005976297
3674.5156,4.138771122005332,7.26451177386654
3675.3608,4.149987893602605,5.619150415205672
3676.2063,4.156623188361065,4.135916170997151
3677.0542,4.157803013318409,3.8593817540940885
3677.9,4.154719383801306,7.2424559015942584
3678.748,4.150557010578444,8.830169141240933
3679.5945,4.1485066906007955,4.392405495353024
3680.4429,4.149353513848268,6.7677300471931305
3681.2896,4.151129127499152,5.352780119951291
3682.1365,4.1511127174000215,5.306955122622497
3682.9856,4.1480112282484605,3.8387676344916506
3683.8328,4.142026614767004,5.630558918881901
3684.6824,4.132863614095175,6.526135153453794
3685.53,4.118663723501072,4.1185687806233355
3686.38,4.097262255108663,8.426328759589108
3687.2278,4.069454892084569,6.225573270796978
3688.0762,4.040252494821011,3.5319733762779593
3688.9265,4.017770473391333,7.180703398356427
3689.7751,4.009940232271092,5.914322769815495
3690.626,4.020690656223114,6.989223178102313
3691.475,4.047962203837568,5.016898956658168
3692.3264,4.084277443149149,3.5935977427263257
3693.1758,4.119130797215916,4.630454866852565
3694.0254,4.143435362340007,5.2877846692343535
3694.8772,4.152117923041751,5.4118436759694735
3695.7273,4.145236912765941,4.387664447435173
3696.5793,4.127364283575415,5.21529836227203
3697.43,4.105499267176596,4.544352672535333
3698.2825,4.085605489394292,5.345264801381713
3699.1333,4.070181036837683,5.35390961648346
3699.9841,4.05822821074947,4.886798401490535
3700.8374,4.048757750900053,5.377761747611498
3701.6887,4.043599118163424,4.726052137812951
3702.5425,4.045848058975794,3.988373161478359
3703.3943,4.055666690078789,6.146233248830778
3704.2483,4.068007176500613,6.509218686999198
3705.1003,4.074562029951491,4.916434027468772
3705.9526,4.06843565003598,5.536346086760214
3706.8074,4.047725794219168,4.693116604017744
3707.66,4.017308926932204,5.007095099692578
3708.515,3.986652505567913,4.400334084986258
3709.3682,3.965258787421889,4.77743543166935
3710.2234,3.956412800768673,5.601992956831527
3711.0771,3.9557225468454233,4.748374814254618
3711.9307,3.954984859331468,3.6629859141053904
3712.7866,3.9488141076780443,6.711849753543418
3713.6409,3.938197784673836,5.279945826173503
3714.4973,3.9281883841885663,5.602008116055133
3715.3518,3.9225648463322913,8.361970012547895
3716.2085,3.920064612096974,5.364224266273231
3717.0635,3.915811403911359,6.002711273245279
3717.9185,3.9057496340020665,7.945559067419326
3718.776,3.8899246054174177,6.472810072160241
3719.6313,3.8723067380608036,6.091489036976731
3720.489,3.8576234627179744,4.1603214187980235
3721.345,3.848966588201124,5.864674383568366
3722.2031,3.846743577534638,6.0968369608776385
3723.0593,3.8497592738973196,6.141330664583511
3723.9158,3.8565289555275086,5.477128382855456
3724.7747,3.8658687396326505,7.0273139142076815
3725.6316,3.8763692342243785,4.472388197172568
3726.4905,3.886320112091634,5.912335679919639
3727.348,3.89414116000497,8.379865339047372
3728.2073,3.8992131450386234,4.939472029898456
3729.065,3.901536528257304,6.295242209587464
3729.9229,3.9009348630313867,4.978425547716862
3730.783,3.8965616994946353,5.473401364444531
3731.6414,3.8876855801885175,4.070473766274286
3732.5017,3.8750197425401773,7.427037585745497
3733.3604,3.8615672653824524,6.1204860526314615
3734.2214,3.851265906942249,10.296329259250873
3735.0803,3.846677160714375,5.32434696549587
3735.9417,3.846945121098207,5.740086087639154
3736.8013,3.8483397775114216,4.530484309540787
3737.661,3.846548129686872,8.447617319625635
3738.5227,3.839023179372814,4.1002840001020715
3739.3828,3.82608244081909,4.233312842224941
3740.245,3.8102168961839604,4.431510393620164
3741.1055,3.7946327328583487,6.852202749448032
3741.9683,3.781005280102252,6.942859471852668
3742.829,3.7687511144955463,6.242758033619611
3743.69,3.755625292219339,6.537154271723089
3744.5532,3.739922681469546,7.602017343901094
3745.4148,3.7222908709384916,5.615175249806601
3746.2786,3.7056221421750504,7.35992556031184
3747.1404,3.694230735294875,6.998741597583941
3748.0044,3.6918720681191,5.5100244054206975
3748.8667,3.700073007724426,5.893872157521139
3749.729,3.7165722059312585,6.66592567064862
3750.5938,3.7352365287262055,6.846105963634891
3751.4565,3.7476781845916753,5.875268561402245
3752.3215,3.7471271012310488,5.0268464726067235
3753.1848,3.731678486944485,5.351222420119058
3754.0503,3.7051509950517865,4.73839581530848
3754.9138,3.675181440841116,6.522365215616857
3755.7776,3.6496889165009256,5.739402980139803
3756.6438,3.6351073036500994,7.241897783352591
3757.508,3.635409268272615,7.341660609171793
3758.3745,3.6507904032781098,7.618210896945879
3759.239,3.6770063456710043,7.084209506058329
3760.106,3.7068391959871625,6.171357389281434
3760.971,3.732425188183025,4.860100309373286
3761.8362,3.748231615241751,6.215361840802108
3762.7036,3.7519403094917525,6.1160749005168356
3763.5693,3.744816998963526,5.6540403116768525
3764.437,3.731048180880738,6.160065603694695
3765.3032,3.715580300304014,7.511398693681786
3766.1714,3.701015385577807,5.775824467253563
3767.0378,3.6867321198147525,7.329583553393482
3767.9043,3.6707906836371222,5.703279504398332
3768.7732,3.6534294279306945,6.6539071409676716
3769.6401,3.6385002756261127,7.593313597175332
3770.5095,3.630906803759263,7.734540047639518
3771.377,3.6331376878964905,6.702949346037354
3772.2466,3.6432941268888186,5.975933394737329
3773.1145,3.656224095716859,5.510363559812845
3773.9824,3.6661827392052637,5.222830489931427
3774.8528,3.668808240502251,6.466851099454398
3775.721,3.6623472358605595,7.922602697754737
3776.5918,3.64842028104441,8.854261768620963
3777.4604,3.6320169720525484,8.059680380394294
3778.3315,3.6193013054006355,6.654747980729741
3779.201,3.6144378328804745,4.637011540628469
3780.0703,3.6165500225493044,5.094544747127756
3780.942,3.6200410107205077,5.975053287463856
3781.8118,3.6180376570700625,10.629120372753608
3782.6838,3.6070260265283545,5.427372696715036
3783.554,3.5892467527293204,5.700630355131837
3784.4265,3.5706770920682143,7.703817791005517
3785.297,3.5569034154047285,7.633833045766474
3786.168,3.549536199852829,6.705844477286216
3787.041,3.5466834617336707,6.863811183311623
3787.912,3.5456299261737043,7.035941043714361
3788.7856,3.5448920449887478,6.5897828068840525
3789.6572,3.543983725831632,9.012476146906915
3790.531,3.541886496523424,6.430753802695539
3791.403,3.5367032953327984,6.519325568729115
3792.2754,3.5270992629744673,5.911343933669743
3793.15,3.513820620827403,7.15559266997368
3794.0225,3.4994912932750406,7.592574133913234
3794.8972,3.486419171660884,6.371962263082091
3795.7703,3.4752860782008783,7.801613035610636
3796.6455,3.465238229371765,6.311953263072091
3797.519,3.4557066266726246,5.458116391496615
3798.3926,3.447288720163419,8.489787957950782
3799.2686,3.441145285410392,7.932924797462516
3800.1426,3.437472704303703,7.951003402880426
3801.0188,3.4348798192514503,9.753398765753472
3801.8933,3.4318525751764497,7.370543056955786
3802.77,3.4286642706546644,8.035450198776989
3803.6448,3.427848174296265,6.2266125964052765
3804.522,3.432317403786624,7.710799215497866
3805.3972,3.4427352558682442,6.5299570787867385
3806.2727,3.4564673007283595,4.926603737599169
3807.1504,3.468767054266859,7.003421266068941
3808.0261,3.4749551054289958,7.986369480148483
3808.9043,3.4724039275063996,6.6208433573985825
3809.7805,3.461295697158542,8.203231236781289
3810.659,3.444542778366319,10.912133143364523
3811.5356,3.426877681303091,7.426338859907842
3812.4126,3.412577509141734,5.617571522576659
3813.2917,3.4035689388951815,8.00729882205781
3814.169,3.3988397830309944,8.012614144214076
3815.0483,3.3955921888716776,7.506968611325998
3815.926,3.3915259472564085,11.292701710411372
3816.806,3.3860721997720846,7.951729985684833
3817.684,3.3801701434135247,7.711257384360109
3818.5623,3.3751534927545777,7.517069984288883
3819.4429,3.3722508247768803,7.039422169344066
3820.3215,3.3725571120412843,8.124856633178325
3821.2024,3.3766345809738936,7.184806082010924
3822.0815,3.38378072967251,7.825160187599009
3822.963,3.391838460274553,6.68809984951997
3823.8423,3.3977462167666976,6.729829918094794
3824.722,3.3987774585859176,6.497346361954343
3825.604,3.393427955680337,7.959736298236171
3826.4841,3.382127798246396,6.812967148895645
3827.3665,3.3670929373673744,9.108394812675865
3828.2468,3.351585979329238,8.261910220703962
3829.1296,3.3381919649717786,7.590218401294272
3830.0105,3.3280201290545586,9.616228500859197
3830.8916,3.320409461394695,6.095271333883059
3831.7751,3.3138051996038618,6.3949287944946045
3832.6565,3.306820458125538,8.262234201310582
3833.5403,3.299102301172417,6.691431123666672
3834.4224,3.291942192483274,8.514872521298729
3835.3064,3.287343137179851,11.615239863577024
3836.1887,3.28611160097709,15.297350015456296
3837.0713,3.2862166579910648,7.506255928307843
3837.956,3.283643437008487,9.839787408338092
3838.839,3.2754517869273516,7.349655496114912
3839.7244,3.262374426311895,7.778501115731188
3840.6077,3.2485898227027303,8.849814049101063
3841.4932,3.238273373687711,6.633624894420751
3842.377,3.2325936148172754,7.440050746302328
3843.261,3.229188635858735,10.246424281587625
3844.1472,3.224997159103328,10.086266383040657
3845.0315,3.2197725920128226,8.530560794292029
3845.9182,3.217293897421948,9.905221475142815
3846.803,3.223035522678722,7.716743002366311
3847.69,3.2395680696145757,9.655003958962485
3848.5752,3.2632491561263364,7.150332697571996
3849.4604,3.2854058430161452,8.535172740877695
3850.3481,3.2968538832793173,5.4081580008278225
3851.234,3.292811413971609,7.158834388716538
3852.122,3.2751239729974024,8.369232902426521
3853.0083,3.250392059683383,7.633023301434354
3853.8967,3.225421806439421,12.256195972851051
3854.7832,3.2043233606953527,7.794049504589443
3855.6702,3.188048832240702,8.112208690888826
3856.559,3.176983751064328,7.5386379733441675
3857.4463,3.1726823603716583,9.17686702875353
3858.336,3.1769064007345538,8.364956112761643
3859.2234,3.189243101372137,8.58855959860376
3860.1135,3.205910055863619,9.138065736431699
3861.0015,3.22085206383633,8.428178974862083
3861.8896,3.228902782967818,8.573068501739899
3862.7803,3.2277624967354965,5.992613221842068
3863.6687,3.2184743539869975,11.673590016381139
3864.5598,3.2045591657072827,6.872729362552018
3865.4487,3.191047701459655,7.8877682408331955
3866.34,3.182535131575202,10.73966064993541
3867.2297,3.1809560941498924,6.498624747865848
3868.1213,3.1837209581304298,7.753260666846684
3869.0112,3.1848536985550684,6.912204789250763
3869.9014,3.178570747495227,5.952761110779994
3870.7937,3.162462258221373,8.014825348480219
3871.684,3.138500814621646,8.260793386731107
3872.577,3.1114751076743916,8.137177838080264
3873.4678,3.0875058740630283,9.034857816725628
3874.361,3.0716756708045097,11.848475994314486
3875.2524,3.066602086233002,10.295077600249073
3876.1438,3.0708372840331375,6.382030287545792
3877.0376,3.0792511449259994,8.650094419518144
3877.9297,3.085008124755784,10.417557215410291
3878.8237,3.0829765386934223,8.653782142168373
3879.716,3.072088179457648,7.434375005897633
3880.6108,3.054965910909842,9.219612347741197
3881.5037,3.0355306166755986,10.198275212622239
3882.3965,3.0163858449246557,8.398860242538737
3883.2917,2.9985750747535893,11.014363646487048
3884.185,2.982737786813121,10.486884536697413
3885.0808,2.9694557330037266,9.221432735034565
3885.9746,2.959241174789131,7.6395542876815785
3886.8706,2.951592566885952,9.840587384999308
3887.765,2.9447944794866725,14.200178864342188
3888.6592,2.936115021143659,8.08530447988861
3889.556,2.9231886748890474,8.138578951824872
3890.4507,2.9061474176236235,10.882635659175122
3891.348,2.8885561692331994,9.101811413275785
3892.243,2.876547858981785,11.703557962889368
3893.1406,2.875241304230244,8.52067792526148
3894.0361,2.8857559800674046,10.142917076140495
3894.932,2.9044776771970744,11.26253146986633
3895.83,2.9253954035664336,8.687702372141697
3896.7263,2.94308723414925,9.124244200740534
3897.625,2.9550519616272286,15.474147687805177
3898.5215,2.9616234732767293,8.408287045848855
3899.4207,2.9654649679662572,10.053365164442214
3900.3176,2.970169432645893,7.51408529868096
3901.2148,2.978696317301678,16.06249657227799
3902.1145,2.9919858370612813,6.713642267437409
3903.0122,3.008636793974607,8.231217435221133
3903.912,3.0259363205582392,9.29152651821212
3904.8103,3.0404916857090765,10.750439993445756
3905.7107,3.0496013248985325,9.08043143997228
3906.6094,3.052778254413681,11.077432603194262
3907.508,3.053104658884312,10.287551140870896
3908.409,3.055747238443281,13.742258428237244
3909.308,3.064272576454826,9.006083055043346
3910.2097,3.0780261093847474,7.871483571876215
3911.1091,3.0928937986053344,7.911748820588801
3912.011,3.1049109502321794,9.437273738945823
3912.9111,3.1123998191606157,7.637522982035884
3913.8113,3.1158866599378854,10.300707250631776
3914.7136,3.116304362145415,8.921821015843243
3915.6143,3.1141109576231707,8.209137283522733
3916.517,3.1097987264491183,7.453846458286802
3917.4182,3.1047927276251506,9.837616175937619
3918.3215,3.101253587506104,8.167187652336818
3919.223,3.100777757581511,12.336974282295552
3920.1245,3.102903052932095,9.194086940949028
3921.0286,3.1051180843473563,9.01320605014382
3921.9307,3.104447250594395,8.843643290763115
3922.835,3.0995067480380754,9.673592656466727
3923.7373,3.0914518849772405,8.01720217543987
3924.642,3.083206284259816,8.210350111571284
3925.5452,3.077795290507588,8.819482278526857
3926.448,3.0763003188070663,8.348324860799945
3927.3535,3.077092568225626,7.897262686728961
3928.257,3.076887246527898,9.169261077997653
3929.1628,3.0732844081791533,8.335272003121844
3930.0667,3.0667752871095733,9.425732939744053
3930.9731,3.0603656570347355,9.820802617779025
3931.8774,3.0575475793436016,10.094113686883503
3932.782,3.0602378942435062,8.202713951224741
3933.6887,3.068204414910864,7.6719054001709
3934.5938,3.079056345037796,10.832892541079875
3935.501,3.0887715989271047,7.924799536810119
3936.4062,3.0926846704275754,9.943210401891678
3937.3142,3.087547655818158,8.25138367250227
3938.22,3.073111535863171,9.51274413207863
3939.128,3.0520463648117238,9.357652655198683
3940.0342,3.0285454749983653,7.278966776463919
