wavl,flux,ivar
3566.9744,25.583437852294963,1.443364374336051
3567.795,25.487951854419155,1.5500749032347776
3568.6177,25.404091517650272,1.199331253898419
3569.4385,25.34547273365046,1.32828655442153
3570.2617,25.308311224120963,1.1956596123775134
3571.083,25.279780811160556,1.1781204539414951
3571.9065,25.24512769070623,1.2113196200995286
3572.7283,25.193972930371388,1.4115221071605417
3573.55,25.12293290185405,1.5632552284821648
3574.374,25.03644785866847,1.4130869306582265
3575.1963,24.945744410035548,1.5623605706473813
3576.0208,24.86321901097164,1.3223494074182653
3576.8435,24.798818290860122,1.4505720538227576
3577.6682,24.75410068165347,1.2510938000098275
3578.4915,24.72191110417514,1.2859060568208958
3579.3145,24.689212027800103,1.4739751505699672
3580.14,24.6460114819651,1.328225218382251
3580.9636,24.595768363595475,1.2691182371670775
3581.7893,24.558520252846147,1.2581055284215994
3582.6133,24.563408801725153,1.6881864515623113
3583.4395,24.631115065752894,1.5345865600594193
3584.264,24.75899237979469,1.2560422684022847
3585.0884,24.920282159940566,1.4642116085994632
3585.915,25.07501434257159,1.4903598419465436
3586.74,25.183307211942964,1.2273124366104697
3587.5671,25.219548655983047,1.3199151854975797
3588.3923,25.17703282745183,1.1939950442076344
3589.22,25.068134502609592,1.410033045834478
3590.0457,24.917406187262124,1.515270013808529
3590.8716,24.74877278130247,1.3072579348840625
3591.6995,24.578824259684623,1.4001432421046442
3592.526,24.418244588604146,1.8017444629970656
3593.3542,24.274301530928696,1.5400249534570873
3594.181,24.156606951087387,1.7001228145435925
3595.0098,24.072442041045186,1.6521735294446163
3595.8367,24.023441606912638,1.516903408404517
3596.6638,24.000976724692112,1.4092949611290322
3597.4934,23.98943237857925,1.3821890923870925
3598.3208,23.971311434723376,1.3585287292549069
3599.1506,23.931354272515108,1.5096951049383227
3599.9788,23.860299182008017,1.6225692180891347
3600.8088,23.758490346886074,1.644184000499035
3601.6372,23.64307362081835,1.5043481922383857
3602.4678,23.548711737465105,1.4360204889691996
3603.2964,23.52033854114507,1.5107494320437633
3604.1252,23.58977732329447,1.6136510826460864
3604.9565,23.75553915775823,1.5203829653479226
3605.786,23.97665854597404,1.29822414690246
3606.6172,24.195848370858005,1.5788681061779362
3607.447,24.36501002812702,1.3845751677356164
3608.2788,24.4646479340131,1.376237979903226
3609.109,24.49690844877937,1.522818792710473
3609.9392,24.473703169995563,1.457471957456061
3610.7717,24.40781057091675,1.2977732886753246
3611.6023,24.314834202964324,1.434911323323805
3612.435,24.211943750131137,1.5409399796155578
3613.266,24.112982900098505,1.6180147672780723
3614.0994,24.01986192404455,1.483872746378855
3614.9307,23.92651103216159,1.412825581622854
3615.7625,23.82724758909575,1.4882665195526736
3616.5962,23.725177835445965,1.5557370777246606
3617.4282,23.630788701648992,1.520972841846131
3618.2625,23.55277037471553,1.2849259897182332
3619.0947,23.49494324694055,1.5795393270108462
3619.9292,23.455723145921635,1.4913466490806022
3620.762,23.431304716582837,1.8093581177630063
3621.595,23.41415983387785,1.3298396392773766
3622.4302,23.3924034078114,1.4390404078246628
3623.2634,23.35316328780609,1.545393187983299
3624.0989,23.288722330263127,1.6823894848862428
3624.9326,23.2012166871398,1.567171642811219
3625.7686,23.098647592884454,1.793037196536346
3626.6028,22.990112680891365,1.4643999551529028
3627.437,22.880546798568908,1.3758656466485775
3628.2734,22.772648542327747,1.5664163402356002
3629.1082,22.67142710180695,1.7408583678409173
3629.945,22.58432611173369,1.7486079786221336
3630.78,22.520708422082027,1.6236136015737517
3631.6174,22.484498642168347,1.503822044971219
3632.453,22.470720663038826,1.5276122864888448
3633.2883,22.46609195750699,1.6537084582901644
3634.1262,22.456669793563986,1.8197999945189776
3634.9622,22.43447281897507,1.60615746699227
3635.8005,22.397950037605884,1.9029931473859998
3636.637,22.349007320203626,1.4863118276792673
3637.4756,22.28976850093168,1.5833826138725524
3638.3123,22.223597515036474,1.9704374081319735
3639.1492,22.154749868474354,1.7598643028812135
3639.9885,22.08831978260005,1.7941456466809367
3640.826,22.02922637825637,1.5094954329266561
3641.6653,21.97912118274388,1.7669766075482431
3642.5032,21.936553576460224,1.6937289021776873
3643.343,21.89754051943179,1.6235048744663745
3644.1812,21.859173966363805,1.62602599059088
3645.0195,21.820311101183666,1.9040693647886582
3645.86,21.780408120185978,1.59688868791623
3646.699,21.738032105079657,1.7694448842935167
3647.5398,21.690684789380718,1.8368908755903217
3648.379,21.63786532897497,1.7522263051102591
3649.2202,21.581920114794432,1.7871631958983765
3650.0596,21.528578012983203,1.6777687977404465
3650.8994,21.483773535956743,1.7406486856799719
3651.7412,21.451504353803944,1.7133285263721363
3652.5813,21.431831523997705,2.0749645878098266
3653.4236,21.419818511271462,1.8608467008465386
3654.2642,21.407269498314328,1.5700962444088176
3655.1067,21.38622209348216,1.7786130227123562
3655.9475,21.35433021751675,2.076935219629866
3656.7886,21.31732223485826,1.9479748998605708
3657.6318,21.286458606239684,2.2368068402753853
3658.4734,21.272180229094293,1.968728063436475
3659.317,21.27829616113776,1.9093200152782388
3660.1587,21.301333491256603,1.8953029339241476
3661.003,21.33301844966084,1.8972656557617993
3661.845,21.362821239543955,1.9557526608476332
3662.6875,21.38157708408636,1.775358343419488
3663.532,21.384712454427454,1.769262319869564
3664.3748,21.37461855487942,1.7965487007859886
3665.2197,21.358257880318444,1.7779815478441687
3666.063,21.341064099722068,1.8215215859599203
3666.9084,21.32249934419798,1.9145595918547038
3667.752,21.298626497629474,1.7844968679943958
3668.5977,21.267444536755804,1.9084044333889607
3669.4417,21.231774185695652,1.9013772492793255
3670.286,21.195607167326724,2.0987460900259824
3671.132,21.159865472389914,1.8680448391849067
3671.9768,21.121857393368945,1.9746778310725992
3672.8235,21.077852977618136,1.854551747949385
3673.6685,21.02697048472256,1.8667833087424344
3674.5156,20.970666682206463,1.8273145308564458
3675.3608,20.91142706507045,1.8954895558622429
3676.2063,20.850098881599024,1.8315031593590252
3677.0542,20.787356616767443,1.9624382979509638
3677.9,20.726677957965762,1.8673684580713144
3678.748,20.672818405174805,2.242374525122342
3679.5945,20.628554362851816,2.0700047162762005
3680.4429,20.58991957651204,1.979420789394122
3681.2896,20.550221102975293,2.1159684047688407
3682.1365,20.508225508832947,1.9765151157802856
3682.9856,20.474130764587766,2.2245241173951884
3683.8328,20.465008089420287,2.398723736250788
3684.6824,20.49130475623341,2.027473390368284
3685.53,20.54623230291252,2.0668093571940043
3686.38,20.607950968984422,1.887477215586327
3687.2278,20.65241073059871,1.9177048610811882
3688.0762,20.668863663586517,2.023469208484629
3688.9265,20.66296373619303,1.775278080195414
3689.7751,20.64896231588272,2.1433567588549494
3690.626,20.63826314085478,1.8377458745057031
3691.475,20.63378658185135,1.9478307128346577
3692.3264,20.63035131357927,2.0026464086246833
3693.1758,20.617907005014356,2.1674463288413235
3694.0254,20.585824456669762,1.9386222345205837
3694.8772,20.529100039939117,1.9035977670481248
3695.7273,20.454703607450597,1.962941451684939
3696.5793,20.37999170582025,2.053315433229773
3697.43,20.324768504893115,2.4451104876851018
3698.2825,20.298044791353966,2.1541361961322285
3699.1333,20.291827659868744,2.380085868390964
3699.9841,20.28399142352744,1.9343851588925747
3700.8374,20.250973261066893,1.7912722395973633
3701.6887,20.182334775975878,2.0347673214422275
3702.5425,20.086068308886034,2.2047404134246986
3703.3943,19.98303481375105,2.077675149551524
3704.2483,19.889719783767756,2.071150552635397
3705.1003,19.80335384396489,2.1465354331583466
3705.9526,19.681554217818043,2.3299312208186906
3706.8074,19.411838120061976,2.1538968889545456
3707.66,18.776875660127583,2.24017549143341
3708.515,17.456621821212526,2.1502344282091044
3709.3682,15.198068263806526,2.233010965219641
3710.2234,12.100375376793075,1.7397216142723186
3711.0771,8.898746267511488,2.4929833986018792
3711.9307,6.748573531445392,2.398291500658453
3712.7866,6.586759751993589,2.3353246912637524
3713.6409,8.47077452207604,2.3705239060139434
3714.4973,11.543063955550656,2.687110415775118
3715.3518,14.624951600637646,3.4401490201063023
3716.2085,16.950924105145308,2.240479265977495
3717.0635,18.3409021532167,2.335659026930651
3717.9185,19.022235903871604,2.088673351896474
3718.776,19.297643802352827,2.2258073274483934
3719.6313,19.383434168000612,2.6295547577148426
3720.489,19.394273436084823,2.2136528256872863
3721.345,19.376383792713302,2.2179072396566073
3722.2031,19.34318656404048,2.6488504230970547
3723.0593,19.29740862343198,2.1005868790832083
3723.9158,19.242463976375124,2.6799972833668533
3724.7747,19.18579202961348,2.404743346545555
3725.6316,19.1362789607365,2.758339266372129
3726.4905,19.09914410876249,2.4262352368424907
3727.348,19.075771947915467,2.4564010740203495
3728.2073,19.06439319565219,2.3720157013152745
3729.065,19.060691262389486,2.2166777127736728
3729.9229,19.056547411056346,2.2142728479999274
3730.783,19.041589118909545,2.3653886035940093
3731.6414,19.009048407538554,2.383025557394271
3732.5017,18.960676742158817,2.2492015290267235
3733.3604,18.905666749617094,2.4981909938546822
3734.2214,18.8521730902214,2.460858142170234
3735.0803,18.802319011097815,2.3219927860655805
3735.9417,18.752442738833963,2.276169075032856
3736.8013,18.700089774671603,2.4718722223738863
3737.661,18.64726042703861,2.406135124838174
3738.5227,18.600415982931302,2.326503986368275
3739.3828,18.567441102279307,2.6850870354337184
3740.245,18.552271602265233,2.5350581646471433
3741.1055,18.55182552587895,2.302958978625188
3741.9683,18.556840727634167,2.3124618102641605
3742.829,18.55890584398766,2.3594217839948435
3743.69,18.55762354377331,2.087699186051126
3744.5532,18.56021536126857,2.212113286253711
3745.4148,18.57312732149387,2.474459485530153
3746.2786,18.594029161578867,2.419717151144868
3747.1404,18.612202247780434,2.3248819234855667
3748.0044,18.617321845788545,2.779683371161017
3748.8667,18.607002934162512,2.454312542865552
3749.729,18.58731546796107,2.3750276817397373
3750.5938,18.56684941163263,2.3690099284692128
3751.4565,18.551588471752492,2.542663444133194
3752.3215,18.54395711018533,2.529752413638135
3753.1848,18.545312634767306,2.6642133797377685
3754.0503,18.55594492837076,2.3443357756590846
3754.9138,18.5719907241736,2.402297764997365
3755.7776,18.583758694471996,2.6828347490749094
3756.6438,18.579221948062205,2.2580023753011154
3757.508,18.551441385428106,2.4401708875107815
3758.3745,18.502757955738367,2.8173250379919033
3759.239,18.442355674372774,2.5912673595789877
3760.106,18.37831019854536,2.608861408838
3760.971,18.31489401891536,2.395667971627038
3761.8362,18.25419424529309,2.3652509271857913
3762.7036,18.201299895634612,2.37569826841588
3763.5693,18.164309913242313,2.7930752287261744
3764.437,18.14748459663939,2.6479076540916533
3765.3032,18.146318416622194,2.4763061293902884
3766.1714,18.14864625871422,2.5829155703721565
3767.0378,18.142321723250802,2.7407259160274378
3767.9043,18.122178098942417,2.693020099359209
3768.7732,18.091112713881916,2.4640287165964967
3769.6401,18.056712171129046,2.5810085609430438
3770.5095,18.02575697907085,2.582228386754054
3771.377,18.001254906698442,2.487708485093594
3772.2466,17.980350041717927,2.864523326450918
3773.1145,17.955989241936727,2.6936909862575624
3773.9824,17.92084088224361,2.7363673217414477
3774.8528,17.873055631048945,2.9098773478272237
3775.721,17.820016904191785,2.6889509019006694
3776.5918,17.774711588789646,2.4454769730066603
3777.4604,17.7491676898364,2.827203464570096
3778.3315,17.746613697426934,2.697108744839914
3779.201,17.760488849959387,2.564045149597944
3780.0703,17.778067025764038,2.9900620012415176
3780.942,17.786505305097776,2.42558606771191
3781.8118,17.778392173610275,2.7782824037195524
3782.6838,17.755521036671706,2.6890604003365133
3783.554,17.728383717368136,2.7440274803900255
3784.4265,17.70971302104576,2.740517891982855
3785.297,17.706631993916467,2.7027987416829236
3786.168,17.71571134373868,2.9722161324636587
3787.041,17.725271625244904,3.3443543384296457
3787.912,17.721972611585983,2.6843481002145353
3788.7856,17.698043592802893,2.642677570769253
3789.6572,17.655380706277377,2.540723358035081
3790.531,17.603895742156677,2.887097480603069
3791.403,17.555908530960906,3.0220910749896563
3792.2754,17.516924940626573,2.654415471784572
3793.15,17.48109993473556,2.5772791960386403
3794.0225,17.43507854200049,2.5974034956440173
3794.8972,17.368667871767588,2.825935747052525
3795.7703,17.28627145849552,2.9095425082071875
3796.6455,17.205614098038243,3.116414430115781
3797.519,17.147035848667485,2.555649301578539
3798.3926,17.11834764711318,2.930009750212234
3799.2686,17.111750824447245,3.2565675226035293
3800.1426,17.112098604900243,2.6799803746362945
3801.0188,17.1085076678401,2.910256867819126
3801.8933,17.099295741741244,2.764267614796494
3802.77,17.0880629660225,3.056091666300726
3803.6448,17.077641720467966,2.709123438373196
3804.522,17.067727981340017,2.726522225381286
3805.3972,17.057220444437768,2.978293647276766
3806.2727,17.04626829299458,3.0091507055146773
3807.1504,17.035984510368223,3.0202747502956226
3808.0261,17.027081710695963,2.8914842234728324
3808.9043,17.019661454108217,2.6107617464171446
3809.7805,17.01454009206771,3.0969122905153506
3810.659,17.013345440138455,2.822438207456751
3811.5356,17.016756027037395,2.936657763330409
3812.4126,17.021659125138317,3.12937564378975
3813.2917,17.02004722007152,2.7325858495799857
3814.169,17.001726729980117,2.9077534015919912
3815.0483,16.9598832772725,2.8567427934166427
3815.926,16.896330835310835,3.079200846828514
3816.806,16.821183379964012,2.639709810814276
3817.684,16.7495845001582,2.8252622921738855
3818.5623,16.694321333063165,3.0200807222188413
3819.4429,16.66134995269303,3.3821056996478256
3820.3215,16.64834422752536,3.130717297248941
3821.2024,16.646712819148508,3.1209239807972464
3822.0815,16.64719268827489,3.080381136917152
3822.963,16.64447846774594,3.3269687099058807
3823.8423,16.63855382100754,3.1318026272946646
3824.722,16.63167517652067,3.004012051528122
3825.604,16.62357642582223,3.228347082606352
3826.4841,16.609397131063115,2.8930084030162573
3827.3665,16.582626102342335,2.94941063762561
3828.2468,16.5410354911261,3.0902593945830588
3829.1296,16.488327168349198,3.3236202986415813
3830.0105,16.43162459251161,2.962179880925065
3830.8916,16.37576660161021,3.18984598648237
3831.7751,16.321929872410372,3.312089592512013
3832.6565,16.26996532751718,3.270199825765573
3833.5403,16.220369922723442,3.386294957033749
3834.4224,16.17650299474864,3.2968654252983707
3835.3064,16.14199507479881,3.242966437519021
3836.1887,16.11843816254896,3.308182971714685
3837.0713,16.103688796801727,3.547423334205838
3837.956,16.094840416856556,2.9424700943428435
3838.839,16.09266276826934,3.418630237396977
3839.7244,16.102963162361437,3.3980975432256426
3840.6077,16.132044078488384,3.5028610758450354
3841.4932,16.179076933883174,3.2950549485423695
3842.377,16.23103498672675,3.478912960078006
3843.261,16.267247214948117,3.3258598679832243
3844.1472,16.26986853138917,3.0853863393971914
3845.0315,16.23453295914976,3.5457012603368963
3845.9182,16.172914895285132,3.0042895204031503
3846.803,16.10718367176867,3.838992171908889
3847.69,16.058738402517708,3.0819162897787042
3848.5752,16.040230179538568,3.1278114825933656
3849.4604,16.050227259187242,3.1976661098414976
3850.3481,16.07525898915846,3.014576143723475
3851.234,16.096506881262115,3.0022559278684007
3852.122,16.099246742023453,3.994406761648052
3853.0083,16.07781618103633,3.210345184163074
3853.8967,16.0341127232002,3.443808682210103
3854.7832,15.972938106803866,3.4044064843011363
3855.6702,15.898751751211936,3.018720474564679
3856.559,15.817855605584958,3.4789461739107663
3857.4463,15.741377709509104,3.441484170284546
3858.336,15.681935395461737,4.192691096119221
3859.2234,15.648177866363305,3.4483695782966155
3860.1135,15.638426845330475,4.0110300778762085
3861.0015,15.642921383417187,3.3807572518742965
3861.8896,15.650328173638348,3.167925736353815
3862.7803,15.653651867365646,3.647329230002399
3863.6687,15.650836609051563,3.6886757224173534
3864.5598,15.642130395955748,3.786895209077106
3865.4487,15.628137595249296,3.716068798431664
3866.34,15.609708664860666,3.538653423530766
3867.2297,15.588898939099327,3.4875499753672297
3868.1213,15.568301846424372,3.2439043074999656
3869.0112,15.549807540362227,3.6718714138155426
3869.9014,15.532683173345399,3.0746701755161285
3870.7937,15.513406006294915,3.977794405748196
3871.684,15.487587838571867,3.402600605251293
3872.577,15.453028492183822,3.3740955146647407
3873.4678,15.413032759027463,3.550747583578679
3874.361,15.37500217392932,4.053657158185813
3875.2524,15.346587257633995,3.4104169706272622
3876.1438,15.330713824284311,3.632193866870694
3877.0376,15.325875526621203,3.990895084093357
3877.9297,15.328986314661678,3.420586943034786
3878.8237,15.336650287550011,4.102416706184178
3879.716,15.343685216340795,3.6314957002095185
3880.6108,15.342560394066558,2.9974042562045797
3881.5037,15.3262575856278,3.6257260050543727
3882.3965,15.292544744294483,3.4724428665643354
3883.2917,15.245386176116787,3.4007473259858885
3884.185,15.193325028765543,3.681373907666511
3885.0808,15.144342351779057,4.336362060511553
3885.9746,15.102537936832427,4.184580130862204
3886.8706,15.065429890736297,3.996749426298088
3887.765,15.027291807220141,3.6097189225946993
3888.6592,14.98414613065422,3.6158653285675366
3889.556,14.937938989196061,3.8393152309645946
3890.4507,14.895896765681943,4.195118068758309
3891.348,14.865063209517126,3.887800971641646
3892.243,14.849115750644561,3.5098639760144907
3893.1406,14.847132541857267,3.6938149731983225
3894.0361,14.855660398992951,3.4997592975702743
3894.932,14.870604853704517,4.178395145696255
3895.83,14.888452012562155,3.957031571811458
3896.7263,14.906000734269474,4.031454163446101
3897.625,14.919809579611568,3.761898152876243
3898.5215,14.925666994708322,3.785672772137486
3899.4207,14.92058750087521,3.5986261962161143
3900.3176,14.905607189563565,3.3409584258389944
3901.2148,14.886683695810774,4.052213318653964
3902.1145,14.871905880920083,3.939316577480817
3903.0122,14.867154235725897,3.5808525367147426
3903.912,14.87333762121141,3.7690992908938385
3904.8103,14.887153954298157,4.1976853987375815
3905.7107,14.903465673384956,4.213583548518174
3906.6094,14.917256484191713,4.06473701607809
3907.508,14.925253592570094,3.984344428604088
3908.409,14.926445498094399,3.8554034406587467
3909.308,14.922185966108776,3.7173589745671936
3910.2097,14.915710836012577,3.744179235408024
3911.1091,14.910784918014548,3.7242030245679474
3912.011,14.909139185624737,4.8971320906789675
3912.9111,14.908513122461558,3.853513698336468
3913.8113,14.903373311337484,3.6297821116367097
3914.7136,14.88862928917195,3.6174675503484677
3915.6143,14.863408924457762,3.97574289340859
3916.517,14.831142728774925,3.981874949520569
3917.4182,14.797010773432078,4.12525463676344
3918.3215,14.763709716429851,3.908664740131777
3919.223,14.730206313580744,3.583589733970702
3920.1245,14.692819504160182,4.303227074381026
3921.0286,14.649951205677727,3.4281346908639287
3921.9307,14.606495250258906,3.9428351503625922
3922.835,14.572458375578853,4.365125894062504
3923.7373,14.557728429743111,3.888790327178449
3924.642,14.565021755513726,4.206843521068344
3925.5452,14.588298988190251,3.933164030240406
3926.448,14.6164625406038,3.420879379902693
3927.3535,14.638937006624511,4.0383302444427285
3928.257,14.648648605726066,3.7506604664954106
3929.1628,14.642680094306321,3.666380684688688
3930.0667,14.62155390799658,3.9218567305280936
3930.9731,14.589176245651824,4.011149117286484
3931.8774,14.552665544791262,3.949361471919318
3932.782,14.518925349173443,4.235032143349439
3933.6887,14.491088504638816,4.104460938922607
