wavl,flux,ivar
3566.9744,0.5189675787572308,1832.9049728441562
3567.795,0.5171834077123996,1104.5226235335476
3568.6177,0.5145344286695559,1409.156630002278
3569.4385,0.5114427406674471,1188.1864615605987
3570.2617,0.5084796428748799,1380.542445085833
3571.083,0.5060386888338287,2885.500052546745
3571.9065,0.5041203990536322,1395.823825158022
3572.7283,0.5025672423339703,1281.2818179676544
3573.55,0.5013089253889914,1636.1969740740103
3574.374,0.5005043052893593,1134.7678879388586
3575.1963,0.5005001057023181,1138.2148269404381
3576.0208,0.5016716246342269,1224.892270899867
3576.8435,0.5041532004750293,1780.9871202397885
3577.6682,0.5075373792582819,1088.0071799395243
3578.4915,0.5107052960317977,2698.0129385462274
3579.3145,0.5121965029231832,1011.417083372634
3580.14,0.5109250664396617,1699.7116012537826
3580.9636,0.5069298316409242,1129.9818735597755
3581.7893,0.5014413197881751,1845.310453125368
3582.6133,0.49617419920167055,1242.2965923479885
3583.4395,0.49217033685094,1761.3279808392122
3584.264,0.4893912726740782,1515.0659150824506
3585.0884,0.4870672838556155,1321.7609515868628
3585.915,0.48453542772988445,2421.594866223223
3586.74,0.4817333002550253,1785.5913455162415
3587.5671,0.4791174778828187,1201.3875493057808
3588.3923,0.47740220555554175,1607.838499333156
3589.22,0.4771388144252848,1936.5286051565686
3590.0457,0.4783993790596463,2205.370315087376
3590.8716,0.4806486791301597,1554.6327213979116
3591.6995,0.4830314091130288,1335.0094124413843
3592.526,0.4848278276475036,1607.879415815743
3593.3542,0.4857809798590035,1224.901390741934
3594.181,0.48604144780611036,1075.3669301518016
3595.0098,0.48602087942911715,2147.447615647221
3595.8367,0.4862470408200907,1118.206955983534
3596.6638,0.4872045082813508,1293.1076617345507
3597.4934,0.489094414609001,1390.334681227118
3598.3208,0.49160489137046304,1202.7842173184868
3599.1506,0.49402009913154354,1290.423357455475
3599.9788,0.49557229912567724,1553.1663403603313
3600.8088,0.4959506752632895,1584.5634046013633
3601.6372,0.4954294304287231,1371.3843085222704
3602.4678,0.49457604432812435,1395.8750901200935
3603.2964,0.4937449650520422,2270.090048293536
3604.1252,0.49276505648408725,2260.086151613069
3604.9565,0.49111990948761397,1183.4500795093547
3605.786,0.4885184686301443,1740.3954098472318
3606.6172,0.4853460737304049,1847.5659024562356
3607.447,0.482643128960495,1993.1204930036645
3608.2788,0.48141797352737553,1960.6231226679192
3609.109,0.48198760799660406,1472.5949019257503
3609.9392,0.4838019641664946,2039.072443670458
3610.7717,0.48589954898870685,1323.0516819208337
3611.6023,0.4874648357533987,2428.7819010845838
3612.435,0.4881963625727227,1637.854750694051
3613.266,0.4882937558748162,1540.1690739970277
3614.0994,0.4882603180920033,1605.7179090640718
3614.9307,0.488561595202962,1515.8639837306748
3615.7625,0.4893386144958097,1329.097034700631
3616.5962,0.4903296191651533,1569.7601299242788
3617.4282,0.4909856833960974,1432.345100086225
3618.2625,0.49069985925141624,1834.1890889188885
3619.0947,0.4890683529819563,1386.2589315316095
3619.9292,0.48618874584900224,1297.494045950928
3620.762,0.48286479520734416,2117.702359297333
3621.595,0.480321850568272,2126.7711730706837
3622.4302,0.47956203307159007,1948.3769048549855
3623.2634,0.48068550993233683,1045.0475675178257
3624.0989,0.48274579027481185,1437.2860925290693
3624.9326,0.48430386252949686,1625.1319789130455
3625.7686,0.4843651877917768,1708.2523064368077
3626.6028,0.48298991054173485,2091.5438270940917
3627.437,0.4811949592376292,1677.8006671645176
3628.2734,0.48021228715326714,1774.1050549050549
3629.1082,0.4806960998961359,1963.583574777339
3629.945,0.48236878394315086,1819.6632874851907
3630.78,0.48426502756860434,1949.8051640608332
3631.6174,0.4854014969216558,2007.0901376679064
3632.453,0.48542303576183227,1412.9648443700294
3633.2883,0.4848792090367877,1600.2643060550793
3634.1262,0.4847615927207301,2120.3171582041177
3634.9622,0.4856585349070384,2428.9632208567605
3635.8005,0.48729021630963165,1192.6441802100212
3636.637,0.4888988724647772,1038.9737488980022
3637.4756,0.49011858229191774,1356.9622866779814
3638.3123,0.49132006530352124,1770.0716011689592
3639.1492,0.49319091549324473,1679.138450658173
3639.9885,0.49601565937305814,1142.5313608045096
3640.826,0.49937581028580985,843.3589040614481
3641.6653,0.5025197285660672,1084.8330341590222
3642.5032,0.5047586140350874,2288.5309581729757
3643.343,0.505645849550297,1511.5336613541363
3644.1812,0.5048324668538112,1324.378664132348
3645.0195,0.5021464884753393,2112.7458277852447
3645.86,0.4979370822737562,1156.2370153148472
3646.699,0.49336919327034484,2714.9915863742453
3647.5398,0.4900175406025477,1452.4856288930941
3648.379,0.4891250629180358,1366.44622835769
3649.2202,0.49087363626894503,1341.628559180587
3650.0596,0.4942679682220744,1679.6169228144915
3650.8994,0.4975977769391677,1498.7275172696975
3651.7412,0.49923194706119217,907.1794751185496
3652.5813,0.4984411234398331,1545.7702018608152
3653.4236,0.4957344904684107,2255.290259970788
3654.2642,0.492428212626886,1877.0241432170762
3655.1067,0.4897868897910481,1774.7074392028421
3655.9475,0.48853040003047665,1362.7987945409193
3656.7886,0.4887540475115559,1527.500244143179
3657.6318,0.49013775285243755,1799.6733817011605
3658.4734,0.49206035351013183,1422.2602069469308
3659.317,0.4937460976331546,1562.6669354600158
3660.1587,0.49441972296247294,1682.58285695944
3661.003,0.4935432140424242,1667.7653485868445
3661.845,0.49105044631473543,1237.7291400046233
3662.6875,0.48755139740736153,1708.4000928214195
3663.532,0.48429546953648966,1682.174735931062
3664.3748,0.48266662437173663,2271.4131336953774
3665.2197,0.4833517521513325,1691.2210895189655
3666.063,0.48595475092243823,1860.4430020000943
3666.9084,0.48938872040711534,1473.4939061995613
3667.752,0.49267528905065133,1529.077814397452
3668.5977,0.495515424914411,1939.9564081080032
3669.4417,0.4980184662311152,1668.6749419218088
3670.286,0.5002056637633969,2524.5564777428613
3671.132,0.5017932379675452,1571.5361095670064
3671.9768,0.5025069815979837,1354.7291419157223
3672.8235,0.5024348194207702,1210.9000333667864
3673.6685,0.5019009304052204,1476.730281788877
3674.5156,0.5010657350700911,1885.8226373653677
3675.3608,0.4997740570905378,1312.1212032640194
3676.2063,0.49780974873585193,1114.227172919917
3677.0542,0.49523087110945224,1994.3173882737397
3677.9,0.49240335591258,1794.0420872406582
3678.748,0.48968631776288263,1122.4498505210497
3679.5945,0.487325062937463,1451.4957243473627
3680.4429,0.48549007131242333,1420.352799370266
3681.2896,0.4843956713652029,1426.7935283216152
3682.1365,0.48405672288339907,1079.395235710785
3682.9856,0.48399205914931315,1541.052539232223
3683.8328,0.4833221509791425,1830.0283124261935
3684.6824,0.4814229708564888,953.1546208310833
3685.53,0.4785420533676798,1247.2588800942565
3686.38,0.4755810779998771,2797.221360389839
3687.2278,0.4733368226525978,1551.7697617867032
3688.0762,0.4719233518483258,1918.1815173756918
3688.9265,0.4710447387209859,2265.6547993266718
3689.7751,0.4705270062339198,1843.6919870481672
3690.626,0.470451725331706,2297.9122399112703
3691.475,0.4708801889877324,1631.82621031679
3692.3264,0.4716119827770868,1707.0058374357907
3693.1758,0.47228554867756983,1909.4413031707677
3694.0254,0.4727225847897128,1971.7298627167763
3694.8772,0.47314582011766854,1701.0116921050947
3695.7273,0.4740311469701653,4325.157382821836
3696.5793,0.4756704848397166,1287.9064052164222
3697.43,0.47782768223677835,1626.7941455963955
3698.2825,0.4799063070969907,2022.7015489892603
3699.1333,0.48139733604416707,1810.2299481632263
3699.9841,0.4822605445626303,1787.9518312074879
3700.8374,0.48285085430360486,2155.866416957597
3701.6887,0.48356601391308024,1748.3463504110473
3702.5425,0.4845208941646389,977.1967131884214
3703.3943,0.48544761001722114,1540.5833038995206
3704.2483,0.48587577491979445,1187.5647691997272
3705.1003,0.4853426584976973,1919.7189414760119
3705.9526,0.48356466083408384,1139.5521064987088
3706.8074,0.48055902339212453,1770.1693857335817
3707.66,0.4767869029637674,2003.286500108249
3708.515,0.4730293993056643,1829.8663936037228
3709.3682,0.4701979861101573,2211.4432433413917
3710.2234,0.4690095155367192,1176.9365561875186
3711.0771,0.4699435095800771,2484.838656430423
3711.9307,0.47319466738643745,1272.068457572479
3712.7866,0.4785323134710828,1751.9488775445686
3713.6409,0.4849507975050863,1416.9243096332111
3714.4973,0.4907525681219309,1897.8507687720135
3715.3518,0.49403664021418303,1650.4830677558195
3716.2085,0.49374361741899925,1590.6981515305276
3717.0635,0.4902386825412137,1680.7728756409424
3717.9185,0.4851440290678406,2345.7654942555187
3718.776,0.4804248208393273,1379.386710966095
3719.6313,0.4774378956419664,1716.8840509322617
3720.489,0.47635188278285906,1747.269098210928
3721.345,0.4764532811382067,1587.199519964008
3722.2031,0.4768069291063387,1888.1752717344386
3723.0593,0.47683214812078323,1493.6358783370858
3723.9158,0.4764464109497706,1243.6447369944763
3724.7747,0.47587975296854734,3324.43061964764
3725.6316,0.4754257653227229,2435.4078119731726
3726.4905,0.475251820867354,1069.9188685911495
3727.348,0.4753807494751913,1919.7331225011608
3728.2073,0.4758084412866923,1360.844789789895
3729.065,0.4766222560534799,1513.92217055861
3729.9229,0.4779658324750708,1785.4136626791244
3730.783,0.47986182005605926,1343.1940531218656
3731.6414,0.48205458823816066,1723.6086497327772
3732.5017,0.4840638622144895,2056.3383046818717
3733.3604,0.48531501325357934,1671.8861322348225
3734.2214,0.48538403357188753,1729.5713149195287
3735.0803,0.4841589580339138,1670.7662254571549
3735.9417,0.4818801868522306,1819.678171017441
3736.8013,0.4790417183539965,1262.623374578323
3737.661,0.4762025719149419,1866.8562018457976
3738.5227,0.473917373601206,2585.8932689885414
3739.3828,0.47266880711684456,1723.0929292772653
3740.245,0.4726244074061612,3352.825288549283
3741.1055,0.47346164173816485,1496.488234680315
3741.9683,0.4744980835329108,1345.237953986346
3742.829,0.4751416067572585,2016.7176579979741
3743.69,0.4752695489462923,1571.8265838761085
3744.5532,0.47516193231112575,1750.5172176382202
3745.4148,0.47522767268948607,1723.0315531547074
3746.2786,0.47585662962008246,1805.695846501945
3747.1404,0.47738427645001497,2635.272670244377
3748.0044,0.4799414039860553,1094.8455608065756
3748.8667,0.48314422386320777,1784.7386442797235
3749.729,0.48608224518367854,1220.8000431329872
3750.5938,0.48767731762716854,1730.2692813502056
3751.4565,0.48725050210432896,2235.2764883389004
3752.3215,0.4849188218881688,1487.9023898280818
3753.1848,0.48153497362907366,2047.7201137994775
3754.0503,0.47820230417471454,1287.125232907481
3754.9138,0.47579206375138683,1333.5069725145643
3755.7776,0.4746470485725719,2382.709323787249
3756.6438,0.4747673910208736,1361.7427666241883
3757.508,0.47603167842098865,1923.4608387811613
3758.3745,0.47816869790568434,1495.783628958294
3759.239,0.4805297122347955,1629.3829151736672
3760.106,0.4822045522618445,1367.6019475036503
3760.971,0.482486247518678,1906.1287761870062
3761.8362,0.48135535852515504,1623.0712443162001
3762.7036,0.47937917682598447,2171.4374461946372
3763.5693,0.47725746948756087,1792.9532062063674
3764.437,0.47538381109533745,1989.1275242562815
3765.3032,0.47380599574181614,1715.3785363625896
3766.1714,0.4723822335769201,1963.337897494813
3767.0378,0.4710649356872342,1746.3043872610926
3767.9043,0.47002922959806337,1584.4205383961735
3768.7732,0.46959796625086414,1305.5471567378122
3769.6401,0.4699795511598709,1673.3252410517398
3770.5095,0.4710826867531123,2352.1902065477802
3771.377,0.4726033536010561,1702.2053213633656
3772.2466,0.4743219955555119,2197.990141930717
3773.1145,0.47626440265361136,1793.3974120999485
3773.9824,0.47863661222709936,2254.5556297622243
3774.8528,0.481522803678166,1190.5024741914276
3775.721,0.4846127716961718,1643.761987906975
3776.5918,0.4872880800540594,1835.589749774238
3777.4604,0.4888454799408461,1142.9913229192518
3778.3315,0.4888582277029017,1810.2586995052548
3779.201,0.48729791467999106,1217.7831085719265
3780.0703,0.4845443662524391,2130.223980714016
3780.942,0.4812731416800562,2492.846617944824
3781.8118,0.47828214296617944,2554.804415797808
3782.6838,0.4761362807669705,1293.2641961852685
3783.554,0.4749786318418475,986.6050620716069
3784.4265,0.47449687112240935,1740.2951751142396
3785.297,0.4741501632553911,2050.0557100972273
3786.168,0.47336696656679644,1601.4923963340855
3787.041,0.4716971815925664,1476.1424337339995
3787.912,0.4690060130754914,1432.2783077575516
3788.7856,0.4656226962694035,1761.0258122966245
3789.6572,0.46237240825810205,2632.62631378754
3790.531,0.46016488941172823,1442.6309822442804
3791.403,0.4595354009091912,2945.622103222783
3792.2754,0.46029146856020486,1672.4820447284462
3793.15,0.46164250139354535,1440.4304074853383
3794.0225,0.462632514067507,1546.7672536929638
3794.8972,0.46268945032250297,1929.773187965188
3795.7703,0.46190936521628456,1488.9058145852687
3796.6455,0.460941444709223,2186.215989747984
3797.519,0.4605161958385101,1595.3030622057258
3798.3926,0.46089149168280097,1742.6784241506678
3799.2686,0.4616736567080599,1777.8243036437882
3800.1426,0.462172637942816,2123.3611004883874
3801.0188,0.4620930544273256,1615.231098506464
3801.8933,0.4619196383740574,2728.3652139507967
3802.77,0.4626080298645281,2313.8104249883263
3803.6448,0.4647836434413124,2389.3659398748696
3804.522,0.4681953422861739,1303.470050791896
3805.3972,0.471844237356159,2846.5356617583634
3806.2727,0.47476672595045905,1476.130093634917
3807.1504,0.47665699030255126,2211.2603567270453
3808.0261,0.477966196275289,1075.1270912208136
3808.9043,0.4795165322088376,1334.1956483262986
3809.7805,0.48189077096202565,1623.4667118794648
3810.659,0.48509268442771275,1363.4395278441787
3811.5356,0.4884910534021666,1369.4672928673474
3812.4126,0.4911842499246344,1441.6963445418462
3813.2917,0.49245495802388833,1259.0528788835413
3814.169,0.4921689945009233,1449.9993076678024
3815.0483,0.49083145836448283,1177.7542531942981
3815.926,0.48918022791272614,1847.6429060151054
3816.806,0.4876094168239769,2121.516404053407
3817.684,0.4859820497469285,1292.8462948325234
3818.5623,0.4839273469061238,1709.7967095657448
3819.4429,0.48133433451450597,1288.4475796115157
3820.3215,0.4785250316122069,1182.72695125083
3821.2024,0.47589568289438156,1750.4319387464382
3822.0815,0.4735278578004896,1531.8956412792195
3822.963,0.47101466931023234,1613.1793566215592
3823.8423,0.4678266830737702,1381.3506714994928
3824.722,0.46374064446864044,1893.2598545309547
3825.604,0.45900427828952395,2745.239525104461
3826.4841,0.45406322764385687,2203.760404548206
3827.3665,0.4490308242642765,1993.1513321316932
3828.2468,0.44366533799416946,1992.1277979455474
3829.1296,0.43755580803839944,1815.1570752585799
3830.0105,0.4305984215698291,2436.4600208449565
3830.8916,0.42307539432456187,2494.2243618245475
3831.7751,0.41568497225323797,2317.625393398479
3832.6565,0.4094474695305917,1889.698447712264
3833.5403,0.40527310985594184,3518.5127018932085
3834.4224,0.40374177965521485,1845.114026859278
3835.3064,0.4049023899132817,1627.1136584180829
3836.1887,0.40848561816227724,1764.7673231322833
3837.0713,0.41415195522275167,3310.986890393662
3837.956,0.42153737243329653,2176.290789606596
3838.839,0.4300548703446514,1749.3843400385113
3839.7244,0.43897187107654523,1858.1645440864888
3840.6077,0.44743297794252246,1600.5590847834467
3841.4932,0.45487874969215697,2442.6521502227165
3842.377,0.46105908405922347,2160.2215102331093
3843.261,0.46614262311939564,2119.6073543246075
3844.1472,0.47051379700138074,1280.079696776028
3845.0315,0.4745560817063818,1781.2425779655387
3845.9182,0.47854482466618853,1664.3315490820787
3846.803,0.4825142289599421,1164.8526547548454
3847.69,0.48647958617070985,1591.2668221039555
3848.5752,0.49057664086905334,2221.328439319777
3849.4604,0.4951494496998677,1356.913023408646
3850.3481,0.500479246195422,1854.973237111686
3851.234,0.5064145249385593,1861.3354985620663
3852.122,0.5123951871860676,1143.6348108755224
3853.0083,0.517605595059597,1451.6270014307802
3853.8967,0.5214673419826861,1649.1498879810028
3854.7832,0.5237664333744172,1332.1653411654556
3855.6702,0.5246868393277445,1369.786799635715
3856.559,0.524604928939812,1292.8028380285114
3857.4463,0.5239781971487115,1072.6608489910282
3858.336,0.5232728764998256,1384.906276248189
3859.2234,0.5228645010317537,1726.6894902441256
3860.1135,0.5228564333478404,1032.2866362134664
3861.0015,0.5229984554994214,2013.5122456954527
3861.8896,0.5228066663256649,1294.3218577515922
3862.7803,0.5218048589507445,1572.211777714268
3863.6687,0.5196934822330577,1402.3416616274599
3864.5598,0.5163162411697716,1386.1290597642558
3865.4487,0.5116575348279857,1333.9338736682303
3866.34,0.505800830549342,1732.8598859550614
3867.2297,0.4991044589423372,1304.7600379285368
3868.1213,0.4921131907603668,1549.1226241395684
3869.0112,0.4855370002970725,1346.6757489222289
3869.9014,0.47990545027344794,1472.6325276501627
3870.7937,0.4753833084727478,1325.5515385418494
3871.684,0.47175212615025075,1930.731041200101
3872.577,0.4685544571977613,1829.8718598907976
3873.4678,0.46543146858109824,1764.5205050109028
3874.361,0.4621003348115691,1648.4618004568956
3875.2524,0.4582806110569788,2302.058517734634
3876.1438,0.4536260458644396,1439.6988494498553
3877.0376,0.4479664542298172,1820.9844974633959
3877.9297,0.4415315297971118,1682.0774325277685
3878.8237,0.43464863696652023,2363.12918374875
3879.716,0.4274098663534013,1620.2469274202779
3880.6108,0.419393811505494,2547.7979290696735
3881.5037,0.4101580707931696,2093.317271593774
3882.3965,0.39965986981081353,2146.2998098474886
3883.2917,0.38852942572849536,3104.033294765021
3884.185,0.3779331396523744,3118.0291397007786
3885.0808,0.368962120478772,3195.474599944633
3885.9746,0.3625726037418534,4576.349983053371
3886.8706,0.3593830043088764,3561.9313230642288
3887.765,0.3597734169710141,2252.244592746093
3888.6592,0.3637058441264541,2925.9028025191205
3889.556,0.37068522883884736,2151.44260038914
3890.4507,0.37971769803481054,2251.393521134457
3891.348,0.3896288903464991,2749.4495055213188
3892.243,0.3991968268470124,3353.063165309012
3893.1406,0.4077378630236217,1566.2664579063091
3894.0361,0.41524069293817656,2164.968673352319
3894.932,0.4224770900674057,2463.1468056509075
3895.83,0.4303475981559283,1558.6914738812843
3896.7263,0.43909020349235545,2132.284751048795
3897.625,0.4481502585097884,2174.429962966861
3898.5215,0.45649784362530493,1586.9589579443966
3899.4207,0.46363066750698334,1560.3633472595927
3900.3176,0.46983763348890756,1725.6312165026307
3901.2148,0.4760409644064492,1571.8837723972115
3902.1145,0.48304026081724544,1695.1105625251212
3903.0122,0.49098048475050726,1651.7835294013616
3903.912,0.49949337655927745,1490.2795878027723
3904.8103,0.507908741751829,1412.898570822404
3905.7107,0.515756816364696,1462.1586253315052
3906.6094,0.5227971355338057,1285.6955390490564
3907.508,0.5291027205519323,1164.3079391035326
3908.409,0.5348610726333048,1530.8559085299705
3909.308,0.5402190003967237,1965.3849963591788
3910.2097,0.5453494283541049,1558.440044454658
3911.1091,0.5503489860029281,1087.4768805398303
3912.011,0.555258008160748,1420.884121608321
3912.9111,0.5598497910074179,1333.245264049988
3913.8113,0.5637553494965971,969.8309240642884
3914.7136,0.5666729346065245,973.6636017758776
3915.6143,0.5686060637444025,1421.3266922435341
3916.517,0.5699330576516696,1347.9458798169446
3917.4182,0.5711610221216757,1227.3198815668186
3918.3215,0.5727179936422053,1090.9927125647941
3919.223,0.5748373632012529,1021.2445434253176
3920.1245,0.5776054593157782,1024.5234531930134
3921.0286,0.5809578363247153,1107.2633134901923
3921.9307,0.5845913069835674,879.9476409302869
3922.835,0.5879898711633806,844.0014747085055
3923.7373,0.5904384658844885,973.7573555666997
3924.642,0.5912773150722952,904.770540388216
3925.5452,0.5901345055069758,1075.5497861373683
3926.448,0.5871580475674218,1597.0752523346919
3927.3535,0.5829574692987927,1163.339277918045
