wavl,flux,ivar
3566.9744,1.5113883586960506,231.35550967690796
3567.795,1.5050072694774095,207.45593998521156
3568.6177,1.5003459861915351,246.37120002054473
3569.4385,1.4979580407217277,188.97317710315593
3570.2617,1.4969658331012499,202.93741539436022
3571.083,1.4958132459283222,266.62215338094893
3571.9065,1.493368375438381,206.91379137161644
3572.7283,1.4897334484330302,292.66055774023073
3573.55,1.486054264634058,222.05539574780047
3574.374,1.4836606708529916,199.2647580065454
3575.1963,1.483290949132655,229.18285662506608
3576.0208,1.4849468325856063,221.76067032947412
3576.8435,1.4883566080645592,241.19743682121955
3577.6682,1.49339381487314,198.71884528128317
3578.4915,1.4999099664869984,209.257849223
3579.3145,1.5074051600043745,201.73398536474073
3580.14,1.5149010645007348,248.93718058984936
3580.9636,1.5211908643755563,190.73642407490465
3581.7893,1.5254009123838475,209.6616836903708
3582.6133,1.5270189001149468,179.46327177650264
3583.4395,1.5258437800307638,212.57559035830047
3584.264,1.5219580331699576,224.32059896914274
3585.0884,1.5159762821348306,207.6306499775423
3585.915,1.5091425902020896,206.38504169714597
3586.74,1.502931865461439,184.93515047177198
3587.5671,1.4980904858843973,216.7567938060027
3588.3923,1.4943334669640103,250.6501260884255
3589.22,1.4907685661022063,218.15448976624933
3590.0457,1.4869414357125885,241.25891826860322
3590.8716,1.4831798542526213,226.94515178006543
3591.6995,1.4801332190529752,232.37740055807865
3592.526,1.4779737466911589,296.44664635523316
3593.3542,1.4760306383404034,211.60893565710109
3594.181,1.4732454508797161,231.75864045609123
3595.0098,1.4688758666176571,245.7867018291733
3595.8367,1.4630695365255824,230.31034896245703
3596.6638,1.4567684140842692,243.19971197222813
3597.4934,1.4512908819757089,257.57685280168783
3598.3208,1.4478353737509293,308.5278114431229
3599.1506,1.447003201727285,236.35428078864751
3599.9788,1.4487460711662008,225.45938372969457
3600.8088,1.4524656073659163,206.86587673971877
3601.6372,1.4572338192662995,256.95885057133427
3602.4678,1.4620298285453488,183.2637705723874
3603.2964,1.4658029035840963,298.9266689126413
3604.1252,1.4678624612346198,214.88467707881304
3604.9565,1.468220982299086,298.3481040356467
3605.786,1.4676241595139232,283.47855114948936
3606.6172,1.466945309511046,239.53875908802425
3607.447,1.4664741411178452,279.8014213858019
3608.2788,1.465823560684717,198.76070657981896
3609.109,1.4644719725656667,252.1010840030875
3609.9392,1.4622061443197616,249.58082668413675
3610.7717,1.4591131903757673,226.2883592721582
3611.6023,1.455476103869809,258.7054786960065
3612.435,1.4517601128880728,229.1689795628465
3613.266,1.4486521558724639,234.27461315651402
3614.0994,1.4466125252604969,228.7789428391664
3614.9307,1.4455149682711161,242.13207177799842
3615.7625,1.4447401757897245,318.64211050139113
3616.5962,1.4438112280387698,259.7155103343695
3617.4282,1.44276491711437,245.619009231391
3618.2625,1.4418232686845986,233.341683656981
3619.0947,1.440854238680484,203.96433415321488
3619.9292,1.4392953815915286,254.79332539363074
3620.762,1.4367090819502666,228.67403503352156
3621.595,1.4332506145005057,249.31312353595993
3622.4302,1.4296048728098882,279.08557041442225
3623.2634,1.4265415605280232,236.73658341570834
3624.0989,1.4244559163961532,219.54090508357106
3624.9326,1.4233225626431054,279.3684494653095
3625.7686,1.4227051457382045,241.45703411131916
3626.6028,1.42188676662145,241.4805288080823
3627.437,1.4201226337052433,222.1618830238874
3628.2734,1.4170646984406872,208.40838679589683
3629.1082,1.4130789905356744,307.37352255762505
3629.945,1.4090085061965079,219.22750131029463
3630.78,1.4056476753866303,244.90374775971384
3631.6174,1.403111491364089,248.55574754368558
3632.453,1.4008189912835927,215.8223863644954
3633.2883,1.3979351396977404,262.1873882322655
3634.1262,1.394101011974495,241.8928912152074
3634.9622,1.3897934552126316,301.65658252726814
3635.8005,1.3858414089159414,321.99546963079223
3636.637,1.3827587519610907,241.0709532264359
3637.4756,1.3803575419618739,237.2982279021511
3638.3123,1.3781839999695364,300.76323977716385
3639.1492,1.376013230648354,259.991430127365
3639.9885,1.3740143249698757,255.64756571518348
3640.826,1.3724979599100857,329.23460231322923
3641.6653,1.3715575977187886,219.8139832650818
3642.5032,1.3709708315800684,264.34083207875784
3643.343,1.3702646784723589,273.7638012943644
3644.1812,1.3689333907794412,229.44430241356292
3645.0195,1.3666303647355662,263.91110928088017
3645.86,1.3632483563983295,262.34041903463736
3646.699,1.358920854326766,272.798480201022
3647.5398,1.3539550224074763,290.8269746203758
3648.379,1.3489640787808466,268.8904045676096
3649.2202,1.3447483870280765,260.96805136309547
3650.0596,1.3421120994820452,244.33643977459096
3650.8994,1.3414163410833573,283.3934268580585
3651.7412,1.3424125731785677,240.57676160190178
3652.5813,1.3442988000775118,321.9728063779717
3653.4236,1.3460884042126458,255.07542579855863
3654.2642,1.3470001809641392,270.70465586963303
3655.1067,1.3466998939958514,249.4991650970564
3655.9475,1.3451960937545064,325.71391879188
3656.7886,1.3426211640926853,280.21495461419096
3657.6318,1.3391406927148144,265.4995343920948
3658.4734,1.3351036300041812,235.33387322620655
3659.317,1.3311362896589944,246.75679582465963
3660.1587,1.3281917820000235,225.30397636399016
3661.003,1.3271910191430274,282.68594753889334
3661.845,1.3285725030571762,319.3022608545182
3662.6875,1.3319476441882332,311.81773931170505
3663.532,1.3363426239021514,254.268315552747
3664.3748,1.3407891296125183,237.1021925655297
3665.2197,1.3448446440617738,237.31982497170424
3666.063,1.348391708697209,289.0786515483884
3666.9084,1.3512858775447802,324.33364326941023
3667.752,1.3531152381004747,283.54719447691156
3668.5977,1.353487690335206,274.92816643360084
3669.4417,1.3523358340525085,240.5633484304216
3670.286,1.3500128651844643,302.01000489035073
3671.132,1.3470538228586844,247.68489008678844
3671.9768,1.3439096109043873,259.0837710811155
3672.8235,1.3408043185957403,243.30039327000296
3673.6685,1.33788978052412,260.40952290529236
3674.5156,1.3352719664588615,248.07224381962595
3675.3608,1.332969600256116,309.51892169095515
3676.2063,1.330762907501014,248.69917105690212
3677.0542,1.3283191324915442,295.6756768728985
3677.9,1.3254475577751808,291.4607794111664
3678.748,1.3221330511212421,288.8601615191945
3679.5945,1.3184645920838685,296.1270543653773
3680.4429,1.3144467202852343,284.23693925107193
3681.2896,1.3100848769586382,294.590904676101
3682.1365,1.305405539665529,346.4099474187097
3682.9856,1.300533506919245,245.3908022784301
3683.8328,1.295775818299769,279.1226762762284
3684.6824,1.291579066355339,349.8857905414062
3685.53,1.2886093955272946,365.15067443801365
3686.38,1.2875666143088838,317.7783345662841
3687.2278,1.2889974260846933,452.1349261443835
3688.0762,1.2929561708109967,275.59258050604376
3688.9265,1.2988795602949224,389.1976755806278
3689.7751,1.3057490554988094,314.5475944474793
3690.626,1.3126278529121453,343.1749711057526
3691.475,1.3187994804120904,278.5237092014446
3692.3264,1.32379252101587,297.71250300104964
3693.1758,1.3271351853843827,298.170734344526
3694.0254,1.3286084674462706,226.69670232235882
3694.8772,1.328500276683918,330.0260602241074
3695.7273,1.3276099006806612,302.60720486332497
3696.5793,1.3267974190166825,374.55737796867203
3697.43,1.3265385814950283,261.8228301219102
3698.2825,1.3268150121702775,334.29033517607945
3699.1333,1.3272637230414415,306.67193654948244
3699.9841,1.3273509843056401,275.0478825799177
3700.8374,1.3265657007286669,288.4979723183251
3701.6887,1.3246983434815436,272.3130944589765
3702.5425,1.3219859572218036,278.9030620475305
3703.3943,1.3189718238944814,322.7334642169991
3704.2483,1.3159977138290941,310.7629329205637
3705.1003,1.3129284527735607,278.9010341546299
3705.9526,1.3092752401522936,238.8677827182514
3706.8074,1.3047809456351447,297.9503525999142
3707.66,1.2998646180152886,327.7375651596086
3708.515,1.2953162940725496,255.18659823763693
3709.3682,1.2917257155379391,341.97586906486237
3710.2234,1.2889483364905359,308.02754346795086
3711.0771,1.286390736530499,269.70054334311493
3711.9307,1.2836055839746388,269.2470765472198
3712.7866,1.280698402850483,323.95871334966864
3713.6409,1.2781713907563472,272.0599742320023
3714.4973,1.276395501675069,327.3886583139716
3715.3518,1.2754210343614247,284.6343435847386
3716.2085,1.275202968629807,262.60345526016937
3717.0635,1.276081021469908,297.6008435959392
3717.9185,1.278853657453331,326.0600004092398
3718.776,1.2841948974540074,370.4415820863871
3719.6313,1.2916898304177002,330.0120971625755
3720.489,1.2996293805037265,263.1981808318234
3721.345,1.3056518452236638,290.5397728625662
3722.2031,1.3081776614661753,304.2376565034513
3723.0593,1.307125942119137,293.9543768755645
3723.9158,1.3037284515389227,297.3643333308904
3724.7747,1.2995738019700218,269.40950355677575
3725.6316,1.2958533199652136,375.992948167445
3726.4905,1.2930485316962574,278.7361253879146
3727.348,1.291210533484878,298.4925152756758
3728.2073,1.2901467948745402,293.45352238272875
3729.065,1.2894539860817522,264.865256319257
3729.9229,1.2884685617271083,263.6396867403459
3730.783,1.2865300071109536,243.28976300973915
3731.6414,1.2834580395565613,294.45271911110984
3732.5017,1.2797054127315501,373.52684688960846
3733.3604,1.2760728912088504,339.22450390516036
3734.2214,1.2731491945806768,368.04526422536617
3735.0803,1.271202356073326,336.46339646734884
3735.9417,1.270289975142715,304.0399991917132
3736.8013,1.270389550003176,328.83860192048377
3737.661,1.271186924353262,313.39097497332676
3738.5227,1.2719248140707708,300.1023887410434
3739.3828,1.271603108418128,327.33733733184897
3740.245,1.2695144566230505,310.74287274625317
3741.1055,1.2657206138668384,284.22649787460097
3741.9683,1.261061409726841,310.73455810173067
3742.829,1.256811786011245,328.97650575491394
3743.69,1.2539990506640128,337.00545410904016
3744.5532,1.2530540592082597,312.13418844696963
3745.4148,1.2538070311463945,385.71878508617874
3746.2786,1.2557047068621474,315.93033626178266
3747.1404,1.2580365583409099,377.54819635824066
3748.0044,1.2602026811677203,278.14884509935115
3748.8667,1.261959855364054,298.636537973491
3749.729,1.2635741699054028,307.02609610313743
3750.5938,1.265512500855478,296.95753328020965
3751.4565,1.2678966389171955,368.4380923048087
3752.3215,1.2703137665217736,321.90590638967143
3753.1848,1.2721033598500306,284.5810301314304
3754.0503,1.272882392471747,294.4757464746455
3754.9138,1.272634029274624,256.763513778714
3755.7776,1.2714910991435677,300.84461612830245
3756.6438,1.2696037177240824,299.20241984715295
3757.508,1.2673784138046358,296.8398738381499
3758.3745,1.265653067723814,296.77171704549977
3759.239,1.265480300836943,283.40795434677364
3760.106,1.2674146210132176,304.6616502626889
3760.971,1.2709131351519434,309.0727545186572
3761.8362,1.2744331759660963,306.7030970410364
3762.7036,1.2762142479172431,317.84480392229847
3763.5693,1.2752276858256593,372.5653374975532
3764.437,1.271627980212346,330.8462102141379
3765.3032,1.266454792471827,283.542936838354
3766.1714,1.2609006634349935,307.37423623885013
3767.0378,1.2558227647424136,321.30295446214546
3767.9043,1.251473237310055,347.2427994160399
3768.7732,1.2476652365538907,289.283856342203
3769.6401,1.2440779915216607,300.2028019123242
3770.5095,1.2404477709134851,340.21668063176963
3771.377,1.236801204544678,325.7128647494321
3772.2466,1.2334177496949121,292.62510868826314
3773.1145,1.2307889152477136,339.0982866398581
3773.9824,1.2293411296115102,323.6889576000518
3774.8528,1.229253169517401,283.5445072397974
3775.721,1.2303563665859296,339.13851241135956
3776.5918,1.2321940104282778,306.7816085022232
3777.4604,1.2341589673827,348.21925144862945
3778.3315,1.235707308255012,287.62717012777654
3779.201,1.2364472789951646,368.2357036433105
3780.0703,1.2362664462431043,288.2811042857354
3780.942,1.2354643897407456,296.5151639237651
3781.8118,1.2348477228195824,290.439235941279
3782.6838,1.23544199178917,300.59421342695947
3783.554,1.237859146551025,332.52770583663875
3784.4265,1.2418299767205059,349.828596725575
3785.297,1.2462990217807546,309.2967887211238
3786.168,1.2501107790227417,310.9344279531743
3787.041,1.25245450993017,315.0946025103775
3787.912,1.2528643849515149,293.44496594349084
3788.7856,1.251105202306294,283.42646561401835
3789.6572,1.2472846460891507,347.7961492312177
3790.531,1.2420388744064201,322.80195371190183
3791.403,1.236467674124816,333.1724178228448
3792.2754,1.231575503918073,295.4182768114765
3793.15,1.2279262110854259,369.2100138594107
3794.0225,1.225672577450994,313.401120548571
3794.8972,1.2247205583793448,372.7781942291404
3795.7703,1.2248674249795997,362.7564069185576
3796.6455,1.2257105352439643,345.9571683503921
3797.519,1.226631594779601,354.4412581166816
3798.3926,1.2269943594551322,292.42434905759677
3799.2686,1.2264298491604,330.87228267884075
3800.1426,1.2250267525939125,352.97090010740857
3801.0188,1.2232614713481513,398.0480308626079
3801.8933,1.2217610131362913,394.9200372420687
3802.77,1.2209592391235533,304.7919882551757
3803.6448,1.220916301348409,383.1800615421389
3804.522,1.221355429754506,297.2283104821262
3805.3972,1.2219171786049305,422.39464148841586
3806.2727,1.2223709013366222,317.244787315903
3807.1504,1.2226199053825013,329.7924048355075
3808.0261,1.2226447173972466,341.3514171181958
3808.9043,1.2225657184105967,291.9273924529413
3809.7805,1.2227325712631343,372.9073602435165
3810.659,1.2236150087508646,307.11883625486035
3811.5356,1.2254518826123721,360.41881141945964
3812.4126,1.227946282942285,320.0458305949926
3813.2917,1.2302727773763096,323.9015041135592
3814.169,1.2314650933162357,369.02748448878333
3815.0483,1.2310223424850861,351.9937519855799
3815.926,1.2292203932647856,407.8335913606207
3816.806,1.22693511827348,326.81585072218894
3817.684,1.2251407206820664,300.8780373049564
3818.5623,1.2244029892304278,308.1119185336563
3819.4429,1.2247313456203084,357.2350112944037
3820.3215,1.2256764541019736,359.9537245454435
3821.2024,1.226595060989686,321.03613457367203
3822.0815,1.2269424892500744,330.4235765176801
3822.963,1.2265121273016777,385.610938135027
3823.8423,1.2254611430005458,342.0509304687672
3824.722,1.2241103792797623,350.2977980918258
3825.604,1.222650748134982,346.62429129593954
3826.4841,1.2209821190745318,362.77270151258864
3827.3665,1.218780295437209,335.57711648232646
3828.2468,1.2158380155306436,308.5277509417929
3829.1296,1.2122629329239323,337.7077192943765
3830.0105,1.2084704787573888,342.2890145375743
3830.8916,1.2048289976215405,429.6048697323346
3831.7751,1.2014893338868553,366.3271290465884
3832.6565,1.1985072708098965,364.09704020565005
3833.5403,1.1960327290563602,372.1066451910455
3834.4224,1.194467490470041,312.1059731150847
3835.3064,1.194224186051818,400.77460968555636
3836.1887,1.195386279136712,386.2768846884894
3837.0713,1.1974715526048318,356.6595950951779
3837.956,1.1996067129407668,412.5185005700847
3838.839,1.2010154673115048,307.8131153800922
3839.7244,1.2015174978617418,376.002860944566
3840.6077,1.2015738205610134,430.4851139327392
3841.4932,1.2019878462219513,330.92479120207634
3842.377,1.2034816379449158,391.9308466128351
3843.261,1.206342556025946,374.3370219275057
3844.1472,1.210158793963327,365.2238316033299
3845.0315,1.2137467233269181,324.06573280998
3845.9182,1.2156419689124824,332.2229371514801
3846.803,1.2148609096478404,283.0384130080318
3847.69,1.2116214285960558,353.4958450692084
3848.5752,1.2073780376666892,326.9645256634498
3849.4604,1.2040528180313705,338.6126856580899
3850.3481,1.203039982760402,390.9286695732776
3851.234,1.2045693471958938,293.6617735451063
3852.122,1.207797834771825,341.3837128087286
3853.0083,1.2114140152446136,309.9627560830169
3853.8967,1.2143374929249169,355.3358831876439
3854.7832,1.2160127935329257,312.90958429153665
3855.6702,1.2164784766168948,353.66054878594105
3856.559,1.216083850272729,321.9161166677255
3857.4463,1.2150938578242922,381.7546008650108
3858.336,1.2133887173084466,296.58362086686435
3859.2234,1.2105860785642162,346.6408049612084
3860.1135,1.2064066525932442,330.3419265119455
3861.0015,1.2010883815452218,351.36208104617
3861.8896,1.195367002839489,326.2436644605024
3862.7803,1.1902842489450236,391.95539848006104
3863.6687,1.1868404440239966,363.58770772040265
3864.5598,1.1854902790933817,373.46682208520053
3865.4487,1.185958744350703,359.52225668832665
3866.34,1.1873060351586102,388.6544872792484
3867.2297,1.1883771406830492,363.8628779205587
3868.1213,1.1883690715974151,349.1955426937726
3869.0112,1.1871465558574272,390.68177094409333
3869.9014,1.1851740656160166,323.2845976469482
3870.7937,1.1831711510253504,323.01344688864356
3871.684,1.1817752163244792,302.08533845208115
3872.577,1.1812458318254735,404.8211964313248
3873.4678,1.1813307662407584,362.1839160861111
3874.361,1.1813119899255449,391.47135762385943
3875.2524,1.1804055443477628,352.2412038706992
3876.1438,1.1783162059976673,374.7541209803459
3877.0376,1.1755041688075514,347.9723619264855
3877.9297,1.1729512911841302,355.76966825273786
3878.8237,1.1715001082234413,354.0817605689964
3879.716,1.1713705834359296,361.76463271477365
3880.6108,1.1720420536228444,431.24858938042865
3881.5037,1.1726155536483853,371.45121039762705
3882.3965,1.172410075683154,365.7102794885133
3883.2917,1.171388546897575,352.6945369938849
3884.185,1.17011469581081,391.15205821701375
3885.0808,1.169215137486422,410.68439169323653
3885.9746,1.1688821986036664,309.0990294240754
3886.8706,1.1688239696105667,351.6906972936802
3887.765,1.1686658167619255,334.3230053804944
3888.6592,1.1682563411908833,376.6228426118664
3889.556,1.1675666470824009,358.9722493379306
3890.4507,1.166433721594293,434.67070392696434
3891.348,1.1645587297610818,346.2769453460298
3892.243,1.1618821681103393,414.1399000744969
3893.1406,1.1588474819404786,373.01878411598926
3894.0361,1.156360436891064,365.88087862325756
3894.932,1.1552810300494616,448.59637714589957
3895.83,1.1559865102003832,331.4236226840157
3896.7263,1.158173903510293,383.0169623716966
3897.625,1.1610959547460686,366.4498737714314
3898.5215,1.163930259023534,350.1217380233585
3899.4207,1.166088184707366,340.7499151320654
3900.3176,1.1671656646666024,285.4153256359113
3901.2148,1.1669861203354865,345.1089836507821
3902.1145,1.1657734313067118,321.10085057094614
3903.0122,1.1643534614556312,305.200550475872
3903.912,1.1638788246215497,425.04014860076165
3904.8103,1.165184703034966,361.9015409494668
3905.7107,1.1682817036186743,326.57754112094784
3906.6094,1.1724148785661932,417.94439423944647
3907.508,1.1766341427085751,407.0437009630386
3908.409,1.180300163485925,388.34682268296945
3909.308,1.1832276916017315,342.34280451363855
3910.2097,1.1855265854206447,401.4947088026104
3911.1091,1.1871747193918123,357.0742954792589
3912.011,1.1879100770719204,311.79314540226727
3912.9111,1.1874685621711742,383.6715532553302
3913.8113,1.1860268919595909,349.1521431046947
3914.7136,1.1842605202025545,401.33372201538987
3915.6143,1.1829312488672754,407.6478313382437
3916.517,1.182324000041988,378.1358745759239
3917.4182,1.1821197084439201,378.9063471080484
3918.3215,1.1817119320272356,378.49109653250747
3919.223,1.1807167089469386,341.6725671492895
3920.1245,1.1792738550298616,351.5369555019797
3921.0286,1.1779648982095285,364.46546242397903
3921.9307,1.1773768345748727,366.6841567367075
3922.835,1.1775614366443115,385.30570214614073
3923.7373,1.177897137473288,293.8807189030627
3924.642,1.1775041776146955,350.4644518199115
3925.5452,1.1758957047552796,377.4732973206163
3926.448,1.1732923404230347,386.0411567495134
3927.3535,1.1703666227621896,362.9762602623442
3928.257,1.1677581925658533,346.44290020110964
3929.1628,1.165637152311464,399.52585152238794
3930.0667,1.1636932182247517,385.06217348165757
3930.9731,1.1613162911021018,423.3207912113242
3931.8774,1.158034655951846,391.14970098169067
3932.782,1.15389256892201,438.8793460388053
3933.6887,1.149689676908704,346.26568258061155
3934.5938,1.146799237227996,524.9471391212911
