wavl,flux,ivar
3566.9744,16.26138238185335,2.254380591682402
3567.795,16.194145292798254,1.9126002888925804
3568.6177,16.128340859404,2.328367562667363
3569.4385,16.069999861691365,1.6280410639915939
3570.2617,16.01360772441715,1.9885724373253477
3571.083,15.952559925843014,2.2511460196780306
3571.9065,15.884091738595316,2.2393875068792264
3572.7283,15.81091396633706,2.7250177298940295
3573.55,15.738261209517459,2.1974002278993368
3574.374,15.673600892433246,2.191884070850612
3575.1963,15.626746683606804,1.957730055366936
3576.0208,15.605826957468283,2.2994407892006494
3576.8435,15.61189745883616,2.15949635949676
3577.6682,15.633682648362665,2.189259534479016
3578.4915,15.650069660037286,2.480443027190716
3579.3145,15.640665966207385,1.91724610925523
3580.14,15.596918692393016,2.108178535264224
3580.9636,15.527805579357103,2.4067018728649496
3581.7893,15.456014803842814,2.4454499984097735
3582.6133,15.410195872617209,2.0052492531844543
3583.4395,15.412337372669002,2.040756065767807
3584.264,15.467036692231872,2.3945190683021735
3585.0884,15.556376724882485,2.0635355244087332
3585.915,15.64754412750377,2.308406105813818
3586.74,15.708755807313723,2.2735301470899665
3587.5671,15.72613443219118,2.2112578925238755
3588.3923,15.706234126503023,2.186217605204215
3589.22,15.667589355224566,2.5592876149892096
3590.0457,15.627865552992775,2.318884223730599
3590.8716,15.593890968873687,2.0956807472294767
3591.6995,15.559643112797623,2.9519847664004644
3592.526,15.511506554801862,2.2557866085308973
3593.3542,15.43833507281661,2.234294625328586
3594.181,15.342189991058325,2.087756363251097
3595.0098,15.237692162183063,1.9805844823342114
3595.8367,15.14423059779549,2.108039151106723
3596.6638,15.074101947320905,2.4635401206490024
3597.4934,15.031676518236218,2.391683039152225
3598.3208,15.01716566809005,2.494083080131036
3599.1506,15.02665974341242,2.306040373484493
3599.9788,15.049644733028751,2.5516890500940166
3600.8088,15.070652946632478,2.4871306778045943
3601.6372,15.078463859622552,2.2372936172203404
3602.4678,15.075341125825734,2.9368143221010214
3603.2964,15.075235053133206,2.4090625932976777
3604.1252,15.092169172572822,2.1544572699615294
3604.9565,15.129620670329851,2.084456785024871
3605.786,15.179176256270326,2.3402092365070377
3606.6172,15.229050236080434,2.0690744304330084
3607.447,15.27109381712487,2.2530232968722195
3608.2788,15.302893959653938,2.0351811138820506
3609.109,15.323489189878995,2.4660716947765016
3609.9392,15.331411135619492,3.192796908588422
3610.7717,15.326215139674149,1.844548974349455
3611.6023,15.311833318513859,1.8594406480927201
3612.435,15.295345192399244,2.189261956949577
3613.266,15.280868295817944,2.8212915595314154
3614.0994,15.263806639362501,2.6512718135629725
3614.9307,15.233411346056714,2.1010623871330156
3615.7625,15.181631178715703,2.265745295282428
3616.5962,15.110512647150337,2.377806605552583
3617.4282,15.031275180134347,1.993007211939934
3618.2625,14.955028700493742,2.145822011361174
3619.0947,14.8877141779538,2.2061319219146385
3619.9292,14.828287912515039,2.315944340293774
3620.762,14.773055127377338,2.0520819398143217
3621.595,14.717512189970584,2.1901467477785626
3622.4302,14.6595771751289,2.485901480668798
3623.2634,14.602710430661187,1.9030338147214099
3624.0989,14.55414819810747,2.598028141956404
3624.9326,14.519741557835546,2.3404142424243832
3625.7686,14.496719628032652,2.505880695636062
3626.6028,14.4753603272628,2.9342893524816502
3627.437,14.446613347419321,1.9966345758586774
3628.2734,14.409257495046187,3.43727954523422
3629.1082,14.370902438685423,2.693951133232921
3629.945,14.343412915055378,2.4876942936147834
3630.78,14.337992399891283,3.0631435157720293
3631.6174,14.358505462841833,2.2575778475498103
3632.453,14.397006862912258,2.393069982552603
3633.2883,14.436669986178508,2.2032104503680494
3634.1262,14.462041523434772,2.282180937349943
3634.9622,14.468116980326284,2.7219235451879484
3635.8005,14.460452755016485,2.9088056868594725
3636.637,14.447265436660224,2.214776479523351
3637.4756,14.433473268806802,2.5634858808825522
3638.3123,14.421131023786579,2.560575036948973
3639.1492,14.411734446309689,2.247135999376041
3639.9885,14.406725497607408,2.5594160959490035
3640.826,14.40594095603429,2.5797273668688763
3641.6653,14.406544444919653,2.6238001940702875
3642.5032,14.403734436380146,4.066815880331793
3643.343,14.392564442455946,2.599088691905366
3644.1812,14.370153396038424,2.16180752532969
3645.0195,14.336610596969706,2.672313294210126
3645.86,14.2943200826596,2.654106606431522
3646.699,14.247114648988905,2.451171186185172
3647.5398,14.199322878202826,2.601011493067366
3648.379,14.15635876147796,2.873493268360387
3649.2202,14.121960023403663,3.089287495270949
3650.0596,14.09682761110193,2.9082236139680036
3650.8994,14.080038438470556,2.7260413880997914
3651.7412,14.075983209395659,2.689195000655139
3652.5813,14.098810895072676,2.5294831951759327
3653.4236,14.166758428827052,2.4798963562297236
3654.2642,14.283771867123168,2.2738931039340384
3655.1067,14.422978814040937,2.1372443375262926
3655.9475,14.528061192666932,2.611439282448494
3656.7886,14.546832199630028,2.9015138001611724
3657.6318,14.466822249698804,3.063005827953405
3658.4734,14.324532164231782,3.1786670856970947
3659.317,14.175012999046823,3.0139408872326983
3660.1587,14.05691165673576,3.147992486056838
3661.003,13.977005045628456,2.3738116005598378
3661.845,13.924955012433578,2.6461015624960367
3662.6875,13.889463079310353,3.489744968481087
3663.532,13.86623196712089,2.1989652875944676
3664.3748,13.85519697181801,4.016863751855313
3665.2197,13.856574577494664,3.099447468321287
3666.063,13.869307418521105,2.9972719524234614
3666.9084,13.889025710302237,1.9970371647778857
3667.752,13.905833307156994,2.5476932365033464
3668.5977,13.906714784379005,3.0373634999446217
3669.4417,13.88289779429046,2.8383016832350063
3670.286,13.837422888758683,2.943978691879854
3671.132,13.784666970993788,3.4278500501368327
3671.9768,13.741516861662461,3.0285821269476214
3672.8235,13.715939876227374,3.4250245920941023
3673.6685,13.704615798723838,3.565432534497569
3674.5156,13.698322116032159,2.5607899004035817
3675.3608,13.689957781510046,3.7314172213961134
3676.2063,13.677826716723148,2.912617390791063
3677.0542,13.664846610274845,2.5554256110204063
3677.9,13.656523871228895,2.436098871397151
3678.748,13.65796572131904,3.556390454984806
3679.5945,13.670020339628598,3.640905246829144
3680.4429,13.685851398907936,3.129300133040094
3681.2896,13.69211741766767,2.2946887478431175
3682.1365,13.677138995053777,2.4908600365727005
3682.9856,13.640617489690507,2.727745733829174
3683.8328,13.596954950355409,3.4033486073168393
3684.6824,13.565747888769565,2.8500777210962664
3685.53,13.558548340472596,2.7180210340224864
3686.38,13.571492603294812,2.9106280645229123
3687.2278,13.590065724239906,2.8911217408421086
3688.0762,13.598693794118244,2.561783413315339
3688.9265,13.587571240173236,2.7490428461094947
3689.7751,13.55629656253567,3.0554728211246864
3690.626,13.514383520068792,2.8627336982445546
3691.475,13.477883383032637,2.9718512352856434
3692.3264,13.459384546663735,3.9936496141264604
3693.1758,13.4591986586175,3.2623006809320754
3694.0254,13.46440703963769,2.797887984746842
3694.8772,13.459070473707568,2.239746138504653
3695.7273,13.436521940699437,2.827494420695155
3696.5793,13.403313871930836,2.995426037042503
3697.43,13.3729958568055,2.768528414598605
3698.2825,13.354900340513966,2.7406516732777186
3699.1333,13.347383776101434,2.607249249021179
3699.9841,13.338266739817916,2.552155745351209
3700.8374,13.313191195913678,2.9084824483362364
3701.6887,13.26645571964995,3.467813097651321
3702.5425,13.205092385660016,3.41644402507579
3703.3943,13.143936317801652,3.8076619230265156
3704.2483,13.093393383982338,3.34549502439461
3705.1003,13.054320021858334,2.86903239455866
3705.9526,13.020116717438167,3.3808817200748256
3706.8074,12.984003525143441,3.1366884748634862
3707.66,12.94264300298465,3.5089526597677296
3708.515,12.89432878346356,3.309350690365974
3709.3682,12.838648195207032,3.9920275549321653
3710.2234,12.777013233265595,2.9330860161621226
3711.0771,12.715504016878,3.707495861451248
3711.9307,12.662718357900323,3.1440459196185655
3712.7866,12.62541692887092,3.0336888292903574
3713.6409,12.604471814728466,3.0519012613006087
3714.4973,12.59404601596798,3.3129593932849684
3715.3518,12.5866627098225,3.6212748668076298
3716.2085,12.578966586440922,3.3333688077250527
3717.0635,12.574295322488727,3.676888753141312
3717.9185,12.579186344661228,4.017698297588133
3718.776,12.597301312232235,3.5569830906234037
3719.6313,12.625012934951767,3.4834575599974635
3720.489,12.652493946992978,4.718634389959027
3721.345,12.668598886776753,2.9484572477455777
3722.2031,12.667789498672624,3.4319848470411274
3723.0593,12.652667188828897,2.945784737441535
3723.9158,12.630484514804378,3.1062002614113546
3724.7747,12.606823391111227,3.6442834371515604
3725.6316,12.58352910498357,3.2819400925825906
3726.4905,12.56169756963242,3.6529173766168803
3727.348,12.545811631649777,3.6758037157278323
3728.2073,12.54160000265868,3.2153083314788162
3729.065,12.550172860987413,3.437864572093805
3729.9229,12.564869617754324,3.292095077536619
3730.783,12.575705508847864,3.4819055209743968
3731.6414,12.577167037085145,3.3672972299281843
3732.5017,12.571747870396228,3.9746052398937493
3733.3604,12.565447476147973,3.1139614394244446
3734.2214,12.560288058611842,3.8651263288836923
3735.0803,12.551385889105465,2.972218699698603
3735.9417,12.530468112098458,3.025472750102812
3736.8013,12.492404681157547,3.2523229520626873
3737.661,12.43862299097561,3.040692216714358
3738.5227,12.376991287771732,3.514088168775115
3739.3828,12.320307779085715,3.3046802428442748
3740.245,12.281826858315215,3.89142729869301
3741.1055,12.270900206888951,3.674166463165118
3741.9683,12.287561757934002,3.421263050235095
3742.829,12.322444199435228,3.3113097170120844
3743.69,12.36190620467534,3.0048726866253626
3744.5532,12.39409461989929,3.2295669590954743
3745.4148,12.411326119373033,2.9132340520018905
3746.2786,12.40982056126027,2.991733151767382
3747.1404,12.388590885942547,3.2055438922479045
3748.0044,12.350572914255906,3.6648609738652986
3748.8667,12.30436914303269,3.4119064942856134
3749.729,12.261768144054908,3.140222112134493
3750.5938,12.231892007220779,3.4190788757782506
3751.4565,12.215333388146288,4.382497699937529
3752.3215,12.203325716645708,3.417468700896689
3753.1848,12.185322994195888,3.0776898468015155
3754.0503,12.157917051073845,3.217997274098767
3754.9138,12.128181084588956,3.497093351813796
3755.7776,12.10685406433488,3.3072749098393577
3756.6438,12.098868612283416,3.8994688961821407
3757.508,12.09945657525677,3.300111061432899
3758.3745,12.09910981600046,3.5445110859768763
3759.239,12.091651908634644,3.5605023827255313
3760.106,12.077067495286384,3.9549343845075544
3760.971,12.058385971251058,3.682970197712324
3761.8362,12.037547068638952,3.786491358437947
3762.7036,12.015218806882212,3.845325311015402
3763.5693,11.992890480139327,4.227367970474088
3764.437,11.97316727164661,3.548579349117646
3765.3032,11.958876913893622,3.811476646536654
3766.1714,11.951324040861342,3.857048641535968
3767.0378,11.949614065083642,3.850485046586705
3767.9043,11.94993960644123,4.076952877281093
3768.7732,11.945963359325418,3.667177199093633
3769.6401,11.930995838456033,4.007567974219394
3770.5095,11.90108196260858,3.3343754213935934
3771.377,11.857568917055499,3.465188425427163
3772.2466,11.806780988812491,4.66681239190114
3773.1145,11.759343043788963,4.144653505379219
3773.9824,11.726175617184497,3.512759672817389
3774.8528,11.71407366601787,4.333201454341996
3775.721,11.72196648618981,3.907631410037369
3776.5918,11.741821064759698,4.453616861824945
3777.4604,11.763956004745207,4.3383143610245
3778.3315,11.782365022137727,3.119688896745293
3779.201,11.794996174605654,3.7647334130755654
3780.0703,11.801329744476636,4.121871329922346
3780.942,11.800118384335894,3.4159025752308265
3781.8118,11.790750383358858,3.718443976251546
3782.6838,11.776052250787473,3.7894426092705022
3783.554,11.762208187482381,3.2868148792142895
3784.4265,11.753665655000932,4.032671522276573
3785.297,11.748433342562624,4.012655722980994
3786.168,11.738683228696202,3.6868167406690393
3787.041,11.7169275998035,4.172243378066287
3787.912,11.68155343231176,3.87653234998115
3788.7856,11.636242119699816,3.6712385333262625
3789.6572,11.586775306217387,3.8387632934322617
3790.531,11.537334806422141,4.5064966287620525
3791.403,11.491206095232345,4.152317706582138
3792.2754,11.450619384335385,3.820397609074816
3793.15,11.41689303389882,3.7253218362380878
3794.0225,11.389819080278764,3.882723721020814
3794.8972,11.367026581450117,3.955730391346064
3795.7703,11.345822676234821,3.986095174779881
3796.6455,11.324868236750904,3.885314428484796
3797.519,11.305528021052677,4.116706085320513
3798.3926,11.28982916432464,4.393832874923907
3799.2686,11.277409111795038,3.97396866272022
3800.1426,11.264189390562025,4.511400862342611
3801.0188,11.24455784104307,4.529920418641943
3801.8933,11.216288946212845,4.332400938257435
3802.77,11.183071872038902,4.328000677488518
3803.6448,11.153643311616896,4.4241987932258215
3804.522,11.13667740298868,4.791012449353969
3805.3972,11.136840194777431,4.3942780937801995
3806.2727,11.152895157496186,4.241033053369701
3807.1504,11.179556551841252,4.328573629524512
3808.0261,11.21006553684222,4.370664812376161
3808.9043,11.23882291899482,3.7611128714664392
3809.7805,11.261400938500573,4.189607427256129
3810.659,11.274997922858418,4.328781430781853
3811.5356,11.278776162526231,3.4378716608763535
3812.4126,11.275085281183362,4.883146345284554
3813.2917,11.268091108354948,4.950167181467968
3814.169,11.260191924012734,4.66060279807738
3815.0483,11.24919623689128,3.619392693763298
3815.926,11.230152216834139,4.338122751306896
3816.806,11.199956936053699,3.770325227758978
3817.684,11.161382557264025,3.9406969013947717
3818.5623,11.121988011997226,4.364018663874441
3819.4429,11.089689185042689,4.546586779289743
3820.3215,11.067849256293409,4.770565673096918
3821.2024,11.052823049176132,4.646559604772583
3822.0815,11.037293268464412,4.706724919930963
3822.963,11.015056210927803,4.631612988032017
3823.8423,10.984468639486446,4.329486226924659
3824.722,10.947436775872704,5.021876125608725
3825.604,10.907091238585064,4.429780292391158
3826.4841,10.86650694116943,4.996053683824821
3827.3665,10.827564503104801,4.067315862452845
3828.2468,10.79170688499843,4.858539337466305
3829.1296,10.759316389484821,4.798495194588266
3830.0105,10.730399309175448,4.168368868337419
3830.8916,10.703629170363811,3.7077811625780503
3831.7751,10.676532470256229,4.313480057154855
3832.6565,10.646764685058121,5.425550288647809
3833.5403,10.613103297435385,5.1569865809002415
3834.4224,10.576472765089513,5.237770797415477
3835.3064,10.538701728877152,4.796854165914913
3836.1887,10.502567360183118,5.345300937871131
3837.0713,10.47084046145678,5.597846202981511
3837.956,10.445980207955435,4.012725205752342
3838.839,10.430218578192461,5.704820459949057
3839.7244,10.426322105393982,5.784439567387245
3840.6077,10.438477706471934,4.89657668031624
3841.4932,10.470054195283689,5.459382344901456
3842.377,10.518829504298209,4.891647484706636
3843.261,10.574906901570536,5.020660373081248
3844.1472,10.623907650593052,4.891517442723077
3845.0315,10.654167532362413,4.878764089344557
3845.9182,10.663362156822936,4.4811053866199675
3846.803,10.658190536376079,4.619629269854376
3847.69,10.650320453282307,5.314558710238124
3848.5752,10.650823985976997,4.210554388099445
3849.4604,10.665264519323136,4.873265694075567
3850.3481,10.691081634640327,5.547379758462391
3851.234,10.718781841956439,4.5987687776467165
3852.122,10.738638122998852,5.824851183328085
3853.0083,10.746777801340373,4.616095303052958
3853.8967,10.746170030353436,4.024017038023188
3854.7832,10.740686675879601,5.605443146613289
3855.6702,10.729566248669341,4.476692715701106
3856.559,10.70827691922761,4.467300092267311
3857.4463,10.674975309704067,4.409890363897857
3858.336,10.634638631442858,4.615590628163358
3859.2234,10.597406985373466,4.417352954708562
3860.1135,10.571169065039209,4.859789100008781
3861.0015,10.557487160133677,4.766796076513558
3861.8896,10.551623847702169,5.091032841422856
3862.7803,10.54686654449318,4.951903327806993
3863.6687,10.537944298122726,5.162416248498339
3864.5598,10.521829728406836,4.8446328176806155
3865.4487,10.497453428110486,4.462918652074225
3866.34,10.465528434914225,4.094749501130196
3867.2297,10.430030477101168,4.239491993122876
3868.1213,10.397138686692985,4.475649502631799
3869.0112,10.372216918081065,5.344034716036031
3869.9014,10.355264258597819,4.626371581033403
3870.7937,10.340936114648951,4.230981964097136
3871.684,10.322835085251,5.068703166752545
3872.577,10.297717701239144,5.35216004965402
3873.4678,10.266435024786462,4.880413057664431
3874.361,10.230749672527907,5.561643669128626
3875.2524,10.19186515514945,4.694635155810676
3876.1438,10.15058676711955,6.26227415780336
3877.0376,10.109237907025385,5.999019862458979
3877.9297,10.071356718372694,4.883484606989719
3878.8237,10.037668090133236,5.1993197810810505
3879.716,10.004323829322942,4.298007535636717
3880.6108,9.964108908027457,5.849805472259431
3881.5037,9.911509041096153,6.048979066503379
3882.3965,9.844757579246284,5.315134707942813
3883.2917,9.765573080217425,5.244261048040066
3884.185,9.678719118208447,5.919453192717392
3885.0808,9.589736115589384,4.874397657371815
3885.9746,9.504958995354398,6.363378494120869
3886.8706,9.427488996788426,6.029443379584934
3887.765,9.35809791847146,5.680476606888698
3888.6592,9.296323401771632,5.931228579472668
3889.556,9.243795940073039,5.609196118281954
3890.4507,9.204874527964934,6.799219254062084
3891.348,9.183719351843884,6.361083461465435
3892.243,9.182917094138986,5.684538273360289
3893.1406,9.202312866416802,5.649051745997482
3894.0361,9.239269215720906,6.399181537554809
3894.932,9.289727917747422,5.838571455812647
3895.83,9.349208055678663,5.935649560462232
3896.7263,9.412807911812667,6.055910869991157
3897.625,9.476513039755321,5.257362732240876
3898.5215,9.5371020520761,6.433457535254395
3899.4207,9.59544741900381,5.661587511484876
3900.3176,9.655790191349222,6.773159975240752
3901.2148,9.723981746516118,5.200539989112871
3902.1145,9.802258633588773,5.786079942878342
3903.0122,9.885779211315567,5.083673385540594
3903.912,9.965507567504106,4.824496539632906
3904.8103,10.031762226946244,5.037902880053925
3905.7107,10.080656194468535,4.930173734823934
3906.6094,10.114765191869994,6.058834085880953
3907.508,10.141149520018129,5.174464178682612
3908.409,10.166070751538395,5.539802712569456
3909.308,10.191773326755094,4.593895268952466
3910.2097,10.217157711313119,4.5336089376307696
3911.1091,10.239491336317453,4.933171985130204
3912.011,10.257020071596179,5.681775433158283
3912.9111,10.269907770241238,4.53892844878993
3913.8113,10.280821706928837,6.102316772870627
3914.7136,10.293427531948847,4.521594506625875
3915.6143,10.309835778285859,6.363237950934292
3916.517,10.329284283942322,4.415761461618431
3917.4182,10.348721746728996,5.2451146971139195
3918.3215,10.36521192355377,5.25084716945232
3919.223,10.376690038889832,4.5162888372912215
3920.1245,10.382110543678689,4.121165424014652
3921.0286,10.381848421008636,4.094962613077158
3921.9307,10.379523553172314,5.414606548604854
3922.835,10.382355937769955,4.748117602674324
3923.7373,10.397556337809226,4.644878171631773
3924.642,10.426556204461871,5.223035327692658
3925.5452,10.461782687422524,4.656965556162365
3926.448,10.49091991353862,4.750495577568996
3927.3535,10.504862581853505,4.488711881820528
3928.257,10.50281337077266,4.716635217164285
3929.1628,10.490363376739838,4.5057297737361255
3930.0667,10.473062412409407,4.251094229013045
3930.9731,10.452406916340884,4.461756255513696
3931.8774,10.427627746417262,4.359699158066098
3932.782,10.398665063190368,5.663955886225512
3933.6887,10.367394557050435,5.327275229210968
3934.5938,10.336519415413678,4.950889116862395
