wavl,flux,ivar
3566.9744,1.2824598844462025,176.97451063560374
3567.795,1.2808765278984693,229.49148124343583
3568.6177,1.278118911863275,266.23046425626535
3569.4385,1.273607669173813,203.91481755641783
3570.2617,1.2671437352499524,192.77632151337565
3571.083,1.2598400138820796,151.90450096714176
3571.9065,1.2539623707139165,180.83618463414035
3572.7283,1.2517227895907272,235.7403338486712
3573.55,1.2536181720523796,316.69586639697036
3574.374,1.2582150249902608,173.93397029128477
3575.1963,1.2632256613311241,208.6984266406744
3576.0208,1.2669591447402104,219.98923528989343
3576.8435,1.2687605561528914,208.91513388916644
3577.6682,1.2688061142318063,232.55015914860178
3578.4915,1.2676855943413305,236.1013995454172
3579.3145,1.26617511369943,209.87068525504128
3580.14,1.2649495228173833,136.0121747352687
3580.9636,1.2642487196506642,258.73925015774944
3581.7893,1.2637285963250444,233.81497355091062
3582.6133,1.262791989159077,202.02705474404613
3583.4395,1.2611379839438208,227.587124166808
3584.264,1.2591006493249401,196.61252232271926
3585.0884,1.2573488062419778,184.21941509056202
3585.915,1.2562688593579336,164.09743493523357
3586.74,1.255664384738526,188.83736803357945
3587.5671,1.255053159629213,161.22250176502683
3588.3923,1.254126400783085,229.92643900182608
3589.22,1.2527270370693429,179.73580908641568
3590.0457,1.2506163656642886,175.69900530229046
3590.8716,1.2475680929877666,177.2809362166198
3591.6995,1.2438739114143917,200.0406542842115
3592.526,1.2405462740237247,285.35672001748907
3593.3542,1.2386701599630845,198.02870982271898
3594.181,1.2386069398209825,179.22990047890676
3595.0098,1.239794180937295,234.61587296359056
3595.8367,1.241401497772749,217.22746531057294
3596.6638,1.2430410394882774,261.10082963850584
3597.4934,1.2447703097480178,253.69608720020264
3598.3208,1.2465501715378746,214.28813420929885
3599.1506,1.2479143868266376,180.9549888107913
3599.9788,1.2480902930033768,251.73508398193383
3600.8088,1.246455887509382,231.4489581521975
3601.6372,1.2429084126674688,184.3377272242251
3602.4678,1.2380113251387,187.3307992284899
3603.2964,1.2330242203070427,195.06632922449054
3604.1252,1.2294848067348416,175.85030491928546
3604.9565,1.228577434981311,244.8206730789192
3605.786,1.230379272233411,323.15802926536367
3606.6172,1.2336873172845166,187.3780330641527
3607.447,1.2367626387554593,223.31961651644772
3608.2788,1.238474307567641,216.81592255678717
3609.109,1.2386886037991895,188.5900025137632
3609.9392,1.2377951164142906,245.03372777696683
3610.7717,1.2360150133419436,297.50957426049365
3611.6023,1.2333288578468682,231.04107431419263
3612.435,1.2298214075211296,223.49867556698155
3613.266,1.2260176708498849,200.43038301855097
3614.0994,1.222689323340101,225.50408902589967
3614.9307,1.2204878351171615,168.00452040744364
3615.7625,1.219447271200171,217.2209547077319
3616.5962,1.21886915999037,161.53112870340604
3617.4282,1.21767433981605,163.04045303487047
3618.2625,1.2151376617893448,202.67497689958518
3619.0947,1.2114240494988557,180.64960065490263
3619.9292,1.2072619028648774,223.1813713368731
3620.762,1.2032751863854312,175.49518282643487
3621.595,1.1996449725226983,169.9556378598936
3622.4302,1.196646556201045,215.9490573691896
3623.2634,1.1951784460813237,192.21466118563
3624.0989,1.1963568447311237,194.01027296487484
3624.9326,1.2004754019573378,298.6668557198535
3625.7686,1.2063695968123278,221.25925373897473
3626.6028,1.2118214196095167,198.35821879070141
3627.437,1.2148044628680397,313.2191985913492
3628.2734,1.2142926460030503,193.62423724305017
3629.1082,1.2104146936694837,187.91662896441073
3629.945,1.204090886813277,209.09950187908353
3630.78,1.196597188602829,249.02643512038438
3631.6174,1.188853067378734,255.12452736555255
3632.453,1.1810923718525657,211.04447960728797
3633.2883,1.172874459439072,198.41451873232273
3634.1262,1.1639911936386578,220.57561312812194
3634.9622,1.1552950167503169,200.5091169183768
3635.8005,1.1482112347389755,310.5454701652364
3636.637,1.1436769959981186,277.7747981411885
3637.4756,1.1412092475331908,180.63772658880413
3638.3123,1.1395962245536104,216.6112297525221
3639.1492,1.1381951411194735,331.7816097819476
3639.9885,1.1375907171249575,297.82381230313894
3640.826,1.1389129911234948,265.94925973445686
3641.6653,1.142638850893261,220.98599951250927
3642.5032,1.1479488524607095,273.25169513128907
3643.343,1.1530893121640091,244.197939963386
3644.1812,1.1562168753637119,227.34178286625766
3645.0195,1.1564172085545172,218.23990608886666
3645.86,1.1540315100587275,236.41290105391084
3646.699,1.1502709957286574,225.38715408080756
3647.5398,1.1463218853735826,231.12796031896454
3648.379,1.1428818732989234,242.2267613291289
3649.2202,1.1402507655808622,269.8056386844334
3650.0596,1.1387593533667504,272.1093617643872
3650.8994,1.1386455837189509,288.995367782234
3651.7412,1.1395813537589907,237.95508535199514
3652.5813,1.1404459211500868,235.14313034809615
3653.4236,1.1399456364262839,217.94682081470694
3654.2642,1.1375991759159914,230.12795822859968
3655.1067,1.1341444659832336,181.4200659311618
3655.9475,1.1309979415323452,302.0914077004448
3656.7886,1.129160285868987,208.5723037997831
3657.6318,1.1286265299164513,227.30976260666762
3658.4734,1.128586013944489,216.55035592432571
3659.317,1.1281031475533092,173.67791908886957
3660.1587,1.1266852554645117,273.8528361154907
3661.003,1.1244438849211524,272.7719830002477
3661.845,1.1220265955435478,276.13056541804985
3662.6875,1.1202738530581908,307.0636392807857
3663.532,1.1197353710121432,222.59136324038087
3664.3748,1.1201792018345094,219.36904455058942
3665.2197,1.1205507958888998,266.0376596602745
3666.063,1.1195466287903995,306.3344388129744
3666.9084,1.1164875652352086,208.68861773989056
3667.752,1.111952709041161,342.36914807721445
3668.5977,1.1075606340182325,227.66445852874932
3669.4417,1.1051097738088782,273.0029078013643
3670.286,1.1054916866984896,230.22865557696758
3671.132,1.108425363138126,273.6220508098842
3671.9768,1.1128823525444753,298.917649575872
3672.8235,1.117797278896713,262.38960151422225
3673.6685,1.1223374488776925,172.387147164766
3674.5156,1.1259493501842557,264.9815106057544
3675.3608,1.1281282724916761,245.4100229201821
3676.2063,1.1284395644803902,265.78339000683775
3677.0542,1.1266637872107332,268.46870935587475
3677.9,1.1231816392502196,252.82759809493604
3678.748,1.1191005370660791,283.01287994923723
3679.5945,1.115965282983992,315.4622328915269
3680.4429,1.1149029018183394,244.62256882081118
3681.2896,1.1160084119748785,246.57804907218193
3682.1365,1.1183778676470086,243.54422398226527
3682.9856,1.1208905999081142,351.24325224654467
3683.8328,1.1230144937754196,278.9339502751396
3684.6824,1.125070361026856,234.14143666898104
3685.53,1.1276562569087294,301.62442941839106
3686.38,1.13092874086909,261.54735040903256
3687.2278,1.134234174528882,232.6856882490785
3688.0762,1.1365138548615719,211.62296644065518
3688.9265,1.1368749643137546,229.2722848611845
3689.7751,1.134971218021909,206.60550991594064
3690.626,1.1310279491559183,217.80794131718073
3691.475,1.1257611976256534,237.26019934691905
3692.3264,1.1201400407352466,231.93956068300923
3693.1758,1.1152225266473204,231.55921817155462
3694.0254,1.1117820472598035,273.82256799185893
3694.8772,1.1101887026832875,240.9140982409139
3695.7273,1.110401004370591,182.4090766796317
3696.5793,1.112014094982061,275.1143565924446
3697.43,1.114267553992807,257.61441550810406
3698.2825,1.1161016680419695,231.84685140228635
3699.1333,1.1164311266884388,203.04169012891
3699.9841,1.1146571827571703,233.0522193538816
3700.8374,1.1108666808608938,233.67273169088256
3701.6887,1.1056664523656305,219.36054633777212
3702.5425,1.0997732481924216,245.7377497596449
3703.3943,1.0939994601399488,264.75236863640873
3704.2483,1.0890934372894008,262.9427266374226
3705.1003,1.0855734430007085,313.079832918953
3705.9526,1.0833478862266963,276.34893601058354
3706.8074,1.081913817617379,253.8581461940836
3707.66,1.0809312582224526,283.6563051383559
3708.515,1.0806016143548796,280.3161335500245
3709.3682,1.081442648654372,288.47151866556294
3710.2234,1.0836346482304147,250.12957303357007
3711.0771,1.0866317231049556,221.67755787606038
3711.9307,1.0894504770510502,289.4219940348739
3712.7866,1.0912552547747816,219.84398577186235
3713.6409,1.0916860400371706,231.5621923010531
3714.4973,1.0908128682763856,314.3593420291428
3715.3518,1.0888957115552624,286.98075145896615
3716.2085,1.0861833056141312,330.97698660421827
3717.0635,1.0828078445832352,298.3389002029303
3717.9185,1.0787350117985164,242.15881591743886
3718.776,1.0739798366079374,276.50287733016546
3719.6313,1.0688818427019762,280.4218332029428
3720.489,1.0639616253448954,323.2867252360968
3721.345,1.0597527983554815,304.459897847869
3722.2031,1.0565890578548973,360.7979000575608
3723.0593,1.0547560452421818,282.80712980745255
3723.9158,1.0544979063193438,288.9106061629516
3724.7747,1.0559849341780947,252.53005637286188
3725.6316,1.059150154533103,243.28384161194145
3726.4905,1.0635916301763357,380.55006261675896
3727.348,1.0684176622611419,261.51374563915493
3728.2073,1.072357410582088,278.1848573661346
3729.065,1.0740560384890543,307.5600824710495
3729.9229,1.072726910446553,200.83120289560134
3730.783,1.0685553252960551,263.7205443764846
3731.6414,1.0627374077117169,284.708811375677
3732.5017,1.0569185220095805,316.219323713646
3733.3604,1.0526023506739892,341.1302014425968
3734.2214,1.0505212142971783,288.37116536590486
3735.0803,1.0504562795459396,283.7973026201575
3735.9417,1.0513115506927697,282.6193258955234
3736.8013,1.0516266200618376,277.4621218908409
3737.661,1.050313296584522,263.06841265887266
3738.5227,1.0472540687288077,281.92429771164245
3739.3828,1.0434623381093648,279.17533030097405
3740.245,1.0405148526634471,265.9446388621724
3741.1055,1.0396826181315786,326.32516799941067
3741.9683,1.04115291798195,334.55636675361825
3742.829,1.0440104679703464,279.98819198472694
3743.69,1.046900211045057,337.5209714624428
3744.5532,1.0487934138060113,416.78752172816826
3745.4148,1.049318572501076,303.07244330613685
3746.2786,1.048640083715532,239.51640476278507
3747.1404,1.0471145641913229,318.55749457256934
3748.0044,1.0451179509941249,303.0818540906324
3748.8667,1.0432083001836612,281.5356082720952
3749.729,1.0424454198786677,285.31066709183716
3750.5938,1.0447984736901197,259.33482537285175
3751.4565,1.0532209003904007,260.77695464782613
3752.3215,1.0709063746284189,281.8311938265676
3753.1848,1.0987177566256237,404.8434222156345
3754.0503,1.1324572910252837,276.43922023500545
3754.9138,1.1618249969789591,256.9835898633301
3755.7776,1.175406967920021,15.642221110710617
3756.6438,1.1675224104747488,249.41362660066025
3757.508,1.1422509403166816,271.8091250266794
3758.3745,1.1099886775685952,286.9816015171243
3759.239,1.0808076568370908,274.3969069051518
3760.106,1.0593589736253834,281.22827694984596
3760.971,1.0456274328620383,268.36088519765303
3761.8362,1.037234967963614,308.17435805194305
3762.7036,1.0319212896049466,292.6810144492425
3763.5693,1.028346298059101,346.06305898089045
3764.437,1.0258814704785477,349.1670556105898
3765.3032,1.024219514622986,279.5484933198443
3766.1714,1.0230444348637602,294.3909345150718
3767.0378,1.0221486709274454,299.5976367282568
3767.9043,1.0215946555087778,442.01168288789245
3768.7732,1.0215957546342194,268.20130019560895
3769.6401,1.0221433816961325,369.2838112785229
3770.5095,1.0228666750566096,412.61662804339534
3771.377,1.0233086490603192,238.85308295537527
3772.2466,1.0233062153508239,314.31169265087937
3773.1145,1.0230244219662514,296.2863058861301
3773.9824,1.0226934826216487,337.3505032757835
3774.8528,1.0223999316528163,338.0501074786391
3775.721,1.0221479321259772,346.6247684192857
3776.5918,1.0220167912709777,406.40330061242486
3777.4604,1.0221930528994887,332.18181589551483
3778.3315,1.0228503081210485,319.2919355299988
3779.201,1.0240310391608294,243.72720801886308
3780.0703,1.0256314419578352,291.3877104278408
3780.942,1.027443785883297,246.20773797303048
3781.8118,1.0292133772138614,223.34735786309952
3782.6838,1.030746394569469,315.12705572372016
3783.554,1.0318831542156164,279.1459188920485
3784.4265,1.0324264768063316,281.2977658593471
3785.297,1.0320784650450399,269.11408813918973
3786.168,1.0306164410965508,292.33741978267415
3787.041,1.0281151809088078,339.5539737191176
3787.912,1.025002464642896,302.4692581396056
3788.7856,1.0217868441066986,318.1434684886908
3789.6572,1.0188855857561319,274.7947215665891
3790.531,1.0165232828239243,294.97737724253466
3791.403,1.01483726914866,353.14761219613064
3792.2754,1.0138282066617363,340.60243646347016
3793.15,1.0133594168865976,329.693287911225
3794.0225,1.0132241681881506,284.34280290444167
3794.8972,1.0132009504685457,296.2555919238562
3795.7703,1.012962700762368,271.07271487036405
3796.6455,1.0119799523297255,295.5816805559831
3797.519,1.0097403954443305,253.49322113702897
3798.3926,1.0061708657904544,332.35872669909946
3799.2686,1.0018404725741399,375.5478206958944
3800.1426,0.9977817978685116,332.0223004128859
3801.0188,0.9949981433968528,373.8847733847203
3801.8933,0.9942436303495653,283.8800070755255
3802.77,0.99585672060662,341.49662553964936
3803.6448,0.9996576824456525,320.91982956118784
3804.522,1.004871567405835,274.33611977681943
3805.3972,1.0101621015262672,315.6682781358268
3806.2727,1.0142056192530444,247.4461996830238
3807.1504,1.0163384313323531,249.6121329904614
3808.0261,1.0169394727546177,308.6538394083359
3808.9043,1.0171439684678696,304.57303835091716
3809.7805,1.0180193785019924,298.4377602613857
3810.659,1.0199478899460999,357.09101713847855
3811.5356,1.0225602988912523,321.5403715600519
3812.4126,1.0251448796751852,280.3297138322873
3813.2917,1.0270525360196074,251.03930588950786
3814.169,1.0279510955011566,231.86884806750834
3815.0483,1.0279661800231892,314.1133422752427
3815.926,1.0275864378823327,296.2457515129062
3816.806,1.0273492504741755,247.2037081543729
3817.684,1.0274185806092417,360.32177338232583
3818.5623,1.0273811059210916,330.19404346320226
3819.4429,1.0264707963623017,281.04211501874914
3820.3215,1.0240618505938306,355.29552488894313
3821.2024,1.0199983548395222,275.8858195058592
3822.0815,1.014649614876367,411.3306428356906
3822.963,1.0086235116202322,252.3292025248535
3823.8423,1.0026071504785492,308.27198193830776
3824.722,0.9970597629281437,329.3012180125656
3825.604,0.9921186166148943,282.1272718724908
3826.4841,0.9876269010765872,337.69032790196724
3827.3665,0.9831819563409707,341.629087233505
3828.2468,0.9784061942374147,350.70933936303334
3829.1296,0.9730190143536336,323.4882592141184
3830.0105,0.9670254931579986,365.77441526498427
3830.8916,0.9605281072831091,436.96556032528287
3831.7751,0.9533282815504486,306.4979267693196
3832.6565,0.9440642011605865,365.8309265096684
3833.5403,0.9284024887430435,360.06258450613217
3834.4224,0.8971138737671801,350.23401822779226
3835.3064,0.8353030011807,465.6218776593606
3836.1887,0.7290361790165877,413.93285270054525
3837.0713,0.5791032366824986,233.1568840889125
3837.956,0.4157428433603749,413.5856659577979
3838.839,0.2966185932525293,349.6451118846788
3839.7244,0.2746769855381213,352.6412912933216
3840.6077,0.3628738177356315,366.10507339626366
3841.4932,0.5240758197246962,292.82729549652936
3842.377,0.6966113434306483,306.2532896506584
3843.261,0.8339769225432991,323.58620517904905
3844.1472,0.9211648631521557,316.12623511699184
3845.0315,0.9667067081397389,359.28374848017717
3845.9182,0.9871896328763484,303.4779471731381
3846.803,0.995365392207532,253.04211913344867
3847.69,0.9985134574774007,332.7069070545613
3848.5752,1.0000891087863986,353.15873732564785
3849.4604,1.0016877179409072,320.99889778980264
3850.3481,1.0038291534624384,251.1601704878438
3851.234,1.0063668568086552,278.8580532108292
3852.122,1.009036578559717,287.6333152638484
3853.0083,1.0117485385716498,313.546913258122
3853.8967,1.014531229950798,298.46015790529725
3854.7832,1.0171860441466907,274.7781158164595
3855.6702,1.0193167796682103,282.7399156515691
3856.559,1.0206162782950752,281.1695647334017
3857.4463,1.0211200254416362,289.15748822952077
3858.336,1.021084339752982,321.44168106166956
3859.2234,1.020582292016248,310.7548871280436
3860.1135,1.0192922761268775,305.9516470754473
3861.0015,1.0167632369434776,267.7496999039638
3861.8896,1.0129191102815414,265.19220512029887
3862.7803,1.0083803387995116,352.342196280559
3863.6687,1.0043185194610276,285.7902672555744
3864.5598,1.0017759134334083,352.0847004108974
3865.4487,1.0011403002662735,296.1123318186556
3866.34,1.0018780149002713,339.13296385253926
3867.2297,1.0028257662674405,333.30826758237345
3868.1213,1.0027248947339455,322.72765413262533
3869.0112,1.000669335820968,292.63881422791104
3869.9014,0.9962811268433025,331.7318742858584
3870.7937,0.989622734974855,350.2075280107373
3871.684,0.9811241942649599,333.2980641626949
3872.577,0.9714056165470766,286.25908685068214
3873.4678,0.9614664055276818,288.88977830845386
3874.361,0.952405738935928,339.22371620655844
3875.2524,0.9451625785227227,365.0183996520203
3876.1438,0.9397609851508156,355.01654482498594
3877.0376,0.9352075510828081,338.8864270665454
3877.9297,0.9300943713471727,396.59566923698947
3878.8237,0.9235023433544559,282.1048334064639
3879.716,0.9156546943320114,373.09902243221956
3880.6108,0.9074786856601312,436.7988918906221
3881.5037,0.8998695806560343,380.82190564276704
3882.3965,0.8929306370158757,474.80374873145644
3883.2917,0.8861317239915234,368.43230764423197
3884.185,0.8789651318285783,400.04963469865777
3885.0808,0.8713156718602867,424.51829924967666
3885.9746,0.8635976958713932,445.7151855015959
3886.8706,0.8562707790989748,297.60173540523255
3887.765,0.8497285567781875,482.56156283877255
3888.6592,0.8442413996525436,463.27767828644625
3889.556,0.8402256805540806,503.1477729895536
3890.4507,0.8383366363299355,505.18714737706114
3891.348,0.8391905079139264,383.31808576587645
3892.243,0.843061716651834,438.506481236014
3893.1406,0.8497458535639537,356.6852479281697
3894.0361,0.8585696317091559,451.033219796163
3894.932,0.8687423743484863,445.2905592627083
3895.83,0.8795801022008295,409.91367053511624
3896.7263,0.8905737566838572,419.98931735506335
3897.625,0.901516089856549,403.4503454801321
3898.5215,0.9120979764628124,377.75609409687763
3899.4207,0.9220940085648549,324.4957318817525
3900.3176,0.9312969532629695,424.3456020447391
3901.2148,0.9397752324171573,343.31981181626566
3902.1145,0.9476139512472224,404.2603077386377
3903.0122,0.954738392788362,366.4955505982943
3903.912,0.961188204530184,402.8322153294398
3904.8103,0.9672194499703186,364.86185271929634
3905.7107,0.9734128287275385,285.12867921190434
3906.6094,0.9803095918278506,311.89570351188036
3907.508,0.9882684053240006,319.5845361831931
3908.409,0.9973354945425662,313.36821945639326
3909.308,1.007089860955762,286.443864300133
3910.2097,1.0167779689697867,291.0210110147184
3911.1091,1.0254607401066342,237.33877781299518
3912.011,1.032812710216942,357.2772253782483
3912.9111,1.0392690528360997,346.3078360629077
3913.8113,1.0456576679237715,290.7438635053178
3914.7136,1.052197557629356,282.1486982249476
3915.6143,1.0580567732083168,248.7353343425301
3916.517,1.0621253977373613,280.4137093142014
3917.4182,1.063996964486354,325.1529595443025
3918.3215,1.064375238731867,267.0836099902498
3919.223,1.0643817649848824,311.7084558187051
3920.1245,1.0647451063974374,304.63275725457254
3921.0286,1.0656315749616672,215.85897391100804
3921.9307,1.067063326206522,272.00372393484685
3922.835,1.069257730088566,263.8138175139905
3923.7373,1.07237002317558,269.5249013327489
3924.642,1.0760518665235577,229.15793264056236
3925.5452,1.0792869211050666,248.6200181359676
3926.448,1.0809487897334942,241.05134372325145
3927.3535,1.0804964973503697,298.0782285928641
3928.257,1.0783598443139455,238.18049102500996
3929.1628,1.0756464401369905,255.16128275957382
3930.0667,1.0734130725736777,266.0063415760392
3930.9731,1.071954386131308,275.81229368863046
3931.8774,1.0707573623212454,269.3312275338512
3932.782,1.0689946762125448,261.49695867769105
