wavl,flux,ivar
3566.9744,0.09628774425061724,1265.4252720953357
3567.795,0.09678784454828705,2998.5848438489115
3568.6177,0.0965463730926909,538136.8389225089
3569.4385,0.09608234561418172,15877.78103879652
3570.2617,0.09597366022525698,1406.030166007793
3571.083,0.09666639037315439,2664.5472912463683
3571.9065,0.09831362620348826,5805.564945957786
3572.7283,0.10064532319988574,2867.727533860595
3573.55,0.10305444258238708,2128.7635711239272
3574.374,0.10485582995805434,1751.1914349376596
3575.1963,0.10555920558411926,766.4075267182079
3576.0208,0.10501977769323331,6895.126695789319
3576.8435,0.10337523462115028,1563.7495235143783
3577.6682,0.10093003923301648,732.4604605104628
3578.4915,0.09812238272340917,5468.1036020098745
3579.3145,0.09546772175466438,825.3938471869458
3580.14,0.09346796688014505,1032.7427312803509
3580.9636,0.09243396155360226,2534.346087305943
3581.7893,0.09230670325628783,16420.022644442313
3582.6133,0.09274481200539587,18474.427356544507
3583.4395,0.09337667005673685,665.2408854057941
3584.264,0.09405468073898579,6891.017681310661
3585.0884,0.0949231136094455,4107.803850174405
3585.915,0.09621755502889821,911.8032535930847
3586.74,0.09795811033007533,2041.5185517453158
3587.5671,0.09986722010577224,605.9763839864431
3588.3923,0.10153848327400483,674.4185938369579
3589.22,0.10275616951705781,5383.054678395958
3590.0457,0.10353164084590312,2016.0838332277672
3590.8716,0.10397166499020838,856.868904275392
3591.6995,0.1041406702145698,1025.6951296852526
3592.526,0.10412701557835573,1666.577744272894
3593.3542,0.10416858472879131,8281.302941557207
3594.181,0.10462844314909872,53798.449681457074
3595.0098,0.10578084371464988,6799.036881299986
3595.8367,0.10750793783534149,3330.7790796233626
3596.6638,0.10916977172315717,6495.184099647339
3597.4934,0.10977504459555248,681.1453339960718
3598.3208,0.10846986574356607,1436.1242011918464
3599.1506,0.1050325705594169,446.1560285882995
3599.9788,0.10006947342100792,3453.482316346124
3600.8088,0.09474517879064927,1307.5083733836682
3601.6372,0.09042867891688948,76491.30990827615
3602.4678,0.08810831392068133,3586.9396862582657
3603.2964,0.0880288251759679,1433.1696772836149
3604.1252,0.0895612462159,7284.340766484125
3604.9565,0.09166035670597646,2066.688519820442
3605.786,0.09348518568211525,6431.409769232665
3606.6172,0.0948314924320287,133570.59624994668
3607.447,0.09601906740573117,1094295.3487319043
3608.2788,0.09754460833080413,1937.5992659576705
3609.109,0.09967410802796704,74922.6493309302
3609.9392,0.10226411702655916,418.9138086657758
3610.7717,0.1048099022753316,4307.146702928288
3611.6023,0.1066781641203793,4842.4459628196555
3612.435,0.10741830800979335,1923.7892175092734
3613.266,0.10685847238290705,2160.942126659528
3614.0994,0.10511283082501491,1558.3628810130126
3614.9307,0.10256839579072372,1540.9034586683083
3615.7625,0.09983563057286701,1781.7643403943664
3616.5962,0.09761559850177451,3581.3247838512943
3617.4282,0.09640410049343945,1089.0206736424266
3618.2625,0.09621069711107912,2108.1154763653913
3619.0947,0.09662751052983667,3010.782250959337
3619.9292,0.0971228502586855,9298.008050561019
3620.762,0.09732594050022952,3276.759167778677
3621.595,0.09714926780960348,1450.02009927781
3622.4302,0.09675777042797937,1855.328591230001
3623.2634,0.09646135480236345,5998.286325965762
3624.0989,0.09652273070912959,4902623.949644377
3624.9326,0.09698437971401383,3486.967064003513
3625.7686,0.09763424370031734,4340.211419138752
3626.6028,0.09813945642220542,705231.1512047406
3627.437,0.09825630330211728,1252.6518118432355
3628.2734,0.09793268297060427,1329.3374502817828
3629.1082,0.09728441477693284,238432.89014715186
3629.945,0.09648159834003572,1952.7974055678542
3630.78,0.09563879738387146,35733.579563897394
3631.6174,0.09467929275568991,177664.71944055663
3632.453,0.09328600329592955,4696.734971959886
3633.2883,0.09102165671447444,7177.862382029623
3634.1262,0.08770855379989696,1737.1298830019314
3634.9622,0.08379937287595804,25303.108498575966
3635.8005,0.08018177686891793,3392.089516355191
3636.637,0.07765745296025829,3260.447629286134
3637.4756,0.07636412474343174,8112.533633449586
3638.3123,0.07585866294919463,2060.487600192414
3639.1492,0.07554444513635883,1995.0577493321146
3639.9885,0.07510177579425845,13535.187621998284
3640.826,0.07460476728572962,1237.1954829561819
3641.6653,0.07436923215465202,10558.62876295215
3642.5032,0.07468210804026292,18299.09462989425
3643.343,0.07553342983061313,6829.801651330604
3644.1812,0.0765410362013881,2460.880841270817
3645.0195,0.07718280405793233,8491.281654373903
3645.86,0.0771425270422359,8982.011058920605
3646.699,0.0765144453927712,3009.4346508990016
3647.5398,0.0757050255589878,5747.917712496786
3648.379,0.07514175421367639,1911.5519738584217
3649.2202,0.07496922347970238,3209.720291394596
3650.0596,0.07495341965989223,166158.757149202
3650.8994,0.07465052987221675,1419.308750468927
3651.7412,0.07377664088998424,1771.472599659861
3652.5813,0.07253561974564332,15917.836420992215
3653.4236,0.07162459239034902,234306.45096527776
3654.2642,0.07193038649575063,1241.2383620049927
3655.1067,0.07406389558591361,5384.96272309197
3655.9475,0.07800788328616035,9162.14693233843
3656.7886,0.08305227712325663,122495.54242837924
3657.6318,0.08797306984676591,1193.6616777025322
3658.4734,0.09142396778762273,672.5797576473296
3659.317,0.09257070912142937,2063883.6007478184
3660.1587,0.09143061911653819,955.7067602957497
3661.003,0.08882951842615322,3372.0770522273815
3661.845,0.08592657744975879,6043.227589880996
3662.6875,0.08361025000045405,4502.376824598441
3663.532,0.08226958966026769,2855.7613916137516
3664.3748,0.08188859853705126,828.5046747197418
3665.2197,0.08225036080917651,3776.50260327807
3666.063,0.08307374908644757,16046.173927347958
3666.9084,0.08406439288622,1292.0058875578395
3667.752,0.08498070627530814,1776.5909635149662
3668.5977,0.08574414804118845,1667.787725220877
3669.4417,0.0863942037815478,29025.897074162112
3670.286,0.08693040586816526,3599.405282024555
3671.132,0.08717295695259591,840.2684817520397
3671.9768,0.08684028197463252,1963.9661157898634
3672.8235,0.08577447273536784,7422.089072896339
3673.6685,0.0840966319121752,1524018.7357360928
3674.5156,0.08213034604115078,1502.3240738293352
3675.3608,0.08025686137373132,2327.3642744485196
3676.2063,0.07876490429355393,1583.74066017221
3677.0542,0.07784174161502473,3543.8515269687746
3677.9,0.07754857614867565,4365.220673736308
3678.748,0.0777551816043892,5704.675263021548
3679.5945,0.07818569654599605,2246.6850003964682
3680.4429,0.07860294680301243,5196715.554602257
3681.2896,0.07897935392022402,908.6515143612227
3682.1365,0.07945595210580378,39519.742530493735
3682.9856,0.0800740703663994,1445.391486475302
3683.8328,0.08053719984580794,933.8702614397266
3684.6824,0.0802800568179293,2484.8265357171695
3685.53,0.07883882513096875,3921.810587973671
3686.38,0.07626946546425026,5431.760874903167
3687.2278,0.07330232122115346,7130.55794826802
3688.0762,0.07096373758117006,2463.3277322503445
3688.9265,0.07000602714395275,30546.894271209072
3689.7751,0.07049633589218797,2428.208086532077
3690.626,0.07190063270979778,6989.490407532961
3691.475,0.07353712251855381,2176.3061004391448
3692.3264,0.07500925171738296,2720.6634511383104
3693.1758,0.07625665917023028,12106.134998676753
3694.0254,0.0773676610080515,4697.455383604667
3694.8772,0.07832699269245665,2390.5185584128712
3695.7273,0.0789589529050225,1441.1089077645017
3696.5793,0.07908568843628444,6441.155688154051
3697.43,0.07869994992926936,3943.1686090330095
3698.2825,0.0780167541035756,4301.744365706942
3699.1333,0.07736146613212493,1171.6124097134302
3699.9841,0.07699034390319066,2241.3633925525323
3700.8374,0.07699600196561593,1983.4636359360652
3701.6887,0.07729144025772698,8059.028720274452
3702.5425,0.077634517088979,5190.883992466543
3703.3943,0.07768665103739243,5893.104230108966
3704.2483,0.07716759683382944,12785.996882801597
3705.1003,0.0760582830374349,8991.064296314857
3705.9526,0.07466992281131068,1916.7784771598
3706.8074,0.07348498019160479,2647.7792446065064
3707.66,0.07289208026474041,5907.7099326437465
3708.515,0.07299561177232708,7535.5432788488715
3709.3682,0.0736369526585185,4724.2210758361325
3710.2234,0.07451093459446603,1729.3773086185115
3711.0771,0.07532070235079981,4660.495862564899
3711.9307,0.07594365876190268,11950.194342186154
3712.7866,0.07647325886281178,5528.288587816119
3713.6409,0.07708567590853536,17506.205004197476
3714.4973,0.07784078448379192,13399.724269333768
3715.3518,0.0785720103291888,1417.547956576697
3716.2085,0.07901488762942396,7291.295242268488
3717.0635,0.07904555025286057,4973.056624236866
3717.9185,0.07886362235274778,4992.2394675044925
3718.776,0.07890535508266702,26940.35363377884
3719.6313,0.07953880258817932,6004.401580847572
3720.489,0.0807869618925328,1504.3087590499745
3721.345,0.0822918271704241,1186.4001254382383
3722.2031,0.08355522727764234,2838.085386444136
3723.0593,0.0841935583252102,2788.9313115476575
3723.9158,0.08411786023493514,3261.899350534863
3724.7747,0.08350095410508278,3970.588148218239
3725.6316,0.08263568911141132,6648.6877373848365
3726.4905,0.08173215175150515,1707.448135074173
3727.348,0.08083098405202341,16663.358600926982
3728.2073,0.07984862962257296,3061.052642623618
3729.065,0.07874563530937036,44070.79199255201
3729.9229,0.0776065376079763,12545.970404441598
3730.783,0.07659796646758919,5415.6112415978305
3731.6414,0.07585264044684632,4640.898388437063
3732.5017,0.07538086305659517,2593.307114776637
3733.3604,0.07509299132971002,4704.871144160735
3734.2214,0.07483342462702845,4685.488009596448
3735.0803,0.07445157764456947,2043.5547724316693
3735.9417,0.07391270876950844,8184.730570817434
3736.8013,0.07341736833342102,4445.8421780182125
3737.661,0.07333197559188583,16013.613764939144
3738.5227,0.0739123735185871,1352.9426370714968
3739.3828,0.07501153474634255,2173.196906766389
3740.245,0.07610262874029516,2503.3075010058355
3741.1055,0.07660846643181846,2562.1271118847844
3741.9683,0.0762962141242873,91840.16135770339
3742.829,0.07537179034191949,1557.664745735453
3743.69,0.07427429110168386,152083.80770687503
3744.5532,0.073397503109264,1885.3360358805721
3745.4148,0.07297902646441161,209716.16541767487
3746.2786,0.07314597291796114,5816.31288505172
3747.1404,0.07399894560930162,10276.19926818284
3748.0044,0.07555397940284142,41967.93881494143
3748.8667,0.07755562042380018,24956208.443890594
3749.729,0.07944373648010773,920.1390796540326
3750.5938,0.08057206256122326,4982.797502652091
3751.4565,0.08056919924308222,2813.9717970714073
3752.3215,0.0795317641693608,5072.411542343497
3753.1848,0.0778740013187711,3185.2489046052115
3754.0503,0.07605270444398604,1975.4859133495395
3754.9138,0.07447924433530523,3726.307358500002
3755.7776,0.07350803333100543,7040.368642447097
3756.6438,0.07339196590566459,9886.037586144346
3757.508,0.07408220590057558,1820.8857935155152
3758.3745,0.07514165976508548,6151.708032863047
3759.239,0.07597390802400657,655.6687369921016
3760.106,0.07625900336925395,1588.9990994233822
3760.971,0.07615997286556112,5310.471583054551
3761.8362,0.07613818895183849,4108.76804829028
3762.7036,0.07652637272523784,10763.49303628393
3763.5693,0.07723848143185323,5507.1247420373165
3764.437,0.07784605556741217,1770.2292913300562
3765.3032,0.07789728092900677,2690.9940355883045
3766.1714,0.07721009943925108,2839.7752114134037
3767.0378,0.07592537998710118,2549.9269956091953
3767.9043,0.07437285225371669,9943.476920537047
3768.7732,0.07293655493784407,2792.5756386157113
3769.6401,0.071983157417077,3403.2593184162824
3770.5095,0.0717478247340302,4749.530334118928
3771.377,0.07225556367560687,1786.088057641365
3772.2466,0.07330490583835372,1987.9555700852927
3773.1145,0.07457535089017593,3691.343857930399
3773.9824,0.0758009289685352,3699.2396026876236
3774.8528,0.07686190484826066,3218.1774942497636
3775.721,0.07775793306340666,4298.810145008235
3776.5918,0.07851453283302351,3232.582061090171
3777.4604,0.07903533074578377,2538.371713786462
3778.3315,0.07909282602093985,2271.9515095655643
3779.201,0.07845006184370074,2464.1253901632317
3780.0703,0.0770545678389865,2978.820285910372
3780.942,0.07511700800956457,3047.9329546914823
3781.8118,0.07306377211982094,2566.770298760615
3782.6838,0.07134535042624975,8341.128904984362
3783.554,0.07028465670906527,28426.483172045093
3784.4265,0.0699064175078177,7508.676009771877
3785.297,0.0699610257318874,1967.1975961946077
3786.168,0.07011656108178292,28767.386883224375
3787.041,0.07022618339751982,2652.4613325481223
3787.912,0.07040749404920867,40855678.375668675
3788.7856,0.07087142544733803,4122.4551190274815
3789.6572,0.07167981821960512,6635.9636534676765
3790.531,0.07269213350051043,6614.0679357506015
3791.403,0.07368395886725479,2987.421134464977
3792.2754,0.07451938805234383,4668.9263831351045
3793.15,0.07518788758469432,3835.930178030429
3794.0225,0.07573068300579973,5977.158009616758
3794.8972,0.07614046812039696,3621.144745023389
3795.7703,0.07629244418814837,9286.159574467216
3796.6455,0.07602610558179532,2941.7621739280507
3797.519,0.07533333486441088,5809.9287279897635
3798.3926,0.07447462402108745,13802.749842551268
3799.2686,0.07384747816903175,18886.387949894688
3800.1426,0.07368739123233044,4953.207207911604
3801.0188,0.07385323356675416,9751.643661111795
3801.8933,0.07390576156522734,6476.0683205918285
3802.77,0.07339213950301302,125668.50939917022
3803.6448,0.07216498064900372,3185.178095011491
3804.522,0.07052520255669734,4971.249046149488
3805.3972,0.06909737661452225,5697.261363910677
3806.2727,0.06840715740138877,6641.327584118177
3807.1504,0.06857202139506552,35911.30313306302
3808.0261,0.06933673513443114,878.516456610432
3808.9043,0.07041435324859996,5750.723126917152
3809.7805,0.07171603726804579,2768.8858542253492
3810.659,0.07329836936898156,1868.6989193847626
3811.5356,0.07511534982806167,3724.820834123908
3812.4126,0.07695291347824813,2995.0572233345574
3813.2917,0.07853773202828677,52748402.95432785
3814.169,0.07970470417303306,2865.382644491588
3815.0483,0.08048471455640262,7602.29529246733
3815.926,0.08099511973176768,4548.314796544338
3816.806,0.08131812301520015,2851.5152506552167
3817.684,0.08142700154531925,3819.7696887561433
3818.5623,0.08123301721736101,3714.387557156265
3819.4429,0.08065934625966309,16579.655859276103
3820.3215,0.07969430319630036,4582.489962416031
3821.2024,0.07837862691955619,3969.404033295894
3822.0815,0.07679923572825666,1817.4616813290195
3822.963,0.07503867389968488,2615.7657303009073
3823.8423,0.0731860103839562,8141.011637826545
3824.722,0.07132626448504575,23605.203038942745
3825.604,0.06960458296241549,5038.385867588198
3826.4841,0.06826761900727128,13833.940650405002
3827.3665,0.06756346790757335,9043.752986663529
3828.2468,0.06758706820067278,7848.907969644593
3829.1296,0.06811161334330401,16798.377816710934
3830.0105,0.06862589369363864,10993.855276444607
3830.8916,0.06860562614675714,5134.666996890687
3831.7751,0.0678219769192518,6399.531949300932
3832.6565,0.06647779927217057,10926.955952367292
3833.5403,0.06502700488475667,4284.432955173436
3834.4224,0.06388875309693037,2421.4230380473327
3835.3064,0.0632232012802351,10516.395878512305
3836.1887,0.06298565250049222,2032.4811416233138
3837.0713,0.06307817333487874,2917.5731180045977
3837.956,0.06344861477781184,12583.150919136548
3838.839,0.06406192040216402,4753.413452356195
3839.7244,0.06488426521977696,103172.71797010906
3840.6077,0.06590584109568892,152592.2943046271
3841.4932,0.06716648681454598,3114.647512854794
3842.377,0.06866414428601497,3234.300395418979
3843.261,0.07028775528777949,11175.31517553616
3844.1472,0.07182258789571751,5608.502771505875
3845.0315,0.07307170412343877,3064.634653461041
3845.9182,0.07403072704660496,2257.158317298557
3846.803,0.07488886594820354,6837.771959334882
3847.69,0.07591309914602351,2692.2167898866073
3848.5752,0.07725624888382793,8085.516952189713
3849.4604,0.07891315198514695,3048.555666827769
3850.3481,0.08078025161706436,3456.6833779071576
3851.234,0.08270011231783492,2284.626539761283
3852.122,0.08447994808193449,22316.099439655376
3853.0083,0.0858215561002149,2921.9262321753663
3853.8967,0.08640985514452536,2360.2059036643586
3854.7832,0.08604801535379876,8184.3497823344
3855.6702,0.08480661616696991,1949.3650524332097
3856.559,0.083013236259831,6218.950280995448
3857.4463,0.08114174193144316,2832.4190487832384
3858.336,0.07961777824429168,3986.3281010206756
3859.2234,0.07870441524732838,4418.623952008769
3860.1135,0.07839312470533322,3956.208130788028
3861.0015,0.07845295472865989,1685.207327446155
3861.8896,0.07856401946826663,4517.755055894963
3862.7803,0.07849014051786961,2937.4100395161267
3863.6687,0.07817192759185072,1884.791919762687
3864.5598,0.07771675908992313,3685.051907129323
3865.4487,0.0773227247950403,3078.0305910195502
3866.34,0.07713770156842928,61502.788411854206
3867.2297,0.07712642269408843,1297.8283493142078
3868.1213,0.0770273060037051,2942.2741657720157
3869.0112,0.07649925152107956,2040.3584815246295
3869.9014,0.07536700635403301,9177.877377170627
3870.7937,0.07376425325269961,5651.132057305979
3871.684,0.07207965560357266,3417.7540164147867
3872.577,0.07071476333751864,8759.010568843169
3873.4678,0.06991291059135459,2128.5704105232094
3874.361,0.06966726970474846,3809.9603615010437
3875.2524,0.06980858166127189,6314.235792922438
3876.1438,0.07010859302296447,76505.96404349105
3877.0376,0.07031036955071684,14517.598683312823
3877.9297,0.07008529300205363,3431.2761110936053
3878.8237,0.06909339829500122,2361.691563741801
3879.716,0.06721306055028278,6130.513900704651
3880.6108,0.06471314000244435,4971.688933873826
3881.5037,0.06220209203192497,4621.579284101938
3882.3965,0.06026350978459713,4710.808154045362
3883.2917,0.059185702974411114,2620.5901758369137
3884.185,0.05890691593749164,2930.0772582842155
3885.0808,0.05913273920271405,9307.8281334075
3885.9746,0.059517731882252886,5013.618006301334
3886.8706,0.05978757239242872,2380475.9076584727
3887.765,0.05980109868950551,3786.3582185922796
3888.6592,0.059579677684498594,8778.221940958407
3889.556,0.059275140271872966,8625.688752333164
3890.4507,0.059088204409249605,7852.366562241868
3891.348,0.05916207617539739,3680.7135896745576
3892.243,0.05952693543019558,9551.11596750345
3893.1406,0.060110739842812184,5223.117243847061
3894.0361,0.06078116052921363,2814.5574645762626
3894.932,0.061412349108553727,3628.51679734226
3895.83,0.06192779812111131,5154.381662146439
3896.7263,0.06232849577084756,2595.2085844203466
3897.625,0.06270361985349542,19652.26700101606
3898.5215,0.06317807781416579,2561.9487911752476
3899.4207,0.06383648210447508,2150.5803699872563
3900.3176,0.06463886385921241,2014.190405087202
3901.2148,0.06545503534851937,3821.675067169902
3902.1145,0.06619573444209646,3571.2210001875633
3903.0122,0.06694142326695184,6092.897020889761
3903.912,0.0679378553794082,7126.579350641385
3904.8103,0.06941719483421752,2487.022464782771
3905.7107,0.07148151966741084,3250.0695936417515
3906.6094,0.07407551347836068,8030.192323253679
3907.508,0.07705930408310475,2447.842267972962
3908.409,0.08018095138095453,4532.108829561229
3909.308,0.08303714273498378,2184.26798180328
3910.2097,0.08525023321831496,2163.285075758724
3911.1091,0.08663768870849715,2694.5362317654985
3912.011,0.0873406793364442,2669.2558998815944
3912.9111,0.08765254257010906,1584.679392484797
3913.8113,0.08780350820545768,4223.968273012607
3914.7136,0.08783659469798596,2074.748763075995
3915.6143,0.08767713628872262,5542.577512106391
3916.517,0.08728614943000655,2465.1887905267713
3917.4182,0.08675179093784652,4486.660153233952
3918.3215,0.08624346390268502,3642.719798203677
3919.223,0.08591635552342144,2968.0795695134625
3920.1245,0.0858439610098754,1399.6810043478836
3921.0286,0.08605061005454658,7654.658305029639
3921.9307,0.08657178051998944,1665.158751668793
3922.835,0.08747612323038298,2804.69240805191
3923.7373,0.08878557561302332,2810.8351400433035
3924.642,0.09039282984984198,3126.0839288051575
