wavl,flux,ivar
3566.9744,1.1559299300259909,403.7782093026939
3567.795,1.1615777733300585,320.3243673287545
3568.6177,1.1670389486637482,406.432694110122
3569.4385,1.1708883942415975,440.285886123756
3570.2617,1.1717505664629393,359.74409722121595
3571.083,1.169264074247858,401.1126046471473
3571.9065,1.1644392778369554,417.1263063081133
3572.7283,1.1592703505248931,473.83120924811885
3573.55,1.1562302565390743,416.0287869083528
3574.374,1.158647838328972,449.9541797416165
3575.1963,1.1714643357987427,549.7185241784772
3576.0208,1.2007687178776756,413.1995512477781
3576.8435,1.2495481420795254,377.6068377331937
3577.6682,1.311981432876453,377.5507615934323
3578.4915,1.369924831893517,462.89594877340085
3579.3145,1.4006597890745203,369.5930016556368
3580.14,1.3905206678956588,301.8537002173092
3580.9636,1.3449283707617483,448.8918808692156
3581.7893,1.284129914239912,289.6839371285083
3582.6133,1.2297379645164999,513.0383816524125
3583.4395,1.192463758365298,284.608164308868
3584.264,1.1717964689425961,326.75550514870713
3585.0884,1.161214837301229,350.9815626211788
3585.915,1.154570525094632,365.8211139267712
3586.74,1.1486570094093904,317.00130210498844
3587.5671,1.1428694598901743,420.95757645651776
3588.3923,1.1379676642173833,520.1668578722418
3589.22,1.1346174724969305,406.2280715541157
3590.0457,1.1327226789311986,310.7446554208266
3590.8716,1.1313997290916677,367.44355998314586
3591.6995,1.1296192530543012,351.78428819597923
3592.526,1.1268372376821982,378.4885097818756
3593.3542,1.1232362879547182,433.5277747495009
3594.181,1.1196426175974203,467.2594824279358
3595.0098,1.1170852915749616,396.45010536209384
3595.8367,1.1163744714155235,437.1179832695882
3596.6638,1.1176256729351002,507.89403718670394
3597.4934,1.1200782206403137,419.3856100681377
3598.3208,1.1222721900358335,498.21274903289185
3599.1506,1.1228761451506186,415.52500175873683
3599.9788,1.121598542918906,492.59387797818266
3600.8088,1.1194520461596715,409.74806523389884
3601.6372,1.117913624625256,488.8691796731178
3602.4678,1.1176862105027208,393.2919612752821
3603.2964,1.118293401481912,418.72646685157457
3604.1252,1.1187059430697341,330.3562572158345
3604.9565,1.1182893369948703,672.3972669147007
3605.786,1.11731989343321,444.01000682288446
3606.6172,1.1168868988988048,511.17653874666814
3607.447,1.1183126583738747,556.1950308452244
3608.2788,1.1222178114052963,371.8496647350031
3609.109,1.1276814125613903,350.79564225281604
3609.9392,1.1323648324237574,377.5730666484741
3610.7717,1.1336259489752452,365.46827019658593
3611.6023,1.1299734091304647,368.1323388875198
3612.435,1.1217869880068816,398.31344079070044
3613.266,1.1110870203151377,509.49871799963364
3614.0994,1.1005312559067661,412.8405259674788
3614.9307,1.0926651512861318,530.3600635980926
3615.7625,1.0889823734702315,371.5465750424414
3616.5962,1.0895541501407755,361.92111342176
3617.4282,1.092963904764665,452.80129359271064
3618.2625,1.0970315906759593,427.41432594777484
3619.0947,1.0999641235051965,466.2591722175143
3619.9292,1.1012964744989666,412.3340114620702
3620.762,1.1016656201314416,515.2593315609286
3621.595,1.1017906504228743,448.89952125776387
3622.4302,1.1015386981220527,485.389976113147
3623.2634,1.0999635244004755,364.3819393832946
3624.0989,1.0961608247133525,395.0541983545201
3624.9326,1.090244464732905,358.57771988500434
3625.7686,1.0836245439505372,526.1239406916214
3626.6028,1.0786801193121807,340.7045999740507
3627.437,1.077673520811152,393.1367008875658
3628.2734,1.0817431155869541,497.447928108675
3629.1082,1.0902012327630985,453.3035451645469
3629.945,1.1007802336934116,341.60105555906193
3630.78,1.1103760733840542,435.52122552984594
3631.6174,1.1163913714216795,371.86199139832183
3632.453,1.1175395035889657,547.603143427466
3633.2883,1.1144293977147928,409.6511286206332
3634.1262,1.1092555638912047,392.9290240677943
3634.9622,1.1050318282060771,309.674289695814
3635.8005,1.1042629184932917,439.8035030131318
3636.637,1.1078234900290083,401.74493710078985
3637.4756,1.1144327147448285,487.82682111627764
3638.3123,1.1212306229128672,472.2839857942042
3639.1492,1.125507506120022,456.4489736925045
3639.9885,1.1262233147375857,324.4538181524351
3640.826,1.1243804297894802,372.5634270026502
3641.6653,1.121935069973978,362.910594767002
3642.5032,1.1203241135503557,562.1853259756737
3643.343,1.1197669806319073,399.3417965699899
3644.1812,1.119661268246337,412.86615061205276
3645.0195,1.1193626484744639,448.6152005808628
3645.86,1.118751055474806,328.0686865441462
3646.699,1.11831131981452,454.0141706881569
3647.5398,1.1187469031057597,356.45069875385826
3648.379,1.1204321497632401,480.8557264876957
3649.2202,1.1231571871294976,430.90722370135524
3650.0596,1.1262962018038596,424.96305138735926
3650.8994,1.129190900032932,311.54090411929576
3651.7412,1.1312374410081776,493.2792325492402
3652.5813,1.1318699279421152,344.83430103286963
3653.4236,1.1307594642990924,294.3955493486443
3654.2642,1.1281073898127036,428.53077941707
3655.1067,1.1246590575991582,483.48090543807433
3655.9475,1.1213416989707767,324.18078214710056
3656.7886,1.1186897811166379,402.24160860574295
3657.6318,1.116670231246347,443.84759264799595
3658.4734,1.1149511930796168,486.0998661546745
3659.317,1.1132791638813249,419.11650821647004
3660.1587,1.1116387331583417,489.62442592083767
3661.003,1.1100555680157538,359.86971860357096
3661.845,1.1085442560857413,430.11150405765795
3662.6875,1.1072141938050604,608.1510571518945
3663.532,1.1063321280272125,408.03263350775836
3664.3748,1.1060856664447676,386.22490565593114
3665.2197,1.1063329154795432,403.3740247290916
3666.063,1.1066377660417686,387.92165525463685
3666.9084,1.1064323144675696,486.84215857046127
3667.752,1.105092571325385,435.2379245777162
3668.5977,1.1020152478927825,426.53511187546974
3669.4417,1.0969385458182699,382.7387874350777
3670.286,1.0902512613567115,526.350730925444
3671.132,1.0830481237163576,436.02271677159536
3671.9768,1.0767954419675672,514.8654968759854
3672.8235,1.07267565322159,394.5660164253048
3673.6685,1.0713090876553757,456.2505585179195
3674.5156,1.0726340393316083,527.9047484209145
3675.3608,1.0760217626455724,416.6235096452483
3676.2063,1.0803565326631919,569.2859438187944
3677.0542,1.0841795551404823,401.24103101627577
3677.9,1.0861291155731387,400.5081447852002
3678.748,1.0857436376671465,354.33146402847007
3679.5945,1.0838310370643565,484.37044762627573
3680.4429,1.0820206162276786,370.82817727686637
3681.2896,1.0816814909603434,378.7559043604294
3682.1365,1.082996913043995,531.1088720706531
3682.9856,1.0849584630990263,324.82651376717445
3683.8328,1.0861358672722887,355.8968016383013
3684.6824,1.0856734417565916,379.4194350162519
3685.53,1.0836798983170226,457.486287237403
3686.38,1.080867377340094,452.91043043330694
3687.2278,1.077964129553946,540.9947198367661
3688.0762,1.075393701478818,479.86840806681334
3688.9265,1.0734156844391551,541.3908089350089
3689.7751,1.0722551195537113,659.7097464912181
3690.626,1.072048306148129,607.2464948566848
3691.475,1.0728577490131679,507.62476266140476
3692.3264,1.0747475160697775,575.8169671037683
3693.1758,1.0777120938982878,519.9787551809723
3694.0254,1.0814639229866803,447.5286289938705
3694.8772,1.0853113971393378,393.99390907859566
3695.7273,1.0883902377648744,502.4244886078447
3696.5793,1.0901871055625822,490.85233814925306
3697.43,1.0907712226293678,604.8719521896403
3698.2825,1.0907720026816459,371.0815466333409
3699.1333,1.0911050041734491,362.61142277541774
3699.9841,1.0925879186742602,412.8937425739856
3700.8374,1.0954342360335623,393.94616554509264
3701.6887,1.0988150069788003,547.3340071197107
3702.5425,1.1011069772834667,458.2719733941639
3703.3943,1.1007435557013896,455.08598945521703
3704.2483,1.0972233262303581,445.10432447276804
3705.1003,1.091395036024865,447.5589012771298
3705.9526,1.0848624607902506,442.1618072738945
3706.8074,1.0791826476840762,454.7843000210728
3707.66,1.075399405032564,396.80269736537554
3708.515,1.073877595155831,421.7364503443783
3709.3682,1.074520257277854,469.0520573981571
3710.2234,1.0767824715842693,490.0373269175297
3711.0771,1.0796068109319672,402.2819085976172
3711.9307,1.0815832751911307,542.3679774026938
3712.7866,1.0815360094519932,457.7320605531166
3713.6409,1.0792925697461668,504.0658061326234
3714.4973,1.075865808067505,533.8640212929108
3715.3518,1.0727270982409605,563.450690001658
3716.2085,1.070652701022183,442.8106834931136
3717.0635,1.069347662813752,439.66746351580844
3717.9185,1.0680143770319637,504.3365785594175
3718.776,1.0663599554234933,437.47445191304223
3719.6313,1.065004597322423,561.1892574977928
3720.489,1.0648576968154249,565.4615324248362
3721.345,1.06611297378497,487.22978913474105
3722.2031,1.0678310535087527,439.45778534393924
3723.0593,1.0686027146574595,462.4472869487741
3723.9158,1.0677231625027825,484.09240545811616
3724.7747,1.0656657282456161,493.32842217224237
3725.6316,1.0635243793968416,500.1739844321575
3726.4905,1.061965577742464,440.04061591802895
3727.348,1.060809797834916,490.65301188718865
3728.2073,1.0593703333964515,470.35959233728335
3729.065,1.0571089544066734,456.9187744270843
3729.9229,1.0539606140641775,506.9338391172862
3730.783,1.050370612937044,416.84756719493487
3731.6414,1.0472131136107188,470.97769206801314
3732.5017,1.0454354246436863,456.76541233887235
3733.3604,1.0456007782021548,462.94657516498876
3734.2214,1.0475019216213668,366.2459450421233
3735.0803,1.0503020075941225,443.52505279602246
3735.9417,1.0531102572254776,530.2969842863262
3736.8013,1.0553829231458416,432.3069170459491
3737.661,1.0570582866994382,503.2630370871198
3738.5227,1.0583915594349178,514.241859373642
3739.3828,1.0597355428216186,509.4559865311512
3740.245,1.0612722586959693,518.6054950686882
3741.1055,1.0626981342341477,382.8016804961583
3741.9683,1.0632495264331714,456.78448659927454
3742.829,1.062138974153924,410.18017710814274
3743.69,1.0592298705631524,395.36448795213647
3744.5532,1.0553450303152319,397.9648889381336
3745.4148,1.0519798219686591,439.8298764995914
3746.2786,1.0504150566939954,418.53118728459714
3747.1404,1.0510515007772143,517.4243692711499
3748.0044,1.0533174997070405,552.6992809117561
3748.8667,1.0562323312140784,573.1940311085212
3749.729,1.0591100244087643,565.6244861481307
3750.5938,1.0617779039228947,515.6842652374409
3751.4565,1.0642228049780877,422.53027349349713
3752.3215,1.0661705014178897,447.0703955058415
3753.1848,1.0670154157488174,363.3040168255311
3754.0503,1.066415207780192,421.0970753094989
3754.9138,1.0648753977077363,470.4921410986924
3755.7776,1.063602885144399,578.8412729339743
3756.6438,1.0635656006249716,537.648287230069
3757.508,1.0646075171188691,453.4099991700068
3758.3745,1.0655463316333302,400.67201370444604
3759.239,1.065164183093736,359.03297483263987
3760.106,1.0631245026019924,474.3265130556542
3760.971,1.0600454681427176,454.1875280909997
3761.8362,1.0568835522864979,473.5911261969651
3762.7036,1.0544036589587806,439.89341005838213
3763.5693,1.0529785558613085,494.49811257799803
3764.437,1.0524409170625049,532.1038833079748
3765.3032,1.0520118140071795,458.83579654491086
3766.1714,1.0504841626869585,470.2433904614053
3767.0378,1.0469065173024739,454.2422776719855
3767.9043,1.0413060352504415,441.69358970160977
3768.7732,1.0348659082480731,457.7507158456941
3769.6401,1.0294209730721349,491.05434412379765
3770.5095,1.0264075545973455,446.62135928790417
3771.377,1.0262537020326994,547.994574410353
3772.2466,1.0282096956099356,514.7171649879036
3773.1145,1.0308404132560454,482.2168807414569
3773.9824,1.0328630437819466,501.69788773266407
3774.8528,1.0338751258655516,408.84041645397235
3775.721,1.0345484644780993,491.0895598119821
3776.5918,1.0361420177287155,495.65771687423234
3777.4604,1.0396028796872356,476.4003132171541
3778.3315,1.0449886872084642,504.8835664888718
3779.201,1.051354657943985,453.74358666804227
3780.0703,1.0572549401437947,527.9354570299619
3780.942,1.0612996390345517,392.5402735123367
3781.8118,1.062625756656186,451.3685639466765
3782.6838,1.0611332125893564,443.79130277125546
3783.554,1.0572612844543392,380.1691996670337
3784.4265,1.0516489658516222,405.0748387261388
3785.297,1.0451708491929217,415.44071438623433
3786.168,1.0390340261204727,397.06723452208644
3787.041,1.0346813580928884,523.0925345283629
3787.912,1.0330554817643198,441.40232536384605
3788.7856,1.033765856068807,438.6379008431245
3789.6572,1.035230927047426,400.7753991350574
3790.531,1.0357048708448937,534.7272900870663
3791.403,1.0342702107655124,549.0920403114069
3792.2754,1.0310291659648596,423.47148133584335
3793.15,1.0266147261407932,534.4600842932958
3794.0225,1.0217543544195056,502.0866991286689
3794.8972,1.0169806218775301,452.613410639431
3795.7703,1.0126584313772258,670.089788570043
3796.6455,1.0089320912882975,430.52696178228285
3797.519,1.005963731576636,474.2646074576136
3798.3926,1.0040604930934478,492.22271746432943
3799.2686,1.003676066874289,489.53575574649125
3800.1426,1.005100221873168,611.8279612188452
3801.0188,1.0081636423201465,476.6778766518014
3801.8933,1.0122407369107638,494.62280933505747
3802.77,1.0166505078369794,539.7643767731727
3803.6448,1.0209773069017087,530.0828781993874
3804.522,1.0252596838493955,508.22031429186484
3805.3972,1.0296816368023327,454.3938417608915
3806.2727,1.0343703547287424,590.4715979289415
3807.1504,1.0393536454727814,443.76475510489144
3808.0261,1.044708839975157,512.5046598635363
3808.9043,1.05061390626063,464.7393914738602
3809.7805,1.0568245689300038,506.6678306427557
3810.659,1.0624211242479336,515.3358609942935
3811.5356,1.0659252681194817,491.744346983103
3812.4126,1.066188844156657,414.06710705275407
3813.2917,1.063094867293012,420.00717351150746
3814.169,1.057734648093825,394.541985820958
3815.0483,1.0517382076572994,402.08295008875683
3815.926,1.0464994824255454,494.56681487349243
3816.806,1.0425817627250837,598.2789006984555
3817.684,1.0398897896499766,422.1481887222321
3818.5623,1.0380099404853687,518.0729609270488
3819.4429,1.0365598043417141,469.44376404840546
3820.3215,1.0352571096930838,464.14808121797324
3821.2024,1.0338438468730464,431.60324383872296
3822.0815,1.0321387735330856,531.874213609122
3822.963,1.0301123312288478,551.8429977582649
3823.8423,1.0279303485950773,658.2994544552246
3824.722,1.025722875020625,498.14771989234856
3825.604,1.0232738466168736,550.8513861948969
3826.4841,1.0198837981727378,479.76687750469637
3827.3665,1.0146256974842376,505.5215500552426
3828.2468,1.0071238149034432,443.1390416492073
3829.1296,0.9979693288857957,528.8065343160242
3830.0105,0.9885658799559705,605.3411185821386
3830.8916,0.9800104419660224,555.3853689937453
3831.7751,0.9725141746092923,468.89774299459566
3832.6565,0.9658363621599516,634.7342305258517
3833.5403,0.9600762912265492,654.7267105948765
3834.4224,0.9561109207501494,635.0872773555079
3835.3064,0.9547963417194764,537.0151281342826
3836.1887,0.9562031418024757,612.2873127526985
3837.0713,0.959608497808899,447.2172799031389
3837.956,0.9642926984917765,488.3720102831254
3838.839,0.9700232010794817,699.9343128924235
3839.7244,0.9768323993718677,521.9049592076872
3840.6077,0.9842819600749273,516.2565891910298
3841.4932,0.9915161834318642,439.59764951801094
3842.377,0.997773738405466,440.16921356791534
3843.261,1.0031664474058108,856.314198147667
3844.1472,1.0086624730778257,609.0750418451933
3845.0315,1.0154552359712317,553.8924997184806
3845.9182,1.0242933784413755,536.2799688516383
3846.803,1.034875959866279,588.1226417384391
3847.69,1.0460844060872705,458.28599965349457
3848.5752,1.0563440937104929,316.7158854376713
3849.4604,1.0645522126907856,512.8447188881621
3850.3481,1.0705344218407868,413.13226398394005
3851.234,1.0749760842501954,470.6280520175894
3852.122,1.0789593373525324,447.27696196683456
3853.0083,1.0832192060078207,426.6220539671285
3853.8967,1.0879367519896237,471.98054938544215
3854.7832,1.0927654677270637,460.82306289015196
3855.6702,1.097183632360087,421.1809090299877
3856.559,1.1007032919144244,411.26814196797426
3857.4463,1.1030321990329928,496.83361317991114
3858.336,1.1041625922045677,527.2719123801277
3859.2234,1.1042277848967286,389.80158974343755
3860.1135,1.1033630613210041,380.90794719367875
3861.0015,1.101610806580005,419.58959429731254
3861.8896,1.0989282495980859,468.1876881941664
3862.7803,1.0952960321721934,425.31037720367067
3863.6687,1.0909146142678259,416.6002369614187
3864.5598,1.086195292648797,455.70654584704135
3865.4487,1.0816800052558708,538.9035016006605
3866.34,1.0776324965077677,470.80962887515534
3867.2297,1.0739372585910198,551.5948119805646
3868.1213,1.0700785829369972,402.699926224188
3869.0112,1.0654317835311167,566.2923314987431
3869.9014,1.0595161864709743,482.0838795789606
3870.7937,1.0523378886592112,485.73347937672236
3871.684,1.0445712850675513,534.3562528497739
3872.577,1.037071091298722,556.1208836702783
3873.4678,1.0302782451013974,553.8631494533063
3874.361,1.023606051232878,388.3056603767573
3875.2524,1.0159285438224623,373.38626969377657
3876.1438,1.0064127851787135,682.979865951884
3877.0376,0.9952160829987902,502.28514278807216
3877.9297,0.9833764078132412,487.03600564611224
3878.8237,0.9718035778928191,653.0798517164579
3879.716,0.9608380343251036,641.3713623526013
3880.6108,0.9501145101836806,537.9585012097948
3881.5037,0.9392623890029941,585.1957719068947
3882.3965,0.9280464383073878,511.2264670974719
3883.2917,0.9162906133752693,712.3828426395562
3884.185,0.903731622159859,764.2489638153744
3885.0808,0.890017889865797,695.6817346057635
3885.9746,0.8756018075511507,661.7411637734418
3886.8706,0.8618487034779496,692.3575238424066
3887.765,0.8508342908317219,746.1871992268956
3888.6592,0.8441489797246774,843.7446560637542
3889.556,0.84233097365857,848.843804386953
3890.4507,0.844885507284815,939.9054549272805
3891.348,0.8507972734463192,581.5161443126399
3892.243,0.859014002664851,617.9616690185046
3893.1406,0.8688375239413393,773.61213750716
3894.0361,0.8798360964763913,779.259780877018
3894.932,0.8919795047227707,566.3030739811344
3895.83,0.9053797405401457,665.8106016865954
3896.7263,0.9198801964953104,604.9441829863383
3897.625,0.9350975379529541,554.7052838823761
3898.5215,0.950241875340854,730.6195120134031
3899.4207,0.9647308546762868,592.7031907342011
3900.3176,0.9781193610779064,705.9912914347093
3901.2148,0.9904384390435379,575.1082752544344
3902.1145,1.0019963608954159,432.83721306283957
3903.0122,1.013176031146586,470.3764009253226
3903.912,1.0244207617219594,409.831779506541
3904.8103,1.0357857660793814,469.1696059740199
3905.7107,1.0470363025427945,452.8198069113352
3906.6094,1.0576276919306915,491.7327860106861
3907.508,1.06724792704703,556.6686748473089
3908.409,1.0760344919159774,449.1988324439407
3909.308,1.0844713726682655,521.3130505922667
3910.2097,1.093166249504393,450.25835693254356
3911.1091,1.1023471293393805,372.3185177302478
3912.011,1.112063643305135,445.5003635886722
3912.9111,1.1222975984888677,411.31495909922694
3913.8113,1.133200870410018,429.8641529829076
3914.7136,1.1446785368578691,526.7944274193563
3915.6143,1.1559157806389897,377.3811884062079
3916.517,1.165779069969859,387.29392637724135
3917.4182,1.1734221761725576,372.21126851217934
3918.3215,1.1789845976752527,421.4421915174283
3919.223,1.1831273775300983,377.1929001998713
3920.1245,1.1863565487758867,382.86807085240275
3921.0286,1.1886754679226295,422.23155262133207
3921.9307,1.1900041661753333,379.6994606287702
3922.835,1.1906844099348417,451.821789713867
3923.7373,1.1913167751267952,448.0460289221375
3924.642,1.192231700567014,344.6313547062317
3925.5452,1.1932152073075295,286.84881389770857
3926.448,1.1938585081936142,400.7821060235656
3927.3535,1.1940782837307615,351.9124762508267
3928.257,1.1942479797838388,407.44052519020806
3929.1628,1.1948239730027121,365.5807105486733
3930.0667,1.19586062611002,353.876023825401
3930.9731,1.1968874888430139,406.9710911159942
3931.8774,1.197149649254643,359.02301087218103
3932.782,1.1960276511867647,359.886631336934
3933.6887,1.1933077205487073,344.8844676838623
3934.5938,1.1892423729652972,360.1187427846502
