wavl,flux,ivar
3566.9744,0.7867857662441138,915.8927755520564
3567.795,0.7859101160090671,632.5596758768138
3568.6177,0.784000525142547,660.1979030482789
3569.4385,0.7814489566236766,1162.9862171655927
3570.2617,0.778543581537403,890.2957271193297
3571.083,0.775122756219056,763.9879551041088
3571.9065,0.7707519742294423,796.6570505189299
3572.7283,0.7655354431121212,878.2665851495335
3573.55,0.7605315197222873,908.1745749215212
3574.374,0.7573714677139286,769.7693564729058
3575.1963,0.7571661423216841,1224.1200917482554
3576.0208,0.7595990934625025,691.293004451593
3576.8435,0.7631346528338222,582.0724111832488
3577.6682,0.7661617301603023,1032.4989943119344
3578.4915,0.767995530407227,686.9149114549458
3579.3145,0.7690893709761298,771.3147507526515
3580.14,0.7703490612551191,949.5433149357868
3580.9636,0.7722779967882248,688.6606587724158
3581.7893,0.7745644052130646,703.2665817972625
3582.6133,0.7762362558185992,645.4384040683689
3583.4395,0.7763411313939645,767.1445586185769
3584.264,0.7746054270482422,822.1514355817073
3585.0884,0.7716667134820508,898.7654337322194
3585.915,0.768618698437489,1065.710400753565
3586.74,0.7662722074276654,855.3933417298387
3587.5671,0.7646521233321341,781.0685041896431
3588.3923,0.7632818442509689,839.8015383036345
3589.22,0.7617466758575986,936.0198846787911
3590.0457,0.7600092245835842,623.8620505806704
3590.8716,0.7581270213280635,886.2273824565073
3591.6995,0.7559321676220444,765.7092234997706
3592.526,0.7531436340009267,1016.0589116013554
3593.3542,0.7497891381521564,1026.602887870622
3594.181,0.746526240736979,947.1542064164132
3595.0098,0.744307421795854,905.5948234304545
3595.8367,0.7438052208165735,899.6143505697826
3596.6638,0.7449591967957505,1002.3483532471946
3597.4934,0.7471307329138005,1036.9929360516162
3598.3208,0.7495446121336188,1020.6061773203165
3599.1506,0.7517415434285466,872.1735876802152
3599.9788,0.7536102928954604,642.4287301568553
3600.8088,0.7552405708336561,704.5604106328085
3601.6372,0.7566636373607093,857.2687352439441
3602.4678,0.7578036074089702,957.9094371824017
3603.2964,0.7585357810085239,969.0218622725635
3604.1252,0.7588304320236345,806.3644670332136
3604.9565,0.7587597703461922,988.6336866979904
3605.786,0.7584196466732147,785.1506694038108
3606.6172,0.7578860090809248,838.7622855049808
3607.447,0.7573002444873248,916.1172585920096
3608.2788,0.7569337724601926,1040.9671942187385
3609.109,0.7570946540852938,1174.7307237561613
3609.9392,0.7578943763030702,747.0406539229497
3610.7717,0.7591151310178827,871.1239706559446
3611.6023,0.7602643314453991,834.535160634329
3612.435,0.760801129652604,1151.2554267185856
3613.266,0.7603368634296752,732.3616914360537
3614.0994,0.7588098033369215,834.5327072946001
3614.9307,0.756542825288532,827.2812381745664
3615.7625,0.7540462274139047,801.9319678967839
3616.5962,0.7517117011091576,815.7795429111193
3617.4282,0.7496581071071804,784.7378864239085
3618.2625,0.7478442273183838,905.7321704457486
3619.0947,0.7463431455013234,903.1627671981514
3619.9292,0.7453031298146925,807.3982980964028
3620.762,0.7447532505159158,910.8813892147812
3621.595,0.7444624641034218,729.0890253332585
3622.4302,0.7440852021287132,948.701890529568
3623.2634,0.7433701893355826,968.2517029124965
3624.0989,0.7422266877555402,1141.1229008759774
3624.9326,0.7407342002263213,882.0813050775946
3625.7686,0.7391658957590683,913.3865676901185
3626.6028,0.738007901361286,1017.0448380124984
3627.437,0.737671223634369,832.5792414115772
3628.2734,0.7380827156364952,1009.8998737577048
3629.1082,0.7385151337352859,684.2399698434515
3629.945,0.7379538099882341,975.4401329528769
3630.78,0.7357021017129414,985.2721883901171
3631.6174,0.7317020861570687,1354.4766471790583
3632.453,0.726502871065326,1015.6442151060241
3633.2883,0.7208909857662827,1173.5979184639382
3634.1262,0.7155925427624996,1026.6019030764141
3634.9622,0.7111061424146523,1096.172655767676
3635.8005,0.707567500561558,970.1528306644908
3636.637,0.7049701732483753,900.9350338037357
3637.4756,0.7032502829328174,1117.0970020911489
3638.3123,0.7023977359221406,986.8699922056794
3639.1492,0.702370431314882,812.9228139975393
3639.9885,0.7030225898038637,959.1050095085282
3640.826,0.7040293544145801,1075.5137965918118
3641.6653,0.7049537955958379,967.3420317006072
3642.5032,0.7054203545795633,953.4083294384977
3643.343,0.7053069844814784,1044.9284649180831
3644.1812,0.7047322669688546,1170.3240344968601
3645.0195,0.7038728408485201,860.5517140995746
3645.86,0.7027923904320407,1152.0652122078914
3646.699,0.701436237709072,1107.1663473545461
3647.5398,0.6997148459044782,1224.5514898435579
3648.379,0.6976200675741897,737.3070765418836
3649.2202,0.695173718185656,1149.4792277636445
3650.0596,0.6923700163857472,1022.6599432419088
3650.8994,0.6891375503962132,1184.052855708531
3651.7412,0.6855651390275574,1175.6770665261724
3652.5813,0.6821464311534973,810.0305770373992
3653.4236,0.6796306113980622,1329.7340725579852
3654.2642,0.6786168301086726,1287.9961730689138
3655.1067,0.6790948746320186,897.3906747018103
3655.9475,0.6805242851614653,1100.6765340952638
3656.7886,0.6822914291654069,1052.3267555199607
3657.6318,0.6840436580760128,1040.4040795251976
3658.4734,0.685578513076068,990.6124079029294
3659.317,0.6866293660886906,1134.7108143825667
3660.1587,0.6869108715269472,1068.8705345953897
3661.003,0.6865050251301043,896.2852720206848
3661.845,0.6860483370617995,1014.8350963653513
3662.6875,0.6864085592504745,1555.909829889402
3663.532,0.6880874430829004,1173.4274045162244
3664.3748,0.690813992010111,773.5116856325616
3665.2197,0.6937042908348391,884.5337165878296
3666.063,0.6957640622387228,1350.2644054297043
3666.9084,0.6965264573256851,1024.3143228720724
3667.752,0.6962822285040716,799.3064745934128
3668.5977,0.6958434569512508,1003.2775042212334
3669.4417,0.695935974579355,1009.8713680170742
3670.286,0.6966935525189256,928.966656520624
3671.132,0.6976662634041992,1012.6293126454194
3671.9768,0.6982765068856752,1056.0699647451347
3672.8235,0.698281332871032,1241.8313488838553
3673.6685,0.697747209829339,926.943410820868
3674.5156,0.6966590879053726,939.8892300396998
3675.3608,0.6947429017895618,866.1219617167746
3676.2063,0.6918214387113835,829.6211664491501
3677.0542,0.6883601045616431,1006.9892946202017
3677.9,0.6854789734199949,1189.2077357483104
3678.748,0.6841162896118734,1215.1286857512962
3679.5945,0.6842806487183763,958.2051081543148
3680.4429,0.6850318915752843,877.8088871715812
3681.2896,0.6852997798105768,1089.6364739069993
3682.1365,0.6846726244666363,1067.8028340701646
3682.9856,0.6834495364808232,1171.124475643951
3683.8328,0.682101557738011,1507.7860983804449
3684.6824,0.6807007053573229,1127.6621491651108
3685.53,0.6789000979106284,1030.0724433022972
3686.38,0.6763606800089682,1029.7810082081019
3687.2278,0.6733087462442288,1268.6886698683784
3688.0762,0.6705287105282748,1117.3146958117886
3688.9265,0.6688196141254713,1717.405736946191
3689.7751,0.6683686378768757,1132.9105076000942
3690.626,0.6687433277324598,899.6518037353699
3691.475,0.6695702148397308,1069.3742554002845
3692.3264,0.6710785125889951,1078.3143991244856
3693.1758,0.6738233461936132,1201.2952519469438
3694.0254,0.6779190111473237,1129.2012337326541
3694.8772,0.682610091074831,814.7226085124195
3695.7273,0.6866212156959945,1024.5249334889916
3696.5793,0.6889920372605758,824.6213081815108
3697.43,0.6893949210603465,1014.200823277703
3698.2825,0.6879863730569619,997.0831436319969
3699.1333,0.6850985045994871,823.1459114706154
3699.9841,0.6811799844534908,1106.045603294867
3700.8374,0.676871740232807,1092.3128641408784
3701.6887,0.6729616468501542,1351.2850989343278
3702.5425,0.6700413154288533,1064.999143350196
3703.3943,0.6683828417959401,1321.3229690056826
3704.2483,0.66789240221876,1190.5558351551076
3705.1003,0.6682702759265113,965.3158275155247
3705.9526,0.6691035128448718,853.0470138534862
3706.8074,0.6699544723134266,1098.1939845551105
3707.66,0.6704682581416836,1107.6856478413936
3708.515,0.6705458762630809,1081.9046708344954
3709.3682,0.6704094999892469,1349.3330335520652
3710.2234,0.6704627220701278,1238.4536493218513
3711.0771,0.6709484427312837,943.1504279147803
3711.9307,0.6716382182019387,819.6237518526646
3712.7866,0.6718215085590161,1503.9029113842969
3713.6409,0.6706713893623113,1114.2611959740661
3714.4973,0.6677815446501152,898.2765904494943
3715.3518,0.6635183042306465,1166.042845061664
3716.2085,0.6588389793637197,1329.5264554987364
3717.0635,0.6548939817253264,994.20261665966
3717.9185,0.6524828643860949,995.9450578151118
3718.776,0.651870319285827,1047.7398430130577
3719.6313,0.652834140711882,1276.915640063253
3720.489,0.654896285644821,1361.8271415358108
3721.345,0.6575677869888887,1247.935869791906
3722.2031,0.6605128661155062,1179.6499469984033
3723.0593,0.6634830917194307,1301.1324852196801
3723.9158,0.6662864102037989,1195.2122280157366
3724.7747,0.6687060029285561,892.1541737380263
3725.6316,0.6704573937514475,1103.3385219426164
3726.4905,0.6712545936506271,1291.1663703560046
3727.348,0.6709079443202586,1127.2066093481044
3728.2073,0.6695152097719834,1105.039126173398
3729.065,0.6675137273797769,1208.7619656615097
3729.9229,0.6654617436536371,1218.0120751597976
3730.783,0.6637184993560532,1087.3661871060626
3731.6414,0.6622550865411508,900.0688520321852
3732.5017,0.6606911252600375,1220.701467596931
3733.3604,0.6585955755923237,1128.59862343653
3734.2214,0.6557652218108776,1000.8483487610449
3735.0803,0.6524404047842226,1432.6711473473788
3735.9417,0.6491733396035572,1303.4306734162506
3736.8013,0.6466203544918863,1384.785569006295
3737.661,0.645196210894502,1244.8187001311137
3738.5227,0.644969433429734,1268.9896227722015
3739.3828,0.6457072030261288,1378.1892011905434
3740.245,0.6470236096199884,962.0871492152603
3741.1055,0.6484961125483797,1168.7177197753151
3741.9683,0.6497526232612987,986.2254722577431
3742.829,0.650494661679039,1177.7489684447514
3743.69,0.6505700706478522,1207.7544542302965
3744.5532,0.6499584276834621,1744.6911649058943
3745.4148,0.6487173099371984,1178.4301185875142
3746.2786,0.6469209290911845,921.1079581004823
3747.1404,0.6447378049724755,1544.584221775329
3748.0044,0.6425107317014117,1196.6120461509224
3748.8667,0.6408026656771568,1361.587328971315
3749.729,0.6401672127407936,1797.4050322371386
3750.5938,0.6408799189967211,1468.742550047734
3751.4565,0.642771615415987,1602.843993681683
3752.3215,0.645374843176234,938.7896994379067
3753.1848,0.6481878112907629,1246.7385947387609
3754.0503,0.6509025472166077,1197.7445736754344
3754.9138,0.653290131835361,1036.3017742525021
3755.7776,0.6550616083420019,960.6494400178411
3756.6438,0.6558011953433744,996.7157367611645
3757.508,0.6551817010606078,1084.1463689835537
3758.3745,0.653270256215856,1020.1179482913063
3759.239,0.6506356282835131,1156.2775578962476
3760.106,0.6480750586693411,1070.282778120467
3760.971,0.6462199791148753,1203.384920935048
3761.8362,0.6451657219067509,1244.2376722433069
3762.7036,0.644514484073675,1182.9376693470435
3763.5693,0.6437091986092284,898.7696085427501
3764.437,0.6424183810199453,1089.4053610437215
3765.3032,0.6406921422995265,1031.8102346874196
3766.1714,0.6387323621462347,1256.0652034644722
3767.0378,0.6366063768633928,1336.6122477495862
3767.9043,0.6341635073774294,1168.5809345675534
3768.7732,0.6313250830266939,1011.7119203097321
3769.6401,0.6284461283573453,1326.0934413044702
3770.5095,0.6262931653254636,1042.6537622808564
3771.377,0.6257265070635024,1151.5715017582636
3772.2466,0.627134403016655,1372.846251817205
3773.1145,0.6300902249910388,1330.8177912578924
3773.9824,0.6334467273135067,818.2765734273255
3774.8528,0.6358767234611871,1222.565197452323
3775.721,0.636565102229062,1058.0490446911022
3776.5918,0.6356792979935564,1149.6917409745304
3777.4604,0.6342043060970781,1165.6681110719458
3778.3315,0.6333096248788421,1216.2521929537902
3779.201,0.6336829575309104,1260.8847915285141
3780.0703,0.6351948805296641,1186.4477319046337
3780.942,0.6371040452094494,1445.2596383748134
3781.8118,0.6385173613354813,1302.7908078344053
3782.6838,0.6388470919122171,1329.7226515770349
3783.554,0.6379715800465968,1321.166477649336
3784.4265,0.6361949654888318,1014.1169141681062
3785.297,0.6340927187482969,1216.7932690165394
3786.168,0.6322416301276829,1128.9601989068005
3787.041,0.6309677605760174,1379.197115978324
3787.912,0.6302021751525044,1334.9210395195892
3788.7856,0.6295761842616172,1024.2240399186335
3789.6572,0.6287809293408685,1167.8664872969648
3790.531,0.6278410862144869,1206.2998286172856
3791.403,0.6270825755363445,1155.278583881008
3792.2754,0.6267424188547875,1126.6872348540735
3793.15,0.6266060442400598,1140.597148519651
3794.0225,0.6260125957273117,1265.4993270620334
3794.8972,0.6243117807984124,1035.9331053004294
3795.7703,0.6214581774272362,1243.3885473796206
3796.6455,0.618168094615477,1349.0411594664129
3797.519,0.6155500496112302,1273.527097477804
3798.3926,0.6143665802092092,1231.0814289851842
3799.2686,0.6146593110611673,1073.999155324458
3800.1426,0.6158553709889524,1326.0095615134442
3801.0188,0.6172006379200312,1474.5838449323749
3801.8933,0.6181281472682173,1131.3784188790105
3802.77,0.6184748856222055,1147.4072389420103
3803.6448,0.618499859401722,1261.6098614976545
3804.522,0.61874897612883,1423.218416161439
3805.3972,0.6197176071006757,1133.5364838832882
3806.2727,0.6215097047571171,1498.1008875238483
3807.1504,0.6237934431973334,1189.809533113478
3808.0261,0.6261219302107145,1315.8849262219724
3808.9043,0.6283842613728662,1303.1002423564998
3809.7805,0.6307916893654958,1191.5233995769765
3810.659,0.6335181006717543,1053.6526297235773
3811.5356,0.6362464366276598,1230.3468435091809
3812.4126,0.6382741731408158,1181.0887117994773
3813.2917,0.6390295795591945,1108.6087429101678
3814.169,0.6386014876970669,1095.6860006141849
3815.0483,0.6377397537491234,1137.2271616289454
3815.926,0.6372961507391272,965.776151648431
3816.806,0.6376250262383938,1219.988573964253
3817.684,0.6384590973843244,1102.9179211973517
3818.5623,0.6392215371528862,1112.265511369801
3819.4429,0.6393737986300592,1281.5427491649389
3820.3215,0.6385535447103919,1084.8559448130175
3821.2024,0.6365931765052059,994.4602091550582
3822.0815,0.6335796510673753,976.2393829187706
3822.963,0.6298387513595088,1249.1752932983202
3823.8423,0.6258599521238397,1169.9155864566833
3824.722,0.6220115797305799,1237.5275289298854
3825.604,0.618415678284248,1311.5634521785782
3826.4841,0.61499801397519,1410.7618382708524
3827.3665,0.6115622266087095,1755.4483389695047
3828.2468,0.6079435554941267,1236.2608260302436
3829.1296,0.6038941522656508,1255.7212545469229
3830.0105,0.5990949097289712,1312.7909189697575
3830.8916,0.5932132564127964,1259.8475033685322
3831.7751,0.5862347765952461,1684.1398361556155
3832.6565,0.5787538462371198,1472.6823083626782
3833.5403,0.5717395556341318,1775.8657459060566
3834.4224,0.5662857109690416,1774.4390403098216
3835.3064,0.563067365330927,1687.941681969009
3836.1887,0.5622236888494543,1459.4374175589285
3837.0713,0.5633982436599336,1357.020837681989
3837.956,0.5660925465454161,1426.7687056968507
3838.839,0.569941688925524,1702.7553956073266
3839.7244,0.5748550505940392,1341.2487062480664
3840.6077,0.5807626822866327,1806.494743118106
3841.4932,0.5874317445991186,1239.9142444520025
3842.377,0.5943077313346488,1668.81293941589
3843.261,0.6009192156979755,1369.2444096156592
3844.1472,0.6072428324663303,1136.9889767471066
3845.0315,0.6137139925485341,1430.6851450219742
3845.9182,0.6208545054149628,1260.0586429915722
3846.803,0.6285423924139546,1115.6067776151776
3847.69,0.6360420948886586,1511.860456507351
3848.5752,0.6423645339321719,1217.7944257087756
3849.4604,0.6469860691393509,1174.2935151484198
3850.3481,0.6500008560141977,1174.448233488012
3851.234,0.6519137270625238,1050.1582629646664
3852.122,0.6533846644477401,1056.5012652906628
3853.0083,0.6549505006808914,1132.5559759722205
3853.8967,0.6568932288888176,1238.3248221312106
3854.7832,0.659110197507089,1147.0573185475855
3855.6702,0.6611958520455627,1113.1046244409324
3856.559,0.6626505202762433,1025.2882465797331
3857.4463,0.6631663110745026,1044.9113340930573
3858.336,0.6627916033010846,1142.5302434244345
3859.2234,0.6617959850360905,972.7554108340616
3860.1135,0.6603579888705372,1151.8222142752159
3861.0015,0.658399181663566,1028.3984483103739
3861.8896,0.6557011791516941,1089.6685879811603
3862.7803,0.6522358740829044,1252.0376575599978
3863.6687,0.6483628162191085,1039.8794632659224
3864.5598,0.6446078786381608,1109.1369379405874
3865.4487,0.6414415920425682,1162.004805307087
3866.34,0.6389984959033134,1160.1161688023735
3867.2297,0.6370919145864532,1191.7335897516275
3868.1213,0.6352265705857678,974.5759966378599
3869.0112,0.6328309249849412,1174.1298945489955
3869.9014,0.629546521477013,1192.725716042358
3870.7937,0.6254668133156562,1167.7059247344946
3871.684,0.6210657035442062,1404.4299239246059
3872.577,0.6167161348261906,1426.2843498558075
3873.4678,0.6124461887099645,1185.4654040286152
3874.361,0.6079533810663548,941.3307171056568
3875.2524,0.603095344525696,1619.5529139370558
3876.1438,0.5980597336593267,1495.8777736311208
3877.0376,0.5932167049338989,1178.8953724523942
3877.9297,0.5887762489526327,1469.3834830641688
3878.8237,0.5844954857974459,1854.984389950107
3879.716,0.579827398833354,1575.5000586683345
3880.6108,0.5740761226157416,1954.9356795517413
3881.5037,0.5667833694168684,1570.2022814659372
3882.3965,0.5579255679043154,1753.896828506139
3883.2917,0.5480395445774807,1520.0563607350587
3884.185,0.5380783843018879,1962.4802497453745
3885.0808,0.5287913279408126,1885.5098210687636
3885.9746,0.5206429850520586,2050.945817532999
3886.8706,0.5137728789171175,1698.2006678119483
3887.765,0.5084886373719179,2131.503041501802
3888.6592,0.505325838451048,2004.759653460911
3889.556,0.5049252566693911,1976.4352425522266
3890.4507,0.5075934583519716,1758.5524791263542
3891.348,0.5129726369046331,2046.6809677777856
3892.243,0.5200276290033671,1831.5690254384415
3893.1406,0.5275881688757699,1783.8574002557923
3894.0361,0.5347536540383434,1423.0100369131924
3894.932,0.541293012412588,1581.7793617486059
3895.83,0.5474249725038682,2181.423575728218
3896.7263,0.5534279407141496,1311.7592204933999
3897.625,0.5595211357890516,1615.4807156211114
3898.5215,0.5657877608671661,1335.4693791126397
3899.4207,0.5724542071281429,1286.686039900027
3900.3176,0.5797400056626867,1730.838837808898
3901.2148,0.5877444529800976,1652.6537347557041
3902.1145,0.5961935836737393,1839.5791877492752
3903.0122,0.6045055289715038,1128.814084198761
3903.912,0.6123550887219628,1222.8752837552727
3904.8103,0.6198336370464558,1305.325118775042
3905.7107,0.627482415536642,1235.2664692144654
3906.6094,0.6357694289234403,1136.781283224328
3907.508,0.6448761149892643,1293.5766072525848
3908.409,0.6545450160817786,1064.5725477236263
3909.308,0.6640536503524112,1049.7211140450092
3910.2097,0.6725741929776669,1006.3825621944335
3911.1091,0.6793739601314511,942.1870689071236
3912.011,0.6843341246147517,1031.2022804379037
3912.9111,0.6878929700676175,1088.2904984402603
3913.8113,0.6908552788202773,1167.193889198602
3914.7136,0.6939039175036981,925.1722903271773
3915.6143,0.6972943887597063,1030.2819110216321
3916.517,0.7009339718429484,902.1046198008388
3917.4182,0.7045272026273346,955.031812780244
3918.3215,0.7077717333627089,1130.9790357847298
3919.223,0.7103465429417437,804.167251716249
3920.1245,0.7120757405555964,856.7306445811669
3921.0286,0.7130533138775156,1019.2313949215246
3921.9307,0.7136209679361725,984.4286551853111
3922.835,0.714112260212243,1130.9866963570414
3923.7373,0.7145890449168207,971.4094536730626
3924.642,0.7149009250596868,845.6430155326229
3925.5452,0.7149480158732414,889.1617792836204
3926.448,0.7148500705036699,951.8169344685648
3927.3535,0.7148036875600415,923.376437392258
3928.257,0.7147758267911294,1265.0975859936166
3929.1628,0.7143544285924662,829.0367819358219
3930.0667,0.7129851322896841,1133.4784591193327
3930.9731,0.7104266710849605,937.7549770320102
3931.8774,0.7070753779329769,1079.5891277485857
