wavl,flux,ivar
3566.9744,13.68983058290865,29.577883294391313
3567.795,13.688610301056936,29.49474614205337
3568.6177,13.686657219015999,28.50207257976839
3569.4385,13.683545094141513,29.209496264096995
3570.2617,13.681312702298653,29.89404876378371
3571.083,13.681785400660612,30.76566419972761
3571.9065,13.683797942429186,30.330443540512128
3572.7283,13.682953146908913,32.660830335370086
3573.55,13.674381866560779,29.432478465864616
3574.374,13.656408761107105,30.129680128771827
3575.1963,13.632686936206994,31.309070709388383
3576.0208,13.610330543495222,29.85434834362556
3576.8435,13.596067935142212,29.619533306164968
3577.6682,13.591998930013116,32.703183157144224
3578.4915,13.595017541266397,29.531031243165117
3579.3145,13.59899062435671,31.436844981444555
3580.14,13.597984336680847,30.412177423286145
3580.9636,13.588330976789319,30.65500744383352
3581.7893,13.569256771505602,27.741512093785776
3582.6133,13.542791342992532,30.36417761132558
3583.4395,13.512442078179241,30.638076937851306
3584.264,13.482088194606115,32.7240077819061
3585.0884,13.454112386516265,30.6110242186673
3585.915,13.429281821264226,31.4363456022331
3586.74,13.407765693566516,30.565527782790937
3587.5671,13.389882819439048,31.205275855341384
3588.3923,13.376912010675273,29.315489212263696
3589.22,13.370074165555508,30.34249156212263
3590.0457,13.369734831760375,30.332764638488058
3590.8716,13.37486521574484,29.35997655628568
3591.6995,13.383647690695105,29.902494168260404
3592.526,13.393824336343103,33.97061860229621
3593.3542,13.402527966111244,31.475817500846784
3594.181,13.40587011567798,31.75113707124457
3595.0098,13.400269517470665,31.609399288896032
3595.8367,13.385049706767795,30.403083661206235
3596.6638,13.364110485204337,31.059462591713604
3597.4934,13.344518222624433,32.60616488980471
3598.3208,13.332597114120547,32.275710861473186
3599.1506,13.329821093583588,29.292045192402647
3599.9788,13.332617374852864,29.761512367244062
3600.8088,13.335206776528427,29.746832601547563
3601.6372,13.333293929756733,31.197839477097993
3602.4678,13.325594286689908,32.68675549703239
3603.2964,13.312684678486159,31.323269496555625
3604.1252,13.294924323284365,30.22235778032058
3604.9565,13.272067813119682,30.771664433045615
3605.786,13.244874511859747,31.684318605934596
3606.6172,13.215703731781726,32.368764997251695
3607.447,13.187901178384786,32.277276681784734
3608.2788,13.162902203823732,32.373990687323115
3609.109,13.139352604593636,31.847734755201902
3609.9392,13.114006817894328,33.891189174380905
3610.7717,13.084879428155688,33.54044019327779
3611.6023,13.053769210442214,33.1929298715621
3612.435,13.025438327970251,32.01466652117674
3613.266,13.00539995382014,34.59225336509465
3614.0994,12.996265359083536,32.92148808604334
3614.9307,12.99680453477841,33.90562465814801
3615.7625,13.002942184183878,33.417157059046914
3616.5962,13.010258135968817,33.14557734034628
3617.4282,13.01581472294198,30.89495753771831
3618.2625,13.01900932874392,32.85887948773179
3619.0947,13.0211071780119,32.28563603894518
3619.9292,13.024065692620075,34.12359369275758
3620.762,13.02888008206431,33.16139845508026
3621.595,13.034760433164351,32.831804218558375
3622.4302,13.039790412862118,32.18093122808311
3623.2634,13.042527499182537,32.230725790285085
3624.0989,13.043066711607057,32.693671566468545
3624.9326,13.042463275793743,34.57593115826707
3625.7686,13.041558326587749,30.961912650236542
3626.6028,13.040342261785883,33.22499008641878
3627.437,13.038037402753467,33.80173101379806
3628.2734,13.033485307667227,35.410630064349185
3629.1082,13.025930987734903,31.50137183317228
3629.945,13.016059599657346,33.26382038245816
3630.78,13.006683222242684,33.27850545729305
3631.6174,13.001340381290964,33.09714750656728
3632.453,13.001772552714977,33.01514048296702
3633.2883,13.005772874511571,33.204986224755224
3634.1262,13.007799077687087,31.345417500322927
3634.9622,13.0019819829263,34.43477766695635
3635.8005,12.985612868634346,32.0364427026453
3636.637,12.960873619696734,31.199667244621725
3637.4756,12.933365125303062,32.25853539832436
3638.3123,12.909686934589883,35.59046376829084
3639.1492,12.894204426988304,34.4484033462385
3639.9885,12.887963320797837,34.189483817170554
3640.826,12.889104625967692,31.780805341521727
3641.6653,12.8944256943356,34.87958570575522
3642.5032,12.900989734795438,33.72400279505352
3643.343,12.906902146340448,33.25661175803431
3644.1812,12.911287846888916,33.25813744441376
3645.0195,12.914193050450955,32.13063964882596
3645.86,12.91597579630501,32.77406611453162
3646.699,12.91639402198741,31.69827165318402
3647.5398,12.914209587387814,33.959049407413495
3648.379,12.908094682434326,32.178306401470536
3649.2202,12.898147266206294,34.11860454979833
3650.0596,12.886491817235758,34.47496541649302
3650.8994,12.875709479283026,33.11453575147153
3651.7412,12.866918547992544,33.99528790924574
3652.5813,12.859265885702971,34.47740826330169
3653.4236,12.8511897696895,34.53769854305984
3654.2642,12.842187626900026,33.5834731185705
3655.1067,12.832817439100918,36.13105011511671
3655.9475,12.823961808170065,35.22868726629702
3656.7886,12.816300010682568,34.393863190375065
3657.6318,12.810730881719445,31.669920642294453
3658.4734,12.808280803857283,32.350355614200105
3659.317,12.808993914105349,31.865747500434754
3660.1587,12.811199822612437,34.12064210369518
3661.003,12.812097950597979,36.4875841612502
3661.845,12.809243974295677,33.92140956745561
3662.6875,12.801648623717075,32.97727399848673
3663.532,12.789673523163307,34.40278845722398
3664.3748,12.774315532397333,35.929853040954484
3665.2197,12.756300264785132,34.2627732195885
3666.063,12.736423692320251,33.38387070517698
3666.9084,12.715798361991611,33.679176397614754
3667.752,12.696280472478673,35.622419489249545
3668.5977,12.679104960724656,35.00385172660173
3669.4417,12.664087867323442,34.05783533294383
3670.286,12.649486482267617,33.30732849660644
3671.132,12.633907373994395,33.3677689220348
3671.9768,12.618297824763031,33.091880079752315
3672.8235,12.6058786068075,33.88759101583894
3673.6685,12.600383383097954,35.85241612913711
3674.5156,12.603345375245365,35.836254320625244
3675.3608,12.613067475324883,33.410828009160106
3676.2063,12.62558351023311,35.11010511434466
3677.0542,12.636648985301624,35.54587052941568
3677.9,12.643297754866456,36.21407165614367
3678.748,12.644721427260562,34.986684814540126
3679.5945,12.641878885275677,34.66834487638957
3680.4429,12.63667525525617,37.32715610762038
3681.2896,12.630984413663128,33.80086159919313
3682.1365,12.625949907906556,34.867343838901654
3682.9856,12.621826721896545,35.07620355354427
3683.8328,12.61798414231596,34.86817971041231
3684.6824,12.613058993812416,37.10717103755847
3685.53,12.605940215570284,36.909462092948424
3686.38,12.596950207468936,34.41628408502017
3687.2278,12.588371763551779,35.3691889969506
3688.0762,12.582812640899474,36.75106573565132
3688.9265,12.58080646665871,37.857725377832516
3689.7751,12.579533505350705,35.361036456525895
3690.626,12.574231619060349,34.80543475279193
3691.475,12.561451368851596,35.5877150668129
3692.3264,12.541305742337292,35.26850899267332
3693.1758,12.51749358172269,36.335850575285455
3694.0254,12.49453798531555,38.32943674138691
3694.8772,12.475196197090122,35.850779521444046
3695.7273,12.45933262689018,33.06944070688598
3696.5793,12.44439707598722,35.24790446311556
3697.43,12.427666121750537,36.03076486714457
3698.2825,12.407732146444955,36.15412257864753
3699.1333,12.385552572324068,36.45598301532975
3699.9841,12.363928920638077,35.0014165367593
3700.8374,12.346685923952409,36.6047601636539
3701.6887,12.337431260132396,36.139423237673434
3702.5425,12.337820214068676,37.77386489515718
3703.3943,12.346773855160544,37.68653836604738
3704.2483,12.360537408553531,35.06773828520578
3705.1003,12.37372718182084,38.42004476687026
3705.9526,12.381487049491806,36.901775043371494
3706.8074,12.381288642888158,33.42477734316913
3707.66,12.373860345228264,36.144474278078924
3708.515,12.36217183138252,35.3190112186485
3709.3682,12.349304831668935,35.37024044432758
3710.2234,12.336534080905404,35.87278448727594
3711.0771,12.323646524006405,37.9982863520055
3711.9307,12.310239532189543,37.367494581851744
3712.7866,12.296927342761853,37.24246895715951
3713.6409,12.285324707771666,37.108432990977555
3714.4973,12.276777034161766,38.16469267880576
3715.3518,12.271569182693556,38.33132368462928
3716.2085,12.268381083345568,37.11405799596656
3717.0635,12.264741189737638,35.08197575106989
3717.9185,12.257913775506125,36.174608831520395
3718.776,12.246085733960392,37.64377638831646
3719.6313,12.229406494457841,36.32103404380536
3720.489,12.209922779502065,36.18244765647875
3721.345,12.191025457983066,36.61690802641599
3722.2031,12.175419623930534,37.32200777268636
3723.0593,12.16378443590285,36.32040252224834
3723.9158,12.154128831580765,36.76757580498575
3724.7747,12.143248312668733,38.22689848514591
3725.6316,12.128853946994289,35.864279475864876
3726.4905,12.110740610086934,39.18833793052683
3727.348,12.091008664682809,36.69041776550342
3728.2073,12.072726202562588,39.135295831350334
3729.065,12.058911342543581,37.40287331379904
3729.9229,12.051199410070423,39.84157267231393
3730.783,12.049321248602839,39.42340000977736
3731.6414,12.05097497584065,38.74902164879912
3732.5017,12.052793923605822,39.05345729795152
3733.3604,12.052189012666524,38.577764023433325
3734.2214,12.04875950380073,40.478890645201375
3735.0803,12.044130449032366,37.08279062261464
3735.9417,12.040442783109457,38.40204250460877
3736.8013,12.039051284574699,39.09304846857443
3737.661,12.040008721370217,38.783960364249495
3738.5227,12.042481544497893,39.28742390263728
3739.3828,12.045445620979562,37.349718516888544
3740.245,12.048454731374056,36.900766415785455
3741.1055,12.05194875831429,38.93344990424235
3741.9683,12.057025401371126,38.53814227077181
3742.829,12.064483504115083,38.11304776721992
3743.69,12.073953036625282,39.47660833576121
3744.5532,12.083472140003861,38.156198924538884
3745.4148,12.089749790855834,37.21729546942676
3746.2786,12.089150444008505,38.314234069711404
3747.1404,12.078628594469606,37.34892337033433
3748.0044,12.056757799669269,37.86777003604675
3748.8667,12.024929124017062,37.50240481800103
3749.729,11.987426601847453,41.194842445946314
3750.5938,11.950603099176245,40.40241411214892
3751.4565,11.921232853366826,39.98256542021142
3752.3215,11.903606032824488,38.90459437998747
3753.1848,11.898638533435278,38.68076814568432
3754.0503,11.903656138357741,40.07056338311667
3754.9138,11.913957635416198,36.98636651324006
3755.7776,11.924828940416866,39.648533866153706
3756.6438,11.93307572894957,40.352535251710016
3757.508,11.937542620815758,37.481921245999075
3758.3745,11.938749887130033,39.21054789330935
3759.239,11.937604641940528,38.24966698485217
3760.106,11.934441507953078,39.02662013225536
3760.971,11.92901817890065,39.96083998362405
3761.8362,11.92114375666012,38.79467403835528
3762.7036,11.91111208613771,38.84383342111576
3763.5693,11.89963401058561,38.137395718736876
3764.437,11.887365706083507,39.90740807604223
3765.3032,11.874955586863257,38.71575448814509
3766.1714,11.862747305746376,38.995151240378966
3767.0378,11.850798385355004,39.279060084970936
3767.9043,11.838626487710798,40.44357136795316
3768.7732,11.825489827911031,40.96965113297248
3769.6401,11.811111182523325,38.45488967099203
3770.5095,11.796322525950405,38.494484074032
3771.377,11.783903826797914,41.67620989061538
3772.2466,11.777671748079765,40.51646851717156
3773.1145,11.780732161583444,39.71640999817668
3773.9824,11.793381704033647,38.11794735600524
3774.8528,11.812897755481618,41.72341923054924
3775.721,11.834824725055498,38.77291229187946
3776.5918,11.855504921952466,40.66457999684315
3777.4604,11.87282826376365,40.04311120921132
3778.3315,11.886447290076255,37.80236463863706
3779.201,11.89647236566574,39.21683504316111
3780.0703,11.903000361076572,39.38149121749529
3780.942,11.905890516400424,40.125148614031524
3781.8118,11.905111043295042,39.97507162275938
3782.6838,11.900925676097945,37.60404325114296
3783.554,11.89336345742244,40.5445984861681
3784.4265,11.881278200302619,41.90817205997498
3785.297,11.862643524386545,38.386309490224995
3786.168,11.836095485655857,38.08416501153118
3787.041,11.802898516214222,37.81504554708041
3787.912,11.767244490168606,39.072457281843256
3788.7856,11.73337079122107,40.521598220251995
3789.6572,11.703575974811807,40.508770760236295
3790.531,11.67667620033629,40.96542979018208
3791.403,11.649658844560404,39.80430122161283
3792.2754,11.619098124684948,42.89300717475161
3793.15,11.582882931587957,40.56124103060923
3794.0225,11.541368055792987,44.446790115930526
3794.8972,11.496754733650695,43.06189632180345
3795.7703,11.453023364535314,44.24994971857249
3796.6455,11.413977486125498,41.13108149435013
3797.519,11.383214321718311,42.19569068582022
3798.3926,11.363522778267184,43.94582013711574
3799.2686,11.357424084088235,44.77477326053992
3800.1426,11.366586536139716,43.189641277620744
3801.0188,11.39071506869153,45.14677501435989
3801.8933,11.42707464214423,40.68406628683641
3802.77,11.472011926818883,41.614645583991766
3803.6448,11.52195369232,41.28397857680156
3804.522,11.574845801821887,40.42584401831505
3805.3972,11.628439317998827,44.83241638158784
3806.2727,11.680199948150198,41.088748269234536
3807.1504,11.726949758253141,39.55528256136441
3808.0261,11.765914961719641,39.81111621812012
3808.9043,11.796925599912356,39.77466502222095
3809.7805,11.821876676701986,42.06801329011776
3810.659,11.843940867487976,39.43895437192493
3811.5356,11.86488259104307,40.51247280389914
3812.4126,11.883962625227726,36.843912276633326
3813.2917,11.89798114801983,37.99907172168288
3814.169,11.902980419127378,38.01310287769487
3815.0483,11.896543350734595,39.6247347068867
3815.926,11.8788291131816,40.43608674076904
3816.806,11.852117882084562,39.370673565103296
3817.684,11.819899835126149,40.30188633030615
3818.5623,11.785303251117092,42.06867298515354
3819.4429,11.750440944532217,41.05879735545626
3820.3215,11.716400914031183,40.48438699080741
3821.2024,11.68248710353239,41.83555445276227
3822.0815,11.646924646360487,41.986229660413336
3822.963,11.606874146308263,41.44535534852483
3823.8423,11.560398011396336,39.92354452854439
3824.722,11.506933898653003,41.313438764401084
3825.604,11.447433824461552,43.27165072224977
3826.4841,11.383606348319438,44.03707658193251
3827.3665,11.315535116609722,43.690432183813144
3828.2468,11.242662341719237,43.543820207735216
3829.1296,11.163430130081048,46.804373469103155
3830.0105,11.077915607776411,45.11985170409763
3830.8916,10.986958308034778,47.2057863849176
3831.7751,10.892407392072817,45.55196601559108
3832.6565,10.79760988144096,49.012272237825535
3833.5403,10.706053598521587,50.183887170861595
3834.4224,10.624118872719535,50.57938190729998
3835.3064,10.559653906839495,49.7457732784091
3836.1887,10.521803132847223,51.07911878963814
3837.0713,10.516892873337122,55.400207901404656
3837.956,10.546446141374592,50.78076003161982
3838.839,10.606413119408076,48.218443521565945
3839.7244,10.689933537877346,49.96179825894843
3840.6077,10.78885471402008,50.20418173293985
3841.4932,10.896545155618986,46.88460782463425
3842.377,11.006579132962827,45.51730988974383
3843.261,11.114720640803192,45.70692370357561
3844.1472,11.218385988146967,44.60619404253151
3845.0315,11.315600196726207,44.21774887819629
3845.9182,11.406234489211132,42.750137887361504
3846.803,11.490259153840693,40.72721198617501
3847.69,11.569784667468689,43.556584020171314
3848.5752,11.646693117570168,42.15297111165521
3849.4604,11.722259156054113,41.100376014758055
3850.3481,11.79584078474239,38.54289844021824
3851.234,11.865215994344128,38.63698559771894
3852.122,11.929552369421769,40.08572779957352
3853.0083,11.988836081556322,41.043694611630876
3853.8967,12.04467113616948,37.60382870282169
3854.7832,12.098163825638357,37.64876344735245
3855.6702,12.149900776988536,37.01903190402124
3856.559,12.198659783944683,37.534989595617006
3857.4463,12.241157903750711,37.97533547056611
3858.336,12.27391246367009,36.281359695546946
3859.2234,12.294420809894882,35.301461834701534
3860.1135,12.303062392244799,37.164367682993756
3861.0015,12.302441855248071,36.12991407052468
3861.8896,12.296245109704177,36.44350443487099
3862.7803,12.287452406554554,38.24849963488065
3863.6687,12.277267083272912,35.90463998614824
3864.5598,12.264613048272857,35.036030691261594
3865.4487,12.247102207169762,37.17047644432678
3866.34,12.222052517458447,37.25949321851904
3867.2297,12.187762635200912,36.94990503501163
3868.1213,12.143043608488355,36.56889844370697
3869.0112,12.08747866515487,37.46651156900942
3869.9014,12.020910901893123,38.62644319687526
3870.7937,11.943956028529904,39.526749678205505
3871.684,11.858510183673987,40.15959456389869
3872.577,11.765729114086481,38.898400531378904
3873.4678,11.666997550548729,40.80639526567594
3874.361,11.56189914826448,40.74741417631912
3875.2524,11.450397900379794,41.85466360933432
3876.1438,11.331586159281775,44.729239944942194
3877.0376,11.204793751139917,44.29487640227359
3877.9297,11.070892753984346,41.48483496806962
3878.8237,10.930004748787713,46.561954207342815
3879.716,10.783283258689949,46.21834741457442
3880.6108,10.630384636555341,49.18621774824816
3881.5037,10.472654171434474,51.06636208785814
3882.3965,10.311211756446394,51.344725427913296
3883.2917,10.147781599110894,55.65820524309642
3884.185,9.985129191050776,54.28033377354275
3885.0808,9.823387828534,57.602049627305874
3885.9746,9.66370042883795,60.177352099396295
3886.8706,9.507150958685827,61.557848951532016
3887.765,9.36035865608484,60.78644869948678
3888.6592,9.234345371365777,70.91673927726227
3889.556,9.143951044751873,67.2540932874765
3890.4507,9.103744973155637,73.90402946391389
3891.348,9.121318765207796,68.7718701562358
3892.243,9.194919501967174,67.18726175321771
3893.1406,9.314945403687585,64.40924445913153
3894.0361,9.46677223026128,62.31861059494681
3894.932,9.637530702327268,59.60703353552597
3895.83,9.818190069758273,55.25648621107347
3896.7263,10.002189786699127,57.83669224658923
3897.625,10.186920790344862,58.33793608826697
3898.5215,10.36856559225187,48.584491756397945
3899.4207,10.54574133065175,48.93998472873072
3900.3176,10.716455438247621,50.8634947243978
3901.2148,10.88175168776693,48.3882640899571
3902.1145,11.043197798006762,46.76640845668501
3903.0122,11.200682458173878,43.26775945193823
3903.912,11.354897045887435,43.750702627512254
3904.8103,11.504732451173808,41.009947942245255
3905.7107,11.64984049497466,41.312222269780214
3906.6094,11.787545225711495,40.94368438056965
3907.508,11.915353476302297,39.47752936618091
3908.409,12.031567679814364,37.765477004704806
3909.308,12.136194708078026,37.26238194133436
3910.2097,12.232964946900243,37.63360811126009
3911.1091,12.325773686548276,36.377599713500686
3912.011,12.418480114801843,34.67982403414179
3912.9111,12.511920275038054,36.028484510000844
3913.8113,12.605846326048983,36.1309028831019
3914.7136,12.699261291737152,35.444189926510006
3915.6143,12.790122957971345,35.31570556005461
3916.517,12.876862176250857,33.78412550923324
3917.4182,12.957251043430976,34.13593314900011
3918.3215,13.030564816744123,33.44648443707657
3919.223,13.096499960520482,32.6049047544434
3920.1245,13.156065904919279,31.21941543019268
3921.0286,13.210359430787491,31.066104641691048
3921.9307,13.259619939584327,31.838276717964987
3922.835,13.303741818203735,30.8371766929313
3923.7373,13.341531429612287,30.137931760086854
3924.642,13.372336412956866,31.457725572429123
3925.5452,13.396185401062258,29.697145519266567
3926.448,13.414287909086921,30.682883183440612
3927.3535,13.427865619697627,30.999311446909438
3928.257,13.437214685579796,30.345032432933603
3929.1628,13.441970763753512,30.62298570327064
3930.0667,13.441525250960337,30.667533272728694
3930.9731,13.435398770142713,29.931166409284213
3931.8774,13.42308853420864,30.231615256605878
3932.782,13.40394831496552,29.873434924000104
3933.6887,13.377570443820106,32.797810443587814
3934.5938,13.34427117991792,31.950578254590567
