wavl,flux,ivar
3566.9744,14.364673185872164,41.014293876914834
3567.795,14.360974810484807,41.79058529130624
3568.6177,14.338499285490085,44.11953105882748
3569.4385,14.302189434685674,41.708685318561066
3570.2617,14.258938070325325,43.65317133802623
3571.083,14.217489278190003,43.61556853861745
3571.9065,14.18568285957531,42.87256770651408
3572.7283,14.168454449703768,41.823211828232125
3573.55,14.16546977144876,40.6449244502566
3574.374,14.171983369460236,41.544322886506066
3575.1963,14.180849223081916,39.9882574297172
3576.0208,14.184941011379287,41.994294582029696
3576.8435,14.178752281065133,41.61397384357305
3577.6682,14.159636437318351,41.49228778945494
3578.4915,14.128531601519343,40.857192645565526
3579.3145,14.089170926239788,43.20870320953779
3580.14,14.04654306612557,41.51664112147894
3580.9636,14.006401128433987,41.74327786138664
3581.7893,13.974617852572708,43.73521165926135
3582.6133,13.95762323343894,43.48346958722591
3583.4395,13.95978914744479,44.42436965033925
3584.264,13.980587403239108,46.42700738766613
3585.0884,14.013431062845521,42.75493803517688
3585.915,14.04863177996913,40.955703735319645
3586.74,14.078040261702792,41.039753371608754
3587.5671,14.09862332168014,43.03325877095489
3588.3923,14.110348731868198,43.722134070513164
3589.22,14.112408769352317,44.941289046086915
3590.0457,14.101222409295332,40.99112652038421
3590.8716,14.073721656311013,40.51605559987907
3591.6995,14.032185922130328,43.07775812701826
3592.526,13.985656333582716,42.53651431929149
3593.3542,13.944267458786815,44.51081843358774
3594.181,13.912970163096007,44.23355459765622
3595.0098,13.888250797590114,43.164985052192634
3595.8367,13.862568917739695,42.07019530335668
3596.6638,13.830554322739083,43.8446951051473
3597.4934,13.793326968402273,45.373626867622086
3598.3208,13.75807506610956,47.11175342813101
3599.1506,13.73289208988233,45.99111348416005
3599.9788,13.72257369642323,49.070200485883866
3600.8088,13.725800716674804,45.04420722695822
3601.6372,13.73672488370286,41.71565632755943
3602.4678,13.748647213321739,43.50200705580137
3603.2964,13.757217158748253,42.74222136073385
3604.1252,13.761997818342904,43.64446818178118
3604.9565,13.765791762566579,45.546444450998955
3605.786,13.772833511702007,45.429634768221796
3606.6172,13.786511761294554,47.57555247900547
3607.447,13.807242610941454,43.56927800664391
3608.2788,13.831841578435059,42.53450298583428
3609.109,13.853567947561604,42.41699221488084
3609.9392,13.864053844406714,43.55837949064645
3610.7717,13.855962216838572,39.8642283478073
3611.6023,13.826781906980608,40.133118678614196
3612.435,13.780613625575713,44.16429229822384
3613.266,13.727141168935713,44.298647179784226
3614.0994,13.676372135995013,45.800163099005566
3614.9307,13.6352849024032,43.01149130515804
3615.7625,13.605521486555702,48.44839409426275
3616.5962,13.585134282230268,45.16757663375455
3617.4282,13.570618478494906,47.62537452951498
3618.2625,13.558528731444197,47.58925019734461
3619.0947,13.547300837040238,42.3905157351062
3619.9292,13.537499985700387,44.56931480271271
3620.762,13.530770268024591,44.33478548635305
3621.595,13.52746861208628,46.810857893019055
3622.4302,13.525821754135041,47.25026701770032
3623.2634,13.523181333795222,46.351949991489775
3624.0989,13.517979943027624,47.970733038341
3624.9326,13.510527341085325,46.09024040750698
3625.7686,13.502273040588326,47.94801197208235
3626.6028,13.495112186337991,47.425736590093884
3627.437,13.490762345346647,45.1122940185241
3628.2734,13.490188550594779,48.79450402543061
3629.1082,13.492538171440753,47.213348747570556
3629.945,13.49425593836128,45.24202086280528
3630.78,13.489358305523368,47.95847708442372
3631.6174,13.47167073918769,45.61220952317536
3632.453,13.438785043059738,44.35673506810144
3633.2883,13.394460797598768,43.63839372717608
3634.1262,13.3472192312628,47.832793179600635
3634.9622,13.305860660484871,49.88660992412014
3635.8005,13.273977846819689,46.31914535184466
3636.637,13.249965390547935,50.14923758309624
3637.4756,13.22906139945554,46.20239587383909
3638.3123,13.20729862460957,47.81449814993253
3639.1492,13.183055108542941,49.74123762214111
3639.9885,13.157421282950493,46.9760267155124
3640.826,13.13356857520634,49.84271537869835
3641.6653,13.114828050316232,49.6563115680925
3642.5032,13.103411237392622,50.03842881079386
3643.343,13.098920777321952,47.10661840236531
3644.1812,13.098588289346905,48.97133704330821
3645.0195,13.098496404153352,47.15775493082367
3645.86,13.095424325620806,48.03348633376081
3646.699,13.088188690388117,49.103549760708205
3647.5398,13.077805346009265,48.04216164863164
3648.379,13.066787685521023,47.53779331659734
3649.2202,13.05763373046099,49.17430750691805
3650.0596,13.05170877200575,47.5677041552394
3650.8994,13.048423502835744,50.716372428150116
3651.7412,13.045772312623537,49.80030571387226
3652.5813,13.041780782148926,50.78332806489456
3653.4236,13.036043618576274,47.27616011185444
3654.2642,13.030354043710181,49.40690902249673
3655.1067,13.027652653314137,46.26938899959599
3655.9475,13.030193345351554,51.631535226989634
3656.7886,13.037896579341735,49.32147947909524
3657.6318,13.048280309396702,50.66632342161031
3658.4734,13.057938425992575,53.776036187184566
3659.317,13.065077879612518,48.584241082493165
3660.1587,13.070855896457166,50.21994260501736
3661.003,13.078967545411441,51.10745093846849
3661.845,13.093069815581899,50.77242158840126
3662.6875,13.114082209846408,48.50060959121157
3663.532,13.138707549722662,51.66446769882255
3664.3748,13.160358451932066,47.391678359480856
3665.2197,13.172705630348387,46.620714869369856
3666.063,13.17261365493708,46.68394435772284
3666.9084,13.161501997747527,48.81392692556844
3667.752,13.143805157442845,49.834315206249265
3668.5977,13.124041877826107,54.0811406659106
3669.4417,13.105287132034734,51.68654653881584
3670.286,13.08886884638249,49.58289454057251
3671.132,13.075425301018065,49.808394783625914
3671.9768,13.065421113815924,50.27285696975939
3672.8235,13.058757783303124,51.36591548318374
3673.6685,13.054702801171453,50.74706874340966
3674.5156,13.05194708173565,47.81592034455805
3675.3608,13.049115670433508,49.372582347756115
3676.2063,13.045064096007327,49.99593841825007
3677.0542,13.039040780010946,53.04508220310725
3677.9,13.030840842191544,47.553787445094805
3678.748,13.020874312739492,50.54955856133721
3679.5945,13.010408502450106,49.59368652692146
3680.4429,13.000856831404564,53.07742627398165
3681.2896,12.992930720830605,49.85784228591818
3682.1365,12.98595431284738,50.57521104215677
3682.9856,12.97857074063859,51.30186623903023
3683.8328,12.97006936312814,52.023808425795075
3684.6824,12.961096061483067,52.598689376527716
3685.53,12.953739973821243,49.344606532333955
3686.38,12.950598952502327,52.08194606619247
3687.2278,12.953831420116783,50.37312365891865
3688.0762,12.964161167815181,49.86177074348922
3688.9265,12.980537445792558,51.00426349306795
3689.7751,13.000147839063859,49.395994596247384
3690.626,13.019330432336238,50.57569077480651
3691.475,13.034289743941875,50.27574223778377
3692.3264,13.04261136450375,51.27478552713093
3693.1758,13.043715801651235,51.11338705027095
3694.0254,13.038668159448056,46.585273976325134
3694.8772,13.028928358581695,50.39274431540419
3695.7273,13.015567987496627,49.70837213478372
3696.5793,12.9990446678655,48.1532243247268
3697.43,12.979900473978677,52.85148858928161
3698.2825,12.95873994802209,48.27697585868485
3699.1333,12.936310771221333,50.97591999203377
3699.9841,12.91291805410367,49.56195270703471
3700.8374,12.888500582543207,53.78635628338927
3701.6887,12.862981733564837,54.22861296307996
3702.5425,12.835989639129801,50.231914791204794
3703.3943,12.807804109130041,52.04521589270323
3704.2483,12.779417441835637,51.30596884324534
3705.1003,12.75310948304768,52.026703315646124
3705.9526,12.73078756817889,49.78674639818352
3706.8074,12.712624170198243,52.44889927338772
3707.66,12.696839667332773,51.764283321766186
3708.515,12.680945072545066,53.44942008628008
3709.3682,12.664057496821389,53.503975384247646
3710.2234,12.6470635297772,56.38618619550314
3711.0771,12.63186097296109,52.950089752586614
3711.9307,12.61996095761343,53.918877203880925
3712.7866,12.612142085616464,52.67509920854845
3713.6409,12.608402080521898,51.55390816433622
3714.4973,12.607721407628274,50.06266729301358
3715.3518,12.60844949550342,50.89174480913229
3716.2085,12.609203895357297,55.18739087807092
3717.0635,12.609643393134748,52.65952490343901
3717.9185,12.610263526512268,55.21272734492866
3718.776,12.611465683696109,52.26968674666734
3719.6313,12.612880258034627,56.20380399263952
3720.489,12.613447344218258,50.48203497769815
3721.345,12.611866608959614,53.83503312767284
3722.2031,12.607079774964106,54.6796570791098
3723.0593,12.598765998361184,51.1423268845662
3723.9158,12.587601018208465,53.187642991805916
3724.7747,12.57513607642811,52.773380150066515
3725.6316,12.563176650867993,52.32134743821466
3726.4905,12.552559167861329,54.32134836992141
3727.348,12.54273470095678,53.85403797835738
3728.2073,12.53184250321154,53.06556494777751
3729.065,12.51809113675523,51.456816350748895
3729.9229,12.50107546340242,52.37098197380252
3730.783,12.482373479160163,52.852626494931684
3731.6414,12.464697989700749,53.649740820088084
3732.5017,12.449880397995956,56.74487030484447
3733.3604,12.438246949316085,56.71775694946919
3734.2214,12.428913450157609,55.90392766039896
3735.0803,12.421169354971012,54.64271089657997
3735.9417,12.414792653050094,55.123432410521296
3736.8013,12.409784061791866,53.32928521656252
3737.661,12.405699965812271,55.98023964287133
3738.5227,12.40188810463079,53.47435787513565
3739.3828,12.398167364410883,56.88188559577772
3740.245,12.394903717318913,57.296899903859924
3741.1055,12.392398699764067,54.850357834747165
3741.9683,12.390256258647591,54.487640728518954
3742.829,12.387819252656298,59.18391800243126
3743.69,12.385047103684643,51.77457755418309
3744.5532,12.382868966966909,54.088357092932476
3745.4148,12.382589095612959,56.46695643500123
3746.2786,12.384920793187412,53.42155455479152
3747.1404,12.389422933797338,54.39206052924418
3748.0044,12.394518894450604,57.56733287704807
3748.8667,12.397907687636476,55.88234565648554
3749.729,12.397657507051175,52.06037848023916
3750.5938,12.393386458007773,54.20116193884891
3751.4565,12.386960335893406,54.3608592209435
3752.3215,12.381692849394641,55.733589012132846
3753.1848,12.380601344102347,55.44170327413873
3754.0503,12.384587597415848,58.12072742474851
3754.9138,12.391989726243304,54.88797331038435
3755.7776,12.399672206917819,54.73368840862995
3756.6438,12.404581630148837,53.812788386027584
3757.508,12.404665260281835,54.89839758685743
3758.3745,12.398994983363385,53.75545576487343
3759.239,12.387582578346882,54.11024618031677
3760.106,12.371332835905381,56.11989620566631
3760.971,12.352353251875082,55.73362476460434
3761.8362,12.33330582166773,55.404605577417406
3762.7036,12.316676482399066,54.21608530419181
3763.5693,12.304002843574896,54.0107838129984
3764.437,12.295048095156655,58.27212062521893
3765.3032,12.287866434279259,57.15702831565499
3766.1714,12.279112481757284,54.138230757733055
3767.0378,12.265509247204042,55.80570043508526
3767.9043,12.245569397971705,55.39219748063822
3768.7732,12.22089563781267,56.057473781163175
3769.6401,12.19616194902399,57.38009475037919
3770.5095,12.176673021491863,56.8599343720525
3771.377,12.16631412753178,56.015730930472465
3772.2466,12.165919440566293,56.93851193665799
3773.1145,12.174042504793546,57.98694148042602
3773.9824,12.188358411486828,55.74326428817426
3774.8528,12.206821693984136,55.644452480038936
3775.721,12.227817743343001,53.37711026225064
3776.5918,12.250689781327488,56.130839521387585
3777.4604,12.275372081460302,56.74520753526617
3778.3315,12.302463009291609,55.23074474194485
3779.201,12.33159154930605,55.39276803691821
3780.0703,12.36088089067331,55.59107827905562
3780.942,12.38705205002137,53.20540480996916
3781.8118,12.406779433791886,52.85547705411154
3782.6838,12.418552553024105,54.40245166045841
3783.554,12.422323495787582,56.43904772858493
3784.4265,12.4184510751585,53.83474191679372
3785.297,12.406733383707913,53.35109500420977
3786.168,12.386799985197344,58.490291041220715
3787.041,12.358972588435892,53.1477183255094
3787.912,12.324717225811328,56.956387062730045
3788.7856,12.285503146008313,54.495822963209996
3789.6572,12.242928631506427,57.75345652716318
3790.531,12.198002790447468,55.63370006961843
3791.403,12.152233218768638,55.09671572486091
3792.2754,12.106905101604902,56.68755252821647
3793.15,12.062803650432373,56.12704969014997
3794.0225,12.0197533672829,59.38884219608707
3794.8972,11.975933317893777,58.64194675840749
3795.7703,11.930271199409791,58.96946867262517
3796.6455,11.883937802792591,59.17916800573339
3797.519,11.842094551613718,57.32996389428943
3798.3926,11.811521155732772,60.650579227784185
3799.2686,11.797841948518267,60.16927417964969
3800.1426,11.803159407986563,61.62513607596272
3801.0188,11.825490691342637,59.410357628628255
3801.8933,11.85993078751856,58.191789209495134
3802.77,11.900988041279742,60.061037280525156
3803.6448,11.944261908708329,59.70662101361993
3804.522,11.98891204816494,57.21803297916914
3805.3972,12.036732791419016,58.96630151561473
3806.2727,12.090568129193977,62.369291865221555
3807.1504,12.150901855493228,56.88892480138413
3808.0261,12.214013497205649,54.75665786002327
3808.9043,12.274434467688147,54.62579323532897
3809.7805,12.326695407826175,52.7211617091431
3810.659,12.368606201986017,56.36796981448099
3811.5356,12.400479905858024,54.3518958648875
3812.4126,12.424505432546821,56.369219647083064
3813.2917,12.442465535084015,53.582625336564206
3814.169,12.454152826527356,56.51210797713769
3815.0483,12.457441569179476,54.394880759238006
3815.926,12.44970068542268,53.081994245578976
3816.806,12.4301124639431,54.686696944880474
3817.684,12.400671795629851,55.73618781337025
3818.5623,12.364592356645835,53.249624815403756
3819.4429,12.324259008005308,56.51744919283829
3820.3215,12.280841974249842,55.336022000374015
3821.2024,12.234288960316832,57.587352013710614
3822.0815,12.185020396039834,55.822189994956936
3822.963,12.13315953491169,57.42211825001639
3823.8423,12.078962379396033,57.4981975405964
3824.722,12.021685958784532,57.57591762169712
3825.604,11.959911042746166,59.10707004150593
3826.4841,11.892140885265768,62.83780686289196
3827.3665,11.81608856826599,60.21734646596971
3828.2468,11.730855393657098,65.29667875835884
3829.1296,11.636315075835148,60.18027030821087
3830.0105,11.534813988390598,65.09615287511656
3830.8916,11.428803561880107,62.44885955726796
3831.7751,11.3210135790002,66.20432644332791
3832.6565,11.215801544150148,65.42022880498594
3833.5403,11.11795214366918,70.7707835546375
3834.4224,11.034747341445437,72.20200454912975
3835.3064,10.973205937286988,69.67759558615404
3836.1887,10.940209079232952,73.66009955261298
3837.0713,10.940347395623366,74.63561305126055
3837.956,10.97538819063686,73.77955611185808
3838.839,11.04264608636419,71.2450790397517
3839.7244,11.135649261515654,65.84947174462314
3840.6077,11.244609879590831,64.49089799536087
3841.4932,11.360754197294824,66.93818837845764
3842.377,11.476783412736012,62.543104689203496
3843.261,11.589838892725716,63.444753482740836
3844.1472,11.700547966151149,60.535516882271935
3845.0315,11.810742298171723,59.955919188939426
3845.9182,11.92283746015963,60.00480941769622
3846.803,12.035622679533322,56.51406899448153
3847.69,12.146200535620538,57.56918947765436
3848.5752,12.249508414628156,54.75433496751709
3849.4604,12.342263880306408,55.43892428701867
3850.3481,12.42372682316109,51.996521988336724
3851.234,12.495176407569017,53.99596653138781
3852.122,12.56000456336739,54.39446318327428
3853.0083,12.620318819248554,55.72834383696342
3853.8967,12.676877863258749,52.77595806945443
3854.7832,12.728056280357038,51.14225761245622
3855.6702,12.772149748721857,52.945798726017905
3856.559,12.808279633405403,52.2810545128282
3857.4463,12.836855030272178,50.33032063895383
3858.336,12.859386221614328,51.275941375854025
3859.2234,12.876562603467375,49.855475308824474
3860.1135,12.88769367379849,51.244301711708445
3861.0015,12.890731911040474,51.350499994948365
3861.8896,12.8841543384801,49.533626138067284
3862.7803,12.868192090731535,52.78713107622998
3863.6687,12.844964791717624,49.3723524970847
3864.5598,12.816662078994538,52.779275558611815
3865.4487,12.784520068008105,51.23982903872546
3866.34,12.747835731395122,52.29513781006002
3867.2297,12.705334149778585,50.48402487983645
3868.1213,12.65548103135425,53.55256802091427
3869.0112,12.597844910029904,52.22796342335516
3869.9014,12.532575522651554,51.916468649134956
3870.7937,12.46044441391176,54.783260810748885
3871.684,12.38290255517319,55.464626229911
3872.577,12.300280199905155,54.62779068917632
3873.4678,12.212992612047826,56.24739426992296
3874.361,12.119948990721229,55.45632150409366
3875.2524,12.020437847031856,58.332341981949725
3876.1438,11.912855048129243,56.41830504246446
3877.0376,11.79577123292992,58.339895223773816
3877.9297,11.669561994322123,63.014632377848166
3878.8237,11.534517582150507,62.16484239461493
3879.716,11.3921856963156,68.49706774204694
3880.6108,11.242300910009522,62.48751064407884
3881.5037,11.085475606390196,69.60795330029396
3882.3965,10.921512680535386,71.79019935011485
3883.2917,10.75090076595469,73.38133260779468
3884.185,10.576267514634164,73.27199242863539
3885.0808,10.39906881027063,78.7765724951076
3885.9746,10.222989575032141,83.66407775719094
3886.8706,10.051357870374877,82.25085852393286
3887.765,9.89201219208014,86.32665282343743
3888.6592,9.75600442328068,91.47600076926102
3889.556,9.657978267044212,92.16844954372763
3890.4507,9.612758042587515,98.5157044729139
3891.348,9.628324405279404,96.49543340702739
3892.243,9.703068203248,90.1412534680112
3893.1406,9.827250995651305,91.39595290539542
3894.0361,9.985992103609336,85.71067439017192
3894.932,10.16584712671618,80.13745358452178
3895.83,10.356257964402152,79.95811903227523
3896.7263,10.548298764949099,72.02103794892433
3897.625,10.738048712098704,70.88657066666285
3898.5215,10.92300928519123,68.58262428744519
3899.4207,11.10531555269073,68.2946465479962
3900.3176,11.285810905493308,68.01334801441732
3901.2148,11.46554568062834,63.16234109794122
3902.1145,11.643788858983623,63.23576225632306
3903.0122,11.818064811305007,60.95936257773495
3903.912,11.988625258397239,58.16532382995517
3904.8103,12.15531059415364,57.379222888667385
3905.7107,12.319155935396592,56.63067779912283
3906.6094,12.478141433625515,51.85241430041689
3907.508,12.629964999038119,49.49171426063936
3908.409,12.772850061719183,50.87964739017077
3909.308,12.906053650324955,50.19249151476914
3910.2097,13.03177584833438,48.191978890431585
3911.1091,13.15108900390602,47.80818710571044
3912.011,13.265293065788923,50.36818692900598
3912.9111,13.373528996848995,46.18624652636902
3913.8113,13.475241882371453,46.76414603431012
3914.7136,13.569721971341865,44.79385235220969
3915.6143,13.655582756040712,44.180466809161445
3916.517,13.73258033876677,44.47876920932808
3917.4182,13.800747465695059,43.176443599094085
3918.3215,13.861910798335556,44.36277276018216
3919.223,13.91782150862546,44.10601985653997
3920.1245,13.970178287602335,43.20714237491287
3921.0286,14.0197845956948,43.773300418961945
3921.9307,14.066700745455158,42.83798981378041
3922.835,14.111617670336818,42.701761324728594
3923.7373,14.15485846833661,43.88680774703082
3924.642,14.196605002177881,42.70899972022594
3925.5452,14.235685869128952,41.73911586853486
3926.448,14.27033532016167,43.01851718987269
3927.3535,14.2981696240962,39.25072563300349
3928.257,14.316129711837199,41.31773929970148
3929.1628,14.321475446132137,41.03407059902959
3930.0667,14.3125933443826,40.24700503745324
3930.9731,14.290154235476201,40.89605125850974
3931.8774,14.257260803417834,41.51061308765837
3932.782,14.21763426596839,43.287415542665116
3933.6887,14.173969866084295,42.55350670282288
3934.5938,14.127620354909075,42.149185805166304
3935.501,14.078459773542534,42.94668216766078
3936.4062,14.02633506860652,40.98944231505155
