wavl,flux,ivar
3566.9744,5.058607956367608,138.56317510819756
3567.795,5.059402330234312,141.5567704550894
3568.6177,5.055866779486013,140.294994859841
3569.4385,5.048010645749705,143.02767921493486
3570.2617,5.036488020927118,144.36567808558058
3571.083,5.0230212883182785,157.29343299912625
3571.9065,5.009904814773705,149.83774624620912
3572.7283,4.999291574879241,150.7557023437508
3573.55,4.992014747611874,150.82526583108944
3574.374,4.987662091461289,155.6510481308326
3575.1963,4.98548499762138,148.99518221775767
3576.0208,4.985156782156502,159.36949173663845
3576.8435,4.98666552139965,158.56994295464645
3577.6682,4.989436716774857,143.48620680866605
3578.4915,4.9918142520081705,153.28683430066184
3579.3145,4.991737558161095,137.1163922001898
3580.14,4.988219310180137,136.53148715875975
3580.9636,4.982636557565198,148.69215389812868
3581.7893,4.97843165505952,139.56211983476388
3582.6133,4.979191313352411,143.240993658548
3583.4395,4.986080003069882,159.03777963821176
3584.264,4.996698811361483,144.6507312245987
3585.0884,5.006541626688453,155.4141074636071
3585.915,5.011831001502457,145.01369791198596
3586.74,5.011565732400121,147.02217858914784
3587.5671,5.007354225821829,138.7869592010117
3588.3923,5.001410392386123,155.2109694082542
3589.22,4.9946603689147935,154.2870633093491
3590.0457,4.98665046959116,147.4265619207423
3590.8716,4.976699108598825,142.53173987134377
3591.6995,4.965351742404672,155.17686915304725
3592.526,4.954695595974712,140.56432653211237
3593.3542,4.946944713666913,137.07790588913625
3594.181,4.942809101200869,148.7872928234453
3595.0098,4.940583988039641,151.22044601146376
3595.8367,4.937229804661421,167.0848713228482
3596.6638,4.930337801566321,149.85813755106466
3597.4934,4.919594958905031,141.7246809186613
3598.3208,4.906923930656186,142.60705183827622
3599.1506,4.895042542552984,144.33851662082844
3599.9788,4.886127878594104,154.24253651774677
3600.8088,4.880535086268948,162.9731049039039
3601.6372,4.87701929643753,144.081631139122
3602.4678,4.873809586975476,136.77275034071158
3603.2964,4.870202725167198,153.7051462835277
3604.1252,4.867224285876187,147.46945371687036
3604.9565,4.867060004747982,136.07712760333473
3605.786,4.871571694577665,166.30139832621938
3606.6172,4.881075167811957,150.04299578318032
3607.447,4.894108445476876,150.63778128142604
3608.2788,4.908319553258158,144.2226277763572
3609.109,4.9210032305418485,152.68943047673704
3609.9392,4.929517657256477,143.86162556095036
3610.7717,4.931325194805279,148.7241538743356
3611.6023,4.924860045661261,152.80780168036583
3612.435,4.910683388934856,158.5171082549367
3613.266,4.891916591996322,147.68259491028823
3614.0994,4.872764469963753,150.44661743970448
3614.9307,4.856768785094416,147.98471061141163
3615.7625,4.845129069923816,166.17699558963326
3616.5962,4.837073181236039,148.83860069538565
3617.4282,4.831091278769918,148.84465017440402
3618.2625,4.826105675362155,157.96151619427204
3619.0947,4.822189004582258,141.07281815057578
3619.9292,4.820293354592389,144.1128419316009
3620.762,4.821609856977053,152.3879118310721
3621.595,4.826572807868945,140.0503256278433
3622.4302,4.834109584656486,161.64313668794918
3623.2634,4.841454592820168,147.02044884104063
3624.0989,4.845234929483892,166.2031302364562
3624.9326,4.843036388806516,161.12020660381862
3625.7686,4.834798765148095,159.07216398850906
3626.6028,4.822847417003182,155.3515336585734
3627.437,4.810357892130784,147.85783421875516
3628.2734,4.799586913850301,158.39683936677616
3629.1082,4.791034221113622,159.09136410568107
3629.945,4.783585637623351,167.43566663581373
3630.78,4.775643605692236,159.7163949235026
3631.6174,4.765814205062898,147.17049357105358
3632.453,4.753634726581141,159.03392998802929
3633.2883,4.739727535333381,154.83462979946142
3634.1262,4.725708897417112,176.6352359230726
3634.9622,4.713427428211827,165.49483208653103
3635.8005,4.703468309675554,184.43500860101938
3636.637,4.69483616288126,156.54084130274126
3637.4756,4.685393546657444,155.78560547100332
3638.3123,4.673470347052236,160.89124952147816
3639.1492,4.6589431737606635,153.65016182705702
3639.9885,4.643635978221355,168.58694499056946
3640.826,4.630653934845093,174.07826562511065
3641.6653,4.622549296390445,168.73195033225392
3642.5032,4.620224551956255,168.03737061052877
3643.343,4.622585760676781,159.09467372827308
3644.1812,4.627478859749144,173.20745164103602
3645.0195,4.63296475155923,170.00353035452017
3645.86,4.638114007831297,165.61023749647546
3646.699,4.6428687199537455,161.56135112918685
3647.5398,4.647306978820685,165.59610022687315
3648.379,4.650788410561185,165.54716264714898
3649.2202,4.652089365347953,165.10512759330214
3650.0596,4.650239030687376,171.6826864050112
3650.8994,4.645384107580507,168.46679446006962
3651.7412,4.638728383952543,192.85450473261182
3652.5813,4.631815317237794,168.4397355987873
3653.4236,4.625706543073728,171.23543773766593
3654.2642,4.620968101102754,181.55717674966766
3655.1067,4.617773426007494,167.5108539036984
3655.9475,4.616092404515619,174.25672220455053
3656.7886,4.615669155256307,177.78365457021098
3657.6318,4.616298017296037,165.11294563750607
3658.4734,4.618181289255946,178.7672794804226
3659.317,4.622041837082734,166.7521948127683
3660.1587,4.628679528637173,178.5214595808969
3661.003,4.638400972827725,171.22838822660424
3661.845,4.650473131450156,169.89710823068575
3662.6875,4.663479829173904,168.59840144752403
3663.532,4.67585882317554,175.66244900790292
3664.3748,4.68632702108117,158.16553528527206
3665.2197,4.6939441285277335,172.49929932434299
3666.063,4.697540217082117,168.59854947626462
3666.9084,4.696015140470633,160.32194077252697
3667.752,4.689245989634504,164.50813085436505
3668.5977,4.6788760460842935,175.45935343753217
3669.4417,4.668012684710595,162.1621527899956
3670.286,4.659551189765404,157.72070237079916
3671.132,4.654884969337204,185.07812263572094
3671.9768,4.653647127282575,164.01331181191486
3672.8235,4.654299428600651,178.2688902566006
3673.6685,4.654958703856988,167.8747273793145
3674.5156,4.654048936806089,161.57897658523504
3675.3608,4.65092070108674,180.27124633271117
3676.2063,4.646170136874695,172.26442882088983
3677.0542,4.64121787764106,172.0448814301797
3677.9,4.637336949982436,169.78299286226226
3678.748,4.634755373271723,172.53805811912048
3679.5945,4.632819526193199,165.86883730652733
3680.4429,4.630758400383679,169.980808453078
3681.2896,4.628548246220307,170.578063503386
3682.1365,4.6270339917233985,171.05810384369414
3682.9856,4.62733962345996,165.37485616536264
3683.8328,4.62998419725335,167.8644002413189
3684.6824,4.634457013170391,175.3445796018742
3685.53,4.639447056736982,174.4930008106002
3686.38,4.643634590096108,180.8299903393016
3687.2278,4.646284485400203,172.5698797393911
3688.0762,4.647637904009722,169.8740163775129
3688.9265,4.648638916559271,177.9753337863553
3689.7751,4.650181325271275,174.83153355533884
3690.626,4.652362776749465,168.4163454807799
3691.475,4.654460023437645,169.1855597255519
3692.3264,4.655789873164941,173.44247622138417
3693.1758,4.656403108326673,172.31598799104074
3694.0254,4.656880785716455,167.56120437291258
3694.8772,4.6574147253103275,181.21465207344352
3695.7273,4.657291093120365,161.96740511313726
3696.5793,4.655366148149436,159.3451458815
3697.43,4.650984258427425,171.173880609682
3698.2825,4.64427416627178,176.18214324713335
3699.1333,4.635752036382088,167.92480279008998
3699.9841,4.625692208650875,160.78335265066517
3700.8374,4.614173964367649,183.79625605566636
3701.6887,4.601630116662522,163.2954702293626
3702.5425,4.588920714082024,160.30211700087634
3703.3943,4.5774789678585455,174.65601304926972
3704.2483,4.5686194898042185,174.420514856422
3705.1003,4.563114869429001,166.42738441683582
3705.9526,4.560614562050734,170.98751064038453
3706.8074,4.5599667750632245,178.9465563334309
3707.66,4.5599005074993295,182.36950629100295
3708.515,4.559480890778197,191.32546871833895
3709.3682,4.557969692926027,188.0475323203136
3710.2234,4.554529517143712,168.72054062082836
3711.0771,4.548443205593665,178.98159429184878
3711.9307,4.539637445710155,171.4090708455912
3712.7866,4.529024566354591,175.08396908504994
3713.6409,4.518463048655013,161.67037632789632
3714.4973,4.509980027506229,164.03889355061762
3715.3518,4.505152188754257,183.04019697633788
3716.2085,4.504369547911496,188.65750495494882
3717.0635,4.506988184404766,178.6769142310961
3717.9185,4.5120319390896855,174.80278168620725
3718.776,4.518948268132718,175.20701840102794
3719.6313,4.5274004881384675,185.57647984563206
3720.489,4.5364981637220545,173.9029781076555
3721.345,4.544025075951247,152.7412186422079
3722.2031,4.547233305034529,171.41863170065744
3723.0593,4.544427854179153,165.29812420863928
3723.9158,4.536354202893059,202.58849432859571
3724.7747,4.525864172357532,172.04828694721456
3725.6316,4.516415302770396,163.25587565451306
3726.4905,4.510215544086518,182.4036326025876
3727.348,4.507734971529457,176.74444362635663
3728.2073,4.507937928404579,203.46836566720347
3729.065,4.508977326471627,176.10869945126584
3729.9229,4.508824630405599,170.4116044253516
3730.783,4.506032584693535,166.97686081530065
3731.6414,4.500531349683872,181.63444502909752
3732.5017,4.493645284121523,175.65017397981967
3733.3604,4.487182965859241,186.02521185432812
3734.2214,4.4820397306404445,190.26214461593773
3735.0803,4.477912044077914,186.65609589097832
3735.9417,4.47392621119393,171.19391116383431
3736.8013,4.4696709420416605,179.8643592958485
3737.661,4.465343147499969,192.80481925684708
3738.5227,4.4613477661072025,187.91068866131516
3739.3828,4.457919445655544,181.51885706183657
3740.245,4.45497917330086,182.95076947645472
3741.1055,4.4522903901437205,158.86063231113647
3741.9683,4.449543197032325,174.52681276977665
3742.829,4.446641137584239,179.34127943142636
3743.69,4.443889785172798,190.66517317210912
3744.5532,4.4420337779307,173.05570426722304
3745.4148,4.44194611410241,198.16807295331597
3746.2786,4.444077087781192,192.36780569722308
3747.1404,4.448056156247902,177.54365747678426
3748.0044,4.452807204133123,172.85734843406834
3748.8667,4.457089354211055,169.24980807927943
3749.729,4.460294443481596,182.8590179076474
3750.5938,4.462661048869611,178.80240601160338
3751.4565,4.464812065204603,178.13822528476118
3752.3215,4.467081406605439,185.13152322197618
3753.1848,4.469203066004057,179.10483125854213
3754.0503,4.470779902036617,190.22534196904013
3754.9138,4.471842032630753,175.97586923449956
3755.7776,4.472885207945637,167.47702349252037
3756.6438,4.474186601344096,174.375960937649
3757.508,4.475137909323578,182.61782533089325
3758.3745,4.474388784575178,188.710410555656
3759.239,4.4707968615293625,182.68271166675237
3760.106,4.464413205711747,191.41047683273547
3760.971,4.4567482763650785,173.08376758983076
3761.8362,4.44985108419766,191.5216183080503
3762.7036,4.445174475353995,186.13919522566226
3763.5693,4.442907879971238,179.85894824060804
3764.437,4.44208048370395,191.7602714233747
3765.3032,4.44134556874569,175.0155313215606
3766.1714,4.439681857691857,174.15542285935666
3767.0378,4.436745109726945,187.67727207810114
3767.9043,4.4327474610520925,171.5636341164801
3768.7732,4.428180965771417,193.2493542815019
3769.6401,4.423684270662251,179.13516634090138
3770.5095,4.419889705803475,191.3954312554726
3771.377,4.4173641697655635,196.4449818204316
3772.2466,4.4162681563186315,181.18303106160872
3773.1145,4.416232876404546,187.56991298684517
3773.9824,4.416502295156355,186.0546022876497
3774.8528,4.416402110906005,184.16276584093492
3775.721,4.415813677702632,185.69128338414475
3776.5918,4.415400330811627,193.79835321585017
3777.4604,4.416397973264524,205.08248915886614
3778.3315,4.419908600082903,204.92145105220885
3779.201,4.426014819749775,184.73620486915425
3780.0703,4.433527179265338,193.28680373887795
3780.942,4.440636821076005,193.982612759435
3781.8118,4.4459539926940455,169.11026736057994
3782.6838,4.449194070475961,172.77719546912985
3783.554,4.4507129420174065,204.9773070925693
3784.4265,4.450797044269183,184.71178249928172
3785.297,4.449317778284343,188.51023887921153
3786.168,4.446075575892021,174.3711515600841
3787.041,4.4411923127820225,179.23257595374986
3787.912,4.435155371899671,181.22248765877325
3788.7856,4.428448791852387,175.68805291016088
3789.6572,4.421516548809259,184.47269896282106
3790.531,4.414644334767254,172.33765450604068
3791.403,4.408032667116282,186.50970364721496
3792.2754,4.4015471039629945,187.85598942566963
3793.15,4.394742230349603,167.7224015354452
3794.0225,4.387098555429627,191.49974560880463
3794.8972,4.378207666864747,198.18433235964756
3795.7703,4.368214596065659,187.6257500532509
3796.6455,4.357821698380066,191.79059443816797
3797.519,4.348314611229259,186.01032007435754
3798.3926,4.340921585917029,199.61023032299565
3799.2686,4.336389470090885,190.00624412780354
3800.1426,4.3348582803814875,184.2881461515407
3801.0188,4.335994062677694,171.76210883599612
3801.8933,4.33922179775502,189.1635996495749
3802.77,4.343758142701857,194.5854192227509
3803.6448,4.348657251844948,178.72202055870744
3804.522,4.353294619681455,182.08126068654138
3805.3972,4.35773092816068,189.16096464594216
3806.2727,4.362774942041018,183.84128091332067
3807.1504,4.369296981683635,195.95466129987508
3808.0261,4.377285420204424,180.05224214852933
3808.9043,4.385528218559994,180.62042522822003
3809.7805,4.392033698358832,191.03830164362643
3810.659,4.395584327546168,195.91856812806378
3811.5356,4.396808266191773,180.74527325900576
3812.4126,4.397981637416639,194.45129557440558
3813.2917,4.401256518246745,176.92392587007396
3814.169,4.406859873636357,173.93034615587354
3815.0483,4.412897566873659,186.6098956045519
3815.926,4.416619881831896,175.40402571435476
3816.806,4.416172439356498,195.22096405341776
3817.684,4.411305883504244,168.84329700914014
3818.5623,4.403058137042643,186.75679650896876
3819.4429,4.3929093264477554,191.91615745338873
3820.3215,4.382239375799426,189.6414324530427
3821.2024,4.37186990123138,195.1393701652472
3822.0815,4.36222363019323,184.70255898350086
3822.963,4.353129739713912,189.489981203336
3823.8423,4.3440041136572445,189.60113509488096
3824.722,4.333950683975315,175.06420294115506
3825.604,4.3223564472655625,195.6921407704553
3826.4841,4.309388626409441,199.24206795724098
3827.3665,4.295592372290931,195.44226906022254
3828.2468,4.281469423395949,197.82058424079938
3829.1296,4.266751075856497,212.01532143866805
3830.0105,4.250903553883907,189.92008012396477
3830.8916,4.2336791743769835,200.00916017758826
3831.7751,4.215954581318129,193.67230922881438
3832.6565,4.199825517451327,202.82526113176894
3833.5403,4.187277184274752,203.5265612264776
3834.4224,4.179270672830833,205.88617861230728
3835.3064,4.175193946859241,212.3544007823181
3836.1887,4.1739627246738555,207.7679384118727
3837.0713,4.175266837450982,214.78562509569485
3837.956,4.180047190204826,219.87585310154577
3838.839,4.189548480179701,200.15815377485671
3839.7244,4.2040307406249635,192.3718777531821
3840.6077,4.221933999123731,195.7226051195568
3841.4932,4.240763798677456,207.35895723112552
3842.377,4.2582267220990735,197.89616188987677
3843.261,4.273767554040105,190.77870923484187
3844.1472,4.288643285715545,204.08345563256168
3845.0315,4.304746186633911,196.53362055132956
3845.9182,4.323113432365234,197.08456217682667
3846.803,4.342573820509283,176.98718658388407
3847.69,4.3607689218805445,183.50916518334608
3848.5752,4.3756285158243715,173.18768569109181
3849.4604,4.386972558875533,183.81788478522265
3850.3481,4.396198573599758,188.91917420979684
3851.234,4.4050727333515605,194.0898071088036
3852.122,4.41484677100746,202.78791851346307
3853.0083,4.4256717440242275,188.19161801908106
3853.8967,4.436901680173975,189.4697177769786
3854.7832,4.447253359973547,181.53966231956764
3855.6702,4.4554965502632315,187.1510629942868
3856.559,4.4609117936321585,177.21088718889507
3857.4463,4.463661082518063,181.02103890169982
3858.336,4.464697577909569,179.94594429297948
3859.2234,4.465040052827844,166.80173428164844
3860.1135,4.465108351910717,186.9791502819612
3861.0015,4.464549731943458,167.96126011189781
3861.8896,4.462631231165685,184.69771092738574
3862.7803,4.458698122959369,182.22314511356885
3863.6687,4.452453407338763,169.844286400745
3864.5598,4.443914663269394,182.87012959813023
3865.4487,4.433492485051002,190.29416445981957
3866.34,4.421616023208623,188.50783249380112
3867.2297,4.408722741261718,192.38726406201474
3868.1213,4.395037759075948,190.2390213723147
3869.0112,4.380909648884288,183.31956480924876
3869.9014,4.366524118964584,195.7764900638853
3870.7937,4.351696196816963,188.24896240617653
3871.684,4.335946490005513,194.13490439316752
3872.577,4.318683674445074,186.32351576125268
3873.4678,4.299974933500496,191.87543314375077
3874.361,4.280184181875836,189.50769469306636
3875.2524,4.259903603011642,206.25221532138866
3876.1438,4.239240635465544,200.12693439439428
3877.0376,4.217886264385756,198.60584808637313
3877.9297,4.195518591780581,210.4586501541232
3878.8237,4.171801637979314,208.6491947347446
3879.716,4.1469947838008965,229.65030300842471
3880.6108,4.121391075598061,213.29418184529123
3881.5037,4.09522417275024,195.34186457227506
3882.3965,4.067816805267734,200.89479630772476
3883.2917,4.037995882476962,221.6972301310266
3884.185,4.0052796812284015,226.51682336929971
3885.0808,3.970211660802091,243.7028672006042
3885.9746,3.935061049670198,240.4324318628461
3886.8706,3.9024224464631088,231.85767448264085
3887.765,3.874984711620361,241.6845158963531
3888.6592,3.8546420690593686,261.8154372390268
3889.556,3.8427840651458443,260.03197691853853
3890.4507,3.8403294214887778,262.1967208570175
3891.348,3.847370434769283,264.40685474555863
3892.243,3.863127454894131,236.77595877045783
3893.1406,3.8863802546700787,263.21729201947653
3894.0361,3.9155853008967267,229.57343440837144
3894.932,3.9494203375676658,232.68909921570065
3895.83,3.986360021598379,233.21298911811024
3896.7263,4.0241297822464235,222.94817661416917
3897.625,4.060827834304483,212.19159140896454
3898.5215,4.095329823179331,225.258198624426
3899.4207,4.128774097586614,221.89499416046252
3900.3176,4.163153552699731,222.819270899997
3901.2148,4.200208974151174,206.22984239172516
3902.1145,4.239839581865396,198.3704517802126
3903.0122,4.280068769783577,200.26646476434422
3903.912,4.319236534577815,189.28807294675696
3904.8103,4.356615476603684,194.63445139932338
3905.7107,4.393173684914177,176.86073813267535
3906.6094,4.429864794498623,176.04484694046457
3907.508,4.46698430217493,170.18407912715855
3908.409,4.503503625971935,177.0307529637839
3909.308,4.5372775865691,179.36845812371243
3910.2097,4.566646900228137,170.01553214361857
3911.1091,4.590871997543673,164.69239096416763
3912.011,4.611109441041977,177.1088456156169
3912.9111,4.629283152190222,165.08499477316897
3913.8113,4.64710113007938,172.3350291730033
3914.7136,4.664866559369024,158.34587242735648
3915.6143,4.681448030643145,171.99651424570936
3916.517,4.695664322558414,158.80550603609893
3917.4182,4.70716760632553,159.957075525928
3918.3215,4.716962834977548,150.05298795867915
3919.223,4.726484638884883,160.28743969313766
3920.1245,4.736748345069771,154.1358084626074
3921.0286,4.747809457358775,155.81680977658186
3921.9307,4.759007114682353,155.70634523657355
3922.835,4.769776743346881,165.2680002062771
3923.7373,4.779666839888766,162.7363898011937
3924.642,4.788234707607183,157.4464269449541
3925.5452,4.794566466045466,161.93844611759278
3926.448,4.797591899279803,170.10791147848474
3927.3535,4.796570373766615,160.77883070997672
3928.257,4.79167538758388,161.96964946656
3929.1628,4.78410782464981,164.76797896277773
3930.0667,4.775697800903434,163.6669868454932
3930.9731,4.767833204763871,166.45403712309414
3931.8774,4.76074051932613,152.36090702351927
3932.782,4.753236360428052,154.69069976185958
3933.6887,4.743692233740212,173.68236353149624
3934.5938,4.731346524664184,153.715642161496
3935.501,4.716643329661551,154.59491689956175
3936.4062,4.700734680178723,156.18784090139843
3937.3142,4.684102739438569,163.40657284021017
