wavl,flux,ivar
3566.9744,1.5929760764711332,184.36779027261468
3567.795,1.5836333192697025,216.87686827197828
3568.6177,1.5754966224087579,199.0228315817845
3569.4385,1.5696170835280863,207.47000797036597
3570.2617,1.565869043102735,202.10866602221705
3571.083,1.5639756210613889,220.22484769505095
3571.9065,1.5642545511906523,220.28142375663407
3572.7283,1.567473543023591,187.11115427356594
3573.55,1.5739134613416284,233.64918924839498
3574.374,1.5828686078688763,203.59396062499042
3575.1963,1.5929205711812928,193.8100377465508
3576.0208,1.6027612896215997,171.65751992698708
3576.8435,1.6112632234241568,188.88429447623778
3577.6682,1.6176423713322936,157.28825037054395
3578.4915,1.6215752237379055,182.72079460294125
3579.3145,1.6236611645044694,193.1539981508341
3580.14,1.625096382884895,231.01543947047577
3580.9636,1.6266362705955608,145.06475593357794
3581.7893,1.6277588604506852,197.56337837660283
3582.6133,1.6269418473025012,165.83131795781566
3583.4395,1.6229335190667051,158.11763990067433
3584.264,1.6157691997163002,179.96900940889316
3585.0884,1.6065516235125845,219.085914814076
3585.915,1.5965529221060761,178.21843625128068
3586.74,1.586732606117282,159.720868283621
3587.5671,1.5776802376050292,180.1037366604577
3588.3923,1.57007490169221,211.62484628993622
3589.22,1.5644686928407354,172.34003250683512
3590.0457,1.5611923997552082,179.96883642432726
3590.8716,1.560104634070422,185.67998614026658
3591.6995,1.560662040675463,197.84518917439064
3592.526,1.5619131610785313,241.19642858780153
3593.3542,1.5626300913699143,158.9663597246415
3594.181,1.5617005495545928,183.99355925127534
3595.0098,1.558697526682077,206.31360172114952
3595.8367,1.5542114859573315,204.15611856567264
3596.6638,1.549487371110825,190.12186931350246
3597.4934,1.5456650959531864,213.61396049973624
3598.3208,1.5431868584115787,234.80299446078988
3599.1506,1.54175379335281,174.48527949373388
3599.9788,1.5408897130625365,206.66803869543628
3600.8088,1.5402909963591187,173.6203317730637
3601.6372,1.5398127139656554,188.000640299578
3602.4678,1.5392647871581404,225.17948612041423
3603.2964,1.538428373877529,186.78503463195003
3604.1252,1.5372075347421772,158.58504399066845
3604.9565,1.535724078525036,247.3785155129021
3605.786,1.5343049950954,204.1084295249587
3606.6172,1.5334169672465714,181.72679411825305
3607.447,1.5336239821552469,188.04305644852258
3608.2788,1.5353986492071077,205.1485408621037
3609.109,1.538883881820281,168.4267857592892
3609.9392,1.5437883518427606,218.19316295558986
3610.7717,1.549368196626355,170.55323543880093
3611.6023,1.5544248170393056,193.70879026925317
3612.435,1.5576548331046176,145.71495635535584
3613.266,1.5580898946505222,189.44187431390733
3614.0994,1.555612682158578,223.62522651668917
3614.9307,1.5509219445857412,194.25539921659595
3615.7625,1.5450314018678657,238.62858144680226
3616.5962,1.5388395889695057,225.82184295492826
3617.4282,1.5330359728645804,218.29198861467762
3618.2625,1.5280387637157253,230.38961296425214
3619.0947,1.5241219031774929,203.20359199955706
3619.9292,1.52137787699865,191.92432335312301
3620.762,1.5199264069521217,184.58338933150415
3621.595,1.5198695054674514,232.9366035692865
3622.4302,1.5210086914474203,217.6038402687646
3623.2634,1.5224118350353903,199.64962669715877
3624.0989,1.5224958861669236,212.89728416191716
3624.9326,1.5197692973810002,202.6298430176554
3625.7686,1.513788939118901,173.7369786035711
3626.6028,1.5057030275820276,173.77895078685987
3627.437,1.4978293483961425,188.365384905402
3628.2734,1.4926860915862368,236.0849860639051
3629.1082,1.4918522356035882,216.06888686070994
3629.945,1.4951687170096806,167.82209369265678
3630.78,1.5008874716053466,168.2736066732832
3631.6174,1.5065809302425408,209.91714461352913
3632.453,1.5100454676339405,184.78294066271727
3633.2883,1.5101153447945062,207.63035719288786
3634.1262,1.5069221134072277,196.02009942916874
3634.9622,1.5018518762429551,198.91660195417393
3635.8005,1.4968271448861563,210.1191907057008
3636.637,1.4934185950873708,253.58760566486333
3637.4756,1.4920876696434417,170.23205694805753
3638.3123,1.492289354543683,198.0752738227118
3639.1492,1.4929848710049574,188.94029560992925
3639.9885,1.4932168325021602,210.6632238869364
3640.826,1.4924501860800203,207.8086103385252
3641.6653,1.490692230073862,156.85791493659067
3642.5032,1.4883835486298496,204.00689241168152
3643.343,1.4860286933542346,208.67602429831706
3644.1812,1.483888319354525,294.58194384984733
3645.0195,1.4818573202186125,226.6614601709586
3645.86,1.4796508712496643,193.66154512293883
3646.699,1.4770727781088882,223.8269770828619
3647.5398,1.4741806710845051,221.89213291744798
3648.379,1.4713123607565664,223.3714307799273
3649.2202,1.4686885642005523,231.32888862236922
3650.0596,1.4660974701271425,198.82588969697827
3650.8994,1.4630442985713104,216.6055349923032
3651.7412,1.459514802189704,180.4323114920729
3652.5813,1.4564260649052896,197.17958741290045
3653.4236,1.4550085255754073,218.29743001735795
3654.2642,1.4557374330042177,231.1994168723025
3655.1067,1.4577500208355794,217.68106219624764
3655.9475,1.4593328379348485,231.89346298254114
3656.7886,1.4589455378863463,234.38193948910035
3657.6318,1.455879291932622,246.0023869436744
3658.4734,1.4503618015635458,202.34405095029854
3659.317,1.443226243748266,196.13551560612282
3660.1587,1.4357459149594112,286.25321162808325
3661.003,1.42932684139418,216.00214036407007
3661.845,1.425310544840247,207.12853024206686
3662.6875,1.424421505958829,215.661279475581
3663.532,1.426688515373356,176.5056104566483
3664.3748,1.431674896277366,208.07354296439846
3665.2197,1.4388599776666644,239.4321960163249
3666.063,1.4474402538796522,232.89951623012303
3666.9084,1.456111268528949,214.72529106046193
3667.752,1.4630611227973938,204.1700979471261
3668.5977,1.46685703789303,240.5655163449176
3669.4417,1.4669113529596804,216.24052294559664
3670.286,1.4634423675779225,221.67183235537587
3671.132,1.4570198824515612,221.7855710765186
3671.9768,1.448612614236922,214.9780594525431
3672.8235,1.4396604317944075,261.00923134488386
3673.6685,1.431939924168542,237.84962127889105
3674.5156,1.4266770285969996,215.9620294100731
3675.3608,1.424097759808198,243.7185942785038
3676.2063,1.4234319098044892,220.11977935178646
3677.0542,1.4235990824709437,208.5608975833004
3677.9,1.42376183283342,222.87997108575
3678.748,1.4234210638247253,228.5663337749803
3679.5945,1.422158029949771,256.33388775750075
3680.4429,1.4195714477652475,231.37916769690202
3681.2896,1.4157007413443128,240.38480711533737
3682.1365,1.411376869480502,234.7253939905275
3682.9856,1.407984405630474,272.10203076704465
3683.8328,1.406637321982665,222.4594935036913
3684.6824,1.4073886085782328,278.57094211180845
3685.53,1.4092201214126048,226.6512549910213
3686.38,1.4107074010150285,201.81788936492845
3687.2278,1.4108922558443924,187.35307776291728
3688.0762,1.4098973485717503,279.4064868160028
3688.9265,1.4088473970382047,226.77815022448803
3689.7751,1.4091654415970398,246.5397918798392
3690.626,1.4116305520451176,254.02383885698103
3691.475,1.4158837616247242,241.0857321579548
3692.3264,1.4207718031564216,184.31869201594444
3693.1758,1.4249914457072117,213.58802796164386
3694.0254,1.4276357019449306,212.70899888528504
3694.8772,1.4281962287830579,207.46632574766545
3695.7273,1.4265954313725027,258.54785703071207
3696.5793,1.423397310574002,217.3371609241467
3697.43,1.4198872545763603,271.0226128310456
3698.2825,1.4175257851155627,249.68633696058558
3699.1333,1.4171104934189476,260.13841827277605
3699.9841,1.4182013680923296,203.57857036618827
3700.8374,1.4194427609817677,222.19310757757066
3701.6887,1.4194479398732298,201.93399118387165
3702.5425,1.4176608413524845,241.96646967064288
3703.3943,1.4145660720184776,214.82610688111376
3704.2483,1.411155814895808,231.557653557373
3705.1003,1.4081970719205366,174.39141912949114
3705.9526,1.4057171476808907,267.68726682372727
3706.8074,1.4032370290111527,212.02033606825773
3707.66,1.4004607025925686,234.39149152800783
3708.515,1.397747883951803,237.97832118009535
3709.3682,1.396029020835987,259.32182863440755
3710.2234,1.3960345484201044,218.32039377841892
3711.0771,1.3976078233565248,204.5867292758287
3711.9307,1.3996030093092158,212.85115752005058
3712.7866,1.4004838533374766,256.6070368639606
3713.6409,1.399100662964227,266.00155573550796
3714.4973,1.3951113270524065,225.39303300573565
3715.3518,1.3889201112828609,194.28224697518218
3716.2085,1.381366116319411,227.52779032759713
3717.0635,1.3737758401516647,285.37279197446486
3717.9185,1.367857349768425,253.1220208703519
3718.776,1.3654432229577307,313.928464064192
3719.6313,1.3677216245767674,250.3536792757247
3720.489,1.3743921079582593,270.87604619979703
3721.345,1.3834501348165933,198.08074739126502
3722.2031,1.3920688156881875,190.16346961376502
3723.0593,1.3977805309296105,215.58974678302036
3723.9158,1.3995875112117075,211.83929941039688
3724.7747,1.3978747204416877,291.7185888070113
3725.6316,1.3937236775342792,225.23690980623616
3726.4905,1.3881608223945345,215.58078304579686
3727.348,1.3821065058937314,225.12088404955657
3728.2073,1.3765245755412399,261.27719144240154
3729.065,1.3724064366547692,230.0898212821498
3729.9229,1.3701370845080185,245.78288605472673
3730.783,1.369202087675286,256.4243090892822
3731.6414,1.3685347391674014,253.90437253972087
3732.5017,1.3672256826827331,231.11643914664603
3733.3604,1.3649642125912624,255.5140232571769
3734.2214,1.3618994033380682,232.68212726247106
3735.0803,1.3583344090494156,243.23161229586802
3735.9417,1.3544339019824645,241.60974508541057
3736.8013,1.350336673990583,265.49115431366084
3737.661,1.3462878198470196,229.32333957256193
3738.5227,1.3427485616502322,288.4102265891206
3739.3828,1.3401995828997975,214.76487033484915
3740.245,1.3387097671478414,280.36722666490084
3741.1055,1.3378819467570333,244.7374669612241
3741.9683,1.3372147705935338,270.9386448224682
3742.829,1.3366299207275647,275.75429762295613
3743.69,1.3365100327458646,302.1844500289857
3744.5532,1.3372670684019055,209.2827675471396
3745.4148,1.338907115339664,288.7738313557049
3746.2786,1.3410372540066762,274.5596087884937
3747.1404,1.343194854338595,262.8307788264186
3748.0044,1.3452797725931145,318.8629894819797
3748.8667,1.3476222023995712,230.57513243279845
3749.729,1.3506546021165402,297.5141021440853
3750.5938,1.3542945235140103,234.80225253737697
3751.4565,1.357637923252908,223.45934448259294
3752.3215,1.3594898159330335,312.4493630616379
3753.1848,1.3591941551764473,195.20015727391788
3754.0503,1.3571692908427169,260.8683187448161
3754.9138,1.3545997356485084,229.6378934929728
3755.7776,1.3525989617209033,244.08702382479981
3756.6438,1.3516118391730438,239.93794477581818
3757.508,1.3513902924387302,226.9491580728944
3758.3745,1.351380863027258,264.9857845046275
3759.239,1.3511365973039864,227.61610984868474
3760.106,1.3504650955801474,262.96672650180716
3760.971,1.3493840756164193,314.9484563752728
3761.8362,1.3480151865470447,299.27091083464217
3762.7036,1.346541831840328,265.4888736368421
3763.5693,1.345190950966142,257.2469669858222
3764.437,1.344076447069419,212.96863412358678
3765.3032,1.3429971678158552,283.2284615654952
3766.1714,1.3413819247487433,225.0052101957256
3767.0378,1.3387026331337433,212.33062081796936
3767.9043,1.335002439046912,302.07229048835785
3768.7732,1.3310060553417578,293.60162576506144
3769.6401,1.3276287322053009,249.87514448740262
3770.5095,1.3252423607414945,263.61135746928863
3771.377,1.3235989119718172,293.8012543446898
3772.2466,1.3222314485567697,278.8076190567979
3773.1145,1.3210048676403316,281.78983506720925
3773.9824,1.3202014996474183,255.8066102594232
3774.8528,1.3202145300044739,297.8714704793403
3775.721,1.3211116527593225,271.61086215047936
3776.5918,1.3224809877829566,248.65931929680877
3777.4604,1.3237088185970054,274.2468759715445
3778.3315,1.3245119370509355,277.45482548740273
3779.201,1.3251509177931085,266.24147494873955
3780.0703,1.3261708636767349,246.38449758015008
3780.942,1.3279092307619609,240.99611424704972
3781.8118,1.3302345912842959,230.30498566264146
3782.6838,1.3327227850809042,229.20625696060173
3783.554,1.3349165689860636,233.9491887307747
3784.4265,1.3365539708571668,211.99614741944117
3785.297,1.337559756360341,295.2291409322199
3786.168,1.3380411593871249,240.11456749373934
3787.041,1.3381672386110313,239.68678565721973
3787.912,1.3380204344476063,237.8883661233725
3788.7856,1.3374716796206003,250.7967446739512
3789.6572,1.3361815097377896,251.10382166765694
3790.531,1.3337089659684607,223.01806166151889
3791.403,1.3297921419608412,294.7320036973547
3792.2754,1.3246505105390374,233.6439826425783
3793.15,1.3191411764093726,240.6342510236891
3794.0225,1.31446192410825,302.5147702505793
3794.8972,1.3113810301489286,283.0633932505935
3795.7703,1.3098721376403897,262.66448532030336
3796.6455,1.3091803711247119,283.1261350568259
3797.519,1.3083086867430467,247.78273438874805
3798.3926,1.3064486974648712,252.18133002237062
3799.2686,1.3033282553917371,269.24661740779266
3800.1426,1.2994421802109597,311.7055468277375
3801.0188,1.295783402877765,289.56946653439417
3801.8933,1.293222382319587,273.04353049357843
3802.77,1.2918170105491946,264.1371022729071
3803.6448,1.2909356701217551,310.74131958277917
3804.522,1.2900035517512092,256.5644658167414
3805.3972,1.2892053076029852,356.23484120846837
3806.2727,1.2893334660803721,316.7600213657196
3807.1504,1.2910220441445643,279.15759549324326
3808.0261,1.2941024242480084,246.27130061087468
3808.9043,1.2977115357926143,257.0973206487556
3809.7805,1.3007893445528658,256.7339452412799
3810.659,1.3026430429003633,249.25056781469738
3811.5356,1.3031392989747255,253.99175463315174
3812.4126,1.3027893249560751,313.6017177685007
3813.2917,1.3025812410384032,246.81050640592645
3814.169,1.3035433038076134,303.17544788125747
3815.0483,1.3061320967544299,274.7952879559312
3815.926,1.3098401232927386,268.76444797140766
3816.806,1.3134380372129981,264.2579582365016
3817.684,1.3155983270305172,267.3845581556196
3818.5623,1.3156549260334527,243.73486428347485
3819.4429,1.31382300333546,277.61248324896184
3820.3215,1.3109587333636836,314.8242315191248
3821.2024,1.3080226021783716,311.7287605762366
3822.0815,1.3057367926538632,310.2235987990313
3822.963,1.30438093211322,297.0858241230566
3823.8423,1.3037870504328712,265.9763172381097
3824.722,1.3034131769200983,311.9648901226299
3825.604,1.3026302335430768,261.35041464869994
3826.4841,1.3010902462808431,283.665312437393
3827.3665,1.2988896825548268,261.79885179063194
3828.2468,1.296463082700806,265.25973215485584
3829.1296,1.2942278996900956,249.4405471264257
3830.0105,1.2923632896765826,297.39452205721153
3830.8916,1.290662233496843,289.7505627456548
3831.7751,1.2886190484559938,338.0022556779603
3832.6565,1.2857099289129588,275.7935248260335
3833.5403,1.2817641863601745,259.9491277820322
3834.4224,1.2773077737747442,293.6662580546072
3835.3064,1.2732955946561755,300.64422766184697
3836.1887,1.2704476334465387,265.194104923875
3837.0713,1.2684195065280381,340.06568785871264
3837.956,1.2657802357723125,279.1312367283854
3838.839,1.2610399943059358,277.43326058722005
3839.7244,1.2540853122602844,351.4174225434293
3840.6077,1.2469107407006286,276.4993267133751
3841.4932,1.2424532851771226,1131.5510096559938
3842.377,1.2426706377017844,270.0123243406819
3843.261,1.247232756239724,279.04396951025393
3844.1472,1.2541442471425046,300.66694623520823
3845.0315,1.261159312566071,256.48521185900995
3845.9182,1.2668815409033378,332.83204986211354
3846.803,1.270672128649714,291.82069874902265
3847.69,1.2724661842674183,281.3396104864688
3848.5752,1.2726132482642052,328.8937551134512
3849.4604,1.2718807251531297,284.7667493125842
3850.3481,1.2711604928364977,282.3638632648749
3851.234,1.2710706062555919,256.47018382504535
3852.122,1.2717148908752594,258.62798543627696
3853.0083,1.2727730183150563,314.6026674226259
3853.8967,1.2737597542803383,280.0255823816872
3854.7832,1.2742043350952077,281.2984650749975
3855.6702,1.273729917727895,279.54511952875146
3856.559,1.2720705758151982,301.560550908594
3857.4463,1.2692010889839989,335.16501496217865
3858.336,1.2654114624290382,310.2445679044453
3859.2234,1.2612505206453346,300.9994699417934
3860.1135,1.2571329229600252,294.9800818454103
3861.0015,1.2532507707053955,272.991513621513
3861.8896,1.249717316209074,290.2077878845519
3862.7803,1.2469542040327355,260.5437793857347
3863.6687,1.2456798851244386,270.27363213671873
3864.5598,1.2463634010458362,339.95741110928356
3865.4487,1.2486761896820968,271.844302585356
3866.34,1.2513961141195027,288.52338591896194
3867.2297,1.252919280860561,288.3695555585725
3868.1213,1.2521854971886495,295.82226681542386
3869.0112,1.2492532326320074,330.7682187276374
3869.9014,1.2451347307633687,308.6666941271808
3870.7937,1.2410863482432597,288.31616116161587
3871.684,1.2380857422367455,267.83117671808697
3872.577,1.2366919414668973,302.49304096045427
3873.4678,1.2372030573350927,316.49570201435773
3874.361,1.239541749249338,277.3242944192717
3875.2524,1.243060082177722,341.47526924637395
3876.1438,1.2466206801581468,329.35801203224577
3877.0376,1.2489906042650663,275.135646356409
3877.9297,1.249392374911741,329.9142983159908
3878.8237,1.2479457082497625,342.86409705703454
3879.716,1.2455825849610103,295.8250342890618
3880.6108,1.2434339605508327,302.7606306514911
3881.5037,1.242116671363885,323.4351825380489
3882.3965,1.2413790122669535,273.89066959633834
3883.2917,1.2404658103993103,300.1515106986742
3884.185,1.2388001427119149,340.88159525697307
3885.0808,1.2364001529729032,297.7410582256664
3885.9746,1.2338026160657947,321.79557081746344
3886.8706,1.2315505449316293,341.8818302606478
3887.765,1.2298427497624638,277.9344815274881
3888.6592,1.228454727911405,302.52651814371853
3889.556,1.227002702017503,273.9351801922729
3890.4507,1.2252432128413715,286.4750421059645
3891.348,1.2232131330099654,318.3727058002238
3892.243,1.2212711580391307,348.25026565547483
3893.1406,1.2199513761581646,279.936706936828
3894.0361,1.2197654596284415,305.1175042058671
3894.932,1.2208314444136463,340.2584704050515
3895.83,1.2225919456120315,249.0030983553949
3896.7263,1.2238421077066324,346.77630352952303
3897.625,1.2233692583085163,308.9664744677603
3898.5215,1.2208210503680161,261.0253508724313
3899.4207,1.217171122880058,349.36308120750016
3900.3176,1.2143069654932608,438.16355620618776
3901.2148,1.2137997639841314,392.73544723381275
3902.1145,1.2159500158791654,347.69584940453154
3903.0122,1.2197101610182528,315.68666890354007
3903.912,1.2236031332574735,324.3068504474805
3904.8103,1.2265960980372794,285.03753445413327
3905.7107,1.2283977107964372,334.3905605964265
3906.6094,1.2290755587152389,304.13489244321073
3907.508,1.2288527427665192,285.04427883252936
3908.409,1.2282133242733897,277.9381397225986
3909.308,1.2279774036433724,337.4131925664876
3910.2097,1.2289009409734917,355.78540156056846
3911.1091,1.2311196360591627,312.06238066215764
3912.011,1.2340799943480099,289.4324016389753
3912.9111,1.2369515345115987,296.3437915287497
3913.8113,1.2391442571864981,316.12180013414974
3914.7136,1.240376990380297,249.3289056682734
3915.6143,1.2405004374780073,344.67236219276856
3916.517,1.2394302388102025,302.04598153235344
3917.4182,1.2372778205782484,314.647301271965
3918.3215,1.2344747593764853,302.34834191962216
3919.223,1.231746311406624,280.07936714172786
3920.1245,1.2298250983021384,314.72526644672257
3921.0286,1.2292072481910545,289.0415995988559
3921.9307,1.2299504461262614,301.2686497299333
3922.835,1.2316204777983235,306.83825815840896
3923.7373,1.2334536684902468,290.1086464556625
3924.642,1.2347345492435118,270.13993624771405
3925.5452,1.2350685531864274,263.57201357757907
3926.448,1.2344375268546073,294.03669380528316
3927.3535,1.232953585639719,326.91681360742786
3928.257,1.2306374179723618,293.27147332403575
3929.1628,1.2273664549879382,313.59430552730976
3930.0667,1.2231147029888274,336.6443574170606
3930.9731,1.2180999676171125,342.94001806530844
3931.8774,1.2129156574654798,345.9755081314771
3932.782,1.2083677654743965,328.86796105706617
