wavl,flux,ivar
3566.9744,4.357686781121008,33.53061881904977
3567.795,4.34872561181995,25.300433734070133
3568.6177,4.335700981612352,37.50257451059474
3569.4385,4.322783506831677,24.06397832082936
3570.2617,4.314519239363279,32.58758292415491
3571.083,4.312033091753286,25.33357555326643
3571.9065,4.31172156769533,39.081752379891356
3572.7283,4.3087750723825256,28.86657813185043
3573.55,4.301397340913043,40.85730001982904
3574.374,4.291446953662479,37.30497749702107
3575.1963,4.2818458554044865,34.77021902153843
3576.0208,4.273863281768294,30.70803466322512
3576.8435,4.267128676888062,53.660568104807695
3577.6682,4.26087338781142,22.943154450827038
3578.4915,4.254951745098275,39.2802741558153
3579.3145,4.2492543772717415,26.68957809055003
3580.14,4.2427863129309085,38.481752331296114
3580.9636,4.233936210837199,36.200260788682144
3581.7893,4.221996431785098,25.342873641595418
3582.6133,4.208615107240371,30.18160664418035
3583.4395,4.196657302013391,26.361477966985078
3584.264,4.188030280980549,23.41188409505977
3585.0884,4.18245942258091,27.753275556090955
3585.915,4.179155560476408,30.452083300159728
3586.74,4.178771572465671,44.100891583626705
3587.5671,4.182917186382956,36.7717701666485
3588.3923,4.191561519198126,29.174136699109496
3589.22,4.201496777449692,26.990164784491842
3590.0457,4.207635820859042,26.0668606197178
3590.8716,4.206331678160993,55.035821378477905
3591.6995,4.1969677147025,42.433342356123816
3592.526,4.181184592707721,31.8543154559146
3593.3542,4.160931749826114,27.513152127471677
3594.181,4.1382627031342025,34.38176864395816
3595.0098,4.115780638602941,28.57653696908328
3595.8367,4.097160639447556,33.722956014711336
3596.6638,4.085460629132753,29.425803515853943
3597.4934,4.082049509526824,32.89541224617737
3598.3208,4.086433381439988,42.621105854027206
3599.1506,4.096643098370678,40.52908334178492
3599.9788,4.10922402763255,43.25360109412475
3600.8088,4.1200646637998375,29.64716144771992
3601.6372,4.126446782726947,34.12076090591597
3602.4678,4.129092122258767,21.591101499270994
3603.2964,4.13079726957455,28.51784750939675
3604.1252,4.132926015797397,36.16318756289125
3604.9565,4.133395072229537,26.209069839181396
3605.786,4.128189991653266,21.654074268187497
3606.6172,4.114194318006518,31.295900117596382
3607.447,4.090685222550907,22.392606866219896
3608.2788,4.059034544148065,36.46104936865615
3609.109,4.0232750943860465,46.60061377284233
3609.9392,3.9901736335064895,39.94394829855804
3610.7717,3.9682763599214437,35.90292471407087
3611.6023,3.9639667184814016,45.44988055796979
3612.435,3.976810701265886,35.134715593644984
3613.266,3.999134341569367,41.01978326370168
3614.0994,4.0204764345959045,37.18259779691057
3614.9307,4.032823472435472,32.03556486669419
3615.7625,4.033664056841019,43.64732925986065
3616.5962,4.024822519201736,38.649326920626564
3617.4282,4.010206231802963,40.22508962466669
3618.2625,3.993631816476167,31.727341262919634
3619.0947,3.978073993070427,44.186677931191326
3619.9292,3.9652334560132685,43.25537043384878
3620.762,3.9561869575272697,43.6895267036053
3621.595,3.9515174974766643,39.5231708171908
3622.4302,3.951586952508356,27.109305182218247
3623.2634,3.9566879570424907,36.06927937903757
3624.0989,3.967206306708753,31.540817149301912
3624.9326,3.9827393009612475,40.03758926845458
3625.7686,4.00079290775858,32.42027919987984
3626.6028,4.016273763957208,28.22497978453697
3627.437,4.023922014195835,33.12192212416433
3628.2734,4.021007686310411,43.0490335206767
3629.1082,4.008725488355061,38.00683319319062
3629.945,3.991819317162722,35.90764560102885
3630.78,3.9778622428330808,28.389688882976415
3631.6174,3.974749611018007,39.77324992044101
3632.453,3.9863725350255432,54.368799970033486
3633.2883,4.008505981692044,42.367472465359775
3634.1262,4.030462117486815,51.846218742637845
3634.9622,4.0421186788271255,35.29449840367367
3635.8005,4.040980066345411,37.88841069020943
3636.637,4.031834762262595,40.72506317940321
3637.4756,4.020901420079457,53.679942400790125
3638.3123,4.010795538316891,29.33373137746804
3639.1492,4.000284487252027,45.497812166882895
3639.9885,3.9879025937055785,39.11201908240469
3640.826,3.9750029359478143,39.231595769954595
3641.6653,3.96541382942652,47.78195633394546
3642.5032,3.9631803118961786,36.70924806243158
3643.343,3.9699546561762666,42.423982518406554
3644.1812,3.984050665679568,35.394573013249584
3645.0195,4.001093007752095,42.40844537935756
3645.86,4.015545691434157,37.47560921062912
3646.699,4.022713104278259,38.637581465423
3647.5398,4.020922541725781,62.494956359913274
3648.379,4.01200364081935,31.848769862398434
3649.2202,3.9998675505954493,38.788836138643376
3650.0596,3.9882974878753767,26.23854616856879
3650.8994,3.9792081961421393,55.24928840194538
3651.7412,3.9726528248803343,38.14210095772437
3652.5813,3.967533159859944,54.56636856942247
3653.4236,3.9623476404758113,34.07252304712524
3654.2642,3.9560124746641403,56.027643777881295
3655.1067,3.948064924574832,31.60375420264893
3655.9475,3.938446164463271,27.871550435210857
3656.7886,3.926791192199249,32.13391585951199
3657.6318,3.9123342590179346,32.08551559253856
3658.4734,3.894560382906212,42.67911800270476
3659.317,3.8737321136836167,40.51302079149742
3660.1587,3.8518908664055207,33.34388802604067
3661.003,3.832878464135522,31.72467666182348
3661.845,3.82206442592917,41.694957745595445
3662.6875,3.8236699433429027,37.991173494358634
3663.532,3.838035658036194,58.41305110488964
3664.3748,3.8602339857255887,44.21325713727362
3665.2197,3.8826353223980457,41.390197012330376
3666.063,3.8986738457672883,31.895087234910243
3666.9084,3.90562339905916,47.15666842809631
3667.752,3.903776839954988,37.872991874586376
3668.5977,3.8949934887557007,39.353553655747355
3669.4417,3.882032325014336,33.772643149426074
3670.286,3.8681004323498156,38.16660372521437
3671.132,3.855745581561656,32.97783619003995
3671.9768,3.8458392809028035,34.0869935975585
3672.8235,3.8378354818647065,32.89183297806307
3673.6685,3.831279803114191,33.52213471631868
3674.5156,3.8261543379325587,33.23656805935182
3675.3608,3.8223909908140237,35.57890239076893
3676.2063,3.8192784034911353,48.33294308750992
3677.0542,3.8156569069789534,44.472666342208925
3677.9,3.8103373787328763,27.436743097252645
3678.748,3.8024582944803185,47.37491413411398
3679.5945,3.792215525636081,38.02338962878172
3680.4429,3.7813139543297534,29.06488232643294
3681.2896,3.773165310456375,55.560840387175176
3682.1365,3.77163096795599,53.41374319764391
3682.9856,3.778820191698962,49.99204529355996
3683.8328,3.792506000373905,44.334865646824774
3684.6824,3.805940483953328,46.47376309656082
3685.53,3.810704824080263,32.959412924796986
3686.38,3.80176085777079,25.0081060970734
3687.2278,3.780761639674636,42.34795898798113
3688.0762,3.755531744788691,41.627938481066096
3688.9265,3.7360598303812664,41.241385308000496
3689.7751,3.7289650090881343,47.134802854004676
3690.626,3.7333776931129763,44.09717525612917
3691.475,3.7417864586091656,41.17072861065603
3692.3264,3.7452872731600717,32.617479146677
3693.1758,3.7396287112378874,41.38175538446333
3694.0254,3.727666303541217,46.05707711088147
3694.8772,3.716303667105491,39.36211224834851
3695.7273,3.7110110420543636,40.239813103266954
3696.5793,3.712134250143154,44.249727371892085
3697.43,3.7159450379622556,39.39596194224058
3698.2825,3.718255686946609,51.64434698274443
3699.1333,3.717127777586508,32.640246032790834
3699.9841,3.713169885128911,59.61774154564279
3700.8374,3.7084778986187263,38.47704723476977
3701.6887,3.705911301971225,50.84377464350014
3702.5425,3.7084034004599773,36.94182893717544
3703.3943,3.7178452514233884,47.727798938618974
3704.2483,3.733900009377339,33.283034909113645
3705.1003,3.7536174332465735,32.4610739570608
3705.9526,3.7726990435898653,36.34907765815209
3706.8074,3.7865307957499565,42.3071468409656
3707.66,3.790710617269164,43.06144911627592
3708.515,3.7820267622157475,36.21236625285143
3709.3682,3.7600695016196037,31.047327938568742
3710.2234,3.728700912859896,38.1490883970966
3711.0771,3.6958363493183373,32.2797147975498
3711.9307,3.669618204074636,44.16339760884843
3712.7866,3.6540846926424426,42.28854510897171
3713.6409,3.6470196683350355,56.7297211386137
3714.4973,3.6416542049850738,42.49191966615247
3715.3518,3.6318827022757865,42.73614251658834
3716.2085,3.616218282514951,56.62117909203588
3717.0635,3.5980005994633184,47.13515301337782
3717.9185,3.581725755948931,39.942244086823294
3718.776,3.5699297932636553,36.91227375502584
3719.6313,3.562799068373822,42.203752511721746
3720.489,3.55929082843937,44.90555903068097
3721.345,3.558283850639894,43.63877561310535
3722.2031,3.5586996488251543,44.02578213120865
3723.0593,3.559586660450226,48.98610016418275
3723.9158,3.560037608768884,35.8869477552039
3724.7747,3.558825865557802,59.4924523975325
3725.6316,3.554640578951839,36.085868463999994
3726.4905,3.547458366310943,50.74023069070312
3727.348,3.539848194793486,76.72582547324305
3728.2073,3.535966106833977,48.44194267974165
3729.065,3.5388175938798523,45.58353157618069
3729.9229,3.5478419958088696,41.87315553340893
3730.783,3.558863084810365,56.25301156804939
3731.6414,3.5659604154739744,44.97897893324612
3732.5017,3.5646808591434245,41.627646353649965
3733.3604,3.554591994492338,35.89308107705619
3734.2214,3.5397017226908245,43.10865667806244
3735.0803,3.5263699767291032,42.3314509038645
3735.9417,3.5198369084789083,51.722275762942104
3736.8013,3.5226163128391796,50.964835172540205
3737.661,3.5342650803237454,56.55806808064724
3738.5227,3.552027903580799,41.777053298613225
3739.3828,3.5712027073097374,48.25631979350204
3740.245,3.5865543513101925,51.900168024762024
3741.1055,3.5936998015351707,46.873690882376174
3741.9683,3.5906588711615584,34.19984683542698
3742.829,3.5780558686376494,44.128261937324304
3743.69,3.5585619552551724,32.53977426790129
3744.5532,3.5356959643141166,35.662480861893776
3745.4148,3.512903985749247,55.536154441037866
3746.2786,3.4926370988836464,39.15325298924377
3747.1404,3.476837206978952,53.35080676544893
3748.0044,3.4663263942820426,47.728101499636885
3748.8667,3.4603051640037243,38.933504936511255
3749.729,3.4562799501645385,48.03175952359062
3750.5938,3.452122819616544,61.70431816864091
3751.4565,3.4481703536528987,54.62813226062968
3752.3215,3.446739546346279,32.076351313097156
3753.1848,3.4493440332458136,53.5765141369412
3754.0503,3.454436164632908,59.07090077803132
3754.9138,3.4581317431154863,53.25674247382632
3755.7776,3.457146858176448,46.082382425550506
3756.6438,3.4508951326407304,36.1580437048718
3757.508,3.4415800524532814,64.76868092577286
3758.3745,3.4326531314538182,45.09047359536365
3759.239,3.4273681948968457,49.61198808719439
3760.106,3.4273646934213353,54.363452507764464
3760.971,3.431961665573196,38.320025585400224
3761.8362,3.4382670514025993,40.91071716316943
3762.7036,3.442332259077251,50.761830143875585
3763.5693,3.4406585961222422,51.08140300559374
3764.437,3.4315854889099993,41.84470341453362
3765.3032,3.4160815884530416,43.783136784855934
3766.1714,3.397289694424563,49.50087966682811
3767.0378,3.379147223599687,38.35727654667271
3767.9043,3.3642451020157385,56.83526398623951
3768.7732,3.35343768308542,39.25205375331615
3769.6401,3.347135871048847,42.29615414688048
3770.5095,3.346484908906747,49.511264427928566
3771.377,3.3530993526586235,46.684462582416195
3772.2466,3.3671664309055904,57.375423267261866
3773.1145,3.3859279153156834,48.10185356295805
3773.9824,3.404315727285354,40.26748021496767
3774.8528,3.416719263510884,46.999277399584514
3775.721,3.4189662722573284,51.64455455179186
3776.5918,3.410149150415292,59.2316659609137
3777.4604,3.393189895969551,41.823951651356694
3778.3315,3.3733183917241094,35.30905549952485
3779.201,3.3551801626620934,47.87800873729756
3780.0703,3.3398069305709406,42.41942360560963
3780.942,3.3252291222354593,49.96693145072681
3781.8118,3.3101137281681132,53.932113600144675
3782.6838,3.2965699011620697,53.96425633911324
3783.554,3.2895258920705683,42.85363541123666
3784.4265,3.2924054582673787,58.88796112764616
3785.297,3.303812046223455,40.403546546402126
3786.168,3.3177932714737217,41.83638147898266
3787.041,3.327208568108022,49.534487612521026
3787.912,3.32739528373479,57.934260077939186
3788.7856,3.318063573806614,53.723160961948345
3789.6572,3.3025098468117116,75.21767343988373
3790.531,3.2850661415255207,58.07413233252899
3791.403,3.268942315776703,65.47963111601338
3792.2754,3.2547309596871705,59.72278543329616
3793.15,3.2408018862187093,49.56635249566908
3794.0225,3.2249427011087874,46.88426824659707
3794.8972,3.2061296340610053,57.94260572183343
3795.7703,3.1859246160010675,59.29543993416093
3796.6455,3.1673859373536026,45.36640292526165
3797.519,3.153305290596611,67.62196821004105
3798.3926,3.144235667946843,66.71620295054959
3799.2686,3.1390313018242826,75.61416176313764
3800.1426,3.1372829782936953,64.37404136202123
3801.0188,3.1415106794658048,63.866705788578315
3801.8933,3.1564463227224078,90.38057223789396
3802.77,3.1851247311973068,83.05961334864752
3803.6448,3.224571867143641,52.04718909653613
3804.522,3.266336173903866,44.975658993447844
3805.3972,3.3002292609277593,60.84712337042046
3806.2727,3.3202259375334573,46.316580673183
3807.1504,3.325928454474283,57.41250685443258
3808.0261,3.3207726262631714,46.555077922499294
3808.9043,3.3089944787817958,38.38794154465674
3809.7805,3.29411947293672,39.33854120048442
3810.659,3.2791515526482735,44.551866958829166
3811.5356,3.2676762995679898,48.98640681820234
3812.4126,3.263307231006462,45.27002372422505
3813.2917,3.268081515560517,63.31753393243737
3814.169,3.280607605481432,49.40706710008192
3815.0483,3.296369056555171,50.76315971682974
3815.926,3.3099590173643936,44.34783256304622
3816.806,3.3180531770303094,44.26563738971376
3817.684,3.3199863666335996,55.862104612440255
3818.5623,3.316519210748991,57.06101429822153
3819.4429,3.3081031488640265,53.68835805123565
3820.3215,3.2948541524294637,50.05701240305532
3821.2024,3.2774616406000376,52.428680744539264
3822.0815,3.258117645661157,50.961164658800385
3822.963,3.239403932811257,53.893312460754565
3823.8423,3.2227179204476943,44.79952858401385
3824.722,3.2066401244383638,54.980707968197166
3825.604,3.187737355778446,58.33059270580513
3826.4841,3.1632352297128477,58.559010251210594
3827.3665,3.133212993269271,52.109933724108586
3828.2468,3.1014538363197124,57.89537143403978
3829.1296,3.072643399379686,57.87986552647698
3830.0105,3.04969188326511,82.63817787184446
3830.8916,3.0314120934274382,80.83935762970997
3831.7751,3.013664165475261,64.20068081523019
3832.6565,2.99239369976616,60.08632743254074
3833.5403,2.966304685571111,59.016783451128454
3834.4224,2.938408990061514,75.88023466517735
3835.3064,2.914074830011973,55.72070413633955
3836.1887,2.8983706395834083,95.80135312324121
3837.0713,2.893118339101461,68.28560694370626
3837.956,2.896780086933745,66.7055854061201
3838.839,2.906398271155671,129.0283881944541
3839.7244,2.920450133722901,78.9004277148481
3840.6077,2.939806286953185,67.84262122109017
3841.4932,2.9665264621967795,63.6502419834802
3842.377,3.0008177304876087,87.0378501047953
3843.261,3.0399234506464583,49.41212084533407
3844.1472,3.0788041583805534,41.099934468415405
3845.0315,3.1120876067441374,78.89051665348126
3845.9182,3.136733375519489,59.636406886111985
3846.803,3.1522689151840657,76.29167898862366
3847.69,3.160852440417319,65.58315334539687
3848.5752,3.1656477141844785,49.02171017649456
3849.4604,3.1694845877116387,49.441169676542934
3850.3481,3.1739256297389282,51.03848258864029
3851.234,3.1794486023763824,67.98432541729083
3852.122,3.186318974344452,71.88057694332353
3853.0083,3.194946749181899,57.90832612627614
3853.8967,3.205800052809712,46.503966458641564
3854.7832,3.2186498592972264,46.752925778074754
3855.6702,3.2323927078318535,46.90480189728017
3856.559,3.245459365047043,55.45519919797896
3857.4463,3.2571838212009028,43.0783930134514
3858.336,3.26915424795593,60.939959628223214
3859.2234,3.284069232683053,60.4577870267876
3860.1135,3.3031028573040513,70.41292069463853
3861.0015,3.32342478083338,59.66988354051276
3861.8896,3.3396905389200686,49.90055122276513
3862.7803,3.3473123212663163,44.93229794274164
3863.6687,3.344994150049161,47.29374676141269
3864.5598,3.334799628015121,47.035911056258115
3865.4487,3.320761742841278,53.04862136410119
3866.34,3.307216519953431,39.39319742450655
3867.2297,3.297376322292529,54.799919294280585
3868.1213,3.291430299336023,40.99333992737934
3869.0112,3.2864511217608454,48.03010321204173
3869.9014,3.278141561557603,44.75877527070458
3870.7937,3.263184932138236,40.78761686908558
3871.684,3.240091041277291,60.58195524205349
3872.577,3.207949640841032,47.98778991150261
3873.4678,3.1661201044179865,61.41472828803638
3874.361,3.1142123098065384,44.09487005653421
3875.2524,3.054188610932544,52.41925836601588
3876.1438,2.989941154133998,104.3615299929231
3877.0376,2.9265432913333416,67.22899544932652
3877.9297,2.8689692061312217,49.14961579114617
3878.8237,2.819481103265186,63.54296030529305
3879.716,2.7778991516044185,79.57789829418691
3880.6108,2.7412893354859587,69.82528057915567
3881.5037,2.7062422461342006,78.33517338500384
3882.3965,2.669796020038561,109.19000654628641
3883.2917,2.6302743312602668,73.62202740919949
3884.185,2.587289605165395,94.8123473324247
3885.0808,2.5408671076942393,106.4085778769594
3885.9746,2.4929636382078324,88.88642124615362
3886.8706,2.447390704130567,95.86622560302804
3887.765,2.410312553383296,119.59400656760035
3888.6592,2.3876384932768016,81.90615979647302
3889.556,2.3829259797721463,100.26389961377606
3890.4507,2.3956556806317764,84.73520914223488
3891.348,2.421511323623657,79.2314747182987
3892.243,2.454413148616583,123.54229605462362
3893.1406,2.4898651797115776,97.16033903517796
3894.0361,2.525895902474072,118.77592067869347
3894.932,2.5631555546672424,108.93558395707103
3895.83,2.6029423944001113,116.13205832984488
3896.7263,2.645747141222925,72.69840502823466
3897.625,2.6918003095730736,75.27591670537447
3898.5215,2.740289134844095,72.34457980303141
3899.4207,2.7901204295253508,64.75690806382012
3900.3176,2.838975431946253,56.7963080131319
3901.2148,2.885136079967743,64.85342926389106
3902.1145,2.9283097307038437,54.73431774007442
3903.0122,2.9698523990100454,69.27859062922923
3903.912,3.0124634736836726,54.803280708129215
3904.8103,3.057319469894306,71.50972289606612
3905.7107,3.1032782642970447,60.695704178673644
3906.6094,3.1464463211098206,51.52433709169474
3907.508,3.183060205745216,46.216421228493346
3908.409,3.2116505553572043,66.64438924789934
3909.308,3.2338053078831805,53.12542997787841
3910.2097,3.253340797912039,45.969050782495884
3911.1091,3.273422296167563,54.16485473338562
3912.011,3.2951263604373398,45.31178227567359
3912.9111,3.316924825761236,55.86912534049835
3913.8113,3.336594872675116,43.665901245456226
3914.7136,3.353015256012486,57.875843154028665
3915.6143,3.3669102735987955,48.347822665364426
3916.517,3.3804462539060696,55.76534507257223
3917.4182,3.3956913677137748,44.60988750276145
3918.3215,3.413990891953705,53.2734614587446
3919.223,3.435451558524697,43.02283255232216
3920.1245,3.4593183018008595,39.69981748690617
3921.0286,3.4840419382021,40.66734398035355
3921.9307,3.507328024352478,40.26898715069302
3922.835,3.5269293091592644,45.91912563647823
3923.7373,3.540736218067052,43.85124327699257
3924.642,3.547585747137483,45.17277891788126
3925.5452,3.5473250132166667,43.39698474095116
3926.448,3.5410654802812003,56.2101847878535
3927.3535,3.5308597567341695,49.666143942201856
3928.257,3.5193334891194143,52.825772156409634
3929.1628,3.5088542200252837,44.276105958496146
3930.0667,3.5011500844417527,39.01292392311125
3930.9731,3.4966034374000103,41.7980859578502
3931.8774,3.493903432745108,47.99942947097163
3932.782,3.490036406404746,60.00552170588228
3933.6887,3.4815253148311354,51.47300478156396
3934.5938,3.4663593487362654,45.586161011998115
3935.501,3.4450413541679237,34.72378802883786
3936.4062,3.42060186431623,47.541451609468865
3937.3142,3.3968005903569365,42.04264752874412
3938.22,3.3767227098336945,43.365093151243826
