wavl,flux,ivar
3566.9744,11.461185737909434,46.358651369495746
3567.795,11.461008097583555,49.629810390539326
3568.6177,11.4501639281936,49.52842516524043
3569.4385,11.430864371485887,46.35854780485209
3570.2617,11.406090771623685,45.33098530540219
3571.083,11.380259976874147,46.991401806383294
3571.9065,11.357647784685298,46.61768349135526
3572.7283,11.340429898175437,45.73116638933472
3573.55,11.327114466487592,47.838618617645544
3574.374,11.31447655173638,45.91841247391806
3575.1963,11.300598764556044,48.38822848704604
3576.0208,11.285888710517003,50.88629075727541
3576.8435,11.27205883134785,49.06758769396395
3577.6682,11.259784705952022,48.888917510065895
3578.4915,11.2479282418999,49.659433988036824
3579.3145,11.233943036423886,49.02113463604003
3580.14,11.215593582315632,47.17254712503244
3580.9636,11.193070965020516,50.228536557462064
3581.7893,11.169746083236365,47.10870951604627
3582.6133,11.151867617222154,49.520373223760814
3583.4395,11.145670275917942,56.38996974723255
3584.264,11.15438552422694,49.556920267244706
3585.0884,11.176071922276394,48.09072143605526
3585.915,11.204338078224554,50.6696837986183
3586.74,11.230644697366944,48.505594166005224
3587.5671,11.24787449592472,45.47109145328678
3588.3923,11.252110027718446,49.707507466002085
3589.22,11.24347303886822,49.71521082623877
3590.0457,11.22496751933995,48.41882807452017
3590.8716,11.200551057582707,48.94073673161925
3591.6995,11.173736244425042,45.28190120293471
3592.526,11.147323477039162,47.981842694754754
3593.3542,11.1229667747243,49.00532766309039
3594.181,11.101529465980494,48.65743252778888
3595.0098,11.082756712287429,47.267094872592644
3595.8367,11.066164001194029,49.248037393820965
3596.6638,11.051246297859294,48.94698707953408
3597.4934,11.037840062921054,49.57246504641396
3598.3208,11.026234177688972,51.596737692615456
3599.1506,11.017029326616873,48.827383086199994
3599.9788,11.011080028987154,52.15210577743383
3600.8088,11.00810245251381,49.40646609641487
3601.6372,11.005756080184176,49.53403228161513
3602.4678,11.000611631995488,50.334485533064246
3603.2964,10.99126144824719,49.156712380301926
3604.1252,10.980395094695458,52.52602614052263
3604.9565,10.9736498122333,49.61536721451269
3605.786,10.976000802563355,50.16143667774234
3606.6172,10.988624996330655,49.63112206689705
3607.447,11.008354894486883,46.546337007632225
3608.2788,11.02915722620961,47.90334615564091
3609.109,11.043535619293984,50.36213769549145
3609.9392,11.044675047018622,49.26301037378111
3610.7717,11.02867598921418,47.35526932344018
3611.6023,10.997197628369717,52.56373848831952
3612.435,10.957253507203015,52.207481834656285
3613.266,10.918682299732941,50.73061786380374
3614.0994,10.888992488074686,52.96143769266862
3614.9307,10.871067057158072,51.11707569202626
3615.7625,10.862602273911843,52.58901370753078
3616.5962,10.858519129982367,46.780096816360064
3617.4282,10.853676727292079,51.93158716813117
3618.2625,10.845342836248234,50.53328951679116
3619.0947,10.834596960107326,47.98587865528136
3619.9292,10.825340914487168,53.92738816531539
3620.762,10.82182595243883,51.45720768129662
3621.595,10.825756835086876,54.36892474463345
3622.4302,10.835392212829227,52.27484361989113
3623.2634,10.846500616626647,49.79121439485572
3624.0989,10.8547225068128,50.07751784094573
3624.9326,10.857258553321767,48.82559367880775
3625.7686,10.853754905639349,51.26062146954114
3626.6028,10.84584076939293,53.62546782060813
3627.437,10.835765935256925,48.258899564660084
3628.2734,10.824759379595452,54.589668382952055
3629.1082,10.812244267918762,50.1016389406545
3629.945,10.796196337556752,52.01866516122317
3630.78,10.774959827176703,52.579852066374876
3631.6174,10.748162813300118,53.66084761299551
3632.453,10.717313834121155,51.112293790750044
3633.2883,10.68468461817258,53.25513668032021
3634.1262,10.652626859015454,52.927462854710484
3634.9622,10.623114921427533,56.923963473024614
3635.8005,10.596633141443155,54.83658882006903
3636.637,10.572852816836168,52.910134882962915
3637.4756,10.550833362470398,53.26289897308329
3638.3123,10.530368426984374,57.64426685915085
3639.1492,10.511852021245884,56.18160450856157
3639.9885,10.496092085076308,55.127619784655224
3640.826,10.483894582465858,57.61460653841894
3641.6653,10.475600359792894,52.3305275607984
3642.5032,10.47139528923526,52.47262912122203
3643.343,10.471052909315668,55.40352215552262
3644.1812,10.473524503340181,55.610291598515445
3645.0195,10.47675642428289,53.40650113066055
3645.86,10.478604174319276,54.52892079856927
3646.699,10.478219007190123,58.76480272831821
3647.5398,10.47640543583931,55.94250643536435
3648.379,10.474371987858524,56.25495007233407
3649.2202,10.47227364788443,56.2594124252241
3650.0596,10.469166099447413,54.98933961515025
3650.8994,10.464084813804032,54.860258477059496
3651.7412,10.457047001501627,55.81177884262747
3652.5813,10.44925700351329,52.67048755238304
3653.4236,10.442575705300722,53.69570745340638
3654.2642,10.438967130444395,54.276137610183625
3655.1067,10.439431308192075,53.88042658537261
3655.9475,10.443181303657775,56.155217941212925
3656.7886,10.447792793272503,55.505505919897004
3657.6318,10.450737338701586,53.57357689108115
3658.4734,10.451133460636981,56.845623973966525
3659.317,10.450288986825711,54.76691277347941
3660.1587,10.45063255450224,54.785043500315226
3661.003,10.45424448628737,54.25068961094952
3661.845,10.461973149597513,54.95312507449645
3662.6875,10.473352729359044,53.00176666141482
3663.532,10.486714490693506,53.958473914336125
3664.3748,10.499403238502993,52.427491095104806
3665.2197,10.508723680956198,54.94847091155961
3666.063,10.512751101857832,55.15936467195239
3666.9084,10.511115333408082,55.11262427615967
3667.752,10.504754317350393,55.8789944782302
3668.5977,10.49520396060254,56.9100505258499
3669.4417,10.484154580742144,53.873275186711616
3670.286,10.473179628591096,56.477976486215134
3671.132,10.463766753559938,56.91261619748418
3671.9768,10.456993224207382,56.14570562997437
3672.8235,10.452790208835651,56.10314381435826
3673.6685,10.44987849347744,53.71834321446899
3674.5156,10.446406012661345,57.92536220975293
3675.3608,10.441208034466397,55.94286549529745
3676.2063,10.434472239881364,54.675407733751115
3677.0542,10.427539519304222,58.39813823606239
3677.9,10.422120297553297,56.58222621810174
3678.748,10.419237894992257,56.497977037032896
3679.5945,10.418702940004694,56.636157661961704
3680.4429,10.419069936160357,55.79700753223355
3681.2896,10.418636937314314,53.874239733905796
3682.1365,10.416996644372556,53.38692785755617
3682.9856,10.415830811796056,55.253524213919505
3683.8328,10.417793943727196,57.28723795904287
3684.6824,10.424074300034922,55.844088205977556
3685.53,10.432912659348041,55.40719246334664
3686.38,10.440844115906168,58.83464736958361
3687.2278,10.445171287391087,51.960018063303785
3688.0762,10.445683261465074,56.589540170030745
3688.9265,10.443916354654387,56.918624973551026
3689.7751,10.441314291332647,53.89639497325329
3690.626,10.437933103859653,53.07341778999212
3691.475,10.432857091552249,57.05790766704003
3692.3264,10.42551108938464,56.678187955362816
3693.1758,10.416657332831644,56.53580518054983
3694.0254,10.407768485307813,55.01007458755221
3694.8772,10.399673660950475,56.1819710571199
3695.7273,10.391701293268547,55.55923133110711
3696.5793,10.382019382642039,53.6001486653086
3697.43,10.369161272641744,56.35044418227895
3698.2825,10.352848991133342,57.13103321657915
3699.1333,10.33415378238263,55.16878597822285
3699.9841,10.314600232522148,58.05848345901086
3700.8374,10.29560662716459,57.474739384772164
3701.6887,10.278180125177784,58.303083770151424
3702.5425,10.262235735652096,58.19012755207307
3703.3943,10.247126189656584,58.462090964203576
3704.2483,10.23217794306878,55.52926965958294
3705.1003,10.217871832960098,57.0119702950152
3705.9526,10.205430662633628,57.97815656898427
3706.8074,10.19570527685537,58.81255962673831
3707.66,10.18811997610724,57.65747707237838
3708.515,10.180787817236792,59.03728225838455
3709.3682,10.172232457013147,59.854716837249214
3710.2234,10.162606818232808,59.36542265051433
3711.0771,10.153820538053832,60.58571393854489
3711.9307,10.148050318976782,58.44272586875086
3712.7866,10.14624855967917,62.45662422846029
3713.6409,10.147623625433333,57.54129519648954
3714.4973,10.150418865202425,58.03900904744662
3715.3518,10.153150947760011,59.65402513652351
3716.2085,10.155140478742972,59.44137105262287
3717.0635,10.155942215973814,59.7642255132659
3717.9185,10.154651686665346,60.07946736236184
3718.776,10.149841445395435,58.05917789169891
3719.6313,10.140414428624078,51.79398988376564
3720.489,10.126356468815588,57.0125438862495
3721.345,10.109003940543463,58.543699850103465
3722.2031,10.090153289835378,59.85326954034395
3723.0593,10.071774489645485,61.55056678480099
3723.9158,10.055606655308825,60.36813319071699
3724.7747,10.043252640982923,59.385395935843235
3725.6316,10.035708786072513,59.97813418332612
3726.4905,10.032465923832063,62.19928152285681
3727.348,10.031487109081358,57.67545292182097
3728.2073,10.02982151894062,56.05540249436649
3729.065,10.024982624170624,57.32211768743482
3729.9229,10.016158722672156,62.43970557191295
3730.783,10.004508300712661,61.50669959039779
3731.6414,9.992485722739818,61.24051551344848
3732.5017,9.982371454088806,62.97613475473322
3733.3604,9.975324640215156,60.48448850998778
3734.2214,9.970614384617683,61.591400578279526
3735.0803,9.966048284098191,60.50715526101351
3735.9417,9.959195873264843,62.69567482140511
3736.8013,9.949190520143473,58.63657629456461
3737.661,9.937436677791753,61.05358261491418
3738.5227,9.926994008761929,64.06382299929207
3739.3828,9.92096018907513,62.8824286837228
3740.245,9.920464476547716,61.754158899810314
3741.1055,9.923885265617542,62.86762713364073
3741.9683,9.927764117174087,59.92464604044647
3742.829,9.928992109631704,60.510238960658185
3743.69,9.926565770920591,63.576923065196596
3744.5532,9.92142666368075,58.144450375073575
3745.4148,9.91534596686828,59.58346831820752
3746.2786,9.910031297395728,58.477433714822645
3747.1404,9.907066554353932,62.92663889489152
3748.0044,9.907481150420244,62.11075702791308
3748.8667,9.910979877459429,59.46539830606108
3749.729,9.915532923918326,61.323882543233985
3750.5938,9.918205964735451,60.90672680675866
3751.4565,9.916785764364697,60.68267153684432
3752.3215,9.91109286146719,63.37144827170919
3753.1848,9.903013787991494,65.2446589565294
3754.0503,9.895246875235333,63.80474317715368
3754.9138,9.889956245308287,60.276228498152676
3755.7776,9.887820105201163,64.65704775666785
3756.6438,9.8882248755608,61.71599660790125
3757.508,9.889906328786063,61.33459123660393
3758.3745,9.891643627417833,61.05139215019045
3759.239,9.892557639344991,61.701227694855476
3760.106,9.891999836035266,62.47514061192837
3760.971,9.88922747686409,62.68460634225255
3761.8362,9.883419860556666,61.753901216144584
3762.7036,9.874203622626435,63.27139517431508
3763.5693,9.862288934658489,58.981595715640346
3764.437,9.849093253142424,63.56607156354024
3765.3032,9.83602234826055,63.60119914311971
3766.1714,9.823687935235665,59.839065040125774
3767.0378,9.812457136439978,65.46938114329282
3767.9043,9.80295468718055,60.84087683396015
3768.7732,9.796233253738873,62.36483311258063
3769.6401,9.793260062494436,61.01290146905432
3770.5095,9.79435949084908,64.39750641663323
3771.377,9.79931885230909,62.46769841095261
3772.2466,9.807627625478736,67.46087525743043
3773.1145,9.818360016790022,64.52421867808357
3773.9824,9.830084110550626,62.572871409460824
3774.8528,9.840902457925646,63.122168650967545
3775.721,9.848942119557162,56.55237408007111
3776.5918,9.853425075804543,60.23735177506188
3777.4604,9.85507869111026,62.504267900629635
3778.3315,9.855972372515783,64.9162231410878
3779.201,9.858383979669851,66.44523441996407
3780.0703,9.863639958802878,63.75979746512188
3780.942,9.871604774867704,61.93488947523815
3781.8118,9.880904003924197,60.48874870370165
3782.6838,9.889730501548442,62.00833434699762
3783.554,9.89614132221389,62.668740143521845
3784.4265,9.89827301448062,61.54351928668054
3785.297,9.89436058818576,60.63203981169165
3786.168,9.883319722745846,61.54130644293265
3787.041,9.865263427371858,61.292936203874994
3787.912,9.841760531851866,63.29353634144685
3788.7856,9.814846603097923,65.37120031456253
3789.6572,9.786548404420488,67.53047110488906
3790.531,9.757695463565069,61.9470800527872
3791.403,9.728342238211797,62.995499275502205
3792.2754,9.697842526714389,66.16136756342372
3793.15,9.66581812889666,61.46844276461453
3794.0225,9.632797842683186,65.54477658538158
3794.8972,9.5996002590076,65.51619800805972
3795.7703,9.56808473914449,66.27438017396776
3796.6455,9.541312870237116,63.96671690437146
3797.519,9.524318980397757,68.78195974248335
3798.3926,9.52194948666216,68.09992410939104
3799.2686,9.536100369204354,72.28548328531444
3800.1426,9.563645932327374,65.58884392627091
3801.0188,9.59796096968246,65.66005800851066
3801.8933,9.631808142682885,66.57290053580459
3802.77,9.660819881092747,67.19721873902515
3803.6448,9.684000182086878,65.9069977440703
3804.522,9.703528219269506,63.38365632474402
3805.3972,9.722506306285345,64.1088347637003
3806.2727,9.743307726395745,64.72058957512832
3807.1504,9.766028688395085,62.196318545482725
3808.0261,9.788268017383093,61.36339667630352
3808.9043,9.806904583431168,61.14501851777926
3809.7805,9.819696239540567,60.03687238377937
3810.659,9.826767920010116,63.52706133717545
3811.5356,9.829805731329825,63.73570640682712
3812.4126,9.830607210747887,62.94829712934813
3813.2917,9.829843832083311,63.65398177746208
3814.169,9.827074573394079,64.79817275894456
3815.0483,9.821335155217758,63.421134488236234
3815.926,9.811691570218514,64.81657745233944
3816.806,9.797358773963625,64.76821410640315
3817.684,9.778072694286406,63.97427109185421
3818.5623,9.754110447790469,65.07455608611778
3819.4429,9.726415507347161,63.71304855655417
3820.3215,9.696727297882301,65.92032495607167
3821.2024,9.666587791288126,66.35613268509071
3822.0815,9.63707906639992,64.30755556869325
3822.963,9.607609447559334,65.28637469730339
3823.8423,9.57646522513624,63.50447313622399
3824.722,9.541139880364552,64.53642337034519
3825.604,9.499534804350361,64.25210390360385
3826.4841,9.450967036689775,69.15091691597048
3827.3665,9.395692111112467,67.04620504277993
3828.2468,9.335957880271112,71.81616127628756
3829.1296,9.274695474868265,68.96975524923182
3830.0105,9.215495946806053,73.11383333626641
3830.8916,9.160009233495435,73.2878269956737
3831.7751,9.108070901891232,71.64733001974008
3832.6565,9.059698185225168,72.9572757710326
3833.5403,9.016560835359371,76.0999296398161
3834.4224,8.983816944231231,75.27936695229566
3835.3064,8.967626643991249,78.01787773002708
3836.1887,8.972612484257427,78.48611036666308
3837.0713,8.99939867260546,76.42169228953028
3837.956,9.044889481784457,74.30348583389454
3838.839,9.103388887990727,72.64080210973613
3839.7244,9.169250080379554,69.30747603762285
3840.6077,9.23713213374023,68.1344810761786
3841.4932,9.30379426440836,69.15970991280481
3842.377,9.367161715742178,69.8317968914708
3843.261,9.427338269279836,68.18045908378542
3844.1472,9.485534608000354,65.59545784697856
3845.0315,9.542501835520985,65.5790045065906
3845.9182,9.598273018899542,65.53728448623166
3846.803,9.650751166804701,61.928393064665514
3847.69,9.69783205995273,63.76464382106538
3848.5752,9.738172024585214,63.70016414976129
3849.4604,9.77298026781444,62.56089087090583
3850.3481,9.805118178491377,60.07577085264334
3851.234,9.837150496927316,63.03470816816304
3852.122,9.870490722971088,64.67821519309857
3853.0083,9.904593723518408,62.12514793126528
3853.8967,9.938269467593853,61.364433326644004
3854.7832,9.96957120909163,62.421304558473466
3855.6702,9.996614049185256,59.80282626714904
3856.559,10.01782465702345,59.74976045957086
3857.4463,10.032733096343238,60.87803945570207
3858.336,10.042394378260909,59.39645329383777
3859.2234,10.04809633800155,61.376561963209845
3860.1135,10.050269743961783,58.58302864499466
3861.0015,10.048130635954285,57.45547209558078
3861.8896,10.04073908000088,58.839789318100784
3862.7803,10.028003815784173,58.59344534071229
3863.6687,10.01088918974181,62.13229199105621
3864.5598,9.990162008170559,62.26663209867839
3865.4487,9.965753230873272,59.72207423665917
3866.34,9.936359662107117,60.12728309038251
3867.2297,9.901086634013872,62.90761853267551
3868.1213,9.8600364183129,59.48139634540802
3869.0112,9.81490565385728,62.26891867217443
3869.9014,9.767303911672556,64.11047899813902
3870.7937,9.717774914915184,65.45768026673379
3871.684,9.665808598637875,65.01974971758438
3872.577,9.609590561068055,65.16853776328138
3873.4678,9.54795080291969,66.35595853078456
3874.361,9.47992357370683,65.5937217163475
3875.2524,9.406216834417993,69.41970839518372
3876.1438,9.32787995723603,68.63274214462514
3877.0376,9.246066432770526,70.72536335103098
3877.9297,9.16200465787809,74.63556098129372
3878.8237,9.075317693192792,72.7805748844323
3879.716,8.985691377606429,79.7145257548311
3880.6108,8.892004456092984,76.37275820247174
3881.5037,8.794527368931877,78.57808709675085
3882.3965,8.693567347401679,79.30213510004252
3883.2917,8.589807054080046,81.89953303121305
3884.185,8.484793070697542,84.15701922435713
3885.0808,8.379186303566923,81.38776617817149
3885.9746,8.275845698411555,91.03625350601631
3886.8706,8.179362787698587,91.87818031837138
3887.765,8.098601219948913,94.72676792374388
3888.6592,8.04375396901498,96.13691963032555
3889.556,8.023869467185655,96.69846839515496
3890.4507,8.043282422228785,98.57037329281857
3891.348,8.099750455828241,91.67231785723561
3892.243,8.185230599373181,90.21849292171673
3893.1406,8.29018340153876,91.02323846978786
3894.0361,8.404977149087278,86.83670963242587
3894.932,8.523374437368298,83.81124314603035
3895.83,8.641710020856005,87.52491898988816
3896.7263,8.75718428536016,77.5523847245491
3897.625,8.869115777616095,81.19560196819634
3898.5215,8.976450132145928,75.91259485650733
3899.4207,9.080282171423047,76.39922892172609
3900.3176,9.181545617091595,76.28257094077625
3901.2148,9.282312314591769,75.0970001274001
3902.1145,9.383878695263919,68.94888203737956
3903.0122,9.485565823586423,66.24065409580261
3903.912,9.586827870368278,63.58634493794285
3904.8103,9.68612114589457,65.66701444962217
3905.7107,9.78301425936948,62.842524763541455
3906.6094,9.876316705986222,61.18547811602306
3907.508,9.965403084736911,57.657544350532326
3908.409,10.049811399613516,61.02697636337145
3909.308,10.128932310957747,62.025745791420604
3910.2097,10.203290028071558,59.569307095466556
3911.1091,10.272801038696876,57.31952315050283
3912.011,10.338062392926282,55.70507895122024
3912.9111,10.398904844635211,55.69577370975376
3913.8113,10.455436811435204,56.67722252272493
3914.7136,10.507535672299946,56.62985087450769
3915.6143,10.554611102799557,55.87332539041224
3916.517,10.596639897256015,51.633987678697
3917.4182,10.633473482003087,52.24020969700385
3918.3215,10.665501177563652,50.06871404751786
3919.223,10.693014862127836,51.73308846277127
3920.1245,10.7169048533632,53.056158963020806
3921.0286,10.7384234182574,52.02255309042665
3921.9307,10.758805738267489,53.24340030178612
3922.835,10.77933690046496,52.90927916309353
3923.7373,10.800821902230256,52.467286097552325
3924.642,10.823741351985435,50.98134016311996
3925.5452,10.847275320370647,51.51094338384089
3926.448,10.869149721254496,52.11174535317514
3927.3535,10.885850746511936,52.40685683325704
3928.257,10.893922129486866,50.29040787567767
3929.1628,10.891980721905538,51.2774616457808
3930.0667,10.881218782801595,50.31220077259355
3930.9731,10.864289823994099,53.56551054531647
3931.8774,10.843586541909946,50.346484993189115
3932.782,10.819789636078827,52.10280456090846
3933.6887,10.792286715607244,53.133916543508064
3934.5938,10.760369520838806,53.02507646783928
3935.501,10.723220677861477,50.8273124817809
3936.4062,10.680186127830716,53.342706731491056
3937.3142,10.62999526329093,52.59823963220182
3938.22,10.572393324516467,54.91862709825318
3939.128,10.507979519878171,54.73504868955477
