wavl,flux,ivar
3566.9744,0.5293992607027039,1076.273942313197
3567.795,0.5281886342435437,1960.818244464142
3568.6177,0.5256522593415648,1463.2558913453147
3569.4385,0.522541487249128,917.9622036651406
3570.2617,0.5195679261032384,1098.6517582276826
3571.083,0.5173780962191794,1183.3403267160688
3571.9065,0.5162436146112634,2351.5546108279573
3572.7283,0.5157830508547415,1069.5217797056616
3573.55,0.5149973958733585,1202.3815225404014
3574.374,0.5128939432909877,1448.2336195504872
3575.1963,0.5092372328578394,1384.2244807764657
3576.0208,0.5047143406549213,1895.8756388215356
3576.8435,0.5005486738496027,1002.9504540867474
3577.6682,0.49779637066331683,2090.684115413906
3578.4915,0.4970640435564181,1051.7517864038614
3579.3145,0.49841741884394386,1324.3177000142236
3580.14,0.5014317038829634,1329.1914282975813
3580.9636,0.5051487477998298,2205.9188573345596
3581.7893,0.5083426499038095,1317.0357345121863
3582.6133,0.5100137497789367,885.7791637551226
3583.4395,0.509965609356888,1405.946469716892
3584.264,0.5087570635334102,1866.5719495220842
3585.0884,0.5071347279038635,2129.567650983623
3585.915,0.5054801980166231,1656.828108125418
3586.74,0.5037682780109165,1488.281129298464
3587.5671,0.5018203525912217,1083.074902858201
3588.3923,0.4995888926617917,1045.7217555279817
3589.22,0.49720786701167813,1189.2671726799622
3590.0457,0.495038236358111,1301.609905725335
3590.8716,0.49355693326894906,1572.0734296382789
3591.6995,0.49323858273916277,1206.8829615058671
3592.526,0.49435927138809677,1638.815694857775
3593.3542,0.4968185574700662,1416.6808239445563
3594.181,0.500058287951256,2196.78580447563
3595.0098,0.5033043853580401,1628.0485179422108
3595.8367,0.5059620049765134,2813.5706154181726
3596.6638,0.5080300850596065,1718.3491016514072
3597.4934,0.50998193296905,1355.183137059839
3598.3208,0.5122552740411691,1122.0606654761523
3599.1506,0.514809518947196,1100.8211860997735
3599.9788,0.5169832691839781,1515.7820201206362
3600.8088,0.5178444291909473,884.2808562268314
3601.6372,0.5166517492640016,1991.6848715809597
3602.4678,0.5133265967191938,1315.798574680158
3603.2964,0.508679273069299,2087.9515954624585
3604.1252,0.5040476167418201,1857.5078770928615
3604.9565,0.5005758522779559,1507.6562259073921
3605.786,0.49859882332270605,1655.448017127645
3606.6172,0.4975723575740844,1442.642848045644
3607.447,0.4966800474070179,963.9519227583086
3608.2788,0.4954154999019198,1684.6213303424156
3609.109,0.4938450625894337,929.9824874109662
3609.9392,0.49243082781630865,2475.033446863593
3610.7717,0.49167608288759573,1374.0787802540851
3611.6023,0.49180351391494054,2147.161960385269
3612.435,0.4926616155415547,1427.4481435967434
3613.266,0.49387889859533046,2265.1805512161964
3614.0994,0.4950638048257423,1527.5002596473573
3614.9307,0.4958666917968849,1260.4010313399613
3615.7625,0.49606895752563646,1904.1083929127285
3616.5962,0.49572239738120044,1632.6260719715979
3617.4282,0.4952568387514402,1889.3633078862845
3618.2625,0.4953025660614579,1982.8365561722549
3619.0947,0.4962892814635092,2302.997673453433
3619.9292,0.4981309365582105,1423.5774866546049
3620.762,0.5002334084833406,1523.0052952268773
3621.595,0.5018551635282332,1890.0702368871612
3622.4302,0.5024659120432272,1395.2830960318329
3623.2634,0.501936082315479,1561.9905118779668
3624.0989,0.5005066976807887,1296.0125226967616
3624.9326,0.4986454066740805,1104.2275776139904
3625.7686,0.49684938124770184,1052.3537829201737
3626.6028,0.4954898864749864,1574.5341731150138
3627.437,0.49461374682117737,2179.56414601005
3628.2734,0.4939053444968328,1387.5665829427164
3629.1082,0.4928534068282433,1347.0096306595892
3629.945,0.4910844351661756,1837.0767365742622
3630.78,0.48871036075844154,1607.7173529966299
3631.6174,0.48631857332210066,1147.886806172455
3632.453,0.4846324946377351,1378.5050304027532
3633.2883,0.4839026088308071,2100.0913834107037
3634.1262,0.48363634770254565,1274.3032960310036
3634.9622,0.4828783834601446,1850.5572837633017
3635.8005,0.4809241196617806,1068.846634735631
3636.637,0.4779277062495381,1117.0180944249535
3637.4756,0.4747735838199647,1445.6474627092202
3638.3123,0.4724127990021893,1678.2955636034426
3639.1492,0.4711208806990204,1642.6501639767012
3639.9885,0.4704630136904998,1486.531189717308
3640.826,0.4698065692811955,2753.183524024395
3641.6653,0.4688711212138119,2051.610814353178
3642.5032,0.46787900967274443,2850.5809828908805
3643.343,0.4672336157300429,1711.1637000976486
3644.1812,0.4671136296439098,1596.266122742031
3645.0195,0.4672860640497018,1434.3289968044487
3645.86,0.4672735072097282,2175.7576142766766
3646.699,0.4666728892389345,2008.6260484701725
3647.5398,0.4653927680752097,1812.2575861316864
3648.379,0.463720037891571,1307.2856603422238
3649.2202,0.46220135829319375,1502.848568940542
3650.0596,0.4614798567238507,1651.3878426946321
3650.8994,0.4620460161313528,1706.6190641455134
3651.7412,0.46406842474245236,1395.2363828582402
3652.5813,0.4672580298698188,1525.7575240011975
3653.4236,0.4709090799767846,1916.2623770907358
3654.2642,0.4740041607095928,1439.16208214294
3655.1067,0.4756149892185836,1358.1601362546992
3655.9475,0.4753193431130529,1657.5016486762884
3656.7886,0.4735652560263119,2089.4761817202298
3657.6318,0.471552023533848,1057.2586684010148
3658.4734,0.4706306086764085,1611.784447597382
3659.317,0.4714558367622551,1928.1323515876431
3660.1587,0.4736203988638277,1393.4809266227114
3661.003,0.47608463139440815,1407.3571692019689
3661.845,0.47797415782756886,1327.0413757041933
3662.6875,0.47909869719058157,1253.1341847993474
3663.532,0.4797081014981654,1543.789486111165
3664.3748,0.4799695654409205,1297.3541348274166
3665.2197,0.4796948006206931,1069.6713614491991
3666.063,0.4784868764616027,1568.3960653102047
3666.9084,0.4760750297145261,1380.5636275303405
3667.752,0.4725670335120049,1909.8730005457562
3668.5977,0.4683783587107559,1611.6644455688545
3669.4417,0.46411334069347265,1706.9663465742433
3670.286,0.46035076120488166,1890.3686363228182
3671.132,0.4576221135516498,2120.777619986798
3671.9768,0.4563509601383607,1132.780287809343
3672.8235,0.45666400420171543,1651.2190063307658
3673.6685,0.4582895917679382,1324.2158748082443
3674.5156,0.4606473755073104,1761.7724313039396
3675.3608,0.4630863867313025,1726.4075921578767
3676.2063,0.4651583001696149,2071.0340374208818
3677.0542,0.466648113634484,1448.0726385469552
3677.9,0.46748319304862057,2174.3689055386108
3678.748,0.46771423657904104,1767.794336648506
3679.5945,0.4675403813940961,1940.5676313597864
3680.4429,0.46728389635790907,1719.4804843895333
3681.2896,0.4671472778385437,1901.5407446964655
3682.1365,0.46695767808607513,1674.168514103177
3682.9856,0.46627729179658095,1684.7030388893695
3683.8328,0.46490887753085913,2675.1171298092145
3684.6824,0.4632566299742237,2224.4754949981443
3685.53,0.4621101767990197,2464.803750826827
3686.38,0.46195258032107717,1490.9195309859833
3687.2278,0.4625945828685873,1975.1843214858895
3688.0762,0.46343474406700835,1275.1534926103468
3688.9265,0.46399142433410107,1878.36756569388
3689.7751,0.4641234727260109,2056.692795926567
3690.626,0.46390367615439715,1291.3979886824948
3691.475,0.46346147237411117,1936.6530013470647
3692.3264,0.4629410548632665,2357.9494896610586
3693.1758,0.46245595743139956,1545.4792953552117
3694.0254,0.46201183854737954,1476.1129917389978
3694.8772,0.4615684263346009,1604.1581873183575
3695.7273,0.46118351551090836,1593.7997291544057
3696.5793,0.46101129591553464,1993.610755528566
3697.43,0.4611367159043667,1444.069235944212
3698.2825,0.4614501111252918,1273.683421210591
3699.1333,0.4617379950630413,1340.8660348119936
3699.9841,0.46188969646164935,1723.1084187446381
3700.8374,0.46199086216222773,1368.9074809072604
3701.6887,0.46223861395730226,2691.067741742223
3702.5425,0.46277750171624554,1771.5028632541512
3703.3943,0.46356495564076095,1733.308963515247
3704.2483,0.464346347921797,1322.596991901489
3705.1003,0.46472627016952023,1723.3398750864612
3705.9526,0.4643924786363055,1583.5244140372295
3706.8074,0.46334252783568053,2064.5328910684484
3707.66,0.4619632548699402,1753.6835795569461
3708.515,0.46079482837079666,1698.564966419674
3709.3682,0.46021222165113285,1265.2287782907815
3710.2234,0.4602038212093032,1892.5178518249288
3711.0771,0.46045104196022224,1546.4846838163428
3711.9307,0.46057824378519785,1554.2748842268445
3712.7866,0.4603870898877925,1585.8960812193186
3713.6409,0.4599047898176676,1764.5353715483325
3714.4973,0.45924352498251997,1496.207104081084
3715.3518,0.45847100592692513,1555.4828508904313
3716.2085,0.4576311728811468,1373.156697572104
3717.0635,0.4569122040365793,1560.1638688778203
3717.9185,0.4566719940168573,1574.1035769231062
3718.776,0.45722309407915246,1733.5032954706694
3719.6313,0.4585069531126735,1810.6696403156686
3720.489,0.4600695149886125,1303.276088539631
3721.345,0.46140033036190264,1531.5010075578246
3722.2031,0.46234059506364616,1498.572292281511
3723.0593,0.4630312735085845,2335.401151071143
3723.9158,0.46355833392505047,1957.0056290057842
3724.7747,0.4637366720805825,1364.2936804844899
3725.6316,0.463345440890422,1570.6727158891108
3726.4905,0.46248092612754305,1941.7886379949985
3727.348,0.46154501992832736,2380.0240145406797
3728.2073,0.46085085118479935,1440.062098288245
3729.065,0.46035633175237567,1718.631532456889
3729.9229,0.4597834844751226,2358.5357242819036
3730.783,0.4589382918266969,1973.782188083739
3731.6414,0.45783824974682863,1863.191101160124
3732.5017,0.4565715340351527,1477.9266086663279
3733.3604,0.4551913596190453,1843.5217165016136
3734.2214,0.45374929286133586,1386.8802132853432
3735.0803,0.45244504727402957,1667.2268963023978
3735.9417,0.4515724685316891,2111.8490031989945
3736.8013,0.45134639717860475,1529.4910142026226
3737.661,0.4517165820817693,1765.463536383732
3738.5227,0.45239713598324455,1880.3936579376996
3739.3828,0.45299371389688686,1240.029662015736
3740.245,0.45312266086714786,1733.0924948846366
3741.1055,0.4524607418263828,1577.3093930889147
3741.9683,0.45082347616917723,2614.5935147643927
3742.829,0.4483060988921916,1462.0725037972056
3743.69,0.4453291043047614,1638.3182121559073
3744.5532,0.4425392973704814,1990.830747142475
3745.4148,0.4405720821119795,2261.8123777358073
3746.2786,0.43974501599980353,2226.791501659242
3747.1404,0.44001411422623665,1569.6321608029912
3748.0044,0.44109558191443937,2557.0723483530687
3748.8667,0.4426666617257625,1613.3685879097038
3749.729,0.4444794796296917,1233.3990012608597
3750.5938,0.44633597235745043,2412.7872283979364
3751.4565,0.4480323409909386,1890.416604205397
3752.3215,0.44944442558902914,1301.9449811060354
3753.1848,0.4506084849868109,1716.8381674803857
3754.0503,0.4517607686511188,1443.767851459614
3754.9138,0.4531222398484253,2261.8710131774237
3755.7776,0.4546534829657671,1461.334574420016
3756.6438,0.45598093746156293,2249.681248805097
3757.508,0.45660575477935855,1717.146178467945
3758.3745,0.456217289899337,2487.0683180446554
3759.239,0.45482734885791537,1669.6283746193
3760.106,0.4527646328842889,1483.6322442178407
3760.971,0.45065459958027704,1469.4384176931346
3761.8362,0.4492446704871443,2216.869958539137
3762.7036,0.44912247145231937,2007.521119708274
3763.5693,0.4503798485964784,1605.2466749527862
3764.437,0.45251081480254834,1756.1965974564332
3765.3032,0.45461022151557823,1788.1144439651089
3766.1714,0.4558084644060347,1599.6977587970816
3767.0378,0.45564442453340614,1717.9805369036035
3767.9043,0.45427595511861163,1590.4701072926332
3768.7732,0.45233239616955306,2030.424996027248
3769.6401,0.45055536115263667,2144.2549042277587
3770.5095,0.44936855551760063,1525.0630049169267
3771.377,0.4487832577418218,1831.723457728732
3772.2466,0.448610492360979,1765.175609795137
3773.1145,0.4488494062487042,1624.9578670785197
3773.9824,0.4498052078825126,1486.1502035702927
3774.8528,0.45178504788599955,1356.8560011373715
3775.721,0.45458720100832994,2594.20280516859
3776.5918,0.45738799041890726,1445.1693970971792
3777.4604,0.45908859359118176,2237.6164441251826
3778.3315,0.45901699656293876,1616.035197453989
3779.201,0.45732389142553387,1127.4997278759124
3780.0703,0.45495347902791833,1548.2898882810343
3780.942,0.45316374411478094,1490.2292140800175
3781.8118,0.45286132334227974,1871.7751945266273
3782.6838,0.4540663042037847,1106.1109350353984
3783.554,0.45594463739771834,1572.2401147137423
3784.4265,0.4573651303288333,1703.4391243001603
3785.297,0.4574949034524785,1241.7256291145093
3786.168,0.4561255554054714,2009.1227248611754
3787.041,0.4535846724395927,1629.085735354424
3787.912,0.4505235266120068,1858.3847830331913
3788.7856,0.44759760336544185,1798.0759963964808
3789.6572,0.44526612016466766,1915.386000965783
3790.531,0.4435514775228276,1543.2086825909248
3791.403,0.44207963861083366,1877.8550218764208
3792.2754,0.44029785927911236,1218.4121387453176
3793.15,0.4378596307140431,1846.2101848506034
3794.0225,0.4348895675555644,1708.9629915927735
3794.8972,0.4319168160307139,1813.2378487040744
3795.7703,0.42971398553300755,1742.5283595672486
3796.6455,0.4289897468807878,1609.4164236784347
3797.519,0.4301431417060671,2185.5680205597387
3798.3926,0.43299399793391846,2158.0279279192737
3799.2686,0.4367786601788578,1599.2265169758452
3800.1426,0.44045358309520377,1652.5780550572106
3801.0188,0.44330162712670845,1631.5630083021167
3801.8933,0.44516380185020316,2044.422138169129
3802.77,0.4463347814743642,1738.2198123888168
3803.6448,0.44716727454462407,1989.8865109037588
3804.522,0.44789395205446986,1972.6068066131975
3805.3972,0.44864982538580767,1717.7186273875327
3806.2727,0.44959133167379856,2847.8613373531416
3807.1504,0.4509070251550445,1813.5584680615952
3808.0261,0.45275434781156726,2655.119429222992
3808.9043,0.45523954189768806,1704.6042504825543
3809.7805,0.45831920585848074,2317.8493363312004
3810.659,0.46175061348669527,1551.836212825816
3811.5356,0.46501481874607825,1649.8293731548733
3812.4126,0.4675405290191812,1823.4696646295993
3813.2917,0.4689451275668658,1723.7950958237925
3814.169,0.4691747443432271,1906.8734795426408
3815.0483,0.46844960601253327,2451.6378874293205
3815.926,0.46709446735924975,1250.9703789516307
3816.806,0.46539746541516797,2037.2382095177386
3817.684,0.4635396757688388,1713.2157702404782
3818.5623,0.4615348230175994,1448.522845331538
3819.4429,0.4593137787111864,1835.949346074383
3820.3215,0.45689208227669353,1448.0349420058528
3821.2024,0.45436914243076737,1470.0765449008009
3822.0815,0.45182457235776996,1792.21789807626
3822.963,0.4491050245197603,1754.7429049973498
3823.8423,0.4459036540903846,1479.1891397131046
3824.722,0.44196131198719535,1995.6912800283337
3825.604,0.4373315504355255,1812.475860355792
3826.4841,0.432459812343906,2125.302215282443
3827.3665,0.4278695611800764,1814.2449737524803
3828.2468,0.4239131663070205,1882.270846403865
3829.1296,0.4205082336834634,1465.0851602804373
3830.0105,0.4173041609206544,2129.5968947884207
3830.8916,0.4138735621737125,2702.3500418294743
3831.7751,0.41000813963697536,1837.641133221344
3832.6565,0.40597110053950103,1861.3988035317743
3833.5403,0.40249388615458553,2829.7585314073103
3834.4224,0.40061364989911424,3471.877170250243
3835.3064,0.4011111014691098,1701.2122933050666
3836.1887,0.40410413867320333,2149.3279786301605
3837.0713,0.4090207090037423,2032.3980662702227
3837.956,0.4149985296830115,1833.4402128556212
3838.839,0.42130947317196393,2823.9828009299295
3839.7244,0.42767913197005364,2493.1224452541455
3840.6077,0.4340437276344336,2218.1164357467337
3841.4932,0.44038736544436063,1875.3394988977072
3842.377,0.4464995048948437,1477.6592775144918
3843.261,0.45219182021949034,2214.683542947778
3844.1472,0.4574208347379274,1855.7353509783447
3845.0315,0.46225071196062745,2159.76292107674
3845.9182,0.46676493355788734,1650.022091570816
3846.803,0.4708449387591221,1620.610185300155
3847.69,0.47432044972369863,1310.256356328741
3848.5752,0.47706498354965376,1631.6901773940485
3849.4604,0.4791761924556931,1526.355440183616
3850.3481,0.480971037302396,1445.4189708069255
3851.234,0.4828959418966612,1118.9915766911358
3852.122,0.4853560228387638,1492.5677344952683
3853.0083,0.48839677658160213,1406.814021932781
3853.8967,0.4916084866973834,1529.5673862796812
3854.7832,0.4942420666541254,1398.5643122662373
3855.6702,0.4956625860632577,1405.5277449713283
3856.559,0.495665320375587,1345.5000532276729
3857.4463,0.4945643092110401,1790.359607928595
3858.336,0.49297919876157387,1425.9587045018457
3859.2234,0.4915305139553173,1497.6294262211125
3860.1135,0.490569972312558,1390.3743643615917
3861.0015,0.49013229530675795,1165.4686268921396
3861.8896,0.4899695772941093,1821.5693254337416
3862.7803,0.4896782637254157,1447.4090692382658
3863.6687,0.4888564748729838,1304.728529528446
3864.5598,0.4872688516431668,1258.188779848598
3865.4487,0.48494988008409173,1455.0301174497445
3866.34,0.4820823353125404,1390.3755657410657
3867.2297,0.4788775703689824,1546.2841434157915
3868.1213,0.4754518399118513,1727.1216731247105
3869.0112,0.47190551210908177,1515.4516315951616
3869.9014,0.4682521103945593,1589.001672450751
3870.7937,0.4643126471823884,1485.6353131817996
3871.684,0.459696091330053,1912.5285204918443
3872.577,0.4539674823887364,1546.995550952466
3873.4678,0.4471587583513047,1696.361171925134
3874.361,0.4398269668077139,1961.8568642175776
3875.2524,0.43284197113964756,3210.913645181122
3876.1438,0.42669056489869867,1901.4771720408444
3877.0376,0.42125267487393064,2069.7625431051815
3877.9297,0.4160320575501793,1584.747953393911
3878.8237,0.41045207836930847,1724.1707786280908
3879.716,0.40419246182123664,2649.77617341072
3880.6108,0.3971397461073039,2149.173109749576
3881.5037,0.38947618107473736,1482.983817814023
3882.3965,0.38149278445362445,2735.8906943125035
3883.2917,0.37347248281917084,3306.143483369307
3884.185,0.36561566750709784,3283.5982274621124
3885.0808,0.3579908373665044,2568.5126238132507
3885.9746,0.35100692578922094,2358.7566651365055
3886.8706,0.3454603099829266,3374.63301006658
3887.765,0.342404781977716,2611.397407730358
3888.6592,0.3425216827080077,3003.6050710877903
3889.556,0.345848643746638,3126.3684710674625
3890.4507,0.35183111763328573,2408.939076033845
3891.348,0.35973742959979504,2490.0509851305387
3892.243,0.368794176936812,2675.8865451889533
3893.1406,0.37838495164822383,2366.622110535642
3894.0361,0.38785304963680406,2260.641871938858
3894.932,0.39675886307572894,3016.295879870928
3895.83,0.4049094280529582,1588.8286856374325
3896.7263,0.4123248010256872,2195.0093448440875
3897.625,0.4192759450997418,1665.8896206407721
3898.5215,0.42602951062559485,1715.0509054571003
3899.4207,0.4329383223268759,1901.3682347562476
3900.3176,0.4402201118276419,2255.49017481693
3901.2148,0.4479624882153472,2300.217313641021
3902.1145,0.45598815588105285,1942.4758987165303
3903.0122,0.4638689645117553,1701.5694774689537
3903.912,0.47124661296681836,1763.6334518363096
3904.8103,0.4778505926989442,1389.3879760201478
3905.7107,0.48369209036662814,1634.6957511866344
3906.6094,0.48894206478985897,1273.7340922057963
3907.508,0.49394275970015866,1346.8685357844308
3908.409,0.4990053172320992,1555.9733529422738
3909.308,0.5042042114061099,1493.1130448349463
3910.2097,0.5094335592743996,1035.8060370142218
3911.1091,0.5144731933754959,1518.3268319561137
3912.011,0.5192748659018186,1463.9511919841925
3912.9111,0.5238875111930948,1297.683457865541
3913.8113,0.5284227737655067,1576.054563542872
3914.7136,0.5329213053212953,1243.8986753838242
3915.6143,0.5373002504318207,1337.7936202087917
3916.517,0.5414350868735552,1147.1883712640222
3917.4182,0.5450884676139199,1259.3685760001204
3918.3215,0.5480091032187756,906.3908708900565
3919.223,0.549966666783037,1095.2346806600358
3920.1245,0.5509191997191633,904.5121062622507
3921.0286,0.5510324374781025,1269.2065076684994
3921.9307,0.5506438211118673,1106.1094823252001
3922.835,0.5501772520909431,1058.1555021368367
3923.7373,0.5500630931278216,1098.6680221932268
3924.642,0.5506382622834138,1121.209991914261
3925.5452,0.5520196312401627,1338.64719967827
3926.448,0.5540009909357977,1034.4761196446439
3927.3535,0.5560576262099847,1174.4026808122683
