wavl,flux,ivar
3566.9744,16.31032272292875,4.1428664120669545
3567.795,16.259378926431623,4.950388046610769
3568.6177,16.19112387014119,3.927485161799512
3569.4385,16.12118395847383,5.056212083516117
3570.2617,16.057329011336762,4.468147631419003
3571.083,16.000296032815456,4.064046524264947
3571.9065,15.945416974452563,5.462199302507173
3572.7283,15.888455529603164,5.490924331060578
3573.55,15.829138094840665,4.451658890764085
3574.374,15.772905466736576,5.589649091102647
3575.1963,15.727817583589395,4.982615000882079
3576.0208,15.697206992864233,5.081140837262652
3576.8435,15.67631128830305,4.371985544750687
3577.6682,15.653498192968314,4.317223425559923
3578.4915,15.617681379231442,4.624463060768895
3579.3145,15.565314248815547,4.3673399685924945
3580.14,15.503216477494242,4.979385827588199
3580.9636,15.446284183881632,4.07565206642553
3581.7893,15.409804338004589,4.181935065734733
3582.6133,15.404271290838647,5.1047810898977115
3583.4395,15.43251512416009,4.838495410619601
3584.264,15.49085775551862,4.489143458961189
3585.0884,15.570847939013465,5.0115460935614635
3585.915,15.65895668281651,4.430558175310096
3586.74,15.735500201559931,4.345577105190383
3587.5671,15.780459974656623,4.614826693398799
3588.3923,15.781326955641763,4.066397250375705
3589.22,15.7408806245518,4.310227474700884
3590.0457,15.675387737652246,4.364752136350945
3590.8716,15.60431426885588,4.014336548385988
3591.6995,15.540621579534431,5.136230715066268
3592.526,15.487786085240803,5.40355561274388
3593.3542,15.442218135425577,4.439230198150983
3594.181,15.399691128482425,4.666571967909875
3595.0098,15.358275702583606,4.847459066764261
3595.8367,15.32033761911375,5.251327555610768
3596.6638,15.290984904314996,4.641323535448956
3597.4934,15.275572071555146,5.079557670812899
3598.3208,15.274835438111706,5.225353114443361
3599.1506,15.280559329716311,4.524322012763609
3599.9788,15.276844270691576,4.396301036715974
3600.8088,15.248080954406616,4.7125252817289915
3601.6372,15.189967504687129,4.593938526262958
3602.4678,15.115115800606642,5.05446681668502
3603.2964,15.05010832718612,4.602860642057999
3604.1252,15.021071740601927,5.621527927628093
3604.9565,15.039962045845527,5.766612489166239
3605.786,15.097977047619558,4.841711299570897
3606.6172,15.17228050970406,4.422562261513646
3607.447,15.237688403771763,5.4204415595375135
3608.2788,15.276980935567762,4.54489524412607
3609.109,15.282743216974639,4.446373910470642
3609.9392,15.25729819208148,5.034086731116663
3610.7717,15.211012872184886,4.79869930128058
3611.6023,15.160589825929005,5.065050315191552
3612.435,15.122347893753725,4.790552290636346
3613.266,15.104865633404396,4.814772477387571
3614.0994,15.103505898576284,4.915523285061603
3614.9307,15.104115777493208,4.374260034397615
3615.7625,15.092522865874141,5.19488171304688
3616.5962,15.06271250345521,5.080419109106889
3617.4282,15.018199772050695,4.770569724350855
3618.2625,14.966586631050076,5.081830807675535
3619.0947,14.915286054807236,4.721949357664419
3619.9292,14.868992623930254,4.955459102720395
3620.762,14.830995234671919,5.194240230380127
3621.595,14.80187558752374,5.105336951908707
3622.4302,14.778920265174557,5.596528609946795
3623.2634,14.7571310051918,5.029571464680025
3624.0989,14.731797155495435,4.865113882094919
3624.9326,14.701338142407808,4.8801039300023215
3625.7686,14.66690390755852,5.276104359505277
3626.6028,14.631886495554944,5.265317681010444
3627.437,14.60054973860206,4.808986560012258
3628.2734,14.577177212753073,5.472162589510609
3629.1082,14.564217297064657,5.262147086003581
3629.945,14.560224879517563,5.665293540383378
3630.78,14.560529090317024,4.908175016232129
3631.6174,14.55964643347549,5.971163863011921
3632.453,14.55415644416113,5.501333548046879
3633.2883,14.543891420693193,5.872682349648809
3634.1262,14.530809188695109,5.244828369930318
3634.9622,14.516619025321287,5.24012139650962
3635.8005,14.500514033265803,4.978507419543873
3636.637,14.479930043271795,5.62488204602287
3637.4756,14.45318267172401,4.957828386467622
3638.3123,14.422756287817181,5.138025280948728
3639.1492,14.39422102361891,5.438838538629484
3639.9885,14.37201092641624,5.687110041005553
3640.826,14.35523242059078,5.521023030566091
3641.6653,14.337483467348848,5.2934533786819555
3642.5032,14.312417516890761,5.5770299977608
3643.343,14.27942560868421,4.9916218473998635
3644.1812,14.246033838215842,5.732377891512836
3645.0195,14.223629997285961,6.501340473582856
3645.86,14.220884940995756,5.944667528688483
3646.699,14.238295202260527,5.587570850973468
3647.5398,14.267587752089483,5.713173777636315
3648.379,14.295594174520751,4.873485564722553
3649.2202,14.310766812835949,5.145438486022099
3650.0596,14.30773901306298,4.901802908962074
3650.8994,14.288915801228566,5.486220069852474
3651.7412,14.261213538164766,5.307828738741534
3652.5813,14.231019564766912,5.725896850592476
3653.4236,14.20015089457214,6.61088636736513
3654.2642,14.167410298946885,5.247274272002585
3655.1067,14.132115497540237,6.082089631753276
3655.9475,14.097310182294748,5.895041898676573
3656.7886,14.067578998201316,5.947186515143809
3657.6318,14.045374334989514,6.849798951581272
3658.4734,14.029622675866904,6.305450827737228
3659.317,14.018379427560344,6.467245949124703
3660.1587,14.012886778265608,6.064281405590356
3661.003,14.01657892079622,6.048733824857482
3661.845,14.029809110442324,5.997074618667787
3662.6875,14.046116903968555,5.780855372505068
3663.532,14.054846952980688,5.97020196058852
3664.3748,14.048161611843195,6.07205572883599
3665.2197,14.026198909857206,5.31615331117552
3666.063,13.996293974530992,5.815157365072423
3666.9084,13.967402778630532,6.0270665100097185
3667.752,13.945822762452336,6.929864557368959
3668.5977,13.933639831574043,5.349040948858201
3669.4417,13.930836549622043,5.7773992627444
3670.286,13.936382185422334,6.0994599941130465
3671.132,13.947919069245563,6.105857563399266
3671.9768,13.960922728587734,5.894194407399325
3672.8235,13.970098184292285,6.335878924953689
3673.6685,13.971921249291947,5.724023088510127
3674.5156,13.966393649966504,5.006532992454497
3675.3608,13.95617569757651,5.406681955813991
3676.2063,13.944289973162382,6.411607064623965
3677.0542,13.932445235860467,5.481738874091831
3677.9,13.920710924190814,5.564525765693101
3678.748,13.907662156729518,7.188563233074915
3679.5945,13.891529409368,5.8123927793144565
3680.4429,13.871421733268054,5.923112625348309
3681.2896,13.8490774575711,5.888519676602777
3682.1365,13.828412265474993,5.127534018974931
3682.9856,13.813262313591729,5.061616973278398
3683.8328,13.804603148625302,5.758940518756934
3684.6824,13.799510298906856,5.33424353012377
3685.53,13.79293619586918,5.795040206539665
3686.38,13.779642920654375,5.721730460772127
3687.2278,13.755837053958368,5.824797361150486
3688.0762,13.720546880164385,6.181668932332963
3688.9265,13.67766670754746,6.5395562738917015
3689.7751,13.636501991662863,5.9805386997056615
3690.626,13.607351771894068,5.259577994392794
3691.475,13.59605539722227,5.692050136286332
3692.3264,13.599928456205534,5.618431490620521
3693.1758,13.60987619026325,6.306432899149263
3694.0254,13.616203056782364,6.061943707621003
3694.8772,13.614272249841258,5.706762731447132
3695.7273,13.606794281881958,5.795224878527573
3696.5793,13.601041104577332,6.308829753619563
3697.43,13.602543677361222,5.478340106108154
3698.2825,13.60965856278992,6.20000529776609
3699.1333,13.613801237991671,5.9393677549001795
3699.9841,13.605290763083838,5.783039158468075
3700.8374,13.579453346013365,5.841175701497156
3701.6887,13.539143759349933,6.082461342577949
3702.5425,13.492133931226363,6.577050575124559
3703.3943,13.448244115780579,6.42757316503719
3704.2483,13.415566695035386,6.391721309497368
3705.1003,13.399271364112572,6.345578236494634
3705.9526,13.399492631578406,6.0313812767297765
3706.8074,13.411176383853613,5.686577336218465
3707.66,13.425385035661765,6.0325873175019655
3708.515,13.433055972096536,6.5681471758107755
3709.3682,13.428075923139001,5.850588992119563
3710.2234,13.40871431389085,7.293581590576456
3711.0771,13.377593435175543,6.792489059147888
3711.9307,13.340723902748518,6.2059793373977525
3712.7866,13.305443295480998,6.0931798440265155
3713.6409,13.277358409711495,6.291874478113983
3714.4973,13.257172486675238,6.585326214446767
3715.3518,13.241991099917485,6.365122020778635
3716.2085,13.228207856500514,6.907542346891816
3717.0635,13.214132470169996,6.548835267325034
3717.9185,13.19942088335803,6.96614721744015
3718.776,13.183953229186256,6.529175709985451
3719.6313,13.167628673172473,6.754513938835026
3720.489,13.14994306707892,7.430308911748556
3721.345,13.129857090752363,6.2824518927731
3722.2031,13.106201345170229,6.179397827415938
3723.0593,13.080581050086941,6.441701596857584
3723.9158,13.058256503298114,6.8799497530341664
3724.7747,13.045169514624684,6.692671827170544
3725.6316,13.042363351904543,6.375833847874225
3726.4905,13.043800900317276,5.9112817760502265
3727.348,13.040973149445856,6.569879792358756
3728.2073,13.029292353259615,6.587381176246628
3729.065,13.01026463943111,6.757298901138876
3729.9229,12.988211916335962,7.0791036815368
3730.783,12.966498855853674,6.622969205819219
3731.6414,12.946687173718482,6.895653955510691
3732.5017,12.929230785454068,6.417407435976155
3733.3604,12.914724817768636,6.554467568864046
3734.2214,12.903866928583708,6.546090893011246
3735.0803,12.897597770934809,8.204198026259101
3735.9417,12.895893459328656,7.270839194301893
3736.8013,12.896154085791528,6.913507933700698
3737.661,12.89276643680521,6.862472998702061
3738.5227,12.879748318634757,7.22346702068438
3739.3828,12.854666489199003,7.176560295900287
3740.245,12.819342758412054,7.052680509806217
3741.1055,12.777557877584327,7.970339949197146
3741.9683,12.73156077837049,6.936386735728635
3742.829,12.683478209558931,5.812232460331438
3743.69,12.637337334664009,6.484033387933386
3744.5532,12.600030563454578,8.192647425133996
3745.4148,12.57806981294982,7.814572343670605
3746.2786,12.572316117998811,7.848205501911369
3747.1404,12.577338236632853,6.427843599231708
3748.0044,12.585330402342201,7.337694098204613
3748.8667,12.5915101156094,7.574284899392458
3749.729,12.595877149779774,7.519118135670926
3750.5938,12.60006271300535,7.133372889675364
3751.4565,12.603407922377919,7.831720000193454
3752.3215,12.60262616535674,6.2973662899845175
3753.1848,12.594972997460957,6.778360118248195
3754.0503,12.58131436743003,7.423320310724686
3754.9138,12.56602159476161,7.379805299904459
3755.7776,12.553512840000753,6.913188167563628
3756.6438,12.54523326285544,7.080370840969226
3757.508,12.539336123204063,7.164980121743492
3758.3745,12.53291190795974,7.347501151028077
3759.239,12.524811195229505,6.564336994332698
3760.106,12.51610023695315,7.694992559107803
3760.971,12.508390979348498,6.851158535415427
3761.8362,12.501212833488644,7.686350187325778
3762.7036,12.49121386929831,6.38001709585554
3763.5693,12.474058294650382,6.99295761568716
3764.437,12.447784138589556,7.544816897501222
3765.3032,12.415655116731557,7.358076080800611
3766.1714,12.384648752369607,8.842028650631374
3767.0378,12.361174856075863,7.560403066578532
3767.9043,12.346031411385255,7.012757575986933
3768.7732,12.334417676460767,7.696768491007276
3769.6401,12.320351241604586,6.687483632506531
3770.5095,12.30142130045501,7.098506158315464
3771.377,12.280596558706526,7.01876631899444
3772.2466,12.263387148003554,6.809922061600616
3773.1145,12.254385767979679,7.250480092666154
3773.9824,12.254721481825037,7.580296391311147
3774.8528,12.262369002493969,7.16959849490739
3775.721,12.273456404321351,7.007345631835722
3776.5918,12.28402355071945,7.4958158714975465
3777.4604,12.29105674419925,7.18352600750254
3778.3315,12.293299607764151,7.718680922811065
3779.201,12.290675823264998,7.575739941315683
3780.0703,12.283050339817722,7.930456810793705
3780.942,12.26932205051436,7.032841799093509
3781.8118,12.248576949009951,7.521496759611218
3782.6838,12.222111974104685,7.3893059463924216
3783.554,12.194859443671579,7.124626079406295
3784.4265,12.172926548913033,7.438053818213348
3785.297,12.16012574496227,8.810633192370082
3786.168,12.154934012268777,6.516340169463184
3787.041,12.151671175727374,7.468224114195041
3787.912,12.144133151015916,7.818870845677437
3788.7856,12.128968169290424,7.540662642513276
3789.6572,12.106794831974923,7.180006577741356
3790.531,12.080383747809803,7.940011521224706
3791.403,12.052844362455808,7.936537051830008
3792.2754,12.025974749768423,7.650033687666325
3793.15,12.000480611092431,8.8174006006874
3794.0225,11.976870175989347,8.499444731513192
3794.8972,11.955718433329855,8.028101030072722
3795.7703,11.938319139026829,8.619808182906702
3796.6455,11.926019140565899,7.0406422210454815
3797.519,11.919986173356556,7.602898590288948
3798.3926,11.92048635625536,7.700415937075801
3799.2686,11.926427573867468,8.491075873309338
3800.1426,11.93457689270915,8.75622197619012
3801.0188,11.939822504591065,8.049774939592812
3801.8933,11.936953106992293,7.738071456719175
3802.77,11.923371461675934,7.678633458763866
3803.6448,11.900404495714467,8.294701814467208
3804.522,11.87191357516465,7.345460012071378
3805.3972,11.842445883774236,7.602510255338663
3806.2727,11.814971601421227,7.238236205821846
3807.1504,11.79046612518921,7.79310878766484
3808.0261,11.768683524858853,7.687439264442297
3808.9043,11.749278334609455,7.129747340040252
3809.7805,11.733281873653194,7.469490411865714
3810.659,11.722069416688216,8.07500721151825
3811.5356,11.715940501695975,6.985875518748329
3812.4126,11.71311324771529,9.12237150416055
3813.2917,11.710842093052804,8.724056838199342
3814.169,11.707161235565895,9.49861249558215
3815.0483,11.701639098221836,9.978962064130318
3815.926,11.694615277263038,7.938069792702715
3816.806,11.685665109628827,7.784213681513329
3817.684,11.673588997763243,9.023601770046366
3818.5623,11.658011439152899,7.941217650305305
3819.4429,11.64097455607626,8.880992197057992
3820.3215,11.62612487476371,8.087580789774178
3821.2024,11.615400832950721,7.810906039505566
3822.0815,11.607510618466423,8.346325879399478
3822.963,11.599127660142573,9.453307094568514
3823.8423,11.587790568397205,8.849999775390533
3824.722,11.57276951509934,8.572017940581688
3825.604,11.554184171146526,8.65849595349338
3826.4841,11.532621487970575,8.652111070840974
3827.3665,11.509480223016675,9.252666141794434
3828.2468,11.487507608053836,9.026405366213321
3829.1296,11.468577006500524,8.538278257321878
3830.0105,11.451787357511835,8.142850506781155
3830.8916,11.43301247441485,9.120368895713325
3831.7751,11.40786879902177,8.590297043019337
3832.6565,11.375573954911234,8.36276522566257
3833.5403,11.339670218152067,8.919003839801558
3834.4224,11.306168389981238,9.45350806223041
3835.3064,11.278852696561419,8.258801568411839
3836.1887,11.25760135834934,8.985603506239505
3837.0713,11.239162124987793,8.445713645072319
3837.956,11.220632276140446,9.220956421243747
3838.839,11.202375202807096,8.679477408894886
3839.7244,11.188064390736107,8.779562413762875
3840.6077,11.182296201663878,8.753713686640497
3841.4932,11.186590163583325,9.148068280368395
3842.377,11.197887049977988,9.364613393517796
3843.261,11.210694188926258,8.75277025321813
3844.1472,11.220940398370045,9.024105904442363
3845.0315,11.228176285037474,8.404479495012371
3845.9182,11.235077868771764,8.756590494585295
3846.803,11.24482230516508,9.014078561237715
3847.69,11.259064329224294,8.373393389584393
3848.5752,11.277333378670773,9.343361509525323
3849.4604,11.298391897727674,9.800561660015024
3850.3481,11.320973675465371,8.301576362756666
3851.234,11.34266032882253,9.52686382653015
3852.122,11.359130495044477,8.22580049821912
3853.0083,11.364653815352337,8.97899105928756
3853.8967,11.354820311610894,8.917988370649692
3854.7832,11.328352068910343,8.597000830869355
3855.6702,11.287757798629398,8.488853530543574
3856.559,11.239768121145786,8.192188696617109
3857.4463,11.195067525947026,8.727018778209095
3858.336,11.164207830905053,9.27898377810987
3859.2234,11.153338206995349,9.438529403749905
3860.1135,11.1611956471493,9.168335500400262
3861.0015,11.181412953288271,9.499536986365625
3861.8896,11.20652871305348,9.366223163318171
3862.7803,11.230029532117825,9.241205930244975
3863.6687,11.245778337042378,7.923910615668092
3864.5598,11.248119028105924,8.773002531161405
3865.4487,11.233000660177485,7.67381013246164
3866.34,11.199933390919801,8.88748138598653
3867.2297,11.152786582751654,9.053952136628872
3868.1213,11.09790398715958,8.77651430911296
3869.0112,11.042611419767272,9.130830629544912
3869.9014,10.992451414139794,9.159953795399009
3870.7937,10.950167101056598,8.832347154122063
3871.684,10.915400662171253,10.553483259631811
3872.577,10.884880941246106,9.050092058722703
3873.4678,10.855330252201144,8.677622787197343
3874.361,10.824873887537276,10.49494247622513
3875.2524,10.793646129504985,9.89218364521868
3876.1438,10.761588115884628,9.527008053386155
3877.0376,10.727773329117976,9.994815995369958
3877.9297,10.691809517103172,9.325016607255884
3878.8237,10.654428404258383,9.848384862063282
3879.716,10.617079316107098,10.164307787837279
3880.6108,10.57915920871116,11.649872708747905
3881.5037,10.538343342648853,10.171187430244226
3882.3965,10.49229807744412,9.61620269066762
3883.2917,10.44157398553058,11.030124452170613
3884.185,10.390337661695662,10.27797987585299
3885.0808,10.343041128483108,10.315303513493873
3885.9746,10.30236947845618,10.28942414884695
3886.8706,10.267224464632696,13.072097863233386
3887.765,10.235033167090494,10.756201151889746
3888.6592,10.204122479483162,12.432314889692591
3889.556,10.176025187416048,11.534567392649713
3890.4507,10.155330990058836,10.920201788199826
3891.348,10.146699502725445,10.6549316815316
3892.243,10.152429422509686,11.06538271849603
3893.1406,10.171375449320529,10.765819598577366
3894.0361,10.20014420694089,10.759898376495435
3894.932,10.235324560071529,10.935962105309615
3895.83,10.274118418082333,11.027620972697923
3896.7263,10.313373033052704,10.578157437520025
3897.625,10.349892743869994,10.246859087046934
3898.5215,10.380666632995355,9.757720280527458
3899.4207,10.404967118749143,11.706272358346643
3900.3176,10.424001736199777,10.25120138674464
3901.2148,10.44060425039002,11.896864326538664
3902.1145,10.458195556702123,9.844554720959255
3903.0122,10.480029434487767,10.828551040884724
3903.912,10.508038256927804,11.99438785778827
3904.8103,10.54058955626248,10.725078827154949
3905.7107,10.573212127938044,10.112602502188249
3906.6094,10.601321833455454,10.969205914797394
3907.508,10.623950818017066,10.024566161043387
3908.409,10.643367530913524,11.413843742325191
3909.308,10.662326005456089,9.658085240229571
3910.2097,10.682857340429416,9.245412453145606
3911.1091,10.706486318651743,10.523966086073107
3912.011,10.734753517712726,9.467381832715821
3912.9111,10.766867254627714,10.201185420291594
3913.8113,10.798766801954677,8.82821158974908
3914.7136,10.824845540183373,7.794427055838555
3915.6143,10.841495438982548,10.362869715977071
3916.517,10.848976331629483,9.815331468605699
3917.4182,10.84915789700211,10.144833663593946
3918.3215,10.843288784151559,9.4190271833676
3919.223,10.832155669471906,10.435242715719161
3920.1245,10.81779142936185,9.29504543916602
3921.0286,10.803957270541394,9.570100260823223
3921.9307,10.794664667702436,9.44374740469002
3922.835,10.792204443877113,9.715351846599665
3923.7373,10.79708669607005,9.447305059602195
3924.642,10.80869258630015,9.729874461715957
3925.5452,10.82520408655662,10.279471391402275
3926.448,10.843195446970086,9.111934814619417
3927.3535,10.858085188930307,9.153692445884124
3928.257,10.865809029800364,8.894505891012228
3929.1628,10.864268865115442,9.369537411282087
3930.0667,10.852164421690912,10.800371702797577
3930.9731,10.82722995609711,10.53786656957337
3931.8774,10.787368553909909,9.514265225486792
3932.782,10.734068011195411,9.778625689108997
3933.6887,10.675453141970266,9.3438681877026
3934.5938,10.624659751773377,10.754708373233683
3935.501,10.59211147483296,10.749818308957712
3936.4062,10.579570211295199,9.747611307697627
3937.3142,10.578258393118796,9.746182612818037
