wavl,flux,ivar
3566.9744,0.8240134634570632,577.1888406820502
3567.795,0.8246986861409097,458.77973946625406
3568.6177,0.8269702243626886,329.7207120859962
3569.4385,0.829187301853197,423.6708834527951
3570.2617,0.8300157420967041,305.79111147833703
3571.083,0.8290458069923473,388.16206602395135
3571.9065,0.8267635749669057,413.5067442618093
3572.7283,0.8238327769997864,418.6725726597148
3573.55,0.8203729293182845,358.16006011293024
3574.374,0.8161143749879431,397.07464522797636
3575.1963,0.8112734916832733,440.8370236709893
3576.0208,0.8069525731455256,378.2130399503936
3576.8435,0.8046841320248018,363.1411713480038
3577.6682,0.8053640507487363,411.1395630146602
3578.4915,0.8087789771794217,409.3538648683941
3579.3145,0.8138487133083446,332.5343041844612
3580.14,0.8191804674986016,575.5583823676722
3580.9636,0.8233655328864031,425.65986275048243
3581.7893,0.8252798028927755,342.12602653783705
3582.6133,0.8243021282228483,289.1975908476916
3583.4395,0.8206782096333589,339.6874622380883
3584.264,0.81559046551448,429.06346755752145
3585.0884,0.8106357743642484,353.2193407464
3585.915,0.8070679189066245,547.2440178465882
3586.74,0.8053109517290309,393.8306614290216
3587.5671,0.8049871475034751,342.5579181514764
3588.3923,0.8054220793128878,477.1946400597542
3589.22,0.8060468415744083,414.33671805028706
3590.0457,0.8065594048435886,327.4582414845548
3590.8716,0.8069207378171377,420.13539739881855
3591.6995,0.8072144668472786,488.31751892313133
3592.526,0.8074168446819302,324.2122270236777
3593.3542,0.8072305829281684,543.0231904304638
3594.181,0.8061856200222693,491.6040819386769
3595.0098,0.8040135046455634,349.8529906581203
3595.8367,0.8010785030138725,368.016130940868
3596.6638,0.7984259291943022,314.1219164993663
3597.4934,0.7974157787715179,362.49551642912
3598.3208,0.7990958368002625,657.6978145908864
3599.1506,0.803756071092486,396.43765091678614
3599.9788,0.8107860681273981,333.7719797611255
3600.8088,0.8187550680165259,463.0205005242358
3601.6372,0.8253662498181749,518.7333910635638
3602.4678,0.8281493866510348,531.6815375281309
3603.2964,0.8256457317520973,522.2714818197699
3604.1252,0.8185519586763016,359.75044227538734
3604.9565,0.8093225203836409,466.868036749266
3605.786,0.800679332436132,485.9357223706716
3606.6172,0.7941106928081494,393.6343621300562
3607.447,0.7900764624422244,401.76473612167933
3608.2788,0.7887080184546942,581.9656864916419
3609.109,0.790120183657708,617.7612741986298
3609.9392,0.7938540758574419,448.641868965988
3610.7717,0.7985707713985255,306.202253629314
3611.6023,0.8025506858943345,314.78495621446154
3612.435,0.8047611147692284,421.4214023328651
3613.266,0.8052364096105449,566.1834629599215
3614.0994,0.8046627729539408,405.3564766811577
3614.9307,0.8035641550189307,317.7869761712434
3615.7625,0.8019534226277768,451.216228101609
3616.5962,0.7996423715203284,416.6090075372839
3617.4282,0.7967598658743363,409.53533593004164
3618.2625,0.7938748788229311,600.659503525877
3619.0947,0.7917713979426847,568.6144943309882
3619.9292,0.7909432425170461,436.0879265655295
3620.762,0.7912490065038629,470.25078974091423
3621.595,0.791770583201476,407.6884898824335
3622.4302,0.7911421850094017,504.5336278087621
3623.2634,0.7883394525048544,292.7372849800374
3624.0989,0.7834681761043425,431.2409538542006
3624.9326,0.777959030431432,307.1321065515645
3625.7686,0.7737008960182246,414.9014388010584
3626.6028,0.7719509630319963,461.1703509859065
3627.437,0.772619840799019,463.73921135714085
3628.2734,0.774643283897872,564.6361409321611
3629.1082,0.7768376260418572,392.8089383934118
3629.945,0.7786137665358198,443.997524782007
3630.78,0.7799527863809822,488.2161230259764
3631.6174,0.7809820161729562,350.64628677305564
3632.453,0.7816064967666912,455.12052972804935
3633.2883,0.7816518134889848,315.42327093813503
3634.1262,0.7812015157036045,495.6666546790322
3634.9622,0.7806980519586412,439.30541280068786
3635.8005,0.78058727589602,341.7734846891928
3636.637,0.7808374764811603,379.81826314850883
3637.4756,0.7807833278955694,394.2898986344348
3638.3123,0.7795202606634173,468.381755195291
3639.1492,0.7765737418466914,405.7870919013839
3639.9885,0.7722696556043022,489.3889511326886
3640.826,0.7675593078528616,734.0123726225435
3641.6653,0.7633419740085577,365.9736924047182
3642.5032,0.7601031832218302,326.70200186834296
3643.343,0.7578238203126253,629.0520432819745
3644.1812,0.7562924764596057,555.3154234377374
3645.0195,0.7553932090452856,351.96299302862633
3645.86,0.7553536698396538,551.9866519367171
3646.699,0.7566555329165205,455.49603556686986
3647.5398,0.7595552828116899,527.9751242855543
3648.379,0.7635087074942005,486.41469157131496
3649.2202,0.767201899202608,350.94756594387337
3650.0596,0.7691813668548004,456.79668500483535
3650.8994,0.7687580058983217,496.65595028042685
3651.7412,0.7662600415100892,494.409004523921
3652.5813,0.7627158796831924,416.3230866082818
3653.4236,0.7592019564444118,492.32293417947875
3654.2642,0.7564520069812841,323.3958237621849
3655.1067,0.7546618807998965,355.0621912737834
3655.9475,0.7536502990818316,479.97469033071025
3656.7886,0.7530333732302938,377.3577045519098
3657.6318,0.7523628524782632,573.6493697180275
3658.4734,0.7511622283610837,525.0781139543465
3659.317,0.7490497949557067,386.18200337148227
3660.1587,0.7460621129233819,636.033628733711
3661.003,0.7427946846577135,448.8116743848257
3661.845,0.7402175675961515,591.7357459512649
3662.6875,0.7391148112896508,992.2141353254804
3663.532,0.7398315446617273,379.6466356959548
3664.3748,0.7423488457949162,453.5597723391273
3665.2197,0.7464917114906916,493.5229544530564
3666.063,0.7517864912466997,449.9045026078824
3666.9084,0.7572617555452258,562.2982992756193
3667.752,0.7614258028587663,395.0044847674678
3668.5977,0.7630206409374135,481.96734617895555
3669.4417,0.7617789998784505,385.4994376904631
3670.286,0.7586855910274106,519.6450772007043
3671.132,0.7552757724240737,376.84528728893883
3671.9768,0.752622632162373,434.9094416596446
3672.8235,0.7507496372681893,420.3793741786828
3673.6685,0.7490776781544716,433.4287057770868
3674.5156,0.7473096625192517,496.01688705287864
3675.3608,0.7459737060268963,443.62713773812686
3676.2063,0.7459690088091537,545.6862692239854
3677.0542,0.7476770013515609,462.2540384197754
3677.9,0.7504676577972844,398.7151898184625
3678.748,0.7531457758202178,469.322715851309
3679.5945,0.7546934749893307,389.6558042148948
3680.4429,0.7547290467796272,763.5924727203601
3681.2896,0.7533570431555527,392.54517816878774
3682.1365,0.7508920834310439,396.4330986075513
3682.9856,0.7477071233203653,638.702298599847
3683.8328,0.7442172329763934,587.2455970497672
3684.6824,0.740740236005892,493.75491380392185
3685.53,0.7374667218105233,565.4030059831732
3686.38,0.7343512909653609,423.9888712112244
3687.2278,0.7312700917701103,618.4414420999242
3688.0762,0.7282287421044012,1009.7834910743377
3688.9265,0.7256730617165509,419.041093014338
3689.7751,0.7244479508914599,730.939455222202
3690.626,0.7252504295371717,578.753665613474
3691.475,0.7280716232925735,348.6799146373137
3692.3264,0.732189872355566,419.8346124506397
3693.1758,0.7367314019244412,566.5803801057725
3694.0254,0.7413745728573309,573.6034899385586
3694.8772,0.7463622465193954,510.6512449841523
3695.7273,0.7518549588660757,470.5458278528355
3696.5793,0.7573083766302349,498.2985829901416
3697.43,0.7612832103374605,518.32990935338
3698.2825,0.7622422643086837,316.5661535074474
3699.1333,0.7595365031968563,432.3448680326201
3699.9841,0.7539243592777537,488.20198218000957
3700.8374,0.7470877927566603,775.1963761156134
3701.6887,0.7407822683529239,650.817501109218
3702.5425,0.7360703853166619,609.9632041682869
3703.3943,0.7333970542611732,532.0583380921332
3704.2483,0.7327303552274687,506.4531605235301
3705.1003,0.733727282656625,540.9597154176339
3705.9526,0.73570325387787,501.9691462403331
3706.8074,0.7377539449659418,583.8175559649171
3707.66,0.7390232428609866,363.50273013332463
3708.515,0.7390308751137736,486.8515233312173
3709.3682,0.7377405445086979,384.37450200857967
3710.2234,0.7354415634661191,509.18697292402146
3711.0771,0.7325740702721453,515.3333400714556
3711.9307,0.7295560641375344,341.84370415695304
3712.7866,0.7266883680880684,442.9585543483472
3713.6409,0.7241050781683189,566.4076712981176
3714.4973,0.7217136542829737,503.84525119171445
3715.3518,0.7193994491062233,630.0821973158356
3716.2085,0.717267563423652,428.56779438948047
3717.0635,0.7158480253033034,615.5176738198568
3717.9185,0.7158194664460846,626.3086569631572
3718.776,0.7174681265600741,657.9743049893517
3719.6313,0.720238288995273,576.951754355118
3720.489,0.722953836719572,418.30670736390664
3721.345,0.7245369291968015,584.5299618308221
3722.2031,0.7247688573764648,496.26500175228625
3723.0593,0.7243225939353515,573.3807162439674
3723.9158,0.7241627416711252,410.3822765639396
3724.7747,0.7248762216662642,440.21041710507586
3725.6316,0.7264422951322129,442.89139432027633
3726.4905,0.7283917811681753,570.3255292333488
3727.348,0.7299584273694757,559.6440283459908
3728.2073,0.7302847952267743,529.4846371497308
3729.065,0.7287860408200503,424.16600603740835
3729.9229,0.725600650229243,569.2888269447602
3730.783,0.7216091827234489,553.7553564148446
3731.6414,0.7179314148597641,573.8333113363362
3732.5017,0.7152036760102101,480.314649410244
3733.3604,0.7134623153246367,511.63673907022735
3734.2214,0.7124515517385632,445.20099815578834
3735.0803,0.7120200619242784,676.3536201735687
3735.9417,0.7120834801245847,566.7887817083447
3736.8013,0.7124274666434021,387.7650736663687
3737.661,0.7127226724244793,559.6966107400436
3738.5227,0.7127993768489859,426.54482759442715
3739.3828,0.7127885793550516,603.1950647927266
3740.245,0.7128964605819063,650.4039651229369
3741.1055,0.7130695828961745,404.4782034513592
3741.9683,0.7129623695976939,523.0034009802935
3742.829,0.7122324951931516,508.2824552706664
3743.69,0.7108637439609592,606.6911270967507
3744.5532,0.7092786018674436,471.8622762176437
3745.4148,0.708232929043254,483.07419539281096
3746.2786,0.7084345070761793,443.21075706152175
3747.1404,0.7100589246441499,589.045880760911
3748.0044,0.7124530100922215,521.2144595819269
3748.8667,0.7143587058665485,489.992998960851
3749.729,0.7146808746648947,613.2312710131288
3750.5938,0.7131353399518803,564.017362440772
3751.4565,0.7103588331064219,617.7331415207368
3752.3215,0.7073465632722985,519.0219817062012
3753.1848,0.7048416265708696,568.9582822802048
3754.0503,0.7030478444943873,635.4119958352677
3754.9138,0.7019286341580778,623.7013843598332
3755.7776,0.7015349611451343,577.8544843723444
3756.6438,0.7020753228431915,551.4862373182033
3757.508,0.7036132505294567,447.8910172791933
3758.3745,0.7057947713191713,522.7685134938047
3759.239,0.707875066171161,487.1441096130823
3760.106,0.7091527848667097,547.9820190329827
3760.971,0.7093754208195198,496.6193729181628
3761.8362,0.7088815949509415,578.3204365715563
3762.7036,0.7082617948387052,484.09266598686344
3763.5693,0.7078504352209976,535.0710403172773
3764.437,0.7074263429658562,487.76828029797537
3765.3032,0.706439271084776,415.0272162462808
3766.1714,0.7045713089349542,478.8441710385112
3767.0378,0.7021572146965889,622.38583340389
3767.9043,0.6999666849903292,608.237232268121
3768.7732,0.698588945032118,695.7794156068171
3769.6401,0.6979708047740079,615.4360174343127
3770.5095,0.6974639047797643,518.321362961744
3771.377,0.6963274533857112,462.1365920722849
3772.2466,0.6942183189285603,516.1200521413894
3773.1145,0.6914525252035424,443.76548916869876
3773.9824,0.6888488047734702,651.7201344733853
3774.8528,0.6873176259901249,507.3403649873474
3775.721,0.6873620515901046,583.3613887431603
3776.5918,0.6887535105214924,493.1512447269949
3777.4604,0.690665901639732,440.13137009180787
3778.3315,0.6922346066489007,528.2429527908357
3779.201,0.693108082538115,520.1716504464545
3780.0703,0.6936367131943941,492.2458917272751
3780.942,0.6944396587008265,764.0306034889019
3781.8118,0.6957734453748131,519.7175702015035
3782.6838,0.6973159217851269,615.491289355841
3783.554,0.6985172268598994,595.4879974868646
3784.4265,0.6991448234430694,536.6671693871662
3785.297,0.6993522718290763,615.2503826904734
3786.168,0.6993286535632817,473.9724938170871
3787.041,0.698974898598546,700.6278777721994
3787.912,0.6980068076616842,427.513262996698
3788.7856,0.6962713662173567,606.0403290695488
3789.6572,0.6939060405711145,584.3427860526705
3790.531,0.6911312761082822,598.85894907867
3791.403,0.6880523391982744,471.15851351422407
3792.2754,0.684587810366083,533.7829065830616
3793.15,0.6806992763190018,583.466661038373
3794.0225,0.6766904795659792,763.909266946552
3794.8972,0.6731953073425724,549.1625728422707
3795.7703,0.6709498106552544,638.3983646748584
3796.6455,0.6702877441676035,622.0805850548464
3797.519,0.6709791378203406,477.76467936642484
3798.3926,0.6724394848310618,448.9502036239269
3799.2686,0.6741293177779293,595.3208835962735
3800.1426,0.675696465139369,598.2987004220668
3801.0188,0.6769241390174832,548.3901276118291
3801.8933,0.677678778241272,685.2125247202243
3802.77,0.6781183553684725,508.78586175641857
3803.6448,0.6788109574475137,516.5690470004432
3804.522,0.680497744321542,615.7323076728765
3805.3972,0.6835572639392694,562.7759822357251
3806.2727,0.6877533283898937,439.1424903984025
3807.1504,0.6924361010135991,544.2564989612871
3808.0261,0.6968848795338213,573.698698601276
3808.9043,0.7005951947275392,711.7607050909845
3809.7805,0.7032788460253817,396.58976678823433
3810.659,0.7050613519426479,534.6125595550938
3811.5356,0.706440257382249,587.6957643518398
3812.4126,0.7079734813336013,497.88660322131716
3813.2917,0.709785725313172,454.56681004074784
3814.169,0.7114526130961148,471.4515093503674
3815.0483,0.7124295235911869,480.0412647031792
3815.926,0.7125051267248403,533.2127666326796
3816.806,0.7119673187961363,585.9429586278546
3817.684,0.7114224432767244,518.6222953242639
3818.5623,0.7114734604572603,509.7344910277912
3819.4429,0.7123565160079904,676.4949449292563
3820.3215,0.7136206039081616,526.1211434886266
3821.2024,0.7141819660713147,492.45675422139385
3822.0815,0.7128677031747133,442.2935178314792
3822.963,0.7091798371963659,564.9779451367614
3823.8423,0.7036942633730635,602.5694329432581
3824.722,0.6976462979966714,547.0533397002657
3825.604,0.6921230093827416,574.5901343647548
3826.4841,0.6874544560270118,552.8855804318065
3827.3665,0.6831033970794588,545.410089246996
3828.2468,0.6783245801804714,464.2933728320473
3829.1296,0.672707365067883,573.3440791260081
3830.0105,0.6664577839188368,545.6934755539327
3830.8916,0.6599535818094726,737.4605694688169
3831.7751,0.6533299828058641,718.6570124372098
3832.6565,0.6464939970063425,588.4208423853676
3833.5403,0.6394160287234834,812.6527728007264
3834.4224,0.6326465037504044,665.5665991966468
3835.3064,0.6270456986600068,912.5483624534153
3836.1887,0.6233135748208513,871.9790421522615
3837.0713,0.6214824435428704,650.6226586351033
3837.956,0.6211656515147951,649.0848171752644
3838.839,0.6221538340944851,699.5187330589239
3839.7244,0.6247810053900748,646.7603309438101
3840.6077,0.6296486543542206,616.1671553711088
3841.4932,0.6371158086807179,653.0387595305956
3842.377,0.646861858217089,624.1630778832003
3843.261,0.6580460225062309,622.1499040113848
3844.1472,0.6695659481825916,561.1715482065772
3845.0315,0.6803130701740713,590.8999499135431
3845.9182,0.6896541003593845,453.21267126417564
3846.803,0.6973456333484197,713.2632865669335
3847.69,0.7035996721497532,558.8689773895018
3848.5752,0.7087249821139919,621.8929851739899
3849.4604,0.7130973483573497,567.5969330925145
3850.3481,0.7170372952266576,589.5061190693082
3851.234,0.720680472935214,513.0395050389329
3852.122,0.724002175167861,665.7215558510043
3853.0083,0.7268827946091385,505.0068003115024
3853.8967,0.7293744301651841,372.27615120806075
3854.7832,0.7316703129742356,494.04063759174477
3855.6702,0.7339675244592555,467.38754299200684
3856.559,0.7362821843519916,476.68354201775406
3857.4463,0.7384811940101934,506.13620323898704
3858.336,0.7404916421478831,476.79556126309944
3859.2234,0.742325032686756,463.036303378424
3860.1135,0.743937493399288,607.3718039103678
3861.0015,0.7449586865353885,411.97073813072313
3861.8896,0.7448011036789255,513.0611890921268
3862.7803,0.7430866519748628,601.0198985292632
3863.6687,0.7400817634290272,448.5452355446547
3864.5598,0.7365365692105555,521.568173664456
3865.4487,0.733144901862184,443.25060905958475
3866.34,0.729977062295403,494.68339469172497
3867.2297,0.726581639594797,435.48764213062736
3868.1213,0.7223633862319149,562.6273511160496
3869.0112,0.7170789184091502,528.4144216464096
3869.9014,0.7109329103226398,488.87882526820664
3870.7937,0.7044563875319821,717.0295925793473
3871.684,0.6982523930779286,493.12216472871967
3872.577,0.692611061090889,564.9226218260454
3873.4678,0.6875360540626188,539.9163180231672
3874.361,0.6827501416228232,528.4194338218279
3875.2524,0.6779837997851728,645.2934787318576
3876.1438,0.6729830966835871,617.7239580491604
3877.0376,0.6675082279211931,696.6375566975173
3877.9297,0.661354979419713,572.867527335497
3878.8237,0.6543528772276972,655.7464244894028
3879.716,0.6465982144434645,647.9186453720058
3880.6108,0.6383185577910352,648.8772533628523
3881.5037,0.629783707507127,617.4941229743032
3882.3965,0.6209114522039048,730.9528978023243
3883.2917,0.611316604282182,543.0061687513025
3884.185,0.6007215242748938,660.1437891230072
3885.0808,0.5891556869315288,620.718313523268
3885.9746,0.577242135940129,798.2618659670396
3886.8706,0.5657544235854336,895.1725435754913
3887.765,0.5555644232326131,779.343360822266
3888.6592,0.5473383658708664,1086.406444418475
3889.556,0.5416052286261261,1104.5270380149484
3890.4507,0.5387928695991234,913.0286870062694
3891.348,0.5391294202578777,860.1467430941586
3892.243,0.5426406913025229,993.303497238872
3893.1406,0.5490778416137801,899.5744735481596
3894.0361,0.557822722559282,721.3460182635354
3894.932,0.5681020406436453,707.865924562698
3895.83,0.5791190171599896,708.7034409827576
3896.7263,0.5900960924449027,794.9387845509245
3897.625,0.6005916957884252,728.6242017033658
3898.5215,0.6104160481671643,587.9192053204489
3899.4207,0.6198583354343136,787.6764004181603
3900.3176,0.6292844791600718,559.357404443669
3901.2148,0.639060334502499,709.0422043090389
3902.1145,0.6493430725371874,539.13738599534
3903.0122,0.6600120022987103,546.0073645593195
3903.912,0.6708541685240206,567.010858727296
3904.8103,0.6813599623817319,617.3975667005293
3905.7107,0.6910264548863733,406.06563842537304
3906.6094,0.699506325743219,459.8163587684637
3907.508,0.707069448627287,441.6224902732004
3908.409,0.7144504949309437,538.0223080004505
3909.308,0.7222447940990026,405.7645013587951
3910.2097,0.73047969693756,538.9643249040811
3911.1091,0.7385095779822393,523.2684372054679
3912.011,0.7457710674622139,554.5587171894804
3912.9111,0.752130304629935,437.1039055783177
3913.8113,0.7579338067449176,1233.2716709043339
3914.7136,0.7635350532612222,407.78951973255425
3915.6143,0.7690217834330725,363.8418557461176
3916.517,0.7744060474361546,298.8156666453025
3917.4182,0.7796743297997788,442.1779839601861
3918.3215,0.7848274306361027,397.1864951096577
3919.223,0.7896569295619623,432.114939103146
3920.1245,0.793838510682245,382.1383262487727
3921.0286,0.7970310866685018,410.2742263718674
3921.9307,0.7989708121265215,425.52746236353903
3922.835,0.7995536049737857,411.473618185375
3923.7373,0.7988664345960975,398.95208294733663
3924.642,0.7973093416249891,421.5902386991935
3925.5452,0.7955712038748312,424.2831892604868
3926.448,0.7942916886833596,440.370254457591
3927.3535,0.7936616922150256,370.54827485751076
3928.257,0.79331521619795,421.11794161673845
3929.1628,0.7926392200140895,376.79561865081735
3930.0667,0.7912671649100714,418.15951694670514
3930.9731,0.7893092107040315,393.4002023765079
3931.8774,0.7872605838472327,349.9512592750278
3932.782,0.7856403428063993,444.64724385074624
3933.6887,0.7847376557525032,516.3773885453944
3934.5938,0.7845473161982175,384.3204009016333
3935.501,0.7848542255161539,419.65706998718383
