wavl,flux,ivar
3566.9744,15.895866057679845,3.710287095131792
3567.795,15.878668758314909,3.897784366962054
3568.6177,15.838949089805128,4.349723557651768
3569.4385,15.782220548136939,3.726622269295328
3570.2617,15.715351418690021,3.494389669940998
3571.083,15.648408987498296,4.267098217879514
3571.9065,15.590939152159732,3.3630881568355084
3572.7283,15.548763056775186,4.309075990351754
3573.55,15.52076537904737,4.134502196743722
3574.374,15.50173308328242,4.65118016507558
3575.1963,15.486984893889925,4.041786922959038
3576.0208,15.474607510821384,3.965851848795954
3576.8435,15.464243611817698,4.230905072850793
3577.6682,15.453757694197444,3.9859594956315285
3578.4915,15.438944554481541,4.237893470630393
3579.3145,15.416488783501629,3.9803729064275073
3580.14,15.3874688622966,3.9194798568198754
3580.9636,15.358263023258946,4.082806446285415
3581.7893,15.337267272138643,4.656651819865385
3582.6133,15.331386914479015,3.7762213391048047
3583.4395,15.34290641037039,4.301767355207016
3584.264,15.368707783404982,4.741674985642797
3585.0884,15.401077623658997,3.9358991493785287
3585.915,15.429392066247514,3.927442035811096
3586.74,15.44233981800594,4.405642883168924
3587.5671,15.431755323812562,3.846347902012765
3588.3923,15.396139395684502,4.112216576095689
3589.22,15.341966222188978,4.991714089872462
3590.0457,15.281891696014915,4.063234063359872
3590.8716,15.228517038985606,4.282141708211261
3591.6995,15.190329790614143,4.616973621524869
3592.526,15.170034841356319,4.332510514804556
3593.3542,15.163798693328994,4.883429094038645
3594.181,15.161998822905423,4.208873563452001
3595.0098,15.151645786577356,4.131131985193108
3595.8367,15.122439986207471,4.78242036075825
3596.6638,15.072599604322987,3.9259080573991434
3597.4934,15.009973701056559,4.7278023205269735
3598.3208,14.948269580357035,3.9582371154208427
3599.1506,14.899259547406295,3.939409848188533
3599.9788,14.869329614721146,4.529591332745051
3600.8088,14.85714028861484,4.069461111172699
3601.6372,14.856072309280716,4.84458187085077
3602.4678,14.858419900694742,4.435921821481892
3603.2964,14.86026889018256,4.755078688515414
3604.1252,14.863052787479248,4.03381333761025
3604.9565,14.870305276340869,5.2751971328856895
3605.786,14.882418233479582,4.213474412619157
3606.6172,14.894924891083356,4.0719628373945245
3607.447,14.901824240617437,4.851425842226801
3608.2788,14.9005491655084,4.296871271570654
3609.109,14.892191340540197,4.911245535369934
3609.9392,14.877150003216514,4.403434732716412
3610.7717,14.852189190634833,4.407262914042548
3611.6023,14.813868032853,3.7694605751737535
3612.435,14.763943150465932,4.444965107400015
3613.266,14.711566898379052,4.71738019639495
3614.0994,14.667116927726315,5.097239710288839
3614.9307,14.635943121696142,4.8437609696364845
3615.7625,14.615111028906348,4.614975275062937
3616.5962,14.597534100226682,4.677570025542487
3617.4282,14.5775069624417,4.270562214128738
3618.2625,14.55293303624906,4.280967219370467
3619.0947,14.524638009100402,4.974938704370209
3619.9292,14.494573408811267,5.05846305306214
3620.762,14.466673152433518,4.249521840026057
3621.595,14.446118611657305,5.100072435884863
3622.4302,14.436612893936434,5.264060889045319
3623.2634,14.436709458831983,5.036728481248182
3624.0989,14.43944526200676,5.047505281982542
3624.9326,14.436135557724013,5.250209817503872
3625.7686,14.420807019349361,4.647949805919166
3626.6028,14.392763616322949,5.048672996648862
3627.437,14.356164596393882,5.170281838946395
3628.2734,14.317201607578573,4.948918421064896
3629.1082,14.280031777631086,4.9411896512975595
3629.945,14.243301082233568,5.114592218213091
3630.78,14.203071563622208,4.65725001270374
3631.6174,14.158010618614641,4.758151190827362
3632.453,14.113717683302177,4.944500689199017
3633.2883,14.078495061626143,5.182486681532823
3634.1262,14.056372639067632,4.749530298436553
3634.9622,14.04322128477276,5.3674101802780525
3635.8005,14.029464384724864,4.852563906936857
3636.637,14.007330222837632,5.279686498304604
3637.4756,13.9748607183393,4.851650884466258
3638.3123,13.935576714708098,5.363717857834137
3639.1492,13.894373364507498,4.867792285303915
3639.9885,13.85512794017113,5.349348728755707
3640.826,13.820852931823591,5.44562544245875
3641.6653,13.794246216855424,5.719851704126929
3642.5032,13.778821074358065,5.28662745518145
3643.343,13.776465659495777,4.93076917594853
3644.1812,13.783885468237806,5.347764750979231
3645.0195,13.791171766950809,4.855501845063628
3645.86,13.786482744689152,5.57869143613009
3646.699,13.764218254242687,5.535233721867561
3647.5398,13.729121095394149,5.627707349227999
3648.379,13.692950185627996,5.102146406444925
3649.2202,13.665926466880695,4.467222695629674
3650.0596,13.651402018519962,6.046865215392792
3650.8994,13.644942240847985,5.21635510903231
3651.7412,13.638670781214355,5.028931260079879
3652.5813,13.626775392100596,4.825635797171519
3653.4236,13.609109087504114,5.948942218425151
3654.2642,13.590737302722378,4.947275271106768
3655.1067,13.57675894567434,5.447529196962907
3655.9475,13.567470233841972,5.622224340049108
3656.7886,13.557948736663112,5.003407243662763
3657.6318,13.543498303479307,4.872349147232597
3658.4734,13.525080546081773,5.12265820195908
3659.317,13.508262793679561,5.247675192965164
3660.1587,13.496973694178875,5.376508963296671
3661.003,13.487811733055006,5.852680613432801
3661.845,13.471719027351567,4.309020322450163
3662.6875,13.440937079742461,5.4812937221454
3663.532,13.395375841781298,5.467422259302249
3664.3748,13.343179973019875,5.701861024419161
3665.2197,13.294456028737923,6.336626052282034
3666.063,13.256318474083399,5.767808993454107
3666.9084,13.230623535294232,6.067858072560736
3667.752,13.216705702583415,5.83684051731983
3668.5977,13.212323927616035,5.8385682651407995
3669.4417,13.21366562063532,5.997348511925049
3670.286,13.215905669245743,5.1336823602201545
3671.132,13.216093201108382,5.883098212829873
3671.9768,13.21498862553855,5.955850841464036
3672.8235,13.21494870001816,5.922458652706816
3673.6685,13.215775059776343,5.707307357157394
3674.5156,13.213277063936696,5.611743837982667
3675.3608,13.202182759454738,5.6343995789501635
3676.2063,13.180137976395317,5.7362871359628524
3677.0542,13.14912029325105,5.456797717496487
3677.9,13.11443382027812,5.526680519039212
3678.748,13.081854546409472,5.867162905933426
3679.5945,13.05634126778156,6.3225009391942475
3680.4429,13.039533645834133,7.245739736013478
3681.2896,13.028821644189293,5.420098056688812
3682.1365,13.017999613581058,5.332140166964373
3682.9856,13.00112111328285,6.426290580591227
3683.8328,12.976460929769816,6.338730702479194
3684.6824,12.946672434613193,6.776145546253046
3685.53,12.916297081880396,6.110515038764418
3686.38,12.888028253082426,5.064778857175594
3687.2278,12.862762135574965,6.246188494873913
3688.0762,12.841138502743117,5.774779165199954
3688.9265,12.825988016204471,6.708787376024666
3689.7751,12.822080960375935,5.971626115604331
3690.626,12.83288410333202,5.639698878057203
3691.475,12.857142114433625,5.5658479102580145
3692.3264,12.888435026581119,5.776690101660827
3693.1758,12.917462035142519,6.196920813480771
3694.0254,12.935819199600827,5.886128221438417
3694.8772,12.93706748051296,5.929111494039047
3695.7273,12.917004575043716,6.786527184284056
3696.5793,12.874868979300413,5.800704005880226
3697.43,12.816098227197811,5.956665927837065
3698.2825,12.752058692165946,5.484066636177018
3699.1333,12.696631469119863,6.043670950401153
3699.9841,12.658461683456375,6.07013815296472
3700.8374,12.637235610953411,6.967454526202197
3701.6887,12.625215401553561,5.62905418008318
3702.5425,12.612653232474281,6.045618146025981
3703.3943,12.593887531572275,6.4649861419671035
3704.2483,12.569201477369056,5.9008222878001
3705.1003,12.543505749315992,6.271896069157293
3705.9526,12.522541266404188,6.135053555021455
3706.8074,12.509926419302854,6.580081380157949
3707.66,12.505053960315061,5.853142799590204
3708.515,12.502770524737812,6.3168111365376705
3709.3682,12.496540919431025,5.835114097006087
3710.2234,12.483286180875456,5.983582600849849
3711.0771,12.466201627014817,6.208151026649795
3711.9307,12.451501523106423,6.242408430439099
3712.7866,12.441446391412915,5.766062168552051
3713.6409,12.43024140641062,6.3239199287707075
3714.4973,12.407311647390342,6.92384924368955
3715.3518,12.366046195637944,7.056788036117517
3716.2085,12.308800910017528,6.75315294264009
3717.0635,12.245834470657009,6.5238201791839545
3717.9185,12.188199595044532,6.945139381795754
3718.776,12.143167220297006,7.231399335098394
3719.6313,12.113499757959357,7.37335808209838
3720.489,12.097783295157823,7.306105269291033
3721.345,12.092054437374674,6.324954335866531
3722.2031,12.090222840904463,6.477622407833589
3723.0593,12.085840086389954,7.286783559428665
3723.9158,12.074696816898241,6.454740183776537
3724.7747,12.056994671310052,6.770528153321673
3725.6316,12.037098288720797,6.956056752218847
3726.4905,12.019470483939312,6.311601849909793
3727.348,12.004578574367397,6.654090580135726
3728.2073,11.98774958675693,6.441688996315884
3729.065,11.963644159272121,6.607762836180496
3729.9229,11.9318553258752,7.168277346139041
3730.783,11.899080721785342,7.063851045102227
3731.6414,11.875512346793515,7.869998704074022
3732.5017,11.867638199593719,6.638064049550547
3733.3604,11.874676507052058,6.657524884071564
3734.2214,11.889939818956789,6.3325605097889985
3735.0803,11.905040021327466,7.088490215257668
3735.9417,11.913348168208941,6.114565094335676
3736.8013,11.911042269212206,6.990669251461673
3737.661,11.89818884460044,7.265430798118307
3738.5227,11.87920881637936,6.845115866549241
3739.3828,11.861686181661392,7.241308688713728
3740.245,11.852159296702085,7.4156610531354765
3741.1055,11.85261680305937,7.6691641208124235
3741.9683,11.860024172569732,6.142137916738174
3742.829,11.869330667166984,7.152457051424895
3743.69,11.876460478031285,7.2972778753043395
3744.5532,11.878648705104107,7.710201478295358
3745.4148,11.87366028228708,7.005486534072732
3746.2786,11.860272644899085,7.136921827587014
3747.1404,11.839840103989426,7.629984979156305
3748.0044,11.816113154273387,7.080249381542895
3748.8667,11.793140510355354,7.00278932834393
3749.729,11.771506659398858,7.11503194164643
3750.5938,11.74695594567202,7.877135681651723
3751.4565,11.713105655930464,7.3513546950207775
3752.3215,11.666642043074336,8.355876673021013
3753.1848,11.61250649393229,7.55338323198383
3754.0503,11.561895734821205,9.1573078029317
3754.9138,11.526450338831262,7.633495174693549
3755.7776,11.510740926381228,7.596591030443732
3756.6438,11.51139417067549,7.937226664198055
3757.508,11.520749783056385,7.772390032950908
3758.3745,11.5318414600776,8.114206786948468
3759.239,11.540471294597225,7.8073633637434
3760.106,11.54440850332472,7.258788180197883
3760.971,11.541590608414458,7.079342260708452
3761.8362,11.53022235454128,8.454990580194705
3762.7036,11.510291430978492,7.211826425615817
3763.5693,11.485013445910342,7.826662112699544
3764.437,11.459530489386204,6.931480900636601
3765.3032,11.43834992554141,7.773155953522608
3766.1714,11.422210304485299,7.798444336102523
3767.0378,11.408141394059463,8.159921998165839
3767.9043,11.391943340809556,7.425145893150083
3768.7732,11.371758211470736,7.307902509635769
3769.6401,11.349391924034597,8.349031386462935
3770.5095,11.32796145434066,7.063928677199785
3771.377,11.309744911292881,7.396621952003704
3772.2466,11.295185056701534,7.304699565242663
3773.1145,11.284098697032332,7.69360581616596
3773.9824,11.275729119768904,8.162877260550182
3774.8528,11.268603290433072,7.617207364817543
3775.721,11.261377647154518,7.878809287801662
3776.5918,11.254383620813657,8.126327408930358
3777.4604,11.249777371405566,8.49677208742545
3778.3315,11.248477116902484,8.323514172968373
3779.201,11.247078677537292,7.677453908393889
3780.0703,11.23836101638969,7.745749958419335
3780.942,11.215967699205937,8.325082386442189
3781.8118,11.179572961028398,7.198373744965881
3782.6838,11.13508406111492,8.229228835412556
3783.554,11.09101980594092,7.324119729865302
3784.4265,11.052667599657646,7.925760494267691
3785.297,11.021229961191441,8.084169502408296
3786.168,10.995258789330691,7.900474569264324
3787.041,10.973759607433788,8.816089388481208
3787.912,10.956908239213135,7.879145047164855
3788.7856,10.944658934067672,7.796289025507111
3789.6572,10.936410152122031,8.922994655955629
3790.531,10.931306765416643,7.6404306750180275
3791.403,10.928987733103865,8.43338797805243
3792.2754,10.928719984987428,9.16245626746436
3793.15,10.927873092761567,8.268512835943731
3794.0225,10.921725710055323,8.264923428890054
3794.8972,10.905858504070018,8.386180912890389
3795.7703,10.879657476727537,8.95611344847712
3796.6455,10.847054743678246,8.038023191643589
3797.519,10.814451668081658,8.392185598896681
3798.3926,10.786358507689794,8.989026354387077
3799.2686,10.763707863722265,9.089016199851004
3800.1426,10.745437062030762,8.789468800390404
3801.0188,10.730962367841741,9.54506330157845
3801.8933,10.721533120739766,8.97982496707206
3802.77,10.717793955348561,8.294636573685647
3803.6448,10.71710391259298,9.825980827394012
3804.522,10.713867641371158,8.494603153098385
3805.3972,10.703753114453592,8.330138589751451
3806.2727,10.687337461686667,8.522328627114709
3807.1504,10.669428506373416,8.23587515943832
3808.0261,10.655249586435481,9.914687883026117
3808.9043,10.646891031973077,8.302769996956505
3809.7805,10.643248443545941,8.959026218100174
3810.659,10.641601599575953,8.662699373163152
3811.5356,10.639873116166266,8.798300870315943
3812.4126,10.63798548650465,8.723564414192433
3813.2917,10.63759559976874,8.682669645860837
3814.169,10.639947469415079,8.960089974371842
3815.0483,10.643339585543933,8.704884826508207
3815.926,10.642423644660903,9.098672107136574
3816.806,10.630360749963847,7.897788236548333
3817.684,10.602749065747668,8.734559879142775
3818.5623,10.560793873001103,8.75109616168634
3819.4429,10.511917216557968,8.375048723957496
3820.3215,10.467487147997629,9.73144431041095
3821.2024,10.436862358190318,9.542143321736011
3822.0815,10.423711834453336,8.308540687313426
3822.963,10.424544499155886,9.897504613529057
3823.8423,10.431548283017635,9.378680757841694
3824.722,10.436448627954078,9.364072942903773
3825.604,10.433572943681158,9.486771673577591
3826.4841,10.42114353015787,9.816527069275795
3827.3665,10.400552366276658,9.574404281012542
3828.2468,10.374956442361093,8.88719358312462
3829.1296,10.347780472073381,9.700088938439073
3830.0105,10.322844484894548,8.99737230832086
3830.8916,10.303001742404009,10.169620360806563
3831.7751,10.288203516371631,9.213680622326203
3832.6565,10.274189782860908,10.59578112348132
3833.5403,10.254586366828782,10.529835362403691
3834.4224,10.226529497565675,8.5073510359789
3835.3064,10.193331640224958,10.58824755929403
3836.1887,10.162141833368445,8.667647962476256
3837.0713,10.137781548590166,11.211239260196246
3837.956,10.120294161257638,8.407863436107458
3838.839,10.10717219288887,9.796558301249945
3839.7244,10.096710979965726,10.918707655987067
3840.6077,10.089490566175664,8.84607843130364
3841.4932,10.086718444519464,10.081806123441659
3842.377,10.088472567283697,9.829293023292452
3843.261,10.093264586494387,9.812631202825902
3844.1472,10.099105602719236,9.339325846875683
3845.0315,10.10431551163061,10.679322551609989
3845.9182,10.10753562129224,10.686921514697907
3846.803,10.107552505676294,8.70973499570054
3847.69,10.10431964885987,9.370547729546653
3848.5752,10.1000054962755,9.893982129259882
3849.4604,10.098090837323271,9.92175619185692
3850.3481,10.100676483265127,9.231850834040532
3851.234,10.106365397103138,9.151355570499257
3852.122,10.1109754637491,9.957430510510795
3853.0083,10.110287811729672,8.945890762220035
3853.8967,10.102602615160006,9.442501170438689
3854.7832,10.089096850324847,10.505544361749509
3855.6702,10.07227117947801,10.35659949348809
3856.559,10.054578472042982,9.299150985070222
3857.4463,10.038145744111839,9.951256997706158
3858.336,10.024513057804594,8.937644891118127
3859.2234,10.014559636049453,9.619018428872003
3860.1135,10.007945001845085,9.072385642826966
3861.0015,10.003713045880419,10.424692454206225
3861.8896,10.000822746729838,9.346172344760218
3862.7803,9.9984282692496,10.173914925961364
3863.6687,9.995661925727086,10.208261998233866
3864.5598,9.991379826850661,8.693610532416852
3865.4487,9.983790341534979,9.744912789021896
3866.34,9.969539336757508,10.122507067330442
3867.2297,9.944263553762243,11.152356903751674
3868.1213,9.905303532222122,9.615916209280892
3869.0112,9.855698271208418,10.736139777308132
3869.9014,9.80337729508216,11.167353823252142
3870.7937,9.756417243760655,12.275471270673437
3871.684,9.718479999688835,9.668935282916424
3872.577,9.687864478782172,9.03629787388922
3873.4678,9.661789881052403,11.31604912469116
3874.361,9.638426450220503,10.396540578573232
3875.2524,9.61681175509438,10.446404543593307
3876.1438,9.594484673937517,10.580613470274011
3877.0376,9.567508874064632,11.329106644736711
3877.9297,9.532991228218727,11.34739802373931
3878.8237,9.491017497379003,11.167112980689387
3879.716,9.445271528642614,11.919237978997447
3880.6108,9.399907150851273,12.413239895087472
3881.5037,9.357385357515989,11.1320886772267
3882.3965,9.31654097708915,11.324698805096006
3883.2917,9.27436384949979,10.455989888344137
3884.185,9.229159966921278,12.049551194411146
3885.0808,9.181477383688613,12.525638956969308
3885.9746,9.134167340923232,12.210848882105354
3886.8706,9.089506684829852,11.765150033676264
3887.765,9.04939553026933,12.39558990825136
3888.6592,9.015805459828796,13.878494984728144
3889.556,8.991905978532293,12.433923590050691
3890.4507,8.980802400784931,11.975323660982678
3891.348,8.982620905430048,13.375894742709965
3892.243,8.993741186728599,13.133838141168768
3893.1406,9.008471646689324,12.622444738256656
3894.0361,9.021639081733916,13.999474810226237
3894.932,9.030639042842848,12.566434750013498
3895.83,9.03555587448002,13.18303997719106
3896.7263,9.038757945770387,11.463493296552482
3897.625,9.044576564365453,11.759230117824602
3898.5215,9.05848464144182,13.369738611485612
3899.4207,9.085632971179807,11.687208018751198
3900.3176,9.128246764780318,13.87031554196632
3901.2148,9.18469673944681,12.58159767542636
3902.1145,9.250014305385262,12.384847952484273
3903.0122,9.317367531856453,12.137110162983355
3903.912,9.381058430640776,13.486054826332069
3904.8103,9.435993303428845,11.782703628420222
3905.7107,9.47883553552484,11.41160190040716
3906.6094,9.507828680381111,11.187648305821877
3907.508,9.524572587771845,10.970575478444545
3908.409,9.533224336845164,12.03701138343288
3909.308,9.538069202296766,11.942604616427198
3910.2097,9.541193676174258,12.024062440035374
3911.1091,9.542280548169867,9.95566192938301
3912.011,9.54057823833136,10.944070760954316
3912.9111,9.536398116916823,11.663289606501491
3913.8113,9.53081866945762,13.193811995301948
3914.7136,9.524398492710427,10.946147486804366
3915.6143,9.516505578806532,10.753092130455075
3916.517,9.50573306337675,11.000557873106068
3917.4182,9.491527090848827,12.19974566679198
3918.3215,9.475434843328255,11.246149161486246
3919.223,9.461484896642352,11.389105273496295
3920.1245,9.454269674973913,11.854948115770465
3921.0286,9.456550056549808,10.983928487739695
3921.9307,9.467342372429522,11.855124305504367
3922.835,9.482008057405684,10.23034276676604
3923.7373,9.494139815766538,11.513916695531663
3924.642,9.499057560783331,10.180013171209819
3925.5452,9.496354669869381,11.492480258339704
3926.448,9.490119194644247,10.954579433935672
3927.3535,9.485894540616878,11.469963977661967
3928.257,9.486775600526858,11.678863624001913
3929.1628,9.491135733304548,10.903977614267134
3930.0667,9.49355302605894,11.120195986601676
3930.9731,9.48807937525189,11.556146550103382
3931.8774,9.47176363998231,10.493139552354645
3932.782,9.446118673007032,11.02856424589866
3933.6887,9.415647916976823,11.462318359771027
3934.5938,9.38495248678558,10.903408119144359
3935.501,9.356104756879532,10.832020558477284
3936.4062,9.329639881606075,11.728386172084113
3937.3142,9.305885339171505,11.726622772551261
