wavl,flux,ivar
3566.9744,2.063002598778853,249.91301907780996
3567.795,2.066393414460239,172.274341614976
3568.6177,2.069598146468409,179.65233562341723
3569.4385,2.071092336352755,183.3418931749742
3570.2617,2.06932227297336,230.38034707279706
3571.083,2.0637859471177626,194.1979003724608
3571.9065,2.055833626835118,221.028916364089
3572.7283,2.048231565503603,269.2841894631943
3573.55,2.0433653876708497,213.81764120355498
3574.374,2.041948376172946,191.40082327550363
3575.1963,2.04305757197396,202.1094193767241
3576.0208,2.0452158840671673,280.70859268213536
3576.8435,2.0473297639028667,206.29013875530907
3577.6682,2.048825080295679,228.19821959109635
3578.4915,2.049231203529636,197.9039033826259
3579.3145,2.048037521427235,222.72426432831753
3580.14,2.044930969895417,196.83365517766023
3580.9636,2.0401740941151787,200.059023246388
3581.7893,2.0345986699971017,243.31692794319312
3582.6133,2.0294440131710143,238.84218816642996
3583.4395,2.0258700868184216,260.911435481324
3584.264,2.0245084501294492,271.9179603256487
3585.0884,2.0249286668830027,211.0335193706941
3585.915,2.0257720848395873,210.9288366038415
3586.74,2.0255488892899494,194.95733409346033
3587.5671,2.0235543963285414,219.46876475291373
3588.3923,2.020027591202454,227.07769582356508
3589.22,2.015473382490597,242.80411089596106
3590.0457,2.010153934159073,216.79736101423373
3590.8716,2.00415546171762,182.81089188082075
3591.6995,1.998029284576958,193.65599432095127
3592.526,1.9930959133600863,203.35034634506655
3593.3542,1.9908250607373659,263.29671686814305
3594.181,1.9918953797461136,219.56285918092505
3595.0098,1.9955111136497992,234.94216750951358
3595.8367,1.9996956432222373,215.40648565251314
3596.6638,2.0024246944359816,225.71004280836286
3597.4934,2.0025824732834256,213.019443788562
3598.3208,2.0001602930076965,237.56096654469894
3599.1506,1.9957345625852498,228.63943952625482
3599.9788,1.9900132726281399,213.11696337421031
3600.8088,1.9836647457336631,284.9575993342897
3601.6372,1.9774909521828672,241.2082486478572
3602.4678,1.9722876915660914,220.58766083289927
3603.2964,1.9688427628857033,267.86379126995257
3604.1252,1.9677310566353738,227.4817235555956
3604.9565,1.9691403888124033,217.3711952933738
3605.786,1.9724434319732864,225.3304103547031
3606.6172,1.976068270288607,218.38672070059917
3607.447,1.9780554419392842,210.59786960994737
3608.2788,1.977379975963063,217.41095753165553
3609.109,1.9748487135967843,211.83834857695672
3609.9392,1.9725662388074696,232.81819494570595
3610.7717,1.9722311384031908,209.62696450667852
3611.6023,1.9738353997893994,220.85092381553068
3612.435,1.9759172380052064,261.98797660059984
3613.266,1.976820777357854,191.35614779395982
3614.0994,1.9756853762945312,292.3784120830101
3614.9307,1.9725625283758728,220.06223090982203
3615.7625,1.9681062461520695,235.96871630975122
3616.5962,1.9633023570304649,227.89653812058293
3617.4282,1.9592321705327322,221.1501402228563
3618.2625,1.9566039792070793,246.02610650209778
3619.0947,1.9554323658971613,211.6427479344995
3619.9292,1.954954243951723,222.92211607163378
3620.762,1.954212642003322,211.06349185053259
3621.595,1.9528684136567331,207.10317967680095
3622.4302,1.9514884733086215,259.851001170891
3623.2634,1.9508418583673055,233.3110244075713
3624.0989,1.9508010667218094,214.4963579213287
3624.9326,1.9501145700326286,228.1782653826582
3625.7686,1.9473385735368987,221.35630199662063
3626.6028,1.942068856720858,193.06095459397997
3627.437,1.935249145377177,215.76643252404784
3628.2734,1.9284865038342551,235.05123092871224
3629.1082,1.9231629212665606,232.1272165222877
3629.945,1.9198972828897474,278.6128440809921
3630.78,1.9188863295698562,208.63993162803325
3631.6174,1.9202646282164444,224.31793771977092
3632.453,1.9241185496520792,260.3885109098188
3633.2883,1.930059973164267,237.19408860255675
3634.1262,1.9369243951459834,219.3978221467282
3634.9622,1.9429064343366642,235.06462034437652
3635.8005,1.9462749567634445,262.27234007791475
3636.637,1.9458634333868363,236.65496834681778
3637.4756,1.941560818824221,209.7598383578516
3638.3123,1.934508363259942,265.915237287287
3639.1492,1.9267862455156202,261.79646851389913
3639.9885,1.9206297932665797,236.02089791009587
3640.826,1.9174759988891839,263.2164899108691
3641.6653,1.917310770136155,246.7579517223578
3642.5032,1.9190163589242204,207.94813188383839
3643.343,1.9212385816138637,243.78743285386406
3644.1812,1.9231713932987984,214.30378432174894
3645.0195,1.9247069873051346,208.53397959712382
3645.86,1.9258569300330588,245.66373614302674
3646.699,1.9261457485839948,227.46448363613715
3647.5398,1.9246738658799045,236.69068464048854
3648.379,1.920853131478744,232.85440311178684
3649.2202,1.9151016415926325,235.2461593301612
3650.0596,1.9089507117669269,261.1384787586333
3650.8994,1.9042641691041144,319.00193780403407
3651.7412,1.90241073965708,248.02954650217117
3652.5813,1.9036686531342772,243.607732260955
3653.4236,1.907149102678922,238.60078492202996
3654.2642,1.911193836370462,252.16066481048665
3655.1067,1.914125273542681,237.50640690632537
3655.9475,1.9148139578436894,219.93967753776488
3656.7886,1.912894224013972,208.3075685113023
3657.6318,1.90845709576677,236.3749999984074
3658.4734,1.9018549720887035,238.40042072800162
3659.317,1.8937213235795123,217.2972893574047
3660.1587,1.8852783736533834,264.8645156315519
3661.003,1.8779794282329791,250.18230767840834
3661.845,1.8729778053330337,248.0301703846007
3662.6875,1.870427751337146,252.57093617954874
3663.532,1.8696444097280558,270.7647309290992
3664.3748,1.8696754152713884,255.42488898316503
3665.2197,1.869950557628404,231.35143473570682
3666.063,1.8705702265053359,280.8269379606362
3666.9084,1.8720323711797446,279.8485030177818
3667.752,1.8745251287919067,285.51982789268965
3668.5977,1.8773760712433274,276.19283615575483
3669.4417,1.879085214843703,262.1724072255065
3670.286,1.8781509236550968,250.90302191693613
3671.132,1.873966172175264,223.38005662455623
3671.9768,1.867272099088377,213.54153168527245
3672.8235,1.8596917472273964,254.88832238836687
3673.6685,1.8529538457288757,269.42905028833735
3674.5156,1.8480621647367128,248.50942182024062
3675.3608,1.845210072232496,243.0209656249125
3676.2063,1.843880211320741,238.95793307425552
3677.0542,1.8431497664053431,293.1899834951533
3677.9,1.8419524399609712,238.00630567474607
3678.748,1.8395411264484027,264.9029730072925
3679.5945,1.836134665710651,243.02598306905554
3680.4429,1.8330897055924453,340.23685676472354
3681.2896,1.8322716608699487,240.85274502025533
3682.1365,1.8347306490731012,309.0489147751332
3682.9856,1.8398689193698001,293.51633988805133
3683.8328,1.8456703877807354,202.719084670395
3684.6824,1.8499610976679806,277.9302990207461
3685.53,1.8513320624693252,260.4224023469652
3686.38,1.8494667259198296,228.24431118138511
3687.2278,1.8449325487109485,225.5516152904924
3688.0762,1.8390513646615754,293.1924735101981
3688.9265,1.833728620986328,282.1638650657697
3689.7751,1.8307883547874209,278.0369773459064
3690.626,1.8308708273672938,286.1165802597597
3691.475,1.8330370662117712,246.6262532182829
3692.3264,1.8354818584168666,284.2951044263282
3693.1758,1.8368009285051148,255.35275290454211
3694.0254,1.83671690781095,271.06148619628834
3694.8772,1.835670355555788,267.23794720480373
3695.7273,1.8340444193841279,244.3097960420624
3696.5793,1.8318785861771747,282.7510673871662
3697.43,1.8293569017099367,245.74374074814045
3698.2825,1.827229332575318,276.1550345999705
3699.1333,1.8265181740261933,247.00852262653163
3699.9841,1.8275727786912883,242.07647416136976
3700.8374,1.8296251538764212,248.54933562395496
3701.6887,1.8313399825771004,283.9496180306077
3702.5425,1.83188828637898,273.7800945417435
3703.3943,1.831316921713091,254.04569050896998
3704.2483,1.8299925625370344,275.6312132303338
3705.1003,1.8278626559278282,258.09582785312756
3705.9526,1.8244221935952647,230.36262910944174
3706.8074,1.8194079587725969,248.8425143883828
3707.66,1.8133948897961354,263.4188606255625
3708.515,1.8074119493722383,294.2974406488512
3709.3682,1.8022526444279492,264.97542115865787
3710.2234,1.7978996063752313,285.7422059861535
3711.0771,1.7938998728192344,268.48485521839257
3711.9307,1.7899656179978565,287.4242641916847
3712.7866,1.786389587873195,274.5399795063477
3713.6409,1.7839133782857974,308.7509397585284
3714.4973,1.7831859392913023,243.70179698649633
3715.3518,1.7844462320474732,247.48648640364684
3716.2085,1.7874739675362445,273.33035321391316
3717.0635,1.7916975011822083,286.17709823161005
3717.9185,1.796383622763968,319.8947005833347
3718.776,1.8008499580913124,240.54269045621774
3719.6313,1.8046910351015268,260.57526683649644
3720.489,1.8079297999824062,281.5587388485907
3721.345,1.810656946156392,283.6931396808425
3722.2031,1.812670296262119,283.133356005865
3723.0593,1.8132873600975845,301.22913726270036
3723.9158,1.8116795656594122,232.86913069340514
3724.7747,1.8073358154077666,280.5893616281214
3725.6316,1.8005079178371013,248.1123579364783
3726.4905,1.7922216399135849,277.38991908469023
3727.348,1.7841158413530673,260.12292801990554
3728.2073,1.7777077649423985,266.6580190537871
3729.065,1.7738177535323223,306.62729481261385
3729.9229,1.7722177871021212,259.7163133910931
3730.783,1.7721281816659185,273.3907804890723
3731.6414,1.7729291065864095,298.9032077889488
3732.5017,1.774521558784426,242.85157494230592
3733.3604,1.777006468950736,275.5268739689218
3734.2214,1.7800718542011602,260.6046788597405
3735.0803,1.7826083573560996,307.51361759193344
3735.9417,1.783163355657108,253.81587121555899
3736.8013,1.7808688403307862,272.3602126018146
3737.661,1.7762113373391661,343.8785684648787
3738.5227,1.770797187133578,301.12630808320193
3739.3828,1.7663684938988116,319.22415414804976
3740.245,1.7637714913304536,277.1734929462887
3741.1055,1.7629430577645961,277.66663072011823
3741.9683,1.763411959111234,268.5738291198653
3742.829,1.764690296256631,297.9658090495231
3743.69,1.7661812625277769,288.30589989644216
3744.5532,1.7671208320359448,275.0132720205287
3745.4148,1.766929650420934,281.2445154888131
3746.2786,1.7656513592124408,286.4320447345267
3747.1404,1.7638816961401411,290.81730152493515
3748.0044,1.7622424505940193,264.6601807938435
3748.8667,1.7610578330120064,311.7087731125226
3749.729,1.7603915399598624,312.2544858070872
3750.5938,1.760204479898795,292.27656584233563
3751.4565,1.7602723781278105,275.59455364379517
3752.3215,1.7600901971142087,294.03148388867135
3753.1848,1.7591209723418089,291.3553596972228
3754.0503,1.7572545197429048,274.67466918179844
3754.9138,1.7550154801671622,314.1507254856941
3755.7776,1.7531906570005633,267.44645420115313
3756.6438,1.7522775478676336,263.7809405418426
3757.508,1.7521908819866023,288.8254119173685
3758.3745,1.752410367332106,296.1573539918412
3759.239,1.7523724598627424,281.33866118340364
3760.106,1.7517280203754284,290.24957386460477
3760.971,1.7503725072116254,291.9323919795
3761.8362,1.7483999925891336,270.68472555304436
3762.7036,1.7461541455085383,281.4010151801394
3763.5693,1.7442679146752544,289.40729904973557
3764.437,1.7434019229838542,313.5435078043074
3765.3032,1.743848873066733,257.34463930562555
3766.1714,1.745243902314552,270.83247076810596
3767.0378,1.7466578290194794,290.7426670027125
3767.9043,1.7470010780523415,288.12538173918153
3768.7732,1.7454711896182333,283.5233869835875
3769.6401,1.7419650660164996,254.39079172460123
3770.5095,1.7371727643301467,313.26723826070383
3771.377,1.7323079693993018,286.47616468054633
3772.2466,1.7283454904994862,332.58233875624524
3773.1145,1.7255976409019242,312.51384819293577
3773.9824,1.7237631220521903,301.0779390141518
3774.8528,1.722537822344268,299.5966071752862
3775.721,1.7220208997286655,336.0910981850875
3776.5918,1.7225013861440037,332.7072381468101
3777.4604,1.7239223804380166,304.1003883694889
3778.3315,1.7256724681951203,289.16176707944027
3779.201,1.727012381282913,266.78778747672135
3780.0703,1.727760439978866,291.3977274561399
3780.942,1.7283497419869074,323.57803371291476
3781.8118,1.7291647507728807,303.95129460830407
3782.6838,1.7299611082504815,301.6116427593222
3783.554,1.7301195333293047,274.68155514652835
3784.4265,1.7294546878900305,289.0438905197817
3785.297,1.7285022228312419,362.57764394935333
3786.168,1.7279145126003963,279.90478716010637
3787.041,1.7277125513583504,270.63889775559727
3787.912,1.727174067202406,270.32422488545916
3788.7856,1.7253417695208424,273.06412971881275
3789.6572,1.7216412726405828,286.8858061351259
3790.531,1.716151871568734,299.766813657503
3791.403,1.709681055087389,304.33733339715235
3792.2754,1.7034388607624928,324.79996360276544
3793.15,1.698578485447614,314.5044199399619
3794.0225,1.695606923261519,338.96647099501234
3794.8972,1.6939989327143894,295.46976442395464
3795.7703,1.6926926642669047,257.1499219978562
3796.6455,1.6910650810386672,273.99461660942893
3797.519,1.6896343403054532,303.41056421552173
3798.3926,1.6895644319826792,353.43776971851713
3799.2686,1.691440489151403,330.7751139196592
3800.1426,1.6945021509377765,290.7132304705649
3801.0188,1.6972188417351568,287.64156685471113
3801.8933,1.6984579153492245,292.76003573646824
3802.77,1.6981776939145887,282.9173840631254
3803.6448,1.6970755966007738,322.7606508762389
3804.522,1.695896834971002,279.14595373379365
3805.3972,1.6951152714825646,362.5186237785006
3806.2727,1.6949769381273547,326.23833874529095
3807.1504,1.695592405717537,329.3243564853207
3808.0261,1.6968752859364442,300.41414561452086
3808.9043,1.6985619195973656,318.6770037422735
3809.7805,1.7003471405008734,290.0056024194591
3810.659,1.702063016823367,281.61390862000724
3811.5356,1.7036406376862288,311.784038707375
3812.4126,1.705055453159435,286.0138311048785
3813.2917,1.7062826867766674,298.9243226104928
3814.169,1.7072854025058486,268.6614515685255
3815.0483,1.7079750282259882,262.95024241252355
3815.926,1.7081211955866884,273.02156940693436
3816.806,1.7074033701403801,275.6377949163253
3817.684,1.7056073213806358,284.35954736404534
3818.5623,1.702820014865583,274.7976711397238
3819.4429,1.6994173763479918,281.63435493638116
3820.3215,1.6958799185330007,251.71889750657164
3821.2024,1.6925262628759554,304.64164827675717
3822.0815,1.6895679179826062,295.6769224835332
3822.963,1.6871467857579516,297.4299406149885
3823.8423,1.6853824577443712,342.78283968156876
3824.722,1.6841737283683964,312.2940928753919
3825.604,1.6830365499464146,334.503216665637
3826.4841,1.6810894139043195,287.6134180008999
3827.3665,1.6772995466392953,318.34844718181705
3828.2468,1.6709964774709996,325.57309595275404
3829.1296,1.662133285646079,323.1292004402545
3830.0105,1.6513833099698676,313.8186984787042
3830.8916,1.639679989719649,287.20356217753636
3831.7751,1.6279627488979882,362.49278323619524
3832.6565,1.6171636515995524,322.7906101226389
3833.5403,1.6080021006473526,344.79278417738567
3834.4224,1.601166211947761,386.4394000349063
3835.3064,1.5970641829595915,387.1817091806656
3836.1887,1.5959050614318184,304.67789193563095
3837.0713,1.597626737414352,402.8242552550545
3837.956,1.6018761871779617,399.3866750852499
3838.839,1.6078280272925765,334.08786376186634
3839.7244,1.614303044695545,365.50118433749793
3840.6077,1.6200524154467186,334.1728298874357
3841.4932,1.6244246021776145,334.7971738101037
3842.377,1.6276152788848257,339.64262332921516
3843.261,1.6306286751847912,377.46792148247965
3844.1472,1.6347670939692664,357.92734127710645
3845.0315,1.6410255093487494,315.2082684776503
3845.9182,1.649686497522168,315.6350497338811
3846.803,1.6599312291430295,317.6728176608951
3847.69,1.6701921662338772,331.09522085932366
3848.5752,1.6787116963984814,310.5659850010065
3849.4604,1.6845780371814514,297.000847931176
3850.3481,1.6880361739790528,294.7253254608434
3851.234,1.6901717101798948,290.2482253960875
3852.122,1.6922814611805743,345.8508044758729
3853.0083,1.6951582540628125,304.59201796932575
3853.8967,1.6987594511889856,323.4831254845032
3854.7832,1.7022446302910743,294.1676783695482
3855.6702,1.7046520774636171,308.4462257531281
3856.559,1.705625037973148,321.9606640600771
3857.4463,1.7056680911676596,288.97008095652495
3858.336,1.70562283616373,299.9481232300674
3859.2234,1.7058607539791222,278.78071268212915
3860.1135,1.7060090320747012,309.4752634581971
3861.0015,1.7054151872065977,292.6297421567438
3861.8896,1.7038177706416762,297.3080384762417
3862.7803,1.7015451729812927,332.57570310004957
3863.6687,1.6991780075937375,319.5061964596985
3864.5598,1.696986094694262,312.76131755769893
3865.4487,1.6947400732728033,292.5808731440428
3866.34,1.6918314680565945,317.47440836366866
3867.2297,1.6877384813876637,339.01712873529976
3868.1213,1.6823117300549124,347.10533770010477
3869.0112,1.6758192617440264,329.07008637211675
3869.9014,1.6685236320708206,323.12592139728906
3870.7937,1.6604605822704908,318.4236078112322
3871.684,1.6516468888819342,341.0608727546875
3872.577,1.6422300528469427,334.02952018856735
3873.4678,1.6326927737424426,318.90579097160975
3874.361,1.6234671826738358,336.5283010473614
3875.2524,1.6149331348392055,291.58051756660046
3876.1438,1.607153838196122,346.9033392433926
3877.0376,1.5998638380380665,368.01048573555926
3877.9297,1.5925804035879743,321.89854435108214
3878.8237,1.5847677620080538,339.20351788954355
3879.716,1.5762379525553754,326.4830875144439
3880.6108,1.5669994907078322,353.37627469370443
3881.5037,1.5571975454133697,359.1392862555759
3882.3965,1.5468491350149416,382.5113999068253
3883.2917,1.5359901973188625,408.3159664047788
3884.185,1.5249059695340874,341.8376677366141
3885.0808,1.5139258044568797,388.05657235661704
3885.9746,1.5034545420607082,399.42173063677365
3886.8706,1.49359747521524,417.3304400325225
3887.765,1.4844201785431939,410.9894718796848
3888.6592,1.4760854483996677,414.6134979537397
3889.556,1.469152435795752,393.2693597660713
3890.4507,1.4645262364431395,407.02671007838075
3891.348,1.4629621762540412,426.48068734381116
3892.243,1.4648069539682884,414.539356046677
3893.1406,1.4699556845419284,446.59086176886944
3894.0361,1.4780529616301687,423.7391686234617
3894.932,1.4887930449640974,381.32059096111743
3895.83,1.5019067294696542,428.03321498369155
3896.7263,1.516833009439338,393.32639997129564
3897.625,1.5327612711564906,371.1850172022951
3898.5215,1.5484189387295468,351.4792256634425
3899.4207,1.5627927150393512,360.42976671137853
3900.3176,1.5752953180280465,330.65333351665095
3901.2148,1.586208977206184,344.1581917155595
3902.1145,1.5962136261918871,318.3131135433108
3903.0122,1.6058093765547128,350.0380203928002
3903.912,1.615238189969935,327.8773249098332
3904.8103,1.6244325427719244,318.7609077222875
3905.7107,1.633372755787625,344.5426176041776
3906.6094,1.641991207631932,309.40624329759976
3907.508,1.650377292819819,330.94609272401397
3908.409,1.6588549234529808,335.2227563320821
3909.308,1.6678493343362757,305.8629046306614
3910.2097,1.6775886221552074,329.01232963265454
3911.1091,1.687508959988846,337.67418666182124
3912.011,1.6965958415068474,294.2569098003437
3912.9111,1.70389766893228,324.44178563866694
3913.8113,1.7092469777716521,259.3828597402569
3914.7136,1.7130949948108494,311.00052118554635
3915.6143,1.7160212374343367,319.4902839517717
3916.517,1.7185486014051248,289.5350765599984
3917.4182,1.7211915799439008,311.37789299008824
3918.3215,1.7245220400826886,274.8124114604519
3919.223,1.7288168244755477,302.41729882744335
3920.1245,1.7338234550331793,297.3055643979912
3921.0286,1.7388476532854282,278.7807361436707
3921.9307,1.7431126089064306,292.0083997849237
3922.835,1.7461689972642775,287.41829106648373
3923.7373,1.7479034915398006,282.6755683441661
3924.642,1.7485267213598976,262.28636540796793
3925.5452,1.7484145837608838,248.94275181898522
3926.448,1.7479324784581298,299.99860985845856
3927.3535,1.7471817852516642,276.28571574610385
3928.257,1.7458683943481403,297.0315244659288
3929.1628,1.7434191450688643,287.2226306357044
3930.0667,1.7394098009807382,274.4849861679593
3930.9731,1.7338996324306772,310.7325252368115
3931.8774,1.7275805081081304,307.6904012781894
3932.782,1.721380932946739,330.5611663131351
3933.6887,1.716078760497896,288.0454282535178
