wavl,flux,ivar
3566.9744,0.8810816873329492,978.0682676539427
3567.795,0.877882859612828,1025.6412968377883
3568.6177,0.8715629485625136,946.0206617814422
3569.4385,0.863358443257927,695.3837276499873
3570.2617,0.8554494830814308,1247.9444454482123
3571.083,0.8502549929742094,1238.945522278192
3571.9065,0.8492093286741117,1140.5048553603478
3572.7283,0.8521950341761422,980.1355244680418
3573.55,0.8576390797776137,1433.8327121383682
3574.374,0.8633490596520674,1070.9431303145298
3575.1963,0.8674559378140869,1332.7713116347622
3576.0208,0.8692446683328422,1069.543734977123
3576.8435,0.8691723311050426,1362.6964278274738
3577.6682,0.8682900534342918,1122.4777957222668
3578.4915,0.8673787948043151,959.4646529829246
3579.3145,0.8665362925023825,968.3259070417968
3580.14,0.8654933397235669,1016.6809358683049
3580.9636,0.8642507958145882,1160.5716811827187
3581.7893,0.863327530061453,1422.3044294037513
3582.6133,0.8634288273038886,1260.3050038148153
3583.4395,0.8648774141497192,802.1697202912661
3584.264,0.8674056309639679,1043.594085427176
3585.0884,0.870449779274352,1160.3368329324044
3585.915,0.8735792711795554,1051.183055084257
3586.74,0.8767164048076126,1112.841070351696
3587.5671,0.880135729331501,999.4050289595992
3588.3923,0.8840406177133054,1084.6681679777112
3589.22,0.8881237441221288,1117.5473375917868
3590.0457,0.8912698063860952,980.0255337097303
3590.8716,0.8921437924375432,715.1379990387937
3591.6995,0.8901620333990248,1139.472984798933
3592.526,0.8861193158231233,888.946507280258
3593.3542,0.8816266218957696,1019.7053173019252
3594.181,0.8779787931094906,1003.9483481281916
3595.0098,0.8753689271980165,1068.2332048168912
3595.8367,0.8731961300377954,1131.1971039580378
3596.6638,0.8707244435958705,924.3370729195333
3597.4934,0.8675896950428785,990.3770415563807
3598.3208,0.8639351224461258,1076.582532863366
3599.1506,0.8602699867803637,1266.0497964741025
3599.9788,0.857362342542404,1444.2838479925258
3600.8088,0.855822481366031,1196.0924403745298
3601.6372,0.8557610726270063,1188.1906497146017
3602.4678,0.8567147696234101,1319.4306846641716
3603.2964,0.8581130062028575,1373.2468040257638
3604.1252,0.8598649137958997,1135.3571082439478
3604.9565,0.8624083350547306,1326.5862906446246
3605.786,0.8660763331266731,1164.6298227119578
3606.6172,0.8705149329244379,1227.3880309405854
3607.447,0.8746832642855786,989.067754647176
3608.2788,0.8776024164599239,813.931705093717
3609.109,0.8788188225291363,885.6785070493202
3609.9392,0.8783156438604073,1086.8809687514504
3610.7717,0.8760662998254182,959.8413379088076
3611.6023,0.872074943768744,935.4289920541484
3612.435,0.8668032514031079,1031.738628436678
3613.266,0.8615372157781743,1141.5346162909511
3614.0994,0.8578659807922828,890.344211495304
3614.9307,0.8568176924839018,1110.2166114062002
3615.7625,0.8581043399600771,930.7043033810976
3616.5962,0.8603247508209135,1131.469297653776
3617.4282,0.8618458402890802,1229.4196169304812
3618.2625,0.8618550446381904,1083.7295865642539
3619.0947,0.8607419111856566,1376.8273536052443
3619.9292,0.8596491052244125,910.4155800861244
3620.762,0.8596222319714839,923.111974548989
3621.595,0.8610112107270206,1293.154497311985
3622.4302,0.863471534850959,1119.1828778777078
3623.2634,0.8662114874515723,1298.5646661681988
3624.0989,0.8682748676983276,1324.3778841531143
3624.9326,0.8687030638706527,1140.809120247361
3625.7686,0.866886577014548,1128.3264960708732
3626.6028,0.8628694183612102,1599.6664355667508
3627.437,0.8572999930021383,1797.6980348422906
3628.2734,0.8510486724184667,1356.8986128180766
3629.1082,0.8449290962441883,1170.2479827830903
3629.945,0.8395243241458789,1414.3228898065115
3630.78,0.8353162415647309,1211.9113476840423
3631.6174,0.8324992330984275,1000.0028940331581
3632.453,0.8310164838604153,1250.0536210742303
3633.2883,0.8306685282690427,1052.0658464404698
3634.1262,0.8313292810391746,1557.1709538911
3634.9622,0.8327991858945047,1592.3042783752317
3635.8005,0.8345332092662686,1061.21544244062
3636.637,0.8356870369827032,1242.883833790282
3637.4756,0.8356861731221823,1059.3229353736197
3638.3123,0.8346909112367343,1615.5461063469054
3639.1492,0.8335175777805176,1204.5583793569153
3639.9885,0.8330933984156477,1487.8519448924883
3640.826,0.8339453884307767,1152.6413902693891
3641.6653,0.836035121390992,1096.5046491806836
3642.5032,0.8388799066652916,1304.6983608292078
3643.343,0.841760944946676,1529.8850416621945
3644.1812,0.8438187091835954,1013.1914531134307
3645.0195,0.8443349240079896,878.0967166668705
3645.86,0.8431046353875727,994.1934693616947
3646.699,0.8407423975113679,1895.6034211000062
3647.5398,0.8384493227780001,1110.9242037446425
3648.379,0.8373763975518976,1095.2030067686205
3649.2202,0.8379448823418009,1146.8012654724666
3650.0596,0.8396708981732235,1295.912314072585
3650.8994,0.8414979578852744,1138.2455605797052
3651.7412,0.8423647674536427,1179.6230432979705
3652.5813,0.8416809215304005,876.8034860505146
3653.4236,0.8394933318707444,1015.7914062087059
3654.2642,0.8363207259943756,1353.9794268369933
3655.1067,0.8327732474196599,995.0088648246981
3655.9475,0.8293223297085545,1037.3204762584464
3656.7886,0.8261612404886082,1226.7403536147813
3657.6318,0.8233253455109303,1442.4543864027453
3658.4734,0.8209070959611988,1280.2650522345073
3659.317,0.8191845034291118,1610.914113574955
3660.1587,0.8186455569490966,1217.2958348096993
3661.003,0.8197143968574158,1546.090860258604
3661.845,0.822440221304096,1269.343918866923
3662.6875,0.8263795538767751,1070.0681593438057
3663.532,0.8307149563947196,1179.5557587246328
3664.3748,0.8345017486254018,1131.8523777411883
3665.2197,0.8370742508921795,1153.3286205278625
3666.063,0.8383077984095136,1117.9759050625685
3666.9084,0.8387695096005335,908.8103475353281
3667.752,0.8393597075662436,1081.8454221294849
3668.5977,0.8406993930717169,1438.3019590441072
3669.4417,0.8427040216756979,1124.2789875226779
3670.286,0.8447847418117617,1027.852107039125
3671.132,0.8463705644625024,1155.3884730342022
3671.9768,0.8472430032786141,993.8102856338032
3672.8235,0.8475218059703445,960.1343730760448
3673.6685,0.8474674737093435,1235.928902060772
3674.5156,0.8473484776797997,1217.7376102229775
3675.3608,0.8472945616006441,1400.2001759299608
3676.2063,0.847137950308442,1188.7337869055345
3677.0542,0.8464337894616855,1101.3478689050157
3677.9,0.8447803846074796,1116.9545448041722
3678.748,0.8421897952982708,1237.710419640543
3679.5945,0.839256472157371,1230.5923235658497
3680.4429,0.8368691602242728,1480.0323001931054
3681.2896,0.8357574044380851,1191.9896247692411
3682.1365,0.8359768148113123,1137.5595672970853
3682.9856,0.8368097336561863,1052.2003747205354
3683.8328,0.8371599113564883,1496.9174717420033
3684.6824,0.8362740989968828,1162.0050276766813
3685.53,0.8341701331510721,1288.7566416192133
3686.38,0.8314198836390461,1043.9251963707381
3687.2278,0.8286541123522723,1076.7500785750512
3688.0762,0.8262321376037749,1132.7035488779554
3688.9265,0.824401959958584,1304.788159161185
3689.7751,0.8235466955262122,1181.5313738291031
3690.626,0.8241940459560306,1256.020199572206
3691.475,0.8267868961348737,1402.1946070158851
3692.3264,0.8313159046830315,997.5154524754862
3693.1758,0.8369963970912915,1211.3543267648824
3694.0254,0.8424900294605199,1108.7723426570913
3694.8772,0.8465127820850702,1096.816886477851
3695.7273,0.8485225843653071,1216.149368811409
3696.5793,0.8489640084540027,1111.6461908429276
3697.43,0.8487244772056018,1168.7305014835756
3698.2825,0.8483935132478801,1094.358290342077
3699.1333,0.8478881923262367,1351.4451078375364
3699.9841,0.846724642208395,1173.5735706079922
3700.8374,0.844603299731595,1084.0646037577794
3701.6887,0.841744331670806,1106.515888344142
3702.5425,0.8386020199571385,1148.5295626548957
3703.3943,0.8354282959534127,1232.8800549927948
3704.2483,0.8320335212352331,845.9710133232003
3705.1003,0.8282046096305173,1577.8138262895218
3705.9526,0.8241896873839463,1076.7582206994578
3706.8074,0.8208814891970228,1687.2213696835931
3707.66,0.8193632013606363,1404.1655431326794
3708.515,0.8200794913877035,1264.3793027361762
3709.3682,0.8224272954788258,1325.9555148167533
3710.2234,0.8250052986373604,1091.1827452625746
3711.0771,0.8263123347424268,1048.1945556420267
3711.9307,0.8254861954474481,1044.407573089256
3712.7866,0.8225976251839442,1421.977231057928
3713.6409,0.8185417138131048,1323.9209442424738
3714.4973,0.8144799532491616,1508.2391546753647
3715.3518,0.8113178847712108,1524.8462671612078
3716.2085,0.8093287316393191,1531.1531358846912
3717.0635,0.8083439990489035,1460.5964564583126
3717.9185,0.8081251548670951,949.1152883356519
3718.776,0.808742403652114,1108.1329812858726
3719.6313,0.8105841856727356,1042.7834444414268
3720.489,0.8139774027202185,939.1179041662604
3721.345,0.8185751523792308,1046.1021209779556
3722.2031,0.8232181219905182,1498.195659087957
3723.0593,0.8264375981996224,1095.228733189602
3723.9158,0.8275093137000126,1294.6175292915864
3724.7747,0.8268641140922848,1241.81092260585
3725.6316,0.8256204392135419,1374.868331467106
3726.4905,0.8246754832684894,1082.9201680850326
3727.348,0.8243022028515203,1240.7503533561828
3728.2073,0.8243792185368912,1406.7393976031117
3729.065,0.8247575697717264,1343.4387375589633
3729.9229,0.8252977914731519,1467.8815580391529
3730.783,0.8257017960813581,1171.1731962447045
3731.6414,0.8254580532708157,1428.5088764545785
3732.5017,0.8240137407940138,1189.4393702148705
3733.3604,0.8210576406628873,1277.5530853485932
3734.2214,0.8167081366462985,1675.1570949843638
3735.0803,0.8116236675056222,1335.3968995996368
3735.9417,0.8067735749114705,1194.1328474255567
3736.8013,0.8032624784302506,1288.738856209011
3737.661,0.8019197679806407,1961.1746212865853
3738.5227,0.8030341084690632,1129.3650849009553
3739.3828,0.8061786837107552,1278.8402336271492
3740.245,0.8104125616069805,1231.8928192014262
3741.1055,0.8146299264029692,1315.1899601204752
3741.9683,0.8179278742150645,1258.715588057711
3742.829,0.8196005793022424,1578.1888467077038
3743.69,0.8192364142184843,951.8025079568284
3744.5532,0.8168062860288794,1267.6844008605858
3745.4148,0.812802840306377,1530.0744691620994
3746.2786,0.8081040872922952,1447.8953041891223
3747.1404,0.8038186727691324,1468.3677084218957
3748.0044,0.8009944793787642,1302.4936911521654
3748.8667,0.800461017437609,1395.7705203486871
3749.729,0.8025133335182016,1428.6040926157268
3750.5938,0.8068205852233209,1036.423857866043
3751.4565,0.8125000100513992,1332.2219481250822
3752.3215,0.8184864037613624,1392.921861958801
3753.1848,0.8236609472932235,1443.194172117436
3754.0503,0.8271201263977878,1284.3486930915117
3754.9138,0.8283475082417078,1245.2476764295936
3755.7776,0.8275382878742085,1415.005267506551
3756.6438,0.82552512392879,1272.6675792259584
3757.508,0.8233763399816028,1085.68083546426
3758.3745,0.8217967668314472,1204.6644660890736
3759.239,0.820890445487126,1212.2326475305083
3760.106,0.820307190359644,1089.1950325521002
3760.971,0.8196553271214332,1176.8229350472147
3761.8362,0.8187335907314512,1274.8367463883121
3762.7036,0.8174958271076007,1211.5101636090105
3763.5693,0.8159311864716905,1107.6737996854517
3764.437,0.8140368319763011,1152.723155899057
3765.3032,0.8119181526513004,1279.9269045832273
3766.1714,0.8097491217769583,1119.0001764973226
3767.0378,0.8077059622555901,1214.5210116042185
3767.9043,0.8058809334043826,1362.263911747404
3768.7732,0.8043381889956405,1465.308995849345
3769.6401,0.8032096990807923,1509.5396468343727
3770.5095,0.8027326446671181,1505.361985987497
3771.377,0.8032414553647709,1271.1122074249029
3772.2466,0.804975025612733,1383.8268733705838
3773.1145,0.807777918217493,1609.374793953546
3773.9824,0.8109745460709834,1161.6582407827725
3774.8528,0.8136021279105311,1054.2510095577936
3775.721,0.8149449082297876,1267.3960992575896
3776.5918,0.8150578137985822,1160.109682173192
3777.4604,0.8147485631307221,1437.289505189272
3778.3315,0.8151203218206522,1480.0395828188628
3779.201,0.8169721466018147,1423.7664705304712
3780.0703,0.820455598691952,1085.447793751028
3780.942,0.8251257788809395,1178.8070632280567
3781.8118,0.8301854567168997,1275.422774704698
3782.6838,0.8348607914139419,1515.524394361718
3783.554,0.8384418753773378,1291.07438053064
3784.4265,0.8403328901189796,1224.6290814480742
3785.297,0.8400050728061177,1179.453739043563
3786.168,0.8372525420592748,1381.766014075571
3787.041,0.8324815017536731,1215.4906180428056
3787.912,0.8269084733056444,1339.5745710453411
3788.7856,0.8221359907464045,1329.1913219140451
3789.6572,0.8194587114273044,1214.7967823894658
3790.531,0.8190093080165909,1647.3569170148503
3791.403,0.8196315188154364,1233.6325521592225
3792.2754,0.8194475803116503,1348.1198050617966
3793.15,0.8168292113504609,1161.804773280014
3794.0225,0.8111926831305952,1251.5583824396367
3794.8972,0.8031166389622754,1130.9700937036382
3795.7703,0.7940396217824468,1659.8722215221792
3796.6455,0.7854774706153529,1384.6956039255733
3797.519,0.7786731878183955,1428.0622089763012
3798.3926,0.7743231884183853,1316.9893505728674
3799.2686,0.7727661248144827,1331.7720942746469
3800.1426,0.7740962773474711,1139.2515368784036
3801.0188,0.7781551074628922,1226.7531396757922
3801.8933,0.7844710782659978,1500.4513247906598
3802.77,0.7923453426428566,1390.831538283997
3803.6448,0.8008466523408544,1475.2027703134079
3804.522,0.8090991981272748,1095.9026662714857
3805.3972,0.8162893848110506,1065.0214135219294
3806.2727,0.8219900199235818,992.8339156870413
3807.1504,0.8262036575646211,1083.655561305945
3808.0261,0.8292876122716916,1248.0547806402624
3808.9043,0.8317580403281127,1250.2235295575588
3809.7805,0.8339711269760091,1368.610766094544
3810.659,0.8361491986501703,1083.2767209395756
3811.5356,0.8384443790296329,1271.6126735605976
3812.4126,0.8409150220354183,1278.670549294174
3813.2917,0.8432782012943724,1231.9294125272465
3814.169,0.844893796591586,1125.9522023988231
3815.0483,0.845254988711584,950.1389355142321
3815.926,0.8444466333428436,1245.6653507533517
3816.806,0.8430901195855759,1135.476248208381
3817.684,0.8417995527460246,1345.620260324875
3818.5623,0.8407317342431708,1313.1653867496552
3819.4429,0.8396539645023433,1107.4760654277768
3820.3215,0.8382899156427361,1233.6184070859667
3821.2024,0.8364993413538171,1700.8197404000991
3822.0815,0.8342253771920554,1288.3791448599145
3822.963,0.8312934182184961,1132.5912942846303
3823.8423,0.8274440129578836,1070.5792176800671
3824.722,0.8224658286259203,1207.394581647449
3825.604,0.8163807572494707,1100.319367821897
3826.4841,0.8094830756540156,1345.5298592846063
3827.3665,0.8020182512535821,1397.5580023197906
3828.2468,0.7940808313556371,1308.660207906147
3829.1296,0.7854000637614857,1384.0517305933552
3830.0105,0.7756305335753794,1748.3423136427857
3830.8916,0.764491902078676,1408.4193953297777
3831.7751,0.7521507488105124,1223.9443610577896
3832.6565,0.7394816747946397,1668.5557587647522
3833.5403,0.727605949481802,1666.0558191943264
3834.4224,0.7176502797457284,1562.2621420996416
3835.3064,0.7102381494068569,1736.966752689865
3836.1887,0.7058265139768437,1639.238652884923
3837.0713,0.7049702945273243,1741.188962992968
3837.956,0.7084907234921227,1646.6166352391535
3838.839,0.7169523391992173,1543.3618338032206
3839.7244,0.7300246472434079,1716.66394161939
3840.6077,0.7460311574379043,1705.6217408315517
3841.4932,0.7627216696973995,1309.1638633655207
3842.377,0.7780525698374529,1266.7483934325521
3843.261,0.7911975911003681,1427.0782395228284
3844.1472,0.8023749678554103,1183.5983842323099
3845.0315,0.8121390273970857,1271.527159179113
3845.9182,0.8209276596941205,1201.464887382729
3846.803,0.8287563996234353,1122.7073102176703
3847.69,0.8357587690879945,1444.7700095605137
3848.5752,0.8423698046434014,1221.9498117664857
3849.4604,0.849281906181992,1172.2922153518505
3850.3481,0.8568639004381939,1147.1498144977734
3851.234,0.86471954848464,1118.8248714376718
3852.122,0.8720034438726936,1441.3921044173067
3853.0083,0.8778205118472716,1255.1612780132414
3853.8967,0.8817633836168053,1197.6569227396124
3854.7832,0.8838326171370378,1058.5789449055517
3855.6702,0.8843368481726683,1062.0212818477614
3856.559,0.8837182032767747,964.0888318871514
3857.4463,0.8825291076242783,1139.5134870383615
3858.336,0.8813740689835923,1131.6408415013507
3859.2234,0.8808099924211732,1377.664701197633
3860.1135,0.8811462270805626,997.0926162658503
3861.0015,0.8822824496605128,1033.5219415756274
3861.8896,0.8836761200046208,1121.0135545607595
3862.7803,0.8845389523398036,1051.921090926339
3863.6687,0.884215954891652,952.0901212036463
3864.5598,0.8825457351390534,1039.5944970118335
3865.4487,0.8799110272861895,1112.7082541032653
3866.34,0.8768801582866661,1059.0070011734103
3867.2297,0.8738268755374657,987.62414275985
3868.1213,0.870698738320682,1240.8054803076984
3869.0112,0.8672389573640196,1067.2638062270662
3869.9014,0.8632649108194512,1046.4080002177352
3870.7937,0.8588852551573712,981.9409824097983
3871.684,0.8544674126631887,1246.8366294942482
3872.577,0.8502887730832078,1311.5297658724598
3873.4678,0.8463454766655537,1224.6437987292677
3874.361,0.8422110029351652,1409.7622616085641
3875.2524,0.8373166973378904,1115.609293510674
3876.1438,0.8311777700199299,1239.4748097923505
3877.0376,0.82356817889676,1502.1001486506768
3877.9297,0.8145308110894175,1253.051656245551
3878.8237,0.8040988997087154,1380.7931790746134
3879.716,0.7924009550105283,1367.8394187976094
3880.6108,0.7795475235859642,1474.6250433303403
3881.5037,0.7658324247911953,1587.8892022757168
3882.3965,0.7513515411030968,1650.757237981208
3883.2917,0.7359180483250267,1371.3051337915874
3884.185,0.7192735926256512,1749.6657550208577
3885.0808,0.7011394207376165,1624.2974706555492
3885.9746,0.6819573196329293,1766.2449295757833
3886.8706,0.6628454664122128,1731.9721976104433
3887.765,0.6459762988801839,1751.4341146582376
3888.6592,0.6339167384266995,2662.3021233045806
3889.556,0.62899558305648,2290.8846828559285
3890.4507,0.6323497310995073,2500.24314905395
3891.348,0.643293008969204,1956.911329064987
3892.243,0.6594971657155261,1599.2181001722759
3893.1406,0.6781791255695078,1667.9850240790217
3894.0361,0.6968587166943552,1674.9960576592173
3894.932,0.7142598471067323,1775.0277270256245
3895.83,0.7300845866368092,1459.6579009920947
3896.7263,0.7445522922749861,1516.1072413079316
3897.625,0.7583159906012884,1554.7703875978318
3898.5215,0.7718866446239426,1380.7624940325372
3899.4207,0.7856557599895232,1518.6747411186902
3900.3176,0.7994307097690545,1280.001454800073
3901.2148,0.81279841236025,1428.7374258332363
3902.1145,0.8253679236816537,1058.1032321991959
3903.0122,0.8370367319274014,1231.8728775698823
3903.912,0.8482377342556044,1279.8761740970351
3904.8103,0.859409809619562,1118.2364087940289
3905.7107,0.8707726540063543,1308.1320235005305
3906.6094,0.8818736930342815,1012.7431604463438
3907.508,0.8918695369267033,1070.431548409529
3908.409,0.8999532716648319,1076.8519447204758
3909.308,0.905931746786643,996.790715379256
3910.2097,0.9106061640528773,893.7461161686208
3911.1091,0.9152464815151197,1099.2681684748309
3912.011,0.920896169205079,1162.046857677848
3912.9111,0.9277253340369299,870.3801545704782
3913.8113,0.935196480351491,1070.743805440109
3914.7136,0.9425198700258459,962.928745012336
3915.6143,0.9490166860085638,892.213989007655
3916.517,0.9543755913461582,913.1568353217594
3917.4182,0.9585016018137884,912.2554783532967
3918.3215,0.9615171282909167,836.1472543935105
3919.223,0.9635946761250346,957.2842097120986
3920.1245,0.9649207048695052,848.5149760891737
3921.0286,0.9656253410637724,984.9973884373871
3921.9307,0.9658264323402322,914.4596168344311
3922.835,0.9657069590390858,932.1088602575566
3923.7373,0.9654959463973388,872.4094664870272
3924.642,0.9653682540753353,901.1186212786438
3925.5452,0.9653967408771745,883.7508289931815
3926.448,0.9656038820737014,881.3234604984433
3927.3535,0.9659201679058002,806.0324384101215
3928.257,0.9658411213206354,866.0110779708745
3929.1628,0.964024577802788,916.1222801121434
3930.0667,0.9584299927083998,779.0264348633636
3930.9731,0.9472725665801915,861.7260034489982
