wavl,flux,ivar
3566.9744,0.5095692935368961,419.1953799770382
3567.795,0.5108548683257513,473.1461667013956
3568.6177,0.5122986937502715,342.5322071695687
3569.4385,0.513619814259518,264.9439839759873
3570.2617,0.5142155049395303,474.32388842026387
3571.083,0.5134994180022493,397.94620660286506
3571.9065,0.5113200647313579,309.49935232386156
3572.7283,0.5082164674626962,251.38480105059793
3573.55,0.505239864272536,488.1739324755804
3574.374,0.5034481659625131,673.1948654119636
3575.1963,0.5034049250765151,378.9006125995205
3576.0208,0.5050144526133753,390.5301509322902
3576.8435,0.5077434309471084,273.3755577644046
3577.6682,0.510915249313235,352.8385733429033
3578.4915,0.5137729297624488,343.3495928307632
3579.3145,0.5155307743509683,344.3586067622858
3580.14,0.515477948297381,573.488454669147
3580.9636,0.5133116148340728,405.6284526200069
3581.7893,0.5094271168744234,354.9369965237132
3582.6133,0.5048639765036589,309.5450776312336
3583.4395,0.5007143668936327,558.2752612297741
3584.264,0.49760860226043657,389.2372467724746
3585.0884,0.495464980202106,465.4147434395933
3585.915,0.49380940341413126,505.8268360503417
3586.74,0.49220419903198825,297.43679642975565
3587.5671,0.4904796753996179,254.0669275455477
3588.3923,0.4887829563604222,401.54462449163253
3589.22,0.48735916414854435,516.190829464363
3590.0457,0.4863318647795945,282.2460146801873
3590.8716,0.4855988301406795,455.6509277424189
3591.6995,0.4850482318785978,383.95768843346065
3592.526,0.48475661538624065,477.69515084800634
3593.3542,0.48482044559852544,538.636810358282
3594.181,0.4849635298362222,351.48021758962034
3595.0098,0.4844535923296838,305.80971735739865
3595.8367,0.4825776087421966,507.88101576809925
3596.6638,0.47919259234504075,540.0419450370847
3597.4934,0.4747831630096305,697.8273339386662
3598.3208,0.4701478917755086,901.4616947984979
3599.1506,0.46603084788214416,282.0910377836966
3599.9788,0.46323825210526326,329.4421457638424
3600.8088,0.4625620467374558,492.29052908556883
3601.6372,0.4644763002084144,599.0832283321181
3602.4678,0.46864584017622424,578.1333487524377
3603.2964,0.4738216194237951,282.02873373438564
3604.1252,0.4784656331696403,439.1429253793807
3604.9565,0.48145895383942233,453.18827518703324
3605.786,0.4824330964701822,485.4543702380007
3606.6172,0.48169382414878864,335.43256067711746
3607.447,0.4799140310530219,341.20955838279855
3608.2788,0.4778774013946236,391.4677829372286
3609.109,0.47627493268057075,330.1573189441103
3609.9392,0.4755201905874865,379.16434489780323
3610.7717,0.47571199925668556,372.10418455392977
3611.6023,0.4766008261718624,558.7723249061885
3612.435,0.4776307003942736,516.2229859549406
3613.266,0.4781510830474091,304.67504200869274
3614.0994,0.47777887693240256,435.7341494617168
3614.9307,0.4765648031697621,565.275424089963
3615.7625,0.47483231587129276,463.61673564700453
3616.5962,0.47291898046790826,331.08687556543174
3617.4282,0.4711254734865514,537.6625372201717
3618.2625,0.46978727809566895,348.5560606387271
3619.0947,0.4693139932645544,423.5451809459366
3619.9292,0.46997243758184476,401.1614140250759
3620.762,0.47166294970132605,345.28230314054616
3621.595,0.47391362914983337,540.7289323461792
3622.4302,0.4761627083471128,451.1298622042667
3623.2634,0.4780954154181353,382.5612900570147
3624.0989,0.47976472446817486,381.8692229802941
3624.9326,0.48121656129556506,438.1655621320094
3625.7686,0.48206542629999544,367.38563961380186
3626.6028,0.48141095098228753,240.84346579740168
3627.437,0.4783830169316562,334.7974388511205
3628.2734,0.4728379103537166,938.8845907049965
3629.1082,0.4657435164261464,483.27025661359846
3629.945,0.4587599883680257,554.8530561669177
3630.78,0.45364321330484814,356.5354432873537
3631.6174,0.4514434900476946,717.3483611268921
3632.453,0.45219136087671624,691.2874578317692
3633.2883,0.45479800389876873,363.91176233180545
3634.1262,0.4575083083229538,444.1605931310455
3634.9622,0.45871757379567785,514.0558342876739
3635.8005,0.4579145266723598,520.210812990879
3636.637,0.45589900207806455,393.2753124704079
3637.4756,0.45404064234214514,884.7424600141635
3638.3123,0.4531867067160691,445.1406712924185
3639.1492,0.4531132416727286,722.2466257958206
3639.9885,0.45300094509206656,286.59044200698145
3640.826,0.45229549077005604,484.8464721236346
3641.6653,0.4511311947398297,461.56211628632633
3642.5032,0.45006175212341726,542.4792735790503
3643.343,0.44952611770633816,417.14941639298127
3644.1812,0.4496281543292541,573.568130754396
3645.0195,0.4501982961297298,572.7509711282348
3645.86,0.45088467037347985,357.2375616715888
3646.699,0.45115894050341143,407.5402798747875
3647.5398,0.45045710624267604,461.92585507970347
3648.379,0.44850545637656986,263.79720270764955
3649.2202,0.4455822032178923,409.2216176724989
3650.0596,0.4424752988125287,488.60572661153475
3650.8994,0.43998438445754395,395.1437791409
3651.7412,0.43843804576179674,638.9789820148366
3652.5813,0.4375216028680352,493.46858358828854
3653.4236,0.43659813291389593,421.790611136878
3654.2642,0.4353406821143737,920.3948680007802
3655.1067,0.4340545507654591,1282.3906048045342
3655.9475,0.43341029813425586,1436.2971790162974
3656.7886,0.433731740739725,493.8263481656454
3657.6318,0.43458785964375624,689.5054469013685
3658.4734,0.4350894637915068,308.19195815845524
3659.317,0.43466105509618064,350.97099639161485
3660.1587,0.4334738791849714,413.353762760056
3661.003,0.4321805509865638,468.38182662155754
3661.845,0.4313802651034623,363.54156938467634
3662.6875,0.4313051563943109,393.3163606359671
3663.532,0.4318701241009309,526.0914780502653
3664.3748,0.4327768434449403,443.0255159283564
3665.2197,0.4336534180414693,376.3465838647878
3666.063,0.4342305321320038,440.4868370513019
3666.9084,0.43450086361542084,506.6219008218684
3667.752,0.4346640458469485,673.942493355921
3668.5977,0.4349462137259011,488.2644306443502
3669.4417,0.43542079870199313,631.1122703669178
3670.286,0.43593510713430333,458.8339906714528
3671.132,0.43616889675241677,391.134207912118
3671.9768,0.4358607550084639,487.388220548582
3672.8235,0.43506252814055546,599.1319648795233
3673.6685,0.4341498075105073,584.849938550851
3674.5156,0.4335141674985565,670.6223990895519
3675.3608,0.433277597428641,648.8474140269133
3676.2063,0.433276646396225,499.1297959500549
3677.0542,0.4332960596909681,600.4143071540636
3677.9,0.43323658956113464,386.21570138276195
3678.748,0.43308799121590114,535.0142087285475
3679.5945,0.4328132478329429,373.6455630824348
3680.4429,0.4322909530533614,825.5382911254595
3681.2896,0.43136780575786643,515.481655874707
3682.1365,0.4299656184798691,500.12278615503885
3682.9856,0.4282289619525033,499.92906564038583
3683.8328,0.42667148066599764,401.0942878776401
3684.6824,0.42613671226093586,505.8478441533209
3685.53,0.4275144832930754,752.8237456954394
3686.38,0.4311246874702342,1035.5801572405073
3687.2278,0.4360258935124489,437.5510888943829
3688.0762,0.43970223088225835,396.7880406742114
3688.9265,0.43806630273397207,436.875662641823
3689.7751,0.42609359698109456,579.7317137581315
3690.626,0.3994100300489392,438.93471205379797
3691.475,0.3577163069509553,520.0867405555914
3692.3264,0.30751624125513005,980.5863860719278
3693.1758,0.2627084843613885,139886.63049494126
3694.0254,0.2381503711310923,5388.016695962393
3694.8772,0.24183737714178924,43635.85213109819
3695.7273,0.27000210164435234,56018.631294996834
3696.5793,0.3103161428614543,583.1295898496478
3697.43,0.3495201248400703,555.3115406340518
3698.2825,0.3801637188319891,1087.668575516348
3699.1333,0.4008050431500744,533.6098126161285
3699.9841,0.41353029229614424,568.0872742639565
3700.8374,0.4207733007111832,580.4180311876586
3701.6887,0.4242977055912749,493.8222079288555
3702.5425,0.4255768203796985,472.59867135629395
3703.3943,0.42599376621455404,412.5819065662246
3704.2483,0.4266413229919783,570.768110188605
3705.1003,0.42785720571248387,524.3897712597967
3705.9526,0.42918910424429213,415.31355533988176
3706.8074,0.4298748867646068,366.6767820319846
3707.66,0.42941596368442597,451.3152973456111
3708.515,0.4277801710166496,533.5683386163992
3709.3682,0.42524088764870194,632.6476925416566
3710.2234,0.42218398712057137,496.6494499010764
3711.0771,0.41917318374698403,413.9889251826243
3711.9307,0.41693842814485355,583.4759036385312
3712.7866,0.41618589635291786,1066.9018846283516
3713.6409,0.4172559331753837,682.1732166656572
3714.4973,0.41998615638441256,514.963271625386
3715.3518,0.4239077896895691,509.2371897815956
3716.2085,0.4284673527788494,608.8708644901906
3717.0635,0.4326281420839358,671.9477431057021
3717.9185,0.43443136888527106,1112.851834408095
3718.776,0.4314043905549171,170827185.51909488
3719.6313,0.4225479581914816,512.0255614552148
3720.489,0.41009177009813597,435.6750281205962
3721.345,0.3989417881219504,691.8102137206598
3722.2031,0.39325994786375623,591.724723761537
3723.0593,0.39382189802131196,414.3388692273049
3723.9158,0.3981279299567942,568.8013887948449
3724.7747,0.4029829303525841,620.0810970466729
3725.6316,0.40654420753159404,423.54469596685675
3726.4905,0.4086814613591816,576.6060966283582
3727.348,0.4099411720070439,578.8046536058921
3728.2073,0.4106624416728741,611.2278148824535
3729.065,0.41073793263248487,687.7814851393539
3729.9229,0.4099907710773994,398.1024173865369
3730.783,0.4086048811897018,310.38698153462354
3731.6414,0.4072221887166513,878.7193544619163
3732.5017,0.4065503189805001,680.3813680013528
3733.3604,0.40687525768778116,536.9222371399602
3734.2214,0.407865576398467,549.633162865753
3735.0803,0.4088505806773829,494.5733505254459
3735.9417,0.4093236588682276,528.8358176483379
3736.8013,0.4092184943983614,555.8211274005392
3737.661,0.40885521148895315,913.9363256521051
3738.5227,0.40866810855718844,672.7096883657257
3739.3828,0.40897887303246006,523.1587976385787
3740.245,0.4098999792506588,447.6555818519335
3741.1055,0.4113230666463517,473.65111875828114
3741.9683,0.41295541396397306,482.0721315842861
3742.829,0.4143320286010106,361.21242326152037
3743.69,0.4149696002857366,1048.545153184825
3744.5532,0.4145909370622713,489.61611869247935
3745.4148,0.41333614949504077,557.9386458274352
3746.2786,0.4116581112755521,508.2596378629893
3747.1404,0.40996137194091953,833.5374075908545
3748.0044,0.4083081335235884,309.7609989483313
3748.8667,0.4065904890204301,652.4812125215864
3749.729,0.4048143985018188,688.2244649370652
3750.5938,0.4031557609534673,1131.701706831293
3751.4565,0.40175552370355355,567.9941359266136
3752.3215,0.4005942024662513,422.17394182677384
3753.1848,0.39972193852152643,744.105944991657
3754.0503,0.39945094358574584,781.4064948600164
3754.9138,0.4002392653389921,741.477767019953
3755.7776,0.40224839843728044,588.3179311389108
3756.6438,0.4049897833621518,489.71687553951386
3757.508,0.4073425317266013,691.5473754634313
3758.3745,0.4081127640190324,498.66996056118626
3759.239,0.40669721870120684,460.7818259309214
3760.106,0.40349994212485696,495.6816782334071
3760.971,0.39974665253398584,656.4908688314711
3761.8362,0.39671887216895213,511.7228821505615
3762.7036,0.3951006390216909,609.0525590795612
3763.5693,0.3948265542445499,562.9419379572233
3764.437,0.39541618136006906,496.4272835371709
3765.3032,0.39642907804199223,449.9480475185286
3766.1714,0.39766118647573534,688.0620889982866
3767.0378,0.3990589821857205,529.1403684088978
3767.9043,0.4005689212746356,899.1851416842779
3768.7732,0.40202247299545724,945.8603018367656
3769.6401,0.40314671990214107,532.8445762063386
3770.5095,0.40371584070971417,1018.1968424366955
3771.377,0.4036476920977507,798.9262496056091
3772.2466,0.40304068131650833,490.95714753012976
3773.1145,0.40212467225351334,588.1747970916537
3773.9824,0.4011666832528436,690.6169657623299
3774.8528,0.4003526670189092,637.1790778399093
3775.721,0.39967988242667946,806.0370809927914
3776.5918,0.3988993130634824,580.1141612473323
3777.4604,0.39760555594257235,945.3242140597768
3778.3315,0.39540284189805425,631.0027828597313
3779.201,0.3922026701167935,540.289441069141
3780.0703,0.3884115054605772,745.575927058208
3780.942,0.3848981632135328,643.8571300677829
3781.8118,0.38262672562732114,594.6323272747993
3782.6838,0.3820469141630887,756.8350304522951
3783.554,0.3828256854942323,992.629649321012
3784.4265,0.38404797581549727,744.5529909548103
3785.297,0.3847848163993715,530.0957689007697
3786.168,0.38462455902090403,928.5699919883585
3787.041,0.38381039533885025,543.5404001543609
3787.912,0.38305108074860456,816.9329809840639
3788.7856,0.3831123794744236,809.0469813696695
3789.6572,0.3844033226461054,664.132299655008
3790.531,0.3867278402411277,703.9823588336735
3791.403,0.38936536362585056,635.289465783062
3792.2754,0.3915228415713481,683.1314312405725
3793.15,0.39273598224629,528.8852684510458
3794.0225,0.3929841812513339,698.8710891349715
3794.8972,0.3925515123843025,433.7218801261496
3795.7703,0.3918125871940524,706.5635228719426
3796.6455,0.3910563923843732,758.3217829660578
3797.519,0.39032525949174024,579.5075932254572
3798.3926,0.38934317831818976,493.3142817568589
3799.2686,0.38775208546531387,536.8622414304297
3800.1426,0.3855581669191049,540.5679815531881
3801.0188,0.38331411931314335,923.5646711416236
3801.8933,0.3818896281137112,624.0880545707059
3802.77,0.38193104941851075,840.4361397861384
3803.6448,0.38356573373545044,697.4394010342147
3804.522,0.3864524107444035,635.3555977434333
3805.3972,0.38998264926633547,811.9097082069352
3806.2727,0.39352922571450505,581.195330762611
3807.1504,0.39653620980271626,514.545443415569
3808.0261,0.39853843930841615,824.754350021975
3808.9043,0.39922755111381253,598.9480388966437
3809.7805,0.39848953103182866,492.3945969961584
3810.659,0.3965331370780774,713.661235145008
3811.5356,0.39391572689550725,600.0836527154629
3812.4126,0.3913195049649495,538.8784447556955
3813.2917,0.3892279732284104,628.40874161655
3814.169,0.38768189445525497,1163.400690947553
3815.0483,0.38625492058389366,739.9528219595215
3815.926,0.38441418761875995,813.2794753615407
3816.806,0.38196417955532896,634.9270414842102
3817.684,0.379317746238925,541.3193646072442
3818.5623,0.3771897249231613,670.7175439399398
3819.4429,0.3760595738177471,812.546913102708
3820.3215,0.37588943225543137,891.8400013260567
3821.2024,0.3763301028010036,712.8352285929295
3822.0815,0.3771189301763306,788.3646438906026
3822.963,0.37818843465924584,656.7416686898928
3823.8423,0.37946982845615224,726.5997174461592
3824.722,0.3807869632479923,665.1325511680094
3825.604,0.3819528497715445,705.8970849566812
3826.4841,0.38290204412012485,785.924123296996
3827.3665,0.3836781916206727,655.1370600392206
3828.2468,0.38426256800622904,768.8359821039663
3829.1296,0.38450707642223736,465.31090564085946
3830.0105,0.3841746578037208,625.9067613691548
3830.8916,0.38303781542990023,650.8149632965925
3831.7751,0.3809490633094698,666.3487519748616
3832.6565,0.3779583266599444,597.3937702300805
3833.5403,0.37433592823066403,790.5217056649052
3834.4224,0.3705762383480056,696.3763656524806
3835.3064,0.3671694504448795,707.9096303648715
3836.1887,0.3645148393815686,752.5182564315525
3837.0713,0.36282908799207797,799.0081363807253
3837.956,0.3621980570380893,692.9943115176729
3838.839,0.3625914512649502,582.8278150428712
3839.7244,0.36386219621618365,582.0286969904978
3840.6077,0.3657448525684704,880.316890718187
3841.4932,0.36790702430921013,722.2959518181455
3842.377,0.3699941629459284,822.7053547017629
3843.261,0.37175923538593664,644.6156995460395
3844.1472,0.37309595128797807,536.554829349029
3845.0315,0.3740081966618575,533.6160451340793
3845.9182,0.3745803505233188,677.7628069540837
3846.803,0.37491714775844415,561.0520024798088
3847.69,0.3750881797830969,638.4451906884917
3848.5752,0.37503737267717263,467.32447585486125
3849.4604,0.37460843980745,515.3147289667305
3850.3481,0.373722746792502,799.1922797661747
3851.234,0.37258956878766714,798.3466031962046
3852.122,0.37171599084531565,588.0321624903194
3853.0083,0.3717468664790976,628.5818230045411
3853.8967,0.3731648097836303,728.3846721899968
3854.7832,0.37598354393898853,754.2462722040465
3855.6702,0.37959912644423505,644.7603903476016
3856.559,0.38294500408427123,553.3078314376729
3857.4463,0.38499674297018865,583.0280756022723
3858.336,0.3853919012345132,560.6579737211536
3859.2234,0.3845804931276532,518.1498986872249
3860.1135,0.38345679640719443,680.0796198008509
3861.0015,0.38274091136819494,652.3446882578709
3861.8896,0.3825573427489662,542.8193567357565
3862.7803,0.3824724054077771,1008.647816469793
3863.6687,0.38180890252154615,764.3102858110736
3864.5598,0.38003877714713846,683.0421888090359
3865.4487,0.37713918955395476,653.5366210360343
3866.34,0.3736870892486305,560.8538054641053
3867.2297,0.3706953924511695,612.6816058862568
3868.1213,0.36902897317458233,649.6004894410468
3869.0112,0.36892975317041277,915.5219441512922
3869.9014,0.36987616966502473,714.7285678013943
3870.7937,0.3709927522092245,727.3312403019931
3871.684,0.3716209719244042,469.43814084335884
3872.577,0.37169332608215994,835.0052223751138
3873.4678,0.37164900443486654,875.6199364137469
3874.361,0.37205054101789176,679.4830699211692
3875.2524,0.3731275308042305,907.4871157892201
3876.1438,0.3745225599138334,619.8531780921977
3877.0376,0.37542136240328206,633.117410229584
3877.9297,0.3750638026962408,504.9820577726579
3878.8237,0.3733206962831277,1221.4126348611096
3879.716,0.37082592464758674,660.9163110912563
3880.6108,0.36850539156426754,1104.5240588776069
3881.5037,0.3669768387896658,528.3181287165272
3882.3965,0.3661933759426055,612.7341654679266
3883.2917,0.36564333809868454,568.41970035943
3884.185,0.36479803068472133,740.2936016515526
3885.0808,0.3634629885730668,916.9042050571722
3885.9746,0.3618627433976375,812.8736107714062
3886.8706,0.3604118440130604,792.5608019180107
3887.765,0.3594374236348217,1109.8516306355336
3888.6592,0.35894868921565226,903.0061746843842
3889.556,0.3586704634720537,622.3388358295672
3890.4507,0.35828921393499896,649.3969516629998
3891.348,0.35773933991456935,845.333967115431
3892.243,0.35728841447225734,761.9982965168643
3893.1406,0.3573022562377935,740.2402100069412
3894.0361,0.3579245678637405,709.573787632158
3894.932,0.3589535918258624,775.4038004490315
3895.83,0.36001863428142833,875.755400017956
3896.7263,0.3608595077653488,1116.556126915979
3897.625,0.361526232652161,653.7569445833899
3898.5215,0.36232716532702675,875.3769322203009
3899.4207,0.36361428157850506,895.370811234349
3900.3176,0.3654653937508044,937.3872468432543
3901.2148,0.367576029602355,987.6249640797994
3902.1145,0.3694488404823509,575.3692416751578
3903.0122,0.37076848878560703,760.409665281255
3903.912,0.3716318490750436,628.2102663659535
3904.8103,0.37231979319551556,909.8095063360921
3905.7107,0.3729489373769088,543.7478149981074
3906.6094,0.3733485962484981,593.8871460246116
3907.508,0.37331600888744587,696.5818953370416
3908.409,0.3729067453853383,725.8423614980647
3909.308,0.3724721739000541,687.1950622295349
3910.2097,0.37242021366162203,780.6930342107892
3911.1091,0.3729875959016387,624.5643626870572
3912.011,0.3742120156823614,457.69492091874855
3912.9111,0.3760048296987822,787.7820476515905
3913.8113,0.3781774977436019,657.11550058552
3914.7136,0.3803909625152365,461.27266766250324
3915.6143,0.38219841777703256,538.3479941009155
3916.517,0.3832748658278923,526.4946420991732
3917.4182,0.3835481362566624,1010.1919845797354
3918.3215,0.3832035517262418,764.0232627192777
3919.223,0.382530920302586,685.4958969049627
3920.1245,0.38173626558049506,740.3600766253222
3921.0286,0.3807798077517055,666.5044776796078
3921.9307,0.3793593249864976,665.1686219498088
3922.835,0.3771321348678677,551.0959795245483
3923.7373,0.37414899910582977,694.2459597925349
3924.642,0.37099331192737117,778.207998891297
3925.5452,0.36852797189694647,990.0112997259383
3926.448,0.36728630173723653,490.50408801264734
3927.3535,0.36719593986997917,676.2900724653085
3928.257,0.3677630935080909,529.1735244346585
3929.1628,0.36851727753940067,715.0181356514477
3930.0667,0.3692786691424876,620.8752313575795
3930.9731,0.3700625421090135,1120.3504775758256
3931.8774,0.3707572336358667,936.8236460367997
