wavl,flux,ivar
3566.9744,1.3716330514307724,567.3491540276304
3567.795,1.3687488846453693,633.1307485906226
3568.6177,1.3617247792196074,692.5405681833956
3569.4385,1.3526356247343747,943.2008517311369
3570.2617,1.3434203667042195,681.1630024300547
3571.083,1.3354788389121937,605.5026859641375
3571.9065,1.3292713839605608,741.3246971236907
3572.7283,1.3246685131507032,680.2753626056647
3573.55,1.3213749866472417,606.8278860597003
3574.374,1.3195165732185479,757.2242827476167
3575.1963,1.319624180015091,746.3308301578335
3576.0208,1.3219076124581652,605.431001457777
3576.8435,1.3255056295471515,759.2478521283535
3577.6682,1.3285978888551129,698.9742714800976
3578.4915,1.3293703120234892,628.5253432208274
3579.3145,1.3271445971449598,726.9389401919698
3580.14,1.3225283221892201,760.3614404186852
3580.9636,1.3167777847541373,775.7212582733241
3581.7893,1.310996417265975,593.2748067311213
3582.6133,1.306192690470305,709.9790372417624
3583.4395,1.303531444754437,665.759460297339
3584.264,1.3043154305758662,568.3368709537712
3585.0884,1.3091960072534152,604.6965048540393
3585.915,1.3175347245590772,538.5254541006346
3586.74,1.3273637558722546,760.5463699493737
3587.5671,1.3363518729446298,671.2791431739385
3588.3923,1.342614352897309,511.5278495300934
3589.22,1.3453794572319957,721.714876365896
3590.0457,1.34477092897708,560.3839801491073
3590.8716,1.3414773241589446,683.2710949670216
3591.6995,1.3363887536831198,526.3593021791954
3592.526,1.330564235621753,617.0837426401314
3593.3542,1.3250714959679053,748.2692625173034
3594.181,1.3207450837514234,836.6381429754318
3595.0098,1.317650617099847,835.8990761745707
3595.8367,1.3150707759252083,725.9521388626142
3596.6638,1.311967187971051,844.7087132872275
3597.4934,1.3077782003460183,627.1300790005462
3598.3208,1.3028755022192815,782.1113343428887
3599.1506,1.2982578942104452,773.8424699665618
3599.9788,1.2949885823037226,589.935931841682
3600.8088,1.2934172516420703,936.3802819797955
3601.6372,1.2929340430323326,1132.09147595479
3602.4678,1.2923397311333056,744.2522346067007
3603.2964,1.2908276840837623,684.2663216811195
3604.1252,1.2887465455646034,800.5001309885382
3604.9565,1.287490081565902,581.9473799617399
3605.786,1.2886263907146334,653.1012107567257
3606.6172,1.2930089518548564,597.8239473877634
3607.447,1.3004277581611234,904.1117883598636
3608.2788,1.3097949472808423,911.982214079308
3609.109,1.3193300090043865,722.3997392043286
3609.9392,1.3271664179569977,648.6714394790066
3610.7717,1.3318869705623853,533.7523382032658
3611.6023,1.3329471948799592,631.7711925391633
3612.435,1.330724632621609,609.3852741820423
3613.266,1.3261678499542624,743.7002247500204
3614.0994,1.3204174133840025,684.4016458102594
3614.9307,1.3145662022479152,683.3691337293851
3615.7625,1.309265458213984,622.5861576833204
3616.5962,1.3046725334300302,646.2691501025336
3617.4282,1.3007236748356932,773.0462081623773
3618.2625,1.297496057393306,766.9214607020053
3619.0947,1.295437419117629,651.3598478230994
3619.9292,1.2949757170862979,728.899292287377
3620.762,1.2960058465454316,676.9219929866641
3621.595,1.2976626875072046,722.2404190916607
3622.4302,1.2987677284014967,613.707028657592
3623.2634,1.2985923665755223,756.7905759050539
3624.0989,1.2973024334365375,746.2319686184476
3624.9326,1.2956909558597394,856.9138937151288
3625.7686,1.2945457245497802,841.6220347979461
3626.6028,1.294334074585936,654.0230478174185
3627.437,1.2953189353328007,751.6023300247923
3628.2734,1.2977757845245297,758.6495913062046
3629.1082,1.3017356739621435,842.6748045870625
3629.945,1.3064558980799168,654.8044949318042
3630.78,1.3100907444632532,791.7898880093165
3631.6174,1.3104007420801402,656.5843647084811
3632.453,1.306031686479574,634.6061441240716
3633.2883,1.2975917501536698,663.2731188472737
3634.1262,1.287465357496752,833.9133977345697
3634.9622,1.2786293174723495,698.3428693190865
3635.8005,1.272940533335259,679.2626025281761
3636.637,1.2705843188861816,1020.3291079817662
3637.4756,1.2703719849022694,704.5053771456887
3638.3123,1.2708371558921503,678.4175286670335
3639.1492,1.271059691813512,908.0212174290164
3639.9885,1.2707981711439953,893.0905746623804
3640.826,1.2700629721536416,738.670101878685
3641.6653,1.2687387493783011,793.9716807434811
3642.5032,1.2666671734557182,736.6380953828066
3643.343,1.2638743970340405,846.8812840771712
3644.1812,1.2606223161878156,839.4252178299292
3645.0195,1.2571913476523076,843.9218505514502
3645.86,1.253827748483736,691.9248665600225
3646.699,1.2508315039897502,714.0354454182624
3647.5398,1.2484816917256827,706.714004901777
3648.379,1.2469441578039286,976.3874345364624
3649.2202,1.246136317209405,753.9341603159418
3650.0596,1.2457450997132256,827.0467151513255
3650.8994,1.2452011296501124,671.915259669038
3651.7412,1.2437680414870742,728.3488256014821
3652.5813,1.2409133970477852,734.659763137423
3653.4236,1.2367834216700984,720.1781614503623
3654.2642,1.232462187424581,1003.0464845330289
3655.1067,1.229551047956673,624.8730684577903
3655.9475,1.2294594469298874,824.5702595377874
3656.7886,1.2325534950725672,747.2184772530024
3657.6318,1.237812749203272,674.7798549848876
3658.4734,1.2431758145070053,712.7715032602304
3659.317,1.2467913537385589,690.4676913887808
3660.1587,1.2480914279357078,843.8541012062611
3661.003,1.2480389406551684,711.1182469706717
3661.845,1.2481926398055547,697.3121419136448
3662.6875,1.2495446364084593,658.5890665518768
3663.532,1.252004365147324,682.3360453713166
3664.3748,1.2546753784588178,743.8761084094825
3665.2197,1.2565670145449643,730.2429413439899
3666.063,1.2571233995226998,904.7401647134825
3666.9084,1.2565337670986045,692.7939430459209
3667.752,1.2556772899263433,717.4313045908013
3668.5977,1.2556822207227767,781.177989204384
3669.4417,1.2571703109193886,788.7747814498132
3670.286,1.2596455557381632,935.6735491730017
3671.132,1.2616506739083093,740.2763484421599
3671.9768,1.2617185181975537,757.0542216241176
3672.8235,1.2594624163333987,763.5937502742212
3673.6685,1.2558847905480512,760.1577213712925
3674.5156,1.2526706634399674,751.9722946378123
3675.3608,1.2511488571552887,808.6846008662948
3676.2063,1.2515338459045153,772.5502453964477
3677.0542,1.2530686824577524,732.1311196818783
3677.9,1.254718840400988,816.2318721123589
3678.748,1.2559457599250992,669.7839834570632
3679.5945,1.2568849043598038,660.9590052761127
3680.4429,1.2579882725368183,805.4520766138563
3681.2896,1.2594807959429202,781.3379458118021
3682.1365,1.2611830151027068,709.4618636970196
3682.9856,1.2626694918184886,649.9744721215509
3683.8328,1.2634784723876975,781.7063912492555
3684.6824,1.2632260248934004,689.0053899310494
3685.53,1.2616554267261857,799.1912635599989
3686.38,1.2587646056634176,857.4426442475342
3687.2278,1.2549468699565274,678.012551830223
3688.0762,1.250903357565892,785.2695156313708
3688.9265,1.247505890830116,754.9505551844687
3689.7751,1.2456155280619858,904.259926584335
3690.626,1.245804820659797,761.3277715869964
3691.475,1.2481300105999826,941.7514956216883
3692.3264,1.252019999375252,694.2197528697152
3693.1758,1.2564085873705033,759.0422867907836
3694.0254,1.2601871998769543,780.6675824073984
3694.8772,1.2626015916033868,648.1386757662705
3695.7273,1.2635398061071048,689.7769908285625
3696.5793,1.2635738341296165,864.9555029110581
3697.43,1.2635595683195506,807.017801410134
3698.2825,1.2640463568355793,751.7298091223629
3699.1333,1.26487567597165,841.0376750077226
3699.9841,1.2653228844967412,724.7490987904114
3700.8374,1.2646490040184584,621.6006138814073
3701.6887,1.2626292285264906,662.9664097186184
3702.5425,1.2596090650227294,661.8660126262802
3703.3943,1.2561762425983922,908.7062492362875
3704.2483,1.2526775902477156,753.0226197717798
3705.1003,1.2491462426654036,797.3225841218336
3705.9526,1.2454404625677655,745.741924947049
3706.8074,1.2415879091815043,651.9432285435428
3707.66,1.2380009132887304,793.6290360435839
3708.515,1.2352896569640375,748.0505545056426
3709.3682,1.233950850434615,738.6200197579866
3710.2234,1.2339381517233035,773.5059545996012
3711.0771,1.2346442138066658,695.0858538778336
3711.9307,1.2352504826341177,691.1303469445834
3712.7866,1.2351604145970383,891.5060867228501
3713.6409,1.2341188738072602,735.6505535398347
3714.4973,1.2320528678381784,638.7880563586336
3715.3518,1.2290562192969428,622.8812180471083
3716.2085,1.225563886572265,860.3109928749863
3717.0635,1.222463708690317,745.5386001523843
3717.9185,1.2205828086218342,845.922982801238
3718.776,1.2200546958983938,810.0149379262094
3719.6313,1.2201750022346391,748.3194720234425
3720.489,1.2200287991574936,762.2454090428502
3721.345,1.2193132432675073,804.1448148869981
3722.2031,1.2185410477839336,585.8490798701582
3723.0593,1.2185359233179127,752.9002706791968
3723.9158,1.2197601447694968,967.2437405003078
3724.7747,1.2220797773598386,665.0880939169273
3725.6316,1.2249089117500709,729.2107804968037
3726.4905,1.2275114481201705,779.131143390143
3727.348,1.2291059310778547,848.6432184885493
3728.2073,1.2290659402465858,769.5475990142977
3729.065,1.2271954644933947,790.8939884089983
3729.9229,1.2239436062705853,847.7371692308279
3730.783,1.2202143253769946,890.3486075415466
3731.6414,1.2169158763707932,765.052991390269
3732.5017,1.2145346694574652,658.663150866978
3733.3604,1.2131674633628509,851.7878451066003
3734.2214,1.2126229924676173,899.6086785951414
3735.0803,1.2125488520395498,738.1268239766443
3735.9417,1.2125475110801296,747.4078521843007
3736.8013,1.2123689830617912,1071.8288075305973
3737.661,1.2119324550035808,841.517176850936
3738.5227,1.2111146856497448,759.9653819376297
3739.3828,1.2096693571089503,835.5345076164866
3740.245,1.207526282432696,803.5247893298721
3741.1055,1.2052166665834316,770.8407653805136
3741.9683,1.2037121541298519,938.4116048512886
3742.829,1.2037464417997992,795.2689292406791
3743.69,1.2051308125519977,893.474279997557
3744.5532,1.2068409999237464,631.3068530327021
3745.4148,1.2077010290164927,712.8348502348971
3746.2786,1.2071195156983592,712.9600294279516
3747.1404,1.205300968900192,816.6009366401794
3748.0044,1.2030304185284628,744.1444361398261
3748.8667,1.2013458925545575,909.8820937823493
3749.729,1.2010988704352283,791.8127770713027
3750.5938,1.202588005437201,750.6679067906193
3751.4565,1.2054038993981637,860.1526216741726
3752.3215,1.2087685747641694,878.9013126000075
3753.1848,1.2120024306060642,809.1615771948475
3754.0503,1.2148503499134582,852.6882592606953
3754.9138,1.2172932278942061,912.6720996912322
3755.7776,1.2193217480833105,653.1263025001313
3756.6438,1.2208481160781266,712.23334427412
3757.508,1.2218781491238342,703.1942407128439
3758.3745,1.2226443054084815,748.3053794286778
3759.239,1.2234153523637268,846.0228426054259
3760.106,1.2242847276828084,779.2355730586137
3760.971,1.2251730940098187,768.1100082742016
3761.8362,1.2260324991253653,814.7032764782825
3762.7036,1.226857359519102,835.6693901319708
3763.5693,1.227461942977818,947.3933296234532
3764.437,1.227359605635575,851.7483926953415
3765.3032,1.2259458918454043,819.8079271234501
3766.1714,1.222832690713543,776.6503889839244
3767.0378,1.2180726545013547,750.8646500017361
3767.9043,1.2121365397792874,785.4444950068213
3768.7732,1.2058868489803407,814.6568180285743
3769.6401,1.2005337297468979,939.9400459731646
3770.5095,1.1971771777386369,877.570545207108
3771.377,1.1963844385747855,774.356254243579
3772.2466,1.1978411018069304,1024.4512437639082
3773.1145,1.2006121797800482,721.1114755401325
3773.9824,1.2037219079038146,739.4565761996267
3774.8528,1.2065827781101677,885.8095062036767
3775.721,1.2089871932952476,811.164933173742
3776.5918,1.2109194931496725,941.0754936380217
3777.4604,1.212340242898714,797.35979716663
3778.3315,1.2133111492374375,863.1613041550745
3779.201,1.2141369687169448,767.5795318912026
3780.0703,1.2153523132076534,764.2258728309149
3780.942,1.2173927846021222,787.13697635241
3781.8118,1.2202329448517395,839.2591525973052
3782.6838,1.2234192928580812,817.6304834652898
3783.554,1.2263865203081248,936.7717324866774
3784.4265,1.2288872466561573,646.7513716394111
3785.297,1.2309829208878837,694.9960647344915
3786.168,1.2327875347749215,881.1827283976176
3787.041,1.2340564998554142,840.2815356569974
3787.912,1.2340605146913946,814.6357404386852
3788.7856,1.2319310071588723,947.139184204961
3789.6572,1.2272753172097086,921.9321516377647
3790.531,1.2205085614523066,925.8566647317099
3791.403,1.2127083341187372,796.2793159872978
3792.2754,1.204844760284259,799.6183803809508
3793.15,1.197239527879248,757.1618437099272
3794.0225,1.1895819374814265,841.8730411189199
3794.8972,1.1813257490357183,744.6826445645503
3795.7703,1.1725350454253614,925.9631833243715
3796.6455,1.1641078146288546,896.3294153073405
3797.519,1.1577059558662213,853.8692468133071
3798.3926,1.1549293240697962,885.8338557558308
3799.2686,1.1566496680432141,965.4821385325542
3800.1426,1.162604041655433,844.4731881116829
3801.0188,1.1716689142642616,818.8902240778505
3801.8933,1.1823481858740332,832.8030252316073
3802.77,1.193382313290338,1122.899062195559
3803.6448,1.203693364089458,816.4387221292343
3804.522,1.2125702367441844,808.1305027612832
3805.3972,1.2195803444455122,806.4179364293435
3806.2727,1.2249106568390977,744.2285573921813
3807.1504,1.229260381143248,711.8950144656204
3808.0261,1.2334647853424345,808.3240177116468
3808.9043,1.2380515824798088,818.3867863367051
3809.7805,1.2428941023846962,644.3484625888943
3810.659,1.247532295834995,795.6638155537645
3811.5356,1.2515699340820898,716.534192550359
3812.4126,1.254990274870788,792.6633028138339
3813.2917,1.2579223016691774,844.4434469529486
3814.169,1.2603059144828632,652.4906092254641
3815.0483,1.261903974382875,737.4947390747708
3815.926,1.2625168754167941,706.856943098605
3816.806,1.262193218007541,638.8765124326236
3817.684,1.261097364563383,720.434954814269
3818.5623,1.2592570393132607,636.2271679118602
3819.4429,1.2564845440002785,792.8682449828523
3820.3215,1.2525984920638666,856.8001002015408
3821.2024,1.2475967971575495,632.9452184688656
3822.0815,1.2416949259054948,830.5695711104612
3822.963,1.2349052205912274,858.3384157048719
3823.8423,1.2268651407152693,808.6233090856617
3824.722,1.2169261028103544,785.2070499353748
3825.604,1.204787949075273,750.7657798774756
3826.4841,1.1910079883605904,958.470280124738
3827.3665,1.1764494852289153,891.0450808676062
3828.2468,1.1616972120384137,979.8725535239238
3829.1296,1.1462870589991383,888.1291305052605
3830.0105,1.129405884717149,934.9979060084388
3830.8916,1.110621834854413,944.180016127865
3831.7751,1.0907184595491888,1010.2660308949581
3832.6565,1.0718025740480057,977.7297716146876
3833.5403,1.0562629250000117,1213.475875554607
3834.4224,1.046366790237128,1165.5409883837979
3835.3064,1.0434589481111907,1122.5266115332051
3836.1887,1.0478508899334504,1260.8275652303764
3837.0713,1.058676187075264,1112.9865102438919
3837.956,1.0742146414778764,1058.5688793150166
3838.839,1.092368301954982,1026.2836612871324
3839.7244,1.1116379934792429,818.8086026090123
3840.6077,1.1311152190027172,865.7127671376663
3841.4932,1.1505277982538535,954.1536822476372
3842.377,1.1693450045137965,895.2812316066297
3843.261,1.186852934263654,749.7250708976518
3844.1472,1.2022686298692233,816.3564139068056
3845.0315,1.2150995690281698,759.6188434282453
3845.9182,1.225633966763897,771.5026804364434
3846.803,1.2345987100604898,802.9126461783989
3847.69,1.2430603004968896,657.8002645984208
3848.5752,1.2518385396537306,843.9516730979578
3849.4604,1.2612596161208196,807.2688099536678
3850.3481,1.2709842793085226,689.294130417615
3851.234,1.2802398603838974,601.9069223183127
3852.122,1.288558801654651,660.9386806715823
3853.0083,1.2958824458341704,684.1753039811117
3853.8967,1.3024621054279557,678.2364814791308
3854.7832,1.308294949094965,745.1962577086177
3855.6702,1.3131698517943948,688.764237533822
3856.559,1.3168757507120246,698.0814816964215
3857.4463,1.3193832709768891,706.196426200049
3858.336,1.3207737010810607,611.5138668573763
3859.2234,1.3209808327960766,699.7954804554964
3860.1135,1.3197671372723119,726.8220099136806
3861.0015,1.3167919024574581,639.4839271465709
3861.8896,1.3114862341957993,687.3963686305224
3862.7803,1.302623458603857,632.657466900138
3863.6687,1.2882286720801286,616.3535937007578
3864.5598,1.2664090323356691,692.1265538516842
3865.4487,1.238170664265401,718.4275779966717
3866.34,1.2090161695055213,640.1637751787989
3867.2297,1.1880979016527975,597.4510834926292
3868.1213,1.182501307290946,703.634838243947
3869.0112,1.1923928310515375,753.5417746081132
3869.9014,1.2106628044336312,747.90013079107
3870.7937,1.2279261626605802,796.1954174635249
3871.684,1.2378218886689032,746.3346396754154
3872.577,1.239239163489075,755.2935169137294
3873.4678,1.2344380668559667,841.1248734205701
3874.361,1.2262264915673764,825.4054835867087
3875.2524,1.2162410264679384,886.7434843812665
3876.1438,1.2047634911576655,824.3083642219382
3877.0376,1.1916441302090413,834.2269727449075
3877.9297,1.1771118716104725,887.7549500751551
3878.8237,1.1614962631652943,812.7011506530743
3879.716,1.1450085188403,990.8289663530921
3880.6108,1.12724342669087,887.5117649187392
3881.5037,1.107659394108728,935.015284405023
3882.3965,1.0856333677011678,881.2390421820329
3883.2917,1.0608423787357926,1028.0845997415604
3884.185,1.0336855128597766,1089.3269466781662
3885.0808,1.0049539926084379,1202.2761103723124
3885.9746,0.976414174003385,1234.8455715570317
3886.8706,0.9503204556345071,1229.5382912607347
3887.765,0.929870491955723,1479.8921789375272
3888.6592,0.9183001889533604,1669.2808843132962
3889.556,0.9180196426712665,1689.1028271823914
3890.4507,0.9292996785800248,1707.447923984865
3891.348,0.9499016005754202,1287.010813926486
3892.243,0.9757978739938484,1349.757986470803
3893.1406,1.0032512269552583,1183.518705748879
3894.0361,1.0296086868829308,1064.5867960690437
3894.932,1.0540388473011826,1011.5366303616379
3895.83,1.0766498184778464,1279.8435277295632
3896.7263,1.09763343650027,990.8848587430261
3897.625,1.1174248963208557,945.8758210504792
3898.5215,1.1364545662974836,951.8057787223354
3899.4207,1.155578967372499,838.7534850703063
3900.3176,1.1752602350960974,973.1180966023412
3901.2148,1.1954577056796452,786.081584973955
3902.1145,1.2154585397842579,825.6285808482797
3903.0122,1.2342771296971462,712.0558742761334
3903.912,1.2516168151323337,736.8311841987456
3904.8103,1.2676809408932783,720.9843534830894
3905.7107,1.2830714557845146,779.776377808625
3906.6094,1.2979788311377283,755.5057067905772
3907.508,1.312275280114646,705.7693672346124
3908.409,1.3256987566823641,644.1344828708635
3909.308,1.338070636209791,648.490513551115
3910.2097,1.3495227124917288,748.9802627972356
3911.1091,1.3600682894584337,646.453315193717
3912.011,1.3696974225222007,663.505950800122
3912.9111,1.3782240151426666,655.686490567101
3913.8113,1.3855968364662379,528.6587940288439
3914.7136,1.3919241144428496,562.2109749258499
3915.6143,1.3974339554845643,546.7847929142315
3916.517,1.4024811975042872,552.2929365674672
3917.4182,1.4073189081790838,590.7803889113463
3918.3215,1.4120873292633185,593.7359070414421
3919.223,1.4167038394776927,563.7891575765451
3920.1245,1.420973974369834,559.0365422446504
3921.0286,1.4246079183403468,613.1364830043821
3921.9307,1.427295223346312,596.4596327638378
3922.835,1.4289446761746907,583.6806033881918
3923.7373,1.429831552169657,567.3827819935547
3924.642,1.4306247680384168,581.5791116317067
3925.5452,1.4320181188180972,596.8244417505382
3926.448,1.4342496175572257,675.3907649511993
3927.3535,1.43689281641716,514.8321377488346
3928.257,1.4391197355025465,594.9751734363251
3929.1628,1.4403061641247528,614.0885838766555
3930.0667,1.440340076566537,554.6162848731473
3930.9731,1.439512045736707,647.2733210341725
3931.8774,1.4380917391968715,595.9810419891116
3932.782,1.4360163920362055,574.9642267678048
3933.6887,1.4329808153898318,534.5361914327897
3934.5938,1.4288226304933778,626.2220158182452
3935.501,1.423695323579196,631.2505777841427
3936.4062,1.4179894919761726,585.0936977203859
3937.3142,1.411917949572472,554.4164775883505
