wavl,flux,ivar
3566.9744,1.3703252569287272,889.3646653030522
3567.795,1.3681813585052875,670.7976293854122
3568.6177,1.3666218299331665,860.9743355072778
3569.4385,1.366026539770391,799.8407396653361
3570.2617,1.365972380205584,773.223008790418
3571.083,1.3658145748024648,686.1724992608456
3571.9065,1.3653816073622564,738.0048852186181
3572.7283,1.365322111646374,724.5579959596272
3573.55,1.3667247210081432,803.6209670262567
3574.374,1.37023248049053,1119.122324552829
3575.1963,1.3753678386266144,1288.6629156984668
3576.0208,1.38095116254247,659.5662693437316
3576.8435,1.386117941107292,597.0740716963979
3577.6682,1.3911041543829985,849.2573056356185
3578.4915,1.3966139053213256,772.8483363006943
3579.3145,1.4026844705737995,669.4718370898886
3580.14,1.408127254744376,740.078865291161
3580.9636,1.4111444536545164,773.9972822565528
3581.7893,1.4105740060823528,687.6856070339354
3582.6133,1.4064374252299325,684.3727634275426
3583.4395,1.3996573814101672,917.4067300840563
3584.264,1.391444235629427,785.0025035380029
3585.0884,1.3826714344874702,652.1388671584405
3585.915,1.3738019919916116,840.4367272660375
3586.74,1.3652321320176963,701.5977905859949
3587.5671,1.3574974688108372,776.2244907412673
3588.3923,1.3515331992271444,822.0232512581097
3589.22,1.3482618918526459,744.7026120858148
3590.0457,1.3482714061673873,562.775628895139
3590.8716,1.3514675725708147,764.4962524170936
3591.6995,1.3571693855175762,746.445942980645
3592.526,1.364259204357579,821.660782018001
3593.3542,1.3714806354050424,719.0916753454968
3594.181,1.3775052321579742,658.4654685307487
3595.0098,1.3812867807226314,692.3743957521294
3595.8367,1.3823277031460868,895.589440350404
3596.6638,1.3810804518051787,699.0040509432505
3597.4934,1.378839184957162,727.0845096166066
3598.3208,1.3771234088826712,961.5748537635784
3599.1506,1.3766594956760922,907.5739995087629
3599.9788,1.3768678671827388,721.8485350664635
3600.8088,1.376299371366443,739.3521652436667
3601.6372,1.3738358486635662,685.4877353253596
3602.4678,1.3696371194399257,582.9709194002211
3603.2964,1.3651559989043174,842.9362210491355
3604.1252,1.362139194019754,601.0422890887672
3604.9565,1.3616698825353561,884.3092084391187
3605.786,1.3638000669225832,675.3460115456559
3606.6172,1.3678963199362817,747.6104110968978
3607.447,1.373166800604545,772.2982836668962
3608.2788,1.3789845980509532,678.9464681821623
3609.109,1.3846636608066445,792.1174041720762
3609.9392,1.3893261384516544,622.8465930078437
3610.7717,1.3920074983962047,755.7926408074411
3611.6023,1.3922143979306945,804.0800347578277
3612.435,1.390411797429272,782.862274042515
3613.266,1.3878168597527951,620.9139045860326
3614.0994,1.3855895346085754,687.8821525565808
3614.9307,1.3841127333024819,774.0869574582273
3615.7625,1.382821788004945,710.2816646764634
3616.5962,1.380770071967329,598.8836925510508
3617.4282,1.37739081601881,740.8403871220405
3618.2625,1.3728417384946667,778.7064915108404
3619.0947,1.3678718822674365,597.7284453384788
3619.9292,1.363232178293237,693.7214093080529
3620.762,1.3593664887600774,853.5157407894702
3621.595,1.3562210282797904,662.0293150073509
3622.4302,1.3533937102101115,836.2193089494407
3623.2634,1.350456385921005,691.7688302520941
3624.0989,1.3473865019749536,637.8030443072134
3624.9326,1.3449260209759173,956.8723497370122
3625.7686,1.344157155947571,797.3048381509661
3626.6028,1.3455754952230432,729.5149696148188
3627.437,1.3483803492247837,700.5487341388693
3628.2734,1.3508496167174318,778.7856839543726
3629.1082,1.3515112270596832,639.1303829111606
3629.945,1.350223713413834,761.5696382569294
3630.78,1.3482305432312742,682.4873357581083
3631.6174,1.3472566004727071,723.203552019981
3632.453,1.3484254914180487,807.1535277341911
3633.2883,1.3516796802301692,803.37913396657
3634.1262,1.356054523700346,854.2918187345978
3634.9622,1.3603166878373283,661.7076982305339
3635.8005,1.3636222492130379,831.0394335173396
3636.637,1.3656049345251333,679.7219119459006
3637.4756,1.3663159483666503,668.0216452059334
3638.3123,1.3660086004409273,910.1608011129456
3639.1492,1.3650171777934035,882.8277114598068
3639.9885,1.3635876603487431,732.5418078041139
3640.826,1.361720957346012,881.7658588798347
3641.6653,1.3590898387943504,726.2847640784014
3642.5032,1.3553247136800581,904.0796109959455
3643.343,1.3504550701857616,573.3070030379422
3644.1812,1.3452678318225846,667.9784807044016
3645.0195,1.3409195766672355,764.5045422549879
3645.86,1.338176226853942,801.3206626932796
3646.699,1.3368236913433769,804.5020528850221
3647.5398,1.3358018396011242,732.5325617182782
3648.379,1.3340579049411547,821.9622409788818
3649.2202,1.3312920627796188,763.0025254994268
3650.0596,1.3281505357278007,815.0964724581243
3650.8994,1.3257073790144327,1015.064296932762
3651.7412,1.3248073599688697,762.1567230875255
3652.5813,1.32558301093319,751.2160624635231
3653.4236,1.327360358999962,946.89194400786
3654.2642,1.3289268594210941,733.553374171999
3655.1067,1.329096684419337,819.9367588028116
3655.9475,1.3273141222501594,1149.5738952785123
3656.7886,1.324006875452784,800.9996604865373
3657.6318,1.3203432593960263,929.2954482271266
3658.4734,1.3175473318786457,973.3170530225946
3659.317,1.3161605080812322,727.0908504613434
3660.1587,1.316016763024052,684.4096447897847
3661.003,1.3167776487222864,822.1017470558779
3661.845,1.318499461015106,932.989285258117
3662.6875,1.3215962282789333,666.139904366603
3663.532,1.3262721112298788,643.573297041391
3664.3748,1.3320542261036645,792.2822275343285
3665.2197,1.3380408655417604,753.0947360302342
3666.063,1.3433120071561135,730.6771071856251
3666.9084,1.3472592946679858,963.4305068553756
3667.752,1.3492691084858717,613.5732089290599
3668.5977,1.3486173240812598,716.319597167537
3669.4417,1.3448106212358042,680.9642750419915
3670.286,1.3382563129584213,767.7406026689283
3671.132,1.3304456615343192,795.674776394506
3671.9768,1.3234106327373594,788.0669285271156
3672.8235,1.3186416957064617,886.5433800842616
3673.6685,1.3166007138952218,1042.1441961084447
3674.5156,1.316802381321655,767.4667491083392
3675.3608,1.3184387551326449,695.5009297658561
3676.2063,1.3207843613675279,862.2750934758695
3677.0542,1.3231962032694997,887.6786179667771
3677.9,1.3249482830416246,704.7375741699207
3678.748,1.3253885344037308,893.4926726809905
3679.5945,1.3243175726504333,868.6396726361813
3680.4429,1.3223817639525548,914.0593084535313
3681.2896,1.3209929530878242,931.0070890206907
3682.1365,1.3215414770218818,831.3813847314246
3682.9856,1.3244009634884504,906.9672910816728
3683.8328,1.3284244884494145,932.7445119901104
3684.6824,1.3315696106043626,945.9470918237367
3685.53,1.3320885057572183,936.8559403042813
3686.38,1.3296692679882098,814.4669107148386
3687.2278,1.3256861220083898,777.9774378816073
3688.0762,1.3224323606507804,813.5999967610994
3688.9265,1.3218730734039577,784.1538994451952
3689.7751,1.324653461300589,788.5345506723478
3690.626,1.3300041673810017,754.6955330086344
3691.475,1.336324874527748,901.3210893868758
3692.3264,1.3420475948930402,1096.8751324115888
3693.1758,1.3460553548918395,845.7108212314891
3694.0254,1.347975772126526,755.9981875537079
3694.8772,1.3480515460288085,752.2543976155899
3695.7273,1.3468888628458486,1010.7358119119688
3696.5793,1.3451154530397547,868.1577781419871
3697.43,1.3432188085181513,653.2625567797265
3698.2825,1.3416164622960238,770.1808527546613
3699.1333,1.3408416389666886,803.2579563388347
3699.9841,1.3414052819647313,843.5691203802653
3700.8374,1.3433825975093063,774.0487577124355
3701.6887,1.3460180779061792,776.4279493512669
3702.5425,1.3479539919751695,736.9676921628196
3703.3943,1.3479548278453963,837.3285525726909
3704.2483,1.34567028873624,731.4136780221221
3705.1003,1.3417097647206417,950.1068390734765
3705.9526,1.337055573433707,755.3313215220901
3706.8074,1.3325200081537711,702.7976898543341
3707.66,1.328684776649167,705.2348420520646
3708.515,1.3259619266786427,609.7165037219141
3709.3682,1.324634386348932,962.3878097077232
3710.2234,1.3245530503727718,639.0109336981202
3711.0771,1.3250575930558632,872.394464713918
3711.9307,1.325239846212407,981.8998399998349
3712.7866,1.3244062792559739,765.3515224302977
3713.6409,1.322368408309511,708.0079495680656
3714.4973,1.319391094371933,893.955556407151
3715.3518,1.3160650961935565,826.0085099934478
3716.2085,1.3131596033200894,1220.249845697293
3717.0635,1.3115691713854956,908.0788821502762
3717.9185,1.3119658944421297,776.2475777120464
3718.776,1.3144613914806966,901.5898581217862
3719.6313,1.3184927056715128,923.8685845185614
3720.489,1.3232915254114936,791.1760992288705
3721.345,1.3283966513354373,664.6672935841478
3722.2031,1.3338806755599655,831.3375649393752
3723.0593,1.3397459747051608,892.7645015103061
3723.9158,1.3453706037798514,904.8034335580571
3724.7747,1.3494512559057046,681.0428635020986
3725.6316,1.3507557751339798,854.0528754318887
3726.4905,1.3490819392732376,774.3335872778467
3727.348,1.3454702193234571,710.2287773383583
3728.2073,1.341593573615263,958.346490833427
3729.065,1.338820908425851,855.8082950189736
3729.9229,1.337510819696122,714.2373963049631
3730.783,1.3371954360458267,829.9650942465399
3731.6414,1.3372978864192437,713.6391023942608
3732.5017,1.3376580578278132,905.3886178730114
3733.3604,1.3383783486565335,786.7785836325203
3734.2214,1.3393492354037593,678.2847473937318
3735.0803,1.340055932356427,846.8460893707944
3735.9417,1.3398317760353229,757.0910442785234
3736.8013,1.338206246299558,797.9768138800831
3737.661,1.3351910259593005,700.1280046725894
3738.5227,1.331422738115343,696.2534173344566
3739.3828,1.3280738956608114,901.4668994194033
3740.245,1.3262697793963185,845.7313362203855
3741.1055,1.3264956784469013,788.3493968369771
3741.9683,1.328378480437534,864.484910213877
3742.829,1.3311487465130953,641.0425353113483
3743.69,1.3342906306297264,726.7386884491517
3744.5532,1.3376520419591968,801.9471415361853
3745.4148,1.3409770077286245,711.8474101184102
3746.2786,1.3436353242420762,793.2183303522992
3747.1404,1.3448841361640267,762.2601468733402
3748.0044,1.344588580469898,666.8495949664994
3748.8667,1.3434894519533491,749.5149500115265
3749.729,1.3428030355976732,702.3536563574189
3750.5938,1.3435340947906815,715.6966150303957
3751.4565,1.3460089006591591,820.02300238137
3752.3215,1.3497961928773168,828.419145365985
3753.1848,1.3538295307086228,644.1086400284003
3754.0503,1.3568852142744223,694.4736807844552
3754.9138,1.358120617720705,761.4003009028453
3755.7776,1.3575319273899757,685.3299275139468
3756.6438,1.3557919728520038,655.5271851205738
3757.508,1.3537908387671134,831.3759820063417
3758.3745,1.3522007315206728,741.8117769055328
3759.239,1.3513819807750838,742.8377588018675
3760.106,1.3513615630101656,747.9112394589079
3760.971,1.3518880735210759,738.3223927268535
3761.8362,1.3525813382631469,842.0223025608545
3762.7036,1.3531641098296878,800.095476625434
3763.5693,1.3535306489680032,785.28365971075
3764.437,1.3535945632076776,676.2936759973104
3765.3032,1.3531185038721254,780.0436882942538
3766.1714,1.3517773203568133,781.9792555630605
3767.0378,1.3494032517620647,742.7587362734714
3767.9043,1.3461408175135026,839.6318854273538
3768.7732,1.3424138862050639,1002.6604670817753
3769.6401,1.3387685802667673,844.4941782778274
3770.5095,1.3355832575491238,907.6608194892649
3771.377,1.333034992872282,731.8040651666981
3772.2466,1.3310970597456482,715.0674734701756
3773.1145,1.3297022854805842,683.4158475809052
3773.9824,1.3287585184220123,741.7063922509559
3774.8528,1.3281857966799546,783.3063937236034
3775.721,1.3280023079654182,689.1674074996985
3776.5918,1.3283905989418214,855.5771264217635
3777.4604,1.329575324098079,1056.9182794593564
3778.3315,1.331577256944936,785.0587744468874
3779.201,1.3341523074049828,709.7592702746226
3780.0703,1.3371138340131679,775.4990200326754
3780.942,1.3405516207520523,817.4861719261025
3781.8118,1.3445864881182534,763.7172483246719
3782.6838,1.3490049979987724,749.7990087977295
3783.554,1.3531108727902985,1075.0111463478402
3784.4265,1.3562311000290712,705.308152619279
3785.297,1.3581642949315154,724.8627127537399
3786.168,1.3593313728826768,768.0271336179055
3787.041,1.3603063416749437,779.9288929566549
3787.912,1.361256629125325,770.7008274434962
3788.7856,1.3617650941361703,831.8624544202387
3789.6572,1.361113463687809,694.8585186295578
3790.531,1.3587944243123016,728.6961413369024
3791.403,1.354881019553784,712.4577073944458
3792.2754,1.3500103125278353,787.3241777695756
3793.15,1.3450903273133061,761.8626567772685
3794.0225,1.3409090326407545,678.2466564401798
3794.8972,1.337728038528878,793.7956351454382
3795.7703,1.3353183977759995,849.6340740341473
3796.6455,1.333155354308374,792.9349656106352
3797.519,1.3308305556979405,668.2731368436763
3798.3926,1.3282666398114609,896.7465781388596
3799.2686,1.3257713426503854,794.8108778939778
3800.1426,1.3239312214654442,814.1448649770964
3801.0188,1.3233219286403366,829.0185131442435
3801.8933,1.3242407738159874,898.0022937869749
3802.77,1.326512597309346,732.9505581879382
3803.6448,1.3295739284874861,823.7733508242296
3804.522,1.3328685255779913,978.135380276698
3805.3972,1.3361086968783111,994.5780854340343
3806.2727,1.3393226151199424,997.4833549147952
3807.1504,1.3425707048000666,698.9505200265971
3808.0261,1.3457743195437315,751.070390698756
3808.9043,1.3488977952326475,813.4735652947751
3809.7805,1.3520523633329309,848.1855899615364
3810.659,1.355470565178201,796.6157876441356
3811.5356,1.3591486210937187,824.4721189607778
3812.4126,1.3626931119244556,758.924868131323
3813.2917,1.3654012359874605,677.3568834653483
3814.169,1.366678419234021,575.6953843679994
3815.0483,1.3665857309883893,671.146174876948
3815.926,1.3659187590094346,792.2778327071003
3816.806,1.3656460982342251,922.6652612642841
3817.684,1.3661224048092908,720.6588971546366
3818.5623,1.3668711815090095,698.2981464976534
3819.4429,1.36712011052236,924.5721986465572
3820.3215,1.366428692561251,694.140621532092
3821.2024,1.3648294086272457,792.4531807157373
3822.0815,1.362586360351978,847.9437250763791
3822.963,1.3599821955956024,876.8698047424751
3823.8423,1.3574005992249025,784.729222280849
3824.722,1.3553104301394276,816.1082772696475
3825.604,1.3540744209508828,680.1608942539376
3826.4841,1.353667041080428,838.5569990421847
3827.3665,1.3536248974592924,862.3957874641058
3828.2468,1.3532889450625691,760.3078575252622
3829.1296,1.3520009978895096,837.4910361158649
3830.0105,1.3492105376628603,898.8035541911541
3830.8916,1.344629035209476,781.46372937773
3831.7751,1.3384909413119481,690.1325443128279
3832.6565,1.3316581195262278,789.5317509968891
3833.5403,1.325115460468827,885.121281849394
3834.4224,1.3196048368122715,804.0316802850848
3835.3064,1.315382851248808,763.1636685436902
3836.1887,1.3125815410070576,799.9513335024506
3837.0713,1.3113756831855696,758.8608982597682
3837.956,1.3119493077834041,601.269407765038
3838.839,1.314276916950418,819.8977207560632
3839.7244,1.3181295339017711,784.4868737907109
3840.6077,1.3232380495752132,917.114245901014
3841.4932,1.329554554317407,725.8547680863628
3842.377,1.3371331852304575,815.8203727263519
3843.261,1.3459574946496666,857.166138169949
3844.1472,1.3555755692821534,634.3359106560969
3845.0315,1.3648952660715985,697.8311279690058
3845.9182,1.3726322244396398,763.3277030289576
3846.803,1.3777822957959032,736.7589264494193
3847.69,1.3803422517153754,842.7543984756657
3848.5752,1.3812435008176516,733.9119070845469
3849.4604,1.381804151032424,787.0686405946152
3850.3481,1.3829515839405142,800.1139505322591
3851.234,1.3849073237775391,731.5418549573667
3852.122,1.387454917356638,695.9908549207715
3853.0083,1.3902693145582348,664.4408093578853
3853.8967,1.393043506860668,773.3633025746134
3854.7832,1.3953165527216123,665.746091305041
3855.6702,1.3965836056830276,700.5969806233804
3856.559,1.396652945506958,667.8631909153195
3857.4463,1.3960112498541892,701.2132688678905
3858.336,1.395682296310998,723.6083149573418
3859.2234,1.39659199884752,674.925826778672
3860.1135,1.3989498259947968,710.3376383940712
3861.0015,1.4021347665114374,703.3791583888077
3861.8896,1.4052022393562302,647.6960920243564
3862.7803,1.4074392200447037,748.733008767669
3863.6687,1.4085624111161064,697.9738232437401
3864.5598,1.4085802961239349,773.3313272219323
3865.4487,1.40757822068188,697.2563997948442
3866.34,1.4057787159481894,845.6315304775982
3867.2297,1.4037010512595298,786.9198395499703
3868.1213,1.4020027279901237,786.5829893712793
3869.0112,1.4010295968453645,696.717206236351
3869.9014,1.4003353187307808,740.004023036169
3870.7937,1.3987332462321411,698.7572332076052
3871.684,1.3949501392351864,822.0318113391268
3872.577,1.388421011560448,814.6122024198194
3873.4678,1.3797739032843084,688.8454737485933
3874.361,1.3703632226736837,718.7246213585099
3875.2524,1.3615962534698476,1126.6756310112223
3876.1438,1.3541244303718634,741.3174115392744
3877.0376,1.3478952627187513,822.0329278445691
3877.9297,1.3426181291047925,872.5147208921118
3878.8237,1.3379814381350896,733.3934124244727
3879.716,1.3336979486217009,738.4244044632828
3880.6108,1.3292989949873217,789.0668877602739
3881.5037,1.3243414513489156,784.7955902838813
3882.3965,1.3186071681788198,846.0884942588692
3883.2917,1.3122182425640072,745.3995244574376
3884.185,1.3055075514253338,790.686241777227
3885.0808,1.2986207976290454,753.4860273474893
3885.9746,1.2914902438876303,744.944879763636
3886.8706,1.2837712770939689,767.069593704312
3887.765,1.2752339227271292,897.1197129435662
3888.6592,1.2659473678502955,775.0868385953464
3889.556,1.2564864726870049,841.6789800477095
3890.4507,1.2479839263841748,786.0519710520839
3891.348,1.2417723347146352,909.9212132444911
3892.243,1.2392377939383963,873.1413203518688
3893.1406,1.2413507195764233,910.7307659621234
3894.0361,1.2483378739035076,962.8596532864856
3894.932,1.2594807649166486,904.8843100264913
3895.83,1.2732602223704568,995.0272471530583
3896.7263,1.2876939639617673,792.5687773444889
3897.625,1.3012212804503565,753.7722490080808
3898.5215,1.3129171199036864,850.2326944068668
3899.4207,1.322829336416979,835.8545327571699
3900.3176,1.331381782186783,840.6906145630378
3901.2148,1.339106496676221,754.0693608362653
3902.1145,1.3463285901126953,697.2054713996997
3903.0122,1.3532401498454676,795.3993470771113
3903.912,1.36021912618536,739.4231967315845
3904.8103,1.367693425807704,758.0231231098999
3905.7107,1.3760122338028817,731.3401543142609
3906.6094,1.3849817529784378,713.3158482405357
3907.508,1.393857968007863,750.5084041227897
3908.409,1.401586352219203,760.8587943920476
3909.308,1.4073450356013866,647.4466666478758
3910.2097,1.411106435800846,674.5401593143472
3911.1091,1.4134324461868129,771.9629717385334
3912.011,1.4150399784127201,681.4410205177148
3912.9111,1.4163489347862384,831.0349971968968
3913.8113,1.417537536904982,680.9542468183674
3914.7136,1.4187791997473727,718.2053050776805
3915.6143,1.4203738982593483,767.8789508243642
3916.517,1.422725846741662,690.9478493253062
3917.4182,1.426217538656737,659.5943299279764
3918.3215,1.4311639385205568,776.8269722086078
3919.223,1.4375912280508596,722.9142730720541
3920.1245,1.44510119814982,625.1997273099892
3921.0286,1.452786680385449,648.5966191222501
3921.9307,1.4594462009616695,698.7409134891012
3922.835,1.4642258992493196,616.1757630408919
3923.7373,1.4668959830650452,740.1586099924531
3924.642,1.4679211603516618,681.0700091442019
3925.5452,1.4680794206674266,672.8569780602511
3926.448,1.4681500871117843,706.6388136400833
3927.3535,1.4686951100759507,676.422596014524
3928.257,1.469914889120928,664.5522126221807
3929.1628,1.4715655416800104,642.5765512084533
3930.0667,1.4730039232118757,587.1414627984465
3930.9731,1.4734925487114081,588.1665750874056
3931.8774,1.4725638322540822,633.6779921474894
3932.782,1.470279122486779,639.9112050307563
3933.6887,1.46712219700847,579.973825820611
3934.5938,1.4636697297814385,717.0563933332276
3935.501,1.4602471190803976,660.9363444632513
3936.4062,1.457021401899036,601.6842858637241
3937.3142,1.4541639866165372,641.8642520205382
3938.22,1.451980146315887,676.7615272929988
