wavl,flux,ivar
3566.9744,2.539822035017239,74.63049327730013
3567.795,2.534692668736979,69.85000843484892
3568.6177,2.530411322793403,70.1241093711433
3569.4385,2.5280492904053498,77.28920248114633
3570.2617,2.52704557804934,67.1712201054177
3571.083,2.5255892802762974,64.35649144245612
3571.9065,2.5216569940970577,76.00952897607009
3572.7283,2.5144339982359196,68.64153217754705
3573.55,2.5050563696508137,82.03192748523502
3574.374,2.496106291924597,79.78541561606467
3575.1963,2.490107546254191,77.5138888290122
3576.0208,2.4878972852456096,71.29961230694248
3576.8435,2.488558160058882,85.87742616596933
3577.6682,2.4905497651175024,72.59008143793768
3578.4915,2.493017351829106,78.34927684620779
3579.3145,2.496052930941167,83.87674576358617
3580.14,2.4999680826058297,66.58569410990134
3580.9636,2.504515522408307,65.77550362836503
3581.7893,2.508834048684735,60.85261561905489
3582.6133,2.511743595590423,73.2234653613787
3583.4395,2.5123462325041586,77.52702911517245
3584.264,2.5104849673349796,87.89331735958908
3585.0884,2.507003009020585,72.57752061687701
3585.915,2.503427619891829,91.09295955839826
3586.74,2.5012243874324223,63.36184949929572
3587.5671,2.5009129368767704,79.01358687691452
3588.3923,2.501726800751485,73.57223240465747
3589.22,2.5019061992983516,80.24119434682498
3590.0457,2.4996064966427882,72.90466411308456
3590.8716,2.494027665564421,85.4130426807715
3591.6995,2.486063320896027,72.57934763824991
3592.526,2.4780809491811646,78.41069671598697
3593.3542,2.4726461583028927,75.28151961644986
3594.181,2.47126416401708,73.58098552248286
3595.0098,2.473432336982373,75.97172961609256
3595.8367,2.476686744970909,80.91703890088316
3596.6638,2.4776427740192264,73.83311230407685
3597.4934,2.473655186659216,84.11452587014816
3598.3208,2.4643770929669118,65.01972829423411
3599.1506,2.451849780682583,69.47965522690522
3599.9788,2.4393428685489082,80.17279177751212
3600.8088,2.4293497811506177,85.40327448572509
3601.6372,2.42288620641422,97.35519689171835
3602.4678,2.4195824357437448,65.42603264188297
3603.2964,2.418469130684434,84.04601369052192
3604.1252,2.4183867169918214,78.57830169012647
3604.9565,2.4183701828114477,85.33302922097738
3605.786,2.4179595251544748,73.63002627910788
3606.6172,2.4172854187088797,83.45616033083857
3607.447,2.416801885302588,86.76330068399646
3608.2788,2.41692120703251,82.03404254937969
3609.109,2.41788957268187,84.33255763652915
3609.9392,2.419861312369096,73.31780896089093
3610.7717,2.422916649553636,72.29046322244659
3611.6023,2.4268249513021667,70.04899038966073
3612.435,2.4308707650267984,70.95676312769749
3613.266,2.4338970344077766,84.92350547908835
3614.0994,2.4349267754400996,73.87078061234568
3614.9307,2.4337022906086587,78.41634635167144
3615.7625,2.4307883811026114,77.51635428192726
3616.5962,2.4270947468774096,75.67668317653079
3617.4282,2.4233957175714114,70.84733132852263
3618.2625,2.420038484916273,88.0233234618011
3619.0947,2.4169543713689494,76.0073281703867
3619.9292,2.4135873212494547,91.16418190735214
3620.762,2.4092036385260145,78.2245202638164
3621.595,2.403444049779573,80.33602158033104
3622.4302,2.3968572294567085,79.92846236644958
3623.2634,2.3907741517875376,82.47125915250949
3624.0989,2.386325699363361,94.5114164406406
3624.9326,2.383727857893333,98.65175853034413
3625.7686,2.382079718020497,82.11711248531303
3626.6028,2.379986659741346,84.80524552906793
3627.437,2.376281068062401,88.83828394486962
3628.2734,2.370507588360979,90.42617391473843
3629.1082,2.3630355044098663,85.32335456243949
3629.945,2.354657689244549,104.7903717806587
3630.78,2.3463340725772412,74.26448391531738
3631.6174,2.338833385861149,69.82329129009086
3632.453,2.3329389779952394,71.73702186208868
3633.2883,2.3293504848216418,91.67215010321424
3634.1262,2.3285040737159335,79.88112178146397
3634.9622,2.3300047897189162,92.73863768929752
3635.8005,2.3322836154977993,95.10966193154636
3636.637,2.3330744353153565,76.34458389930553
3637.4756,2.33063025637952,74.13080055128223
3638.3123,2.324631001586746,89.17147685267014
3639.1492,2.3159767411527556,96.8575296398861
3639.9885,2.305912695850196,72.70993818419026
3640.826,2.2955826233584053,87.82061083525501
3641.6653,2.28589561791171,97.50029286795093
3642.5032,2.2777778276254343,96.55539033839212
3643.343,2.2716538104041266,95.59256395983527
3644.1812,2.267130907462132,113.62867235327869
3645.0195,2.2630553734999332,94.23965892155007
3645.86,2.2584337721094547,99.21483383088848
3646.699,2.2533525638979466,94.38242048746814
3647.5398,2.2489406658901547,89.17861671997785
3648.379,2.2465096027992297,96.04079187499055
3649.2202,2.246381169963574,99.9092125903549
3650.0596,2.247590555781045,80.99964980703342
3650.8994,2.248531038689346,84.58587972438204
3651.7412,2.2480006329894864,76.75647739382933
3652.5813,2.2458441194024643,85.54344255244773
3653.4236,2.2428207094205344,89.57801318735075
3654.2642,2.2400306347289476,84.93597358050044
3655.1067,2.2382492428655802,115.62441381196383
3655.9475,2.2376389453328454,95.0238959682465
3656.7886,2.237754804531115,88.24266055833277
3657.6318,2.237854925506785,88.28544205856656
3658.4734,2.2372372689452864,90.3497815735506
3659.317,2.2354868256386613,87.81390681577464
3660.1587,2.2326148003638733,105.94974802583694
3661.003,2.2290270294695977,94.52869872352858
3661.845,2.225436947303937,98.54175705525331
3662.6875,2.2225106774818295,93.12234893075703
3663.532,2.2205108973457857,107.18929602613602
3664.3748,2.2190172427496337,91.40017884152044
3665.2197,2.2171298408028486,72.8947098881822
3666.063,2.2143010640847742,99.52007627269987
3666.9084,2.2109628877566454,114.76539917538844
3667.752,2.2083034368667307,89.86278971587713
3668.5977,2.2071287000377464,86.84052812011761
3669.4417,2.2070718285343967,83.4780315036703
3670.286,2.2068281190962793,102.8629663618103
3671.132,2.205255547682895,101.19141504460974
3671.9768,2.2022999160849617,100.11397851916823
3672.8235,2.1989898898045257,100.453776567152
3673.6685,2.196709736574048,102.58208468893648
3674.5156,2.1961799043121952,97.94746081646184
3675.3608,2.1968725049536046,102.93957525614408
3676.2063,2.1971401719697856,100.902880792721
3677.0542,2.1951978819255618,91.99951189290556
3677.9,2.1904331928696648,88.14579038652494
3678.748,2.183973550423187,109.44721081944708
3679.5945,2.1781259381697393,93.18270634411019
3680.4429,2.1747872115830154,92.30899465779646
3681.2896,2.17434325573658,112.67530950244699
3682.1365,2.17563350557756,95.41947407926583
3682.9856,2.1771061895672514,97.6398685778679
3683.8328,2.1779588464942767,93.29745819455344
3684.6824,2.1783575155903736,102.93624680551905
3685.53,2.1786510355207427,93.94620678037268
3686.38,2.1786456755656483,86.34313514866773
3687.2278,2.1777181219901363,100.76215965780096
3688.0762,2.175551167204913,115.24112999414496
3688.9265,2.172587736000516,96.06721063192255
3689.7751,2.1697398377520374,103.78911941028623
3690.626,2.167589839469508,107.41997125316169
3691.475,2.166008230712875,98.01642022202151
3692.3264,2.1644394478354037,94.5661148718798
3693.1758,2.1627026325749013,96.77890780199957
3694.0254,2.1614176317825136,105.18435138484628
3694.8772,2.1617323087440212,101.07641394855293
3695.7273,2.1645341395858244,113.59070923486823
3696.5793,2.169775081120786,96.79457704336363
3697.43,2.176209729045602,97.54916913629575
3698.2825,2.1818198559400894,98.0529452764019
3699.1333,2.1845575708731864,95.99277800612232
3699.9841,2.1833719038365116,102.90233658660246
3700.8374,2.1785967707494596,108.3551834362868
3701.6887,2.171648098152944,102.49060002692931
3702.5425,2.163973207430272,108.02931821196564
3703.3943,2.156386753380272,110.79394609015934
3704.2483,2.1488718355794276,100.63276639575557
3705.1003,2.141323166881038,104.82709741417683
3705.9526,2.134025723428023,89.0367311174504
3706.8074,2.1277740635107634,100.9284180945716
3707.66,2.12341931660777,110.96211312969274
3708.515,2.1212074957751557,104.49619762466324
3709.3682,2.120746639011792,123.05338437450946
3710.2234,2.1212881269028228,107.98993088529987
3711.0771,2.1221459211396922,123.52999717606451
3711.9307,2.12282313929073,114.58548513473964
3712.7866,2.1228988022256607,101.46957761830258
3713.6409,2.1219483842989457,115.04856319064709
3714.4973,2.11962848904523,90.70616487978035
3715.3518,2.115850972847817,103.00013962486908
3716.2085,2.1108572882481877,103.13311210642577
3717.0635,2.1054277393824186,108.3861178630845
3717.9185,2.10089956912869,97.10726938660362
3718.776,2.0988942183847574,114.25135311144696
3719.6313,2.100455811768332,104.31752997073681
3720.489,2.1051775519910882,95.02762804643848
3721.345,2.111208280319729,97.83968646602287
3722.2031,2.116341028452106,111.97288859305536
3723.0593,2.1191372541160582,114.8650333013852
3723.9158,2.1195358414883625,106.61207675480372
3724.7747,2.1184463528739195,105.61280625006233
3725.6316,2.1170169381597392,101.01562802978157
3726.4905,2.115959311096845,103.16743008336103
3727.348,2.1152436259516465,96.11556952237555
3728.2073,2.114101677090599,119.54185804941596
3729.065,2.111469409485187,100.64082453175827
3729.9229,2.106735915393691,85.13621730306747
3730.783,2.100344885498487,97.10844251342249
3731.6414,2.093690577204628,111.64670932936215
3732.5017,2.0881083615322407,94.33066829151832
3733.3604,2.0841488429995074,121.76177321918576
3734.2214,2.0814662824147883,115.76449847735739
3735.0803,2.079511080032881,113.56902148534577
3735.9417,2.0779992762503796,107.55502114634916
3736.8013,2.076976521420731,104.67603989908378
3737.661,2.0764795873653634,121.06025268677206
3738.5227,2.076310246903831,111.90058775591088
3739.3828,2.076015832078881,114.76360239647033
3740.245,2.074982589287504,110.8892550786402
3741.1055,2.072568847969004,103.10448872532524
3741.9683,2.0682947211683476,108.41214255449151
3742.829,2.0622599558549486,101.63051876970971
3743.69,2.055376985684005,113.69387442403006
3744.5532,2.0492877210230236,98.4779356700563
3745.4148,2.0458154490140785,121.57154070717343
3746.2786,2.0460467203089627,138.75136107380564
3747.1404,2.049848598523518,101.74559252920868
3748.0044,2.0559875566861083,136.1004581448724
3748.8667,2.0627393864918018,103.28433766553135
3749.729,2.068710832209312,102.18686900332285
3750.5938,2.073164804659679,105.75276699136012
3751.4565,2.0759354959015925,127.19619275096983
3752.3215,2.077302548179324,116.20724651671307
3753.1848,2.0777692562288053,106.14765878824895
3754.0503,2.077912784481444,96.64184701122105
3754.9138,2.078145478237624,105.82507875430791
3755.7776,2.0786078150707468,109.20547038788109
3756.6438,2.079246080767522,115.46992786918038
3757.508,2.0798726166278145,117.17673673290275
3758.3745,2.080059628590841,103.82746625223265
3759.239,2.0790521633532864,102.9196103756936
3760.106,2.076074342118809,104.39446966911908
3760.971,2.0709521752954334,115.44410436907293
3761.8362,2.0643666378015157,103.04938029848788
3762.7036,2.0575038990983288,121.33518423799889
3763.5693,2.0514049096177445,102.99195841969564
3764.437,2.046411218497545,109.59024639815027
3765.3032,2.042358197029754,118.13683030606306
3766.1714,2.0388611489968085,105.01931219459235
3767.0378,2.035589260641074,113.71270279615186
3767.9043,2.032179426082816,120.47237678809537
3768.7732,2.0283216312624317,114.18618461021993
3769.6401,2.0241735637191245,109.93012972694264
3770.5095,2.0206189099080722,122.96053083914441
3771.377,2.019009323440022,102.65994849391014
3772.2466,2.02007547270256,120.82537095083603
3773.1145,2.0230482188331735,125.22015062592175
3773.9824,2.025862519917814,122.01104016724277
3774.8528,2.0265154612372336,121.76349232902287
3775.721,2.0244475173236065,118.56031964516085
3776.5918,2.0207152321092807,122.43183281658983
3777.4604,2.0170081663355517,106.55014940280435
3778.3315,2.014572550519039,102.0838850121354
3779.201,2.0141645108965185,131.579172382291
3780.0703,2.0164287230836453,122.26881669472155
3780.942,2.0219616162952336,107.03398058691752
3781.8118,2.030558505272573,105.35181670472653
3782.6838,2.040653775715769,103.64203942636561
3783.554,2.0494986185782915,119.41646836564789
3784.4265,2.0546421256265757,108.7610328518606
3785.297,2.0550243281558176,88.11099883235704
3786.168,2.051184871245264,117.64883781845697
3787.041,2.0442905597351824,118.61519775252818
3787.912,2.0354434494813614,112.40633697083973
3788.7856,2.025546085038555,121.42545987776948
3789.6572,2.015770544881779,122.31187586810287
3790.531,2.0071953602153614,105.48613073889321
3791.403,2.0003328785977446,121.68575618936941
3792.2754,1.9946154092959716,129.2726294909434
3793.15,1.988872627393544,139.53092318449055
3794.0225,1.982257389107054,117.31976917887175
3794.8972,1.9747682801224475,118.51364772748315
3795.7703,1.967252726460448,131.2217480856532
3796.6455,1.9606491199384244,126.22399162245583
3797.519,1.9556225648793792,122.08888819414926
3798.3926,1.9525036567470957,116.04493554732127
3799.2686,1.9516644124379776,130.48179803480886
3800.1426,1.9535014905948096,143.82021700712988
3801.0188,1.957932056091938,128.78545558438248
3801.8933,1.9638871157147288,127.52560477566172
3802.77,1.9695535071371921,126.91060742461092
3803.6448,1.9731366870116922,120.68340469984038
3804.522,1.9738811120355924,119.18831739257483
3805.3972,1.9723869728089671,120.31891710927427
3806.2727,1.9702621788384236,125.24702702551724
3807.1504,1.9692506517230288,118.04125607463367
3808.0261,1.97038461488385,138.37459739839366
3808.9043,1.9735552946761388,109.15358359761564
3809.7805,1.977714994601005,127.43134017684416
3810.659,1.981623345467367,120.77961073413283
3811.5356,1.9844426080640332,106.82874648041907
3812.4126,1.9859983662741347,120.16193257358279
3813.2917,1.9865459518813835,129.41004305515366
3814.169,1.9865558227104914,114.37179095578293
3815.0483,1.9865821676411135,117.09773165729464
3815.926,1.986983083128098,108.98509764280857
3816.806,1.987519498538745,126.16932734291059
3817.684,1.9872731054030695,110.31574991848268
3818.5623,1.98520998641465,140.41395482372093
3819.4429,1.9809638828898772,115.38889166826975
3820.3215,1.9752327149636788,114.2545450206806
3821.2024,1.9693147166298202,122.10305866843387
3822.0815,1.964445072714259,123.29710916473901
3822.963,1.9611284816152776,122.27745707877023
3823.8423,1.9590920364369782,110.22380935121424
3824.722,1.9574550440316627,122.74718262006012
3825.604,1.955125771424073,122.07279158672992
3826.4841,1.9511664508708528,121.3744057318092
3827.3665,1.9450368901819783,124.54485820598511
3828.2468,1.9368970155108454,129.36174023497983
3829.1296,1.9275550289341312,131.37632314381423
3830.0105,1.9183905741720455,129.18365366195067
3830.8916,1.9107038458776142,121.25280603017602
3831.7751,1.9053056786757392,126.55185047889987
3832.6565,1.9023103854246424,139.51786058762514
3833.5403,1.9010919323424447,133.458425052657
3834.4224,1.900530154516846,156.1087705271788
3835.3064,1.899295849011103,142.24484679502714
3836.1887,1.8964700238561212,133.36046335654854
3837.0713,1.892216888607669,123.70990723223787
3837.956,1.8879595236292868,148.1680257443101
3838.839,1.8856291194526735,147.12521198143884
3839.7244,1.8862865592623432,158.65093284917484
3840.6077,1.8894130359457333,132.69659319174355
3841.4932,1.89345295140833,143.5865847733596
3842.377,1.8970596551664411,126.73495645878884
3843.261,1.9000363257574506,114.27868793665846
3844.1472,1.9031619061733482,131.6110047399206
3845.0315,1.9073389509973808,132.8725757895577
3845.9182,1.9128740033847498,117.7872097369639
3846.803,1.9191517394884134,120.08390479903596
3847.69,1.9250819292984247,115.27532023074423
3848.5752,1.9296629692105591,99.91043038793723
3849.4604,1.9326091152501426,149.34344074636408
3850.3481,1.9343174882516598,127.03973029111162
3851.234,1.9354127696804426,121.66799491694226
3852.122,1.9363021494324097,126.44140762563555
3853.0083,1.9370402362179526,136.55652682272046
3853.8967,1.937556484199805,133.04901448991694
3854.7832,1.9378470195626394,117.82374807952398
3855.6702,1.9379707430521498,120.94358113776765
3856.559,1.9378646719522454,128.1759233518684
3857.4463,1.9372225856686152,127.1211464294885
3858.336,1.935609127094822,105.20404586255005
3859.2234,1.9328082117288976,118.31378195953502
3860.1135,1.9290322483368405,129.54520795748005
3861.0015,1.924891141158795,133.34511197396054
3861.8896,1.9210052803659896,132.72265834970216
3862.7803,1.9178170763193012,148.27475813673206
3863.6687,1.91558533973974,125.24936801131675
3864.5598,1.9142747375415743,121.58666349629
3865.4487,1.9133940666134037,120.08176585045615
3866.34,1.911891970180538,126.85786926667444
3867.2297,1.9086272037020884,125.02734108202714
3868.1213,1.9031435746122332,129.21900424300364
3869.0112,1.8962432196451873,126.74629500497922
3869.9014,1.8896025604334394,132.7860666693362
3870.7937,1.8848566807458926,141.17635429769135
3871.684,1.882777854586138,122.7375973373523
3872.577,1.8830249198879232,142.92631465179966
3873.4678,1.884571905884027,154.75729630983477
3874.361,1.8862047298751152,138.91649913830486
3875.2524,1.8868858924515077,141.46348550507335
3876.1438,1.8860750817643976,130.34748880797517
3877.0376,1.8838710670560983,133.23228381640018
3877.9297,1.8808927334279733,137.97496928409657
3878.8237,1.8777416825549542,127.84441484586337
3879.716,1.8745071978120251,147.20724187472734
3880.6108,1.8705694280843388,137.78611725044257
3881.5037,1.8650753097670079,160.23894389804872
3882.3965,1.8575560739989578,134.68043519038991
3883.2917,1.848373286820822,132.30344543984447
3884.185,1.838715771891247,123.06008288728644
3885.0808,1.8299247167052095,149.36167855814176
3885.9746,1.8230696766983479,150.5127691637352
3886.8706,1.8184104015337823,149.83068826963412
3887.765,1.8155338237407008,177.81647949142948
3888.6592,1.8136506915988486,143.54492425550248
3889.556,1.812141491931583,151.18875095986982
3890.4507,1.8108652261377545,138.30459128098744
3891.348,1.810097430621286,124.59409943423611
3892.243,1.810262616750933,142.46439869634435
3893.1406,1.8115706246723329,154.68015115047828
3894.0361,1.8137826874229663,138.68175824963328
3894.932,1.816297089778705,135.72280848556298
3895.83,1.818512105382873,125.5006069583505
3896.7263,1.8202065994384031,142.13855061381815
3897.625,1.8216346726564698,144.87368962881072
3898.5215,1.8231733119299325,145.26130374733972
3899.4207,1.8250593397301036,133.20197902757442
3900.3176,1.8273913046224484,172.96514922006847
3901.2148,1.8303491579431677,149.01376591090312
3902.1145,1.8341555713628543,155.43040691086804
3903.0122,1.8388158611222098,154.83347899053427
3903.912,1.8440935260028077,126.58233610344331
3904.8103,1.8495992787930302,137.96639432983775
3905.7107,1.8551103503314532,111.20960986924894
3906.6094,1.8605601704837527,157.61301219092428
3907.508,1.866074037926644,135.67114666030238
3908.409,1.8718554408916788,113.5983060069855
3909.308,1.8780043321854964,146.67393266419293
3910.2097,1.8843905099041935,122.29726239066257
3911.1091,1.8904323966699763,131.57445259902556
3912.011,1.895488758934851,107.85920470662268
3912.9111,1.899261610293395,136.6835061081137
3913.8113,1.9020681772540298,129.02076069548542
3914.7136,1.9043135674552993,130.21822641760244
3915.6143,1.9058351982042476,119.23972525758099
3916.517,1.9059710229953677,121.74932128233091
3917.4182,1.9043363445900012,132.2233581335147
3918.3215,1.901483092203056,121.34237237940285
3919.223,1.8986899953117977,140.73343117601868
3920.1245,1.897090825935627,121.36621504471765
3921.0286,1.8971021285055507,126.95664226614159
3921.9307,1.8983798016421551,139.96420185203885
3922.835,1.9000805537058196,132.24395316000673
3923.7373,1.901115322200017,137.29102148097513
3924.642,1.9004852632121592,136.14675400281203
3925.5452,1.8977113918788662,138.28548341054847
3926.448,1.8931791294545839,154.89291154038702
3927.3535,1.8879720896773078,129.9217766186629
3928.257,1.8832511831523278,136.54527827922612
3929.1628,1.879422971355191,136.83601427540796
3930.0667,1.8760389274299052,116.31970546672157
3930.9731,1.8722084388136495,152.120204074891
3931.8774,1.8674322538837496,133.66779985368774
3932.782,1.862044754507818,122.9870062234993
3933.6887,1.8572070985004459,140.85264076657026
3934.5938,1.854314440041012,133.0983086242219
