wavl,flux,ivar
3566.9744,2.397362899105385,279.78828163027225
3567.795,2.396526831146553,291.586847924416
3568.6177,2.391209230666062,282.02784268174776
3569.4385,2.384050102344024,280.81075596091046
3570.2617,2.376980577770714,255.3496788559491
3571.083,2.370701186071878,255.78491038544703
3571.9065,2.364991859926625,243.0022132903812
3572.7283,2.3595813079174612,264.66901504352495
3573.55,2.354304366789233,272.38165046565365
3574.374,2.3490030445269343,273.7443586347853
3575.1963,2.343575621052091,281.3469016024028
3576.0208,2.338078650084975,266.704769988232
3576.8435,2.3327985028603426,334.05646201392204
3577.6682,2.327877830346812,238.01341144323726
3578.4915,2.323324739932752,275.9231172143447
3579.3145,2.319148072185756,288.68001137632314
3580.14,2.315461487864241,271.99738159616834
3580.9636,2.312274123253883,288.8564118272288
3581.7893,2.3092922228376613,268.0402402895686
3582.6133,2.306388463728163,302.3000323914127
3583.4395,2.3041861184922365,289.1960305129068
3584.264,2.304171169781225,318.3418758780375
3585.0884,2.3077900141749694,285.9716510035968
3585.915,2.315287021308573,264.9878560511471
3586.74,2.3250251676068423,255.54381738429956
3587.5671,2.334145166457085,273.6972280823234
3588.3923,2.3397222231217647,222.6831627459441
3589.22,2.3401900425680737,321.9884624952438
3590.0457,2.3358107194520636,261.72965322913353
3590.8716,2.328372404332649,262.8608917301152
3591.6995,2.3201671992328254,249.2328154712603
3592.526,2.3129991064726716,262.0130838967717
3593.3542,2.3075067538614156,278.68845134257356
3594.181,2.303460571504427,289.1119804130679
3595.0098,2.3002753981686728,270.05023591566874
3595.8367,2.297530438008178,283.90669435853175
3596.6638,2.294865269450633,286.53209186715
3597.4934,2.291725024253734,247.38202239494348
3598.3208,2.2873878200528965,302.6388168968893
3599.1506,2.2813785282336854,241.38645837321485
3599.9788,2.2741511138694603,295.12406318882455
3600.8088,2.2670268103587397,271.69229549133877
3601.6372,2.261561737638948,321.4155930034308
3602.4678,2.258399015943513,265.05563343914326
3603.2964,2.257009699490228,301.5464436725978
3604.1252,2.2564600711998737,289.04287333647716
3604.9565,2.256782874130858,294.1307749480689
3605.786,2.25940545136075,342.11170159492985
3606.6172,2.2660152468680748,309.6976437902707
3607.447,2.2766485902518574,286.9542485409059
3608.2788,2.2889883271182097,345.85641220419484
3609.109,2.299263282441434,252.58671393900238
3609.9392,2.3044225131947473,285.2445033884708
3610.7717,2.3033576717606303,276.8682952266119
3611.6023,2.297014834992516,264.362817413376
3612.435,2.287608267595618,282.37780547322507
3613.266,2.2778703996075698,352.44397602964614
3614.0994,2.270121455143911,311.67452485016497
3614.9307,2.265696237529253,270.1637465450448
3615.7625,2.264365705403263,278.7230087540122
3616.5962,2.264637332706017,280.6551171792464
3617.4282,2.2645940212068303,297.60585839315723
3618.2625,2.2629352256382966,282.05192571222426
3619.0947,2.2595276639017374,249.24174283816222
3619.9292,2.255166571731835,328.5025115406299
3620.762,2.2510632132872224,288.70746775699183
3621.595,2.248288780598842,318.34785356985515
3622.4302,2.2474335512199555,318.8316645896126
3623.2634,2.2481913876673913,292.73248102542294
3624.0989,2.249189299746533,303.1949747394834
3624.9326,2.2485453350427203,283.7367274514212
3625.7686,2.2450586540788042,300.18083094229513
3626.6028,2.23919354299786,295.78257159768384
3627.437,2.2328693108748996,318.89690379147
3628.2734,2.2281688233752885,334.8980907160213
3629.1082,2.2259193076244683,366.2117027679974
3629.945,2.225188948590206,302.80851744699004
3630.78,2.224275954855124,260.31086010094265
3631.6174,2.2221223270791453,310.28769718997927
3632.453,2.2189736806481624,289.8731151433901
3633.2883,2.2156613851018143,324.89604022693266
3634.1262,2.212449843505197,322.17743275618176
3634.9622,2.2087040007031287,298.81928068053213
3635.8005,2.2035762563832053,313.3622453396411
3636.637,2.1970141564555457,327.10726497754433
3637.4756,2.1897095152158066,314.57784229570717
3638.3123,2.1825287639099167,284.8290798494967
3639.1492,2.1758970128757045,336.1162242680441
3639.9885,2.1700325158076366,300.01304191052617
3640.826,2.16534505851335,297.0580364730995
3641.6653,2.1622784037707032,310.59428096877906
3642.5032,2.1609622522708865,302.2346105129681
3643.343,2.160795367359646,379.4445547762839
3644.1812,2.160467740245166,292.27986382753625
3645.0195,2.1583797076692632,303.72212254238434
3645.86,2.153433590068289,292.8178095748012
3646.699,2.145890149066952,321.43153461096824
3647.5398,2.1374093574054047,301.5581527662735
3648.379,2.130332788985611,350.25350078359196
3649.2202,2.1263050147038975,286.4968134740912
3650.0596,2.1255675168060577,283.4060616135789
3650.8994,2.1268937211215917,320.5447204339446
3651.7412,2.12834197941535,324.24165233369536
3652.5813,2.1282575122046805,311.4922910736477
3653.4236,2.1261400164375748,323.03375124430886
3654.2642,2.122789569239424,317.17259406697445
3655.1067,2.1195796205929605,353.737322659331
3655.9475,2.117516502389883,342.30326333078847
3656.7886,2.1166742863903685,311.66642781593964
3657.6318,2.116499769725714,344.02195255279173
3658.4734,2.1165746830908563,321.81498426079236
3659.317,2.1172208768182683,367.80198920185734
3660.1587,2.119367529812148,358.02356045664624
3661.003,2.1237865540562755,289.76389148999283
3661.845,2.1303067427174773,324.7318829789134
3662.6875,2.1378259682599436,341.55580240482846
3663.532,2.1447776356797266,285.8873462310704
3664.3748,2.1497120945071946,335.28715158578694
3665.2197,2.151879092548956,298.83763601580563
3666.063,2.1514285151991426,318.55150013848527
3666.9084,2.1493644934316203,417.7478860202901
3667.752,2.14701606469423,334.2284716051419
3668.5977,2.1453358289795137,319.95762539180237
3669.4417,2.144570192863734,312.8369704042975
3670.286,2.1443481276622456,404.2864129455556
3671.132,2.144092767100052,299.11754339458344
3671.9768,2.1433858286546874,279.1993798719638
3672.8235,2.1421457106059694,341.43506353251723
3673.6685,2.1406302253731253,359.50959141031035
3674.5156,2.1392452115469207,340.41847459815165
3675.3608,2.138302437420445,334.40201181824517
3676.2063,2.1377978362439616,326.1912264621755
3677.0542,2.1374582417691155,319.6296499509752
3677.9,2.136960527855198,349.7902080378081
3678.748,2.1360997502729697,355.62355663812144
3679.5945,2.134802039555659,314.26707544467774
3680.4429,2.1330348925666414,292.82462288690607
3681.2896,2.130816889785944,329.7438326818053
3682.1365,2.1282493233312887,331.4572821727839
3682.9856,2.125599535325284,342.85472836775006
3683.8328,2.12331968742779,306.667441099998
3684.6824,2.121784437593674,357.7416169776406
3685.53,2.120955562226032,294.65780474172635
3686.38,2.120216614541532,359.28789379822445
3687.2278,2.118831255202432,333.5695491618379
3688.0762,2.116619690351641,337.30414807923813
3688.9265,2.114225065524289,383.56114227754244
3689.7751,2.1127398135442816,326.7925869501961
3690.626,2.1130813020315338,345.32866739934065
3691.475,2.1156662366602528,358.6150418184373
3692.3264,2.1202879125461567,331.6721826080315
3693.1758,2.1259856945257787,355.36853031689907
3694.0254,2.131253424535542,270.1291847509595
3694.8772,2.1345720533204187,303.6539354643476
3695.7273,2.135142839623158,335.47754734710134
3696.5793,2.1332982222739965,327.4293941852749
3697.43,2.130200222801668,338.0612978306267
3698.2825,2.127116291041044,337.173139637682
3699.1333,2.1248037248760303,369.29792696507434
3699.9841,2.1232304867427008,349.8481366330403
3700.8374,2.1218465743885413,329.5378141694863
3701.6887,2.1200570562447645,322.6715624245391
3702.5425,2.1175020562858315,325.05903258782706
3703.3943,2.1140611975838817,292.12802361302766
3704.2483,2.109578876498833,295.0138412596758
3705.1003,2.1038818207440086,306.21427685699257
3705.9526,2.096998633009261,339.2140417457378
3706.8074,2.0895431423465545,321.6854764152206
3707.66,2.08270895736346,355.4983043558383
3708.515,2.0774686390173303,341.088807531631
3709.3682,2.073976376992885,349.0596860866524
3710.2234,2.0714004780586004,325.12401107605046
3711.0771,2.068730834248061,341.09589896049584
3711.9307,2.06557230762695,346.17605960035337
3712.7866,2.062311750747577,388.8547230444435
3713.6409,2.059613788026802,345.79391135497553
3714.4973,2.057776334336177,338.91891506138427
3715.3518,2.056681381526728,353.2468445334161
3716.2085,2.0561196051474826,292.31530334923804
3717.0635,2.0561813925298265,351.1303267862605
3717.9185,2.057230919277226,324.655518475652
3718.776,2.059504099612341,315.4533400871921
3719.6313,2.0626060358082308,343.5265528251938
3720.489,2.0654935258620433,335.18815066823777
3721.345,2.0669495498652672,307.2471486135732
3722.2031,2.066329909106508,365.8252395103619
3723.0593,2.0638008850349934,387.19374549033836
3723.9158,2.0599794982890627,325.9455140675675
3724.7747,2.0554415555148022,338.5118259533461
3725.6316,2.0506469766170126,366.05778070973554
3726.4905,2.045996498483706,347.4127411676776
3727.348,2.041883763831364,354.35043842375205
3728.2073,2.0383325786854924,334.8533868887609
3729.065,2.034940277034919,345.02923578843973
3729.9229,2.0312247480869816,321.2460728022373
3730.783,2.027268200666141,371.3358836759331
3731.6414,2.0238966554218343,390.17894289730066
3732.5017,2.0220971437719757,356.83549631279067
3733.3604,2.0223954933320045,321.7809059869557
3734.2214,2.024567630352864,341.1965140114611
3735.0803,2.0277652312004917,376.783564072599
3735.9417,2.0308261639531717,355.4289772083109
3736.8013,2.032580352746611,327.00814340994987
3737.661,2.0324150367558103,324.338947173192
3738.5227,2.030718407610987,360.86853013157435
3739.3828,2.0289122366200636,333.57803165624034
3740.245,2.0287028409214223,354.76743305154355
3741.1055,2.0309642311309344,383.1019283565908
3741.9683,2.0350070823671795,349.97251939158593
3742.829,2.0388055910516676,335.9254146008989
3743.69,2.040190051496795,341.86553092292763
3744.5532,2.0379811871206917,335.3128341339992
3745.4148,2.032497731599078,330.79331776435805
3746.2786,2.025142789497241,362.7310494746715
3747.1404,2.0177570886462246,356.4179923036801
3748.0044,2.0119017638129817,411.24190469488707
3748.8667,2.0086008422977963,398.9894939216556
3749.729,2.0079373080124077,355.99645479096415
3750.5938,2.0089765113997893,359.3102650308407
3751.4565,2.0100771352254445,342.5502656987793
3752.3215,2.009813295612004,418.4197915247573
3753.1848,2.0079420650989266,325.6204155524142
3754.0503,2.0056510434278048,348.86112625666266
3754.9138,2.0047787237675654,404.020387163431
3755.7776,2.0064922486380663,373.07216724108287
3756.6438,2.010534202349073,382.6043685037732
3757.508,2.015356760286857,391.72758220505364
3758.3745,2.0190627713991423,349.90494922963956
3759.239,2.0202698810814925,343.7052818181706
3760.106,2.018725936194315,372.47536072346
3760.971,2.015303201534262,341.3390804598834
3761.8362,2.0115078882461543,393.614974696195
3762.7036,2.0087967503792465,368.4720764691954
3763.5693,2.0080566549420666,385.9030751406907
3764.437,2.009359467273905,363.7948014408167
3765.3032,2.0120500159493857,336.7714614449762
3766.1714,2.014980506061239,358.31477447259675
3767.0378,2.016773938308578,365.7607040311958
3767.9043,2.0162243027162776,359.4305780929702
3768.7732,2.0126516209148027,396.9948541165468
3769.6401,2.006271927674761,427.990614094544
3770.5095,1.9981556895168242,354.16540503118443
3771.377,1.989970831302848,397.2805968566191
3772.2466,1.98318907190327,363.5304298518057
3773.1145,1.9786698029789898,355.8511016435158
3773.9824,1.9764373588114459,387.7301513522536
3774.8528,1.9761552340238546,361.5647098391127
3775.721,1.9777077286790354,354.9604755309197
3776.5918,1.9814380302710524,385.72745342968364
3777.4604,1.987673895479472,369.8792879304488
3778.3315,1.9960853813794435,379.7586812238472
3779.201,2.005304832239346,366.913519503593
3780.0703,2.0136074155728063,316.2604240878561
3780.942,2.019744626333372,383.1535271235426
3781.8118,2.0233608966068632,368.3550601363535
3782.6838,2.024837060808987,373.5031082493194
3783.554,2.0246763714737,296.7689660402943
3784.4265,2.0232457130282513,395.2804994973157
3785.297,2.020855888510951,354.9917973906041
3786.168,2.017868312991184,392.1180493849538
3787.041,2.014586895456253,387.15842082980004
3787.912,2.0110419021433956,376.399342845966
3788.7856,2.006898782772207,350.3220915986375
3789.6572,2.00185680975163,415.9847908278121
3790.531,1.9959469001105283,371.468092543594
3791.403,1.9896115026686167,384.13155462802246
3792.2754,1.9831763297053435,377.1158030899463
3793.15,1.9765359602717474,335.481282267614
3794.0225,1.9693840273060803,357.5999902073887
3794.8972,1.9616037338209722,374.3957797741672
3795.7703,1.953640695424819,401.67388858081614
3796.6455,1.9461883752180464,429.78664631668136
3797.519,1.9401402300059796,378.4802844335543
3798.3926,1.9364789713013648,411.08174152801007
3799.2686,1.9361463804934926,373.5574732259368
3800.1426,1.939353769712966,393.61138435996156
3801.0188,1.9450199721942232,365.22149811136956
3801.8933,1.9510982935563503,365.29177693512787
3802.77,1.9559034423474757,413.89465320930805
3803.6448,1.959095024446585,383.88089602527754
3804.522,1.9617306956938774,429.48651017860436
3805.3972,1.9651531149099901,433.4438632604423
3806.2727,1.9699330065543104,391.78655774187473
3807.1504,1.9755328261648109,393.8882894559096
3808.0261,1.980795484526965,356.0076181129245
3808.9043,1.9848991626873007,388.9190656777522
3809.7805,1.9879148318285293,364.26602413838685
3810.659,1.9911374581345302,410.19975486530785
3811.5356,1.9968167200052092,406.951506954439
3812.4126,2.0073953005448177,351.877115709133
3813.2917,2.023990520990228,358.078488967387
3814.169,2.0444884963448535,392.16194979644774
3815.0483,2.0633770678296517,350.77921728924304
3815.926,2.0736221135416875,346.71301094800253
3816.806,2.0710328747877678,336.0939880859806
3817.684,2.0568762063401835,393.69347268309934
3818.5623,2.0367207603820265,330.8544693339591
3819.4429,2.016402108908945,348.91071617458294
3820.3215,1.9991593343218235,417.37842650456787
3821.2024,1.9851972268849583,381.09297086384527
3822.0815,1.9737409048386925,382.5271472077268
3822.963,1.9640243684880798,374.33463492462073
3823.8423,1.9554779608241786,423.72622880149305
3824.722,1.9471575473892346,356.20760398512505
3825.604,1.9379729557925705,386.2408651811915
3826.4841,1.9273566226718113,399.8738496113386
3827.3665,1.915420137857838,386.4944974881267
3828.2468,1.9028461304108306,407.8545233331282
3829.1296,1.8900767126353846,412.58648922823704
3830.0105,1.877236497870613,430.81545802476455
3830.8916,1.8640943519887232,425.73994908054476
3831.7751,1.8506300325810014,467.7134189624699
3832.6565,1.8374944972787495,450.21484448392454
3833.5403,1.8257620113629085,428.8265414562607
3834.4224,1.8169056716661012,428.71615660973225
3835.3064,1.8121773557433247,480.61152644834283
3836.1887,1.812248047514541,469.37678501733336
3837.0713,1.816671746878624,446.40463707874306
3837.956,1.8239698457020366,431.3584601703417
3838.839,1.8322727783526875,405.91576509725866
3839.7244,1.8404720384947055,426.9656668871469
3840.6077,1.848664677791012,445.67226620040907
3841.4932,1.8580335803210983,393.8726909391477
3842.377,1.8698088161411806,448.6352328091104
3843.261,1.884542284544955,530.7885099560481
3844.1472,1.901736059531589,418.2197711326514
3845.0315,1.920002431676183,425.61737422709325
3845.9182,1.9379984723161532,379.61611793642504
3846.803,1.9546350002968809,376.4759545860184
3847.69,1.9696148294413083,406.75459090828195
3848.5752,1.9829878272377348,393.88679077146963
3849.4604,1.9951297502190084,370.02659338272827
3850.3481,2.0064384989254482,331.2541001588548
3851.234,2.017114855771801,364.8492545359617
3852.122,2.0272229828767263,341.88657389043897
3853.0083,2.0363770196805477,356.01894107159313
3853.8967,2.0440308119446127,362.68706071679765
3854.7832,2.0496616872459215,324.05471272919925
3855.6702,2.0532700381664397,351.86817141999114
3856.559,2.055326983334844,345.0452135281028
3857.4463,2.0564254928103654,365.76310547789456
3858.336,2.056900882608713,327.6648066589105
3859.2234,2.056702648018507,359.4612257780169
3860.1135,2.0555620953611133,321.8763444761719
3861.0015,2.0531781852663262,327.0303413134677
3861.8896,2.049293201711648,332.1246774245669
3862.7803,2.043780665076617,350.2037917091436
3863.6687,2.036835653917109,322.7048447112553
3864.5598,2.0288890712287446,319.17766388200744
3865.4487,2.020558005645804,354.3551757905818
3866.34,2.012196145781036,367.19962993557573
3867.2297,2.0039343129092697,347.8001395350431
3868.1213,1.9956092401939445,338.070321464232
3869.0112,1.9870183546478843,354.0235018921126
3869.9014,1.9778473892401547,340.8927337850625
3870.7937,1.9678330285793597,385.09912777855385
3871.684,1.9570575023109196,364.33947528970924
3872.577,1.9458226686646878,454.3981465320933
3873.4678,1.9345118771596785,424.31329940123163
3874.361,1.9229522466570497,362.5468029578686
3875.2524,1.910664577254514,410.80432522212243
3876.1438,1.8971737993027538,431.71949400889525
3877.0376,1.8825340939759139,409.01330241086504
3877.9297,1.867407082701967,484.71099108080637
3878.8237,1.8522879861811432,408.3802021719681
3879.716,1.837149472176859,432.66599108139224
3880.6108,1.8209886225904648,465.17599795632174
3881.5037,1.8025742362049633,477.63192319973473
3882.3965,1.7810933013138808,450.2936537974759
3883.2917,1.7569342163867565,487.7700539448787
3884.185,1.7317671232193375,472.49969724155693
3885.0808,1.7071514781600545,503.1278438316746
3885.9746,1.6840940584804716,466.58682201502995
3886.8706,1.6626500052993622,521.9801870313473
3887.765,1.643348962347735,568.0033472252026
3888.6592,1.627704278211945,556.4461731560409
3889.556,1.6181092781745587,613.9838134350384
3890.4507,1.6166434013574604,583.8432802355337
3891.348,1.6237683047958889,586.2421614204545
3892.243,1.6381418968863737,558.8194569768411
3893.1406,1.6575446401346041,480.1850322267842
3894.0361,1.6796474222889575,543.3010114265371
3894.932,1.7029579547040377,527.575208110195
3895.83,1.7266786822820954,506.39815592419023
3896.7263,1.7502727290680355,402.6204161687902
3897.625,1.7737243942877001,483.59055948505477
3898.5215,1.797029733189228,485.1753640792913
3899.4207,1.8205644421232887,383.4319681781465
3900.3176,1.8443535295820568,422.21687582764355
3901.2148,1.8683222025148494,418.8284311861016
3902.1145,1.8920667446930333,387.36032594521504
3903.0122,1.9148590395200102,403.5612735494481
3903.912,1.936344914644996,402.93139646240235
3904.8103,1.956368019682531,371.93330790728885
3905.7107,1.9753306570510338,374.4076771579319
3906.6094,1.9935829191018752,387.7991672698136
3907.508,2.011486087113659,365.17568061996286
3908.409,2.029338632938325,365.9190752106381
3909.308,2.047421312869197,349.65921370099846
3910.2097,2.066219696015422,357.9029303320518
3911.1091,2.0856674385019507,327.9753276948162
3912.011,2.105123833316079,352.9445180356348
3912.9111,2.123122007556403,308.99352602777515
3913.8113,2.138452621019569,316.1697804698056
3914.7136,2.1508877574486407,288.98095905729735
3915.6143,2.161307225827738,332.5887118518455
3916.517,2.171137297171383,319.4973012662045
3917.4182,2.1810422730165255,317.1145245270826
3918.3215,2.1905656326992244,287.7964757666819
3919.223,2.19842117364592,296.4168217346119
3920.1245,2.2036319909925974,273.9063589319481
3921.0286,2.206147325317051,318.30030547991913
3921.9307,2.2068974208247187,249.3924284433033
3922.835,2.207383403705792,313.505273413589
3923.7373,2.209050439795662,322.3284756041525
3924.642,2.212788641709826,298.75198987164976
3925.5452,2.2185493006708037,321.82932858099616
3926.448,2.225321161675902,318.5534529621685
3927.3535,2.2314194238547107,317.6162139653257
3928.257,2.2350359674465325,274.1163366247967
3929.1628,2.235060748086815,317.44989556321457
3930.0667,2.231473597486537,313.2311455367772
3930.9731,2.225228136266711,280.04488194767157
3931.8774,2.2176745762176093,301.3312105275443
3932.782,2.209682012443963,280.1152106187266
3933.6887,2.2013388467218937,300.39107188251194
3934.5938,2.1923432561102842,284.5540796745503
3935.501,2.182525133285484,328.20945657360556
