wavl,flux,ivar
3566.9744,10.519168827826162,3.9095469424694427
3567.795,10.47523350324314,3.939786527949312
3568.6177,10.42701800360782,4.386009639938243
3569.4385,10.391777482595304,4.398417981652713
3570.2617,10.382200016781646,4.562569916338176
3571.083,10.400581160709502,3.865693492350171
3571.9065,10.437944226048389,4.008181110697954
3572.7283,10.478362099417273,4.188656711273515
3573.55,10.506918794930808,3.5735173102337567
3574.374,10.516159912801001,4.01313106424342
3575.1963,10.50854564764934,4.941800376713448
3576.0208,10.493147221568831,4.97799817307914
3576.8435,10.478729416670928,4.576243072340134
3577.6682,10.467807686637475,4.267792987132174
3578.4915,10.45627761742375,4.283698927616664
3579.3145,10.437886816498896,3.660800171278128
3580.14,10.410241931230162,3.939443492354872
3580.9636,10.377701459549272,5.042735938264412
3581.7893,10.348217946520379,5.045900574536651
3582.6133,10.328647442495246,4.028858360060639
3583.4395,10.32092012165074,4.22729254548967
3584.264,10.322208930504933,4.286350610837308
3585.0884,10.326030305090288,4.364497836593282
3585.915,10.323996555145726,3.9402210105594855
3586.74,10.308754050599221,4.611152976573692
3587.5671,10.277862753820804,5.07065982404924
3588.3923,10.236052297274549,4.689679447073037
3589.22,10.192378819323116,4.871764766480461
3590.0457,10.156552863361766,4.448471754774286
3590.8716,10.13491328542365,4.3621430811445805
3591.6995,10.129527275609775,4.941200850225928
3592.526,10.13715474737878,5.633399481431815
3593.3542,10.148975457854462,4.37079634495666
3594.181,10.152745786681027,4.073433160543989
3595.0098,10.1379739473871,4.548082324302005
3595.8367,10.101619585023904,4.050338547713245
3596.6638,10.050366800874833,5.158716324684953
3597.4934,9.997238755597614,4.9901715924027865
3598.3208,9.954045045457997,5.322702627531433
3599.1506,9.923052906053037,4.699223142240387
3599.9788,9.897512222794742,4.948070136578611
3600.8088,9.86841254082371,4.3649890375402425
3601.6372,9.834564472778476,4.998449006243186
3602.4678,9.805788919571564,4.585412077721474
3603.2964,9.797661810500221,4.6906801195768475
3604.1252,9.819520921778688,5.212003379443775
3604.9565,9.866846699144403,4.990774359456089
3605.786,9.922803867141573,4.753946644970047
3606.6172,9.969879469316115,4.032016168352145
3607.447,9.999125778298223,5.257878057666739
3608.2788,10.012500645773777,5.782428041527782
3609.109,10.016078053953713,5.067230408850088
3609.9392,10.013010708780627,4.743448658510623
3610.7717,10.000992984027809,4.129508311978149
3611.6023,9.975712617427407,4.7767463419786935
3612.435,9.93599433835505,4.765823094734684
3613.266,9.887430418840982,5.527178212664036
3614.0994,9.8399587643082,5.259438943878709
3614.9307,9.803204098447372,5.223610010454719
3615.7625,9.780584348671306,4.908096155393739
3616.5962,9.768620388619219,5.065587249999591
3617.4282,9.759566836168007,4.597383490855259
3618.2625,9.74565563813103,4.3951453876232645
3619.0947,9.723041428953463,5.166875554908153
3619.9292,9.692946544486105,4.3233613631422605
3620.762,9.660888395106017,5.149951122720038
3621.595,9.633416440078884,5.018614172873086
3622.4302,9.61555517219988,5.6793383582312105
3623.2634,9.608810725443862,5.143827634051313
3624.0989,9.609924531798258,4.752946499814114
3624.9326,9.612320846213755,4.856172074007611
3625.7686,9.61019847139953,4.966719470734235
3626.6028,9.60291376714873,5.013576980082113
3627.437,9.595095411170082,5.529092521862053
3628.2734,9.591420437212662,5.26514777643194
3629.1082,9.590746186727605,5.892309564265203
3629.945,9.58578985828811,5.389735651832792
3630.78,9.569861381971608,4.6070150461912185
3631.6174,9.544425628087945,5.1056438866847165
3632.453,9.521111748110217,5.479709489037084
3633.2883,9.515208894374593,4.626382980206673
3634.1262,9.536665799896005,4.635472653767263
3634.9622,9.583268062669088,5.697394331225934
3635.8005,9.641624444039444,4.772482087561199
3636.637,9.69358539374226,4.717209140742593
3637.4756,9.726278511358784,5.104779484970385
3638.3123,9.735530549834035,4.960672719219523
3639.1492,9.724381618745559,4.3177248374288135
3639.9885,9.698570710330486,4.475408729467283
3640.826,9.665393520838293,4.984954726647777
3641.6653,9.63289542891233,5.956704890803218
3642.5032,9.60788132710223,5.311740713677548
3643.343,9.591889781207618,4.501744171929574
3644.1812,9.58161931722465,4.5858204145424155
3645.0195,9.572998716459798,5.620079808703426
3645.86,9.565294705797998,5.943928682233463
3646.699,9.56100965920815,4.623582706423893
3647.5398,9.562864124765746,4.963476735738677
3648.379,9.57125869368636,4.868251013513372
3649.2202,9.582998424826048,5.437897280063943
3650.0596,9.591004138111591,5.210621042091965
3650.8994,9.586427876075298,5.130226765029828
3651.7412,9.562744326475642,5.509822872247354
3652.5813,9.520261541107178,6.323098272674207
3653.4236,9.46651423822522,5.19533329136044
3654.2642,9.41389371152051,5.354912089392518
3655.1067,9.373757384127625,5.832379830750909
3655.9475,9.352644366915396,6.245539815804248
3656.7886,9.349375186406942,5.211058673078915
3657.6318,9.356937264621758,4.76776275072825
3658.4734,9.36703273380926,4.965845457674711
3659.317,9.375127909550852,5.961754852779827
3660.1587,9.381454464075329,5.662891928665246
3661.003,9.387465399436978,5.216531275865174
3661.845,9.390863993814719,4.662552442647137
3662.6875,9.385124704496738,4.618663942382845
3663.532,9.364375581444632,4.851204257133202
3664.3748,9.329522479469604,5.754721809139549
3665.2197,9.288576678313866,5.626155184532285
3666.063,9.252054747844054,5.730366803322408
3666.9084,9.22637702090315,6.5233475396069105
3667.752,9.212382391149315,5.834326839951373
3668.5977,9.206374665000135,6.1620360192701025
3669.4417,9.202838311473156,5.221641580822673
3670.286,9.196778341649482,5.480582234957556
3671.132,9.186850495354259,5.7050778968729965
3671.9768,9.177332224229117,5.827069611042804
3672.8235,9.175467499660845,5.992900049777121
3673.6685,9.185088209785414,4.993456690554572
3674.5156,9.201808935601571,4.006635071804197
3675.3608,9.214735028584787,5.014642940965673
3676.2063,9.21415194855343,5.649136423547914
3677.0542,9.198264399940346,5.2025056461685315
3677.9,9.174857929508448,5.367839600587869
3678.748,9.156091672663152,5.477611903280138
3679.5945,9.151168997412022,6.562382731530892
3680.4429,9.160534306783324,5.416544727722443
3681.2896,9.176434672556514,5.627205711553122
3682.1365,9.189127976398208,4.374360928860203
3682.9856,9.193642977960547,5.573273450882906
3683.8328,9.191520550683569,4.662460555489503
3684.6824,9.186377381126631,6.921438265712364
3685.53,9.178205137152341,5.567279048868956
3686.38,9.162516114388929,5.753681485283302
3687.2278,9.135584590922967,4.722106512968479
3688.0762,9.099425681832049,5.153053378161893
3688.9265,9.061488975428059,5.43751399433829
3689.7751,9.029441912578045,5.2301119365234205
3690.626,9.005930074211333,6.230255287069847
3691.475,8.989360717587248,5.191060421278184
3692.3264,8.976925863793408,5.322656509129134
3693.1758,8.967376821647719,5.9774788079671985
3694.0254,8.960489272851884,5.497808743221482
3694.8772,8.955877904609673,5.7226755982925575
3695.7273,8.952911637374726,6.101265325531038
3696.5793,8.951683616423889,5.656157327065662
3697.43,8.952952574172242,4.944600785267325
3698.2825,8.955691663680986,6.2321286660457496
3699.1333,8.954731644765756,5.766559300335086
3699.9841,8.942253457302172,5.767187576402109
3700.8374,8.91302511815705,5.449020318027928
3701.6887,8.869710734644782,6.242358549161491
3702.5425,8.822442873171266,7.182468486902878
3703.3943,8.784704791704728,5.332114883003106
3704.2483,8.765980118128008,7.737763024156107
3705.1003,8.767905771700208,5.672180184554601
3705.9526,8.783223151743531,7.350149157196991
3706.8074,8.799405158890526,5.09860948755069
3707.66,8.804482759517697,4.891475545486947
3708.515,8.793145506444402,5.515927270265339
3709.3682,8.76896327451683,7.31812147128035
3710.2234,8.741760472508027,6.200443226598865
3711.0771,8.722160370939273,5.787589911549192
3711.9307,8.714997610137862,6.491694896231877
3712.7866,8.716267843416666,5.909004600338696
3713.6409,8.715638983134735,5.171052811208034
3714.4973,8.704227832558315,5.97699383160623
3715.3518,8.681829548894282,5.245185602924124
3716.2085,8.656815031555668,6.090251983368321
3717.0635,8.639530825774386,6.441917228820394
3717.9185,8.63422256942822,5.815623726824854
3718.776,8.637011282122783,5.769266484656615
3719.6313,8.639704883685269,6.8303024236018075
3720.489,8.635852018198118,6.6372776172037895
3721.345,8.62424083223236,5.522878031559116
3722.2031,8.608245708013175,7.219780422132568
3723.0593,8.593137047232343,6.72530903876477
3723.9158,8.58311132423545,6.793898141509029
3724.7747,8.579960645655584,6.137987757953978
3725.6316,8.58252960422165,6.763745046182376
3726.4905,8.58672270408498,5.920947936964208
3727.348,8.58629565391736,6.8547416743628045
3728.2073,8.574919078362266,5.8655228130007036
3729.065,8.549321096699172,6.873161445780899
3729.9229,8.511431073967934,5.845936411926475
3730.783,8.467995836754765,7.44717828064211
3731.6414,8.428203868855801,6.738800604029724
3732.5017,8.399643799435653,6.224528835956977
3733.3604,8.386261118905182,6.382797659565412
3734.2214,8.386398585193287,6.205323349444742
3735.0803,8.393510644305463,7.8589219607957554
3735.9417,8.39923551629539,5.494136806236334
3736.8013,8.39765199912822,6.487793008588927
3737.661,8.387854970650336,6.827430763329643
3738.5227,8.372866132864807,6.944417738949019
3739.3828,8.356682593031238,6.866488936106947
3740.245,8.341394814963667,6.596151377142354
3741.1055,8.327042092514496,6.979795774778051
3741.9683,8.312788755855188,6.65386540887096
3742.829,8.298815509042925,8.027259358259364
3743.69,8.286368278136862,6.678290232708187
3744.5532,8.277023968384526,6.45829390647189
3745.4148,8.271852617789982,5.98707511080355
3746.2786,8.271009944283005,6.9147611309366726
3747.1404,8.27398807539559,6.965518388850858
3748.0044,8.279615569968467,7.432567188188326
3748.8667,8.285736413629566,7.49080532207573
3749.729,8.289243064354732,7.174528948368659
3750.5938,8.286869473931887,6.413931816997796
3751.4565,8.276792830300037,6.047796445829383
3752.3215,8.259760564305406,6.1121551603232005
3753.1848,8.239248102242598,6.929343475045666
3754.0503,8.219941080492058,5.650926074666646
3754.9138,8.205947538428996,6.771618760123608
3755.7776,8.198258602739035,7.239073186927287
3756.6438,8.194243668065328,6.566442055131953
3757.508,8.189580979561434,6.095737512062846
3758.3745,8.181347971325154,6.882588923728502
3759.239,8.169430012818282,7.159429993535598
3760.106,8.15495619320547,6.354032917543247
3760.971,8.13892842702488,7.447721098956245
3761.8362,8.122247734032749,7.068653003736722
3762.7036,8.106745138124312,7.927624224619311
3763.5693,8.09461765304304,7.274604806859182
3764.437,8.08632404217364,6.739915840556198
3765.3032,8.080147917395195,6.908120811246064
3766.1714,8.07349706648061,7.976077697671894
3767.0378,8.064731752996614,7.480390054059644
3767.9043,8.053336308261864,7.24041391286619
3768.7732,8.039316487174446,6.821159476776493
3769.6401,8.023263776203196,6.654350789156801
3770.5095,8.006700397350274,6.5537279514751505
3771.377,7.9927633146168375,8.236651148635524
3772.2466,7.985318807585643,7.7396186804861395
3773.1145,7.9874612624231816,8.011719367859055
3773.9824,7.999057875597917,6.530058481347557
3774.8528,8.01560538859622,7.457385363384018
3775.721,8.029295293340176,6.8410315796666765
3776.5918,8.032904733224264,6.456279289238957
3777.4604,8.023164742275597,7.585673250170842
3778.3315,8.00194024211911,6.605168512213668
3779.201,7.974535558639596,7.090980820019871
3780.0703,7.946125616713365,6.298152009509504
3780.942,7.919415153619253,7.323430518482648
3781.8118,7.8948033019273085,7.879488947123649
3782.6838,7.871987404429286,7.693079339085547
3783.554,7.852350937563285,8.712603355133181
3784.4265,7.838188615198192,7.7801750705311274
3785.297,7.830690606966292,7.39824471415307
3786.168,7.828013145618244,7.4267784965225125
3787.041,7.826491454753894,7.452658357694846
3787.912,7.823238526295032,6.872134362587174
3788.7856,7.817702370790365,7.589679625009963
3789.6572,7.811185530713058,7.968080053746579
3790.531,7.805086717784551,8.792154567556532
3791.403,7.799804024343678,7.93260596848646
3792.2754,7.794714635365309,8.190982000365517
3793.15,7.789394692833282,7.2830597869956275
3794.0225,7.784738946364555,8.304858694173483
3794.8972,7.782402709914522,6.919534642780261
3795.7703,7.7828805575951066,7.435930854664701
3796.6455,7.784122818579992,8.043233358706216
3797.519,7.782767423219439,8.51834063842124
3798.3926,7.776891376003543,7.737440398498226
3799.2686,7.767134104489746,7.664584786316694
3800.1426,7.755034112209392,8.337609821145083
3801.0188,7.740228320901709,6.896164190054289
3801.8933,7.720473944564913,7.807867750242981
3802.77,7.694069798188922,7.359130826321978
3803.6448,7.662925748369929,7.910887510161847
3804.522,7.631844864142155,8.011938613579526
3805.3972,7.606327690389631,8.004071390525436
3806.2727,7.589437221418394,7.634151149786542
3807.1504,7.581197789594717,8.32075558278233
3808.0261,7.578831282550303,8.786096826097559
3808.9043,7.577664877719701,7.139932207850856
3809.7805,7.573169229464543,8.140808256733575
3810.659,7.563145323029693,8.090701661848533
3811.5356,7.54897688106318,8.233312423512507
3812.4126,7.53487709104188,7.699131361982352
3813.2917,7.525834836436425,8.543193597406843
3814.169,7.5246902451365045,8.231842294861751
3815.0483,7.529723281367207,12.040979579877623
3815.926,7.535253468816302,8.468988686596184
3816.806,7.535420266269232,7.299418787614419
3817.684,7.5282265769784935,8.18749308454096
3818.5623,7.51646530295798,7.823649708623002
3819.4429,7.504817336821777,8.247996364320286
3820.3215,7.496037578875672,9.276802357695562
3821.2024,7.48875509191746,7.547917884363402
3822.0815,7.478740900388498,7.693261239529599
3822.963,7.461860786941669,8.796956147789492
3823.8423,7.437334717266992,7.145958607586193
3824.722,7.40858209979224,9.292768056974358
3825.604,7.381981176785301,7.712306563287581
3826.4841,7.3642057679154975,9.61366598293051
3827.3665,7.358880729421671,9.818867115231857
3828.2468,7.365297396884444,9.187892506002527
3829.1296,7.378747451798695,9.107904173224052
3830.0105,7.392649675150577,9.141953448327964
3830.8916,7.401597400753818,7.481452854633977
3831.7751,7.403202356741117,8.833546566226577
3832.6565,7.398270984680631,9.359806702765598
3833.5403,7.389384337576065,8.589941924857351
3834.4224,7.3790648851391785,8.041713447661769
3835.3064,7.3681725486623995,8.690447961473255
3836.1887,7.3556518474884065,8.25323034189826
3837.0713,7.33937179457292,9.994409163186754
3837.956,7.31810224521464,9.458059947297889
3838.839,7.293344760896904,8.542772864170752
3839.7244,7.269255317099321,8.273338590449965
3840.6077,7.251409945708321,8.857049543801189
3841.4932,7.24329827786188,9.521520903289439
3842.377,7.244063164131361,8.892227094724797
3843.261,7.248907043960001,7.78443814389513
3844.1472,7.252788781231454,9.42622408307385
3845.0315,7.253474142832604,8.78348079395732
3845.9182,7.2512695207477105,8.840325795029527
3846.803,7.2464890163250955,8.203005973556573
3847.69,7.2382439460740455,7.77653403328996
3848.5752,7.225969833894429,8.520763103573758
3849.4604,7.2110299648104474,8.44422561332935
3850.3481,7.19614165380197,8.881894801140557
3851.234,7.183161069849457,8.504864049109072
3852.122,7.171524191578826,8.519687595608065
3853.0083,7.159783669163527,9.026163263403717
3853.8967,7.1476221298437315,8.538547830927298
3854.7832,7.136713335889498,9.102741609505058
3855.6702,7.129062805150756,8.639324915678344
3856.559,7.125432063820713,9.271290330298832
3857.4463,7.124936899738788,9.288906074356174
3858.336,7.125583375812185,8.621407562830393
3859.2234,7.124757826041517,9.388973072335368
3860.1135,7.119667430090629,8.793503329074206
3861.0015,7.108555144267478,8.447122865667016
3861.8896,7.092062801508224,9.58466985480403
3862.7803,7.073503026128403,9.067533258126776
3863.6687,7.057535391463315,9.733349745617113
3864.5598,7.047611631435183,9.869528898626227
3865.4487,7.044979015317338,8.234225022677212
3866.34,7.048647754133845,8.861556892592844
3867.2297,7.056225639250945,9.726380021243562
3868.1213,7.0642927685301995,6.81372353114046
3869.0112,7.0683082522408975,8.112879337178509
3869.9014,7.0631851127327465,7.383390956475167
3870.7937,7.044709417969858,8.713618540357752
3871.684,7.012132416854064,9.230566545798146
3872.577,6.969482853444941,8.277267511682298
3873.4678,6.925314152385268,10.561305147660114
3874.361,6.8883031606770775,9.076999941481208
3875.2524,6.863937632199213,10.241607144133313
3876.1438,6.852243982037198,9.499227303243972
3877.0376,6.8495803960958,10.736360817262819
3877.9297,6.8510606137324634,8.461913265522854
3878.8237,6.852263660564194,9.874615110530135
3879.716,6.850008682513631,9.52095294495475
3880.6108,6.842579326004686,9.575209223304466
3881.5037,6.82955875959008,9.520751881114515
3882.3965,6.811057253794332,11.083838054452794
3883.2917,6.787414896628649,9.597532354178568
3884.185,6.760278962465076,11.100442529853401
3885.0808,6.733116075180506,9.926538822086945
3885.9746,6.710904633793833,11.562902540278422
3886.8706,6.6971744840036385,10.591783324184476
3887.765,6.692569893993702,9.607943063815599
3888.6592,6.695058277509767,11.473487040672895
3889.556,6.701652051081716,10.46089997708611
3890.4507,6.708990744983636,10.204660810491534
3891.348,6.713469415282002,9.892732614038014
3892.243,6.712180283610819,9.805265955509457
3893.1406,6.705149704254624,10.936890220496673
3894.0361,6.696390532547846,11.397827740994218
3894.932,6.691810044343974,9.131462142554682
3895.83,6.695380247341551,12.71826575024786
3896.7263,6.706279758487769,10.212140950134199
3897.625,6.719507983181912,11.220610349804163
3898.5215,6.729174108901476,9.4937639352956
3899.4207,6.732548236964387,8.214839011599741
3900.3176,6.731318161338377,9.884517538823669
3901.2148,6.729769249484496,9.834772540401705
3902.1145,6.731362126464223,10.468133307416009
3903.0122,6.736832061086131,9.547891071551907
3903.912,6.744846077290804,9.92907123884917
3904.8103,6.753433871874669,10.07766855409167
3905.7107,6.760786683240207,9.336436293080627
3906.6094,6.765235222444818,9.297208092344263
3907.508,6.765913468715693,9.385402560457473
3908.409,6.763374450713164,11.294868865171658
3909.308,6.759393766967649,9.064695353199962
3910.2097,6.755669543689563,9.791141223552554
3911.1091,6.752689916270018,9.91971006496772
3912.011,6.749544552792259,10.106229006449967
3912.9111,6.745030154613584,8.372305733535459
3913.8113,6.738875636419203,11.000382911280214
3914.7136,6.732046907229246,11.79653866902248
3915.6143,6.725925147171621,11.204581427925325
3916.517,6.7212470827975554,10.712723022013504
3917.4182,6.718109388174875,9.562512235291472
3918.3215,6.71630743968664,10.870916547280645
3919.223,6.7155082823936665,10.28098501297914
3920.1245,6.714991509071894,10.870766219188166
3921.0286,6.713645557272916,10.28190201043115
3921.9307,6.710374263807528,10.453192590029513
3922.835,6.704481133129733,9.434321856976645
3923.7373,6.6957611794325285,11.674975381606972
3924.642,6.684254974997321,9.957911581768485
3925.5452,6.670668235399143,8.748291991230515
3926.448,6.656624695664997,10.398727101929657
3927.3535,6.644244627079774,10.470182890012492
3928.257,6.634693488390604,10.508653275640802
3929.1628,6.626824433394621,9.68411343030799
3930.0667,6.618312161507506,9.697743124960395
3930.9731,6.607768953447407,10.492977462341544
3931.8774,6.596075138971896,11.138066591518735
3932.782,6.5851211603152,10.787950073401477
3933.6887,6.576224225253208,9.742920019109608
3934.5938,6.569725940886463,12.522497734846691
3935.501,6.56544496024394,10.479872492962393
3936.4062,6.563089829151486,9.196504125533364
3937.3142,6.561855849057302,10.252527134689544
3938.22,6.560239343117198,9.670062272612205
3939.128,6.55640319723074,11.10333819192696
3940.0342,6.549148193591689,9.82056635184329
3940.9407,6.5386574727988185,12.125599082841136
3941.8494,6.526368308931193,9.475488600314966
3942.756,6.5138315168809715,9.80801609292286
