wavl,flux,ivar
3566.9744,21.853303223348707,3.121398561789414
3567.795,21.809751105436217,2.839844463927808
3568.6177,21.768583409174674,3.0224866743686833
3569.4385,21.734668722625937,2.8571253265238443
3570.2617,21.701609140675817,2.6361588290578117
3571.083,21.660295544096442,2.5642824996307336
3571.9065,21.607229335460428,3.1466108638097956
3572.7283,21.549279702126235,2.8066725892234046
3573.55,21.499910583542178,3.1213451753524013
3574.374,21.47197759343717,3.489939831053746
3575.1963,21.46926632858334,2.811289822996207
3576.0208,21.481501735732536,3.0984660827907713
3576.8435,21.48837613947156,2.9788950977022357
3577.6682,21.47096902516942,2.6816525132367763
3578.4915,21.422801108050205,2.809733783396744
3579.3145,21.352208432736727,3.0502985591698173
3580.14,21.275605723079877,2.8993559346360005
3580.9636,21.209859806436533,3.2029182294325076
3581.7893,21.166472033289402,3.369967004465466
3582.6133,21.15211051307949,2.787652691150019
3583.4395,21.16800089247456,2.97023643672284
3584.264,21.209413799913037,3.0525964842764197
3585.0884,21.265237214461813,2.864117575969881
3585.915,21.319139812871942,3.514984383048537
3586.74,21.352622695152817,2.5223560591742396
3587.5671,21.351911793103618,3.0857824272820715
3588.3923,21.313311816263234,3.077293141448169
3589.22,21.244116844011245,3.04652769982258
3590.0457,21.158039046614615,3.128422376847676
3590.8716,21.066683296968513,2.978303847859459
3591.6995,20.97654854605305,3.293156544396772
3592.526,20.891456204460436,3.0868612631534464
3593.3542,20.81436315214595,3.264954317738591
3594.181,20.748763261180674,2.9726020129076924
3595.0098,20.694869437801753,3.1610474914939206
3595.8367,20.65004658550397,2.923925687785773
3596.6638,20.61060374329573,3.0086969205938394
3597.4934,20.575159226544006,3.0901624616988164
3598.3208,20.543210424402016,3.197752898927785
3599.1506,20.509086712980487,2.8271669641545722
3599.9788,20.460500711321572,3.4888958293899752
3600.8088,20.384605939268265,3.6206187083156838
3601.6372,20.282610580693678,3.1983474037889206
3602.4678,20.178254923532645,3.1104259462021773
3603.2964,20.114215826211975,3.6434409080145564
3604.1252,20.128832101022407,3.520929616309083
3604.9565,20.23363279269573,3.23556606142922
3605.786,20.403324701972487,3.3142424710656804
3606.6172,20.591034692962612,3.5031226382812015
3607.447,20.748849268944927,3.0408663084949272
3608.2788,20.84758324445619,2.774081444127348
3609.109,20.87894691544689,3.423932367973627
3609.9392,20.85274802718012,2.8145321461903126
3610.7717,20.788464018974405,3.103022502837052
3611.6023,20.709752136082184,3.104492643726249
3612.435,20.637215237419976,3.5837922262348365
3613.266,20.583774331157343,3.5663876323394135
3614.0994,20.549362214707735,2.9168131159188895
3614.9307,20.52307869779876,3.4074420591791976
3615.7625,20.489885481456305,2.9156243149236087
3616.5962,20.44031510955163,3.1903921465091476
3617.4282,20.375447273224868,3.438011022571231
3618.2625,20.302638013226492,3.0514901764856375
3619.0947,20.22934705640357,3.4805079537784462
3619.9292,20.15767059277087,3.4905740559984437
3620.762,20.087418793457495,3.3185969322056033
3621.595,20.01885860947866,3.4779818497718686
3622.4302,19.954987676810944,3.450647293879012
3623.2634,19.900269366804864,3.368940641669432
3624.0989,19.85611666239896,3.773983720869738
3624.9326,19.819311447905402,3.46136272854713
3625.7686,19.781580362474582,3.115783638639529
3626.6028,19.734535674268148,3.29997340188375
3627.437,19.6746365505088,3.7165972071197113
3628.2734,19.606202589243257,3.2846255510551923
3629.1082,19.539821551955402,3.94160277446912
3629.945,19.484681299932166,3.889216694380639
3630.78,19.442474797267163,3.571714515274655
3631.6174,19.403506685609646,3.4015977884172917
3632.453,19.352953591749035,3.4990725233251685
3633.2883,19.281297777528092,3.3630729636066032
3634.1262,19.1925425825176,4.198385826025744
3634.9622,19.102390638766312,3.8575288206268317
3635.8005,19.02485918937302,3.5507374593601346
3636.637,18.964177545103436,3.562689632934773
3637.4756,18.91379922766249,3.908066705553416
3638.3123,18.866054709614517,4.230584488710552
3639.1492,18.817741408511452,4.146990173604666
3639.9885,18.770120437114095,3.6362344005635725
3640.826,18.725462818083166,3.228037963737277
3641.6653,18.684531650791754,3.8094371900099593
3642.5032,18.64824023053998,3.754351464161791
3643.343,18.617013128411642,4.015763576335747
3644.1812,18.589973508045976,4.459003995926364
3645.0195,18.5645145674492,3.945383572775887
3645.86,18.53927993097002,3.713693644729516
3646.699,18.51641263392198,3.9518889360346856
3647.5398,18.499032002700403,4.195502259002532
3648.379,18.48681111869109,4.446045116658384
3649.2202,18.473451588173322,3.46959777614993
3650.0596,18.45001160248779,3.711541657430648
3650.8994,18.410323339814667,3.9865618101774776
3651.7412,18.354843797725984,4.1371154902206975
3652.5813,18.29109728033932,4.508577179871494
3653.4236,18.229587463106565,3.825255098062893
3654.2642,18.18021255869413,3.886295823396734
3655.1067,18.14722017783225,3.7677007249122596
3655.9475,18.128948708633374,5.012023415535622
3656.7886,18.11973934210258,4.344095205957881
3657.6318,18.114292932601227,3.9153586712555066
3658.4734,18.11024563179042,3.9686968530022635
3659.317,18.108062409838396,3.939934848829094
3660.1587,18.109631795951472,4.253717717534777
3661.003,18.11726614829569,4.3609768340381585
3661.845,18.133457196745635,4.294755121862819
3662.6875,18.160337893736845,3.9037917736257244
3663.532,18.19802012766939,3.921218753134373
3664.3748,18.242948129381038,4.600070300154968
3665.2197,18.288796944057786,3.815575198070687
3666.063,18.32707320607141,3.8714749768110543
3666.9084,18.34919753780809,4.161011758396386
3667.752,18.347553714184947,3.8504108711964697
3668.5977,18.318644465910793,3.6460521436003854
3669.4417,18.265753874218678,4.28886459340297
3670.286,18.197911888765823,4.129069922314598
3671.132,18.12526299723148,4.091426723916091
3671.9768,18.054731535940416,3.9538380224699274
3672.8235,17.9877882008444,4.463834667022211
3673.6685,17.92379265607506,4.104807419771022
3674.5156,17.861528623054465,4.326022614426283
3675.3608,17.802061835576573,4.497142408489307
3676.2063,17.748230630651495,4.318263307716385
3677.0542,17.704067852823894,4.6942697317360835
3677.9,17.672137513228044,3.8267727177744177
3678.748,17.650263507668623,4.736795898271491
3679.5945,17.63316176419208,4.184061019949638
3680.4429,17.616003882717052,4.263084255050674
3681.2896,17.5980293368326,4.652863684786251
3682.1365,17.58163781890395,4.58037865081299
3682.9856,17.569590149502847,4.384171572845042
3683.8328,17.563497090565193,4.816547327970242
3684.6824,17.563949570397355,4.282076648264693
3685.53,17.570187570469045,4.686723639538919
3686.38,17.578398243898068,4.385710110626911
3687.2278,17.582165285411378,4.016245755507556
3688.0762,17.577493500638187,4.600035490659815
3688.9265,17.568010946267524,4.691375905995939
3689.7751,17.564447926496076,5.464333632114636
3690.626,17.576974889462704,4.38152141573267
3691.475,17.60694199081064,4.318880110119343
3692.3264,17.645068183753185,4.424121000850797
3693.1758,17.676039940217525,4.2486485109970475
3694.0254,17.686804645614583,3.9333982055042105
3694.8772,17.671437092245526,4.247546098698017
3695.7273,17.632648846414114,4.524698939288336
3696.5793,17.57940050652596,4.687464043832133
3697.43,17.52374636111839,4.667778775316057
3698.2825,17.475791644852123,4.705692973410277
3699.1333,17.44080773245092,4.632029791864353
3699.9841,17.417092175193158,4.414122348234326
3700.8374,17.39815841041024,4.532803686394236
3701.6887,17.376856018697158,4.286579602096602
3702.5425,17.348787128278826,4.677559055139181
3703.3943,17.314292793093387,5.007746706927368
3704.2483,17.276781971030935,4.341503792405536
3705.1003,17.240641485460017,4.539617474253875
3705.9526,17.20754269633896,4.500414451574876
3706.8074,17.175007471991492,4.6440553975403835
3707.66,17.138100664261504,4.774116862422697
3708.515,17.093202891521162,4.441763904990777
3709.3682,17.04251161557765,4.711051816916926
3710.2234,16.99238234201411,4.3089579629954144
3711.0771,16.949646941083817,5.107123060610076
3711.9307,16.917294281256716,4.812235595567028
3712.7866,16.894569984661892,4.437086683300858
3713.6409,16.87866924768452,4.773783861492741
3714.4973,16.86544405420131,4.429189783063058
3715.3518,16.850673301196633,4.447531527911443
3716.2085,16.831533801425433,4.915567443548559
3717.0635,16.808724306425308,5.142227963239248
3717.9185,16.78623886815257,4.638705310168166
3718.776,16.76929017923177,4.659779799082032
3719.6313,16.76140457010953,4.462481962632657
3720.489,16.762170340415615,5.007538790053469
3721.345,16.76736731505048,5.021496902737488
3722.2031,16.770452089063784,5.126571377697697
3723.0593,16.76499766456845,4.92512234045736
3723.9158,16.747659814088077,4.944156977493571
3724.7747,16.719867110179763,4.980307959361083
3725.6316,16.686900199399123,5.09204110068895
3726.4905,16.65362371914562,5.300364202945663
3727.348,16.622477033267874,5.162585947247943
3728.2073,16.59396408350818,4.968017292780348
3729.065,16.569444887217934,4.869284802637272
3729.9229,16.550763720337205,4.865741058692596
3730.783,16.53827551867656,4.793819047352064
3731.6414,16.529226939670853,4.827370780478189
3732.5017,16.518445509828638,4.841038151950053
3733.3604,16.501427317223953,4.734895840363275
3734.2214,16.476945573376575,4.76465469780024
3735.0803,16.447852016688497,5.009999293902988
3735.9417,16.417559792651577,5.048762496281372
3736.8013,16.386433234270353,5.32060731040565
3737.661,16.35063358388467,4.573443143496554
3738.5227,16.30695405989723,4.938400441529552
3739.3828,16.258731417585032,5.234054789675097
3740.245,16.214776585209737,5.097182332874992
3741.1055,16.18304908389545,5.649418948481973
3741.9683,16.163068402593773,5.138422101715258
3742.829,16.14731256914568,5.373531667676883
3743.69,16.12828892455945,5.093707338829474
3744.5532,16.10507507489035,6.269256579946448
3745.4148,16.083090445069978,5.153985534573314
3746.2786,16.06838091287905,5.3124740387298806
3747.1404,16.063902572733742,5.370732590413077
3748.0044,16.069577798528602,5.4613413814381495
3748.8667,16.08416581029525,5.462930413156189
3749.729,16.104589534765992,5.03293080618176
3750.5938,16.123799991164177,4.925068685470571
3751.4565,16.131817272222676,5.068467816508074
3752.3215,16.122200401014098,4.876865969189239
3753.1848,16.097697155083473,5.746023504495454
3754.0503,16.069180980795572,5.201862189058255
3754.9138,16.048847958346077,5.097490039894448
3755.7776,16.042667607468335,5.044640020224187
3756.6438,16.04853052946122,5.373747326577613
3757.508,16.05852652073201,5.907406675446793
3758.3745,16.06325225091386,4.949366597046523
3759.239,16.055301520280278,5.674512597832589
3760.106,16.031288574004744,4.77829719578041
3760.971,15.992403146714059,5.401071558975589
3761.8362,15.943110635317884,4.907841413945704
3762.7036,15.88965517793237,5.518983425251757
3763.5693,15.838772018878474,5.163211406187349
3764.437,15.794879723185709,5.953409948488558
3765.3032,15.758880154199371,5.648650913476851
3766.1714,15.726998545133826,5.463162420143009
3767.0378,15.693987799455329,5.225702551313036
3767.9043,15.656971763371445,5.5631841596008735
3768.7732,15.618015482990828,5.849610317448231
3769.6401,15.582879617091203,5.373311379018326
3770.5095,15.555998614351218,6.090679489516092
3771.377,15.537153413161212,6.19195232990364
3772.2466,15.519912008627093,5.984284942961878
3773.1145,15.495116372540851,5.432473124090579
3773.9824,15.456639291249433,5.74222761417214
3774.8528,15.406678903121234,5.868018615659159
3775.721,15.356637024186574,5.931020406903728
3776.5918,15.320477056099202,5.711501533044273
3777.4604,15.30781597619764,6.1468462916812285
3778.3315,15.318858281295046,5.322202039616487
3779.201,15.346189188229475,5.364889188591768
3780.0703,15.379758715348874,5.844077013137693
3780.942,15.411426306296065,6.056129245093045
3781.8118,15.436718230848745,6.057659210346307
3782.6838,15.45514026435621,6.3105141088178645
3783.554,15.468158620026188,5.5886734237444315
3784.4265,15.477581836191815,5.824807977521978
3785.297,15.484198436268523,6.124262818909264
3786.168,15.48814948063047,5.997139308273129
3787.041,15.489039512882165,5.635790377524965
3787.912,15.485137157889593,5.846305460331254
3788.7856,15.472470107961717,5.057044996320097
3789.6572,15.446077511252987,5.689808992018263
3790.531,15.403147843087297,5.260911439785015
3791.403,15.346622932469792,5.999916935202786
3792.2754,15.283970027586616,5.844319399374288
3793.15,15.222871830165122,6.190766057163551
3794.0225,15.167329519501708,5.963064342624943
3794.8972,15.11663975553827,6.584972545151048
3795.7703,15.070169634889227,5.9070477446907805
3796.6455,15.029359355549715,5.942283873858081
3797.519,14.99776070193569,6.038373647671726
3798.3926,14.977607997691663,6.287955260778226
3799.2686,14.96871441956299,6.360368926443325
3800.1426,14.968941870063585,6.205842258631947
3801.0188,14.974675875019058,6.362573569218161
3801.8933,14.980547472845775,6.897523055946143
3802.77,14.979461777501061,5.934340668633797
3803.6448,14.964489771103436,5.581158993907099
3804.522,14.932323591781376,6.049624503250237
3805.3972,14.886354806469873,5.925870275558977
3806.2727,14.83550305526831,6.502989958639705
3807.1504,14.790093012890692,7.331074148308327
3808.0261,14.757063367159086,7.096861119156662
3808.9043,14.737080382593824,6.677233292934237
3809.7805,14.727305996525967,6.1118724093415615
3810.659,14.725154603701705,7.356051156805784
3811.5356,14.730738852366343,6.387367146996463
3812.4126,14.744933285732468,6.499206092242495
3813.2917,14.765403301047368,6.584192717430509
3814.169,14.784386361943644,5.82964216290387
3815.0483,14.791751336566236,6.544209351256237
3815.926,14.78055942335729,6.5241478908906245
3816.806,14.751361855499553,6.695112234957651
3817.684,14.711656636192348,7.032048760114414
3818.5623,14.670541330710876,6.223704069548479
3819.4429,14.633587053163483,5.704973994375151
3820.3215,14.601552339863341,6.241045393275138
3821.2024,14.572301343020174,5.691763793422666
3822.0815,14.54506789185376,6.38385343753062
3822.963,14.520981439094173,7.249415954388186
3823.8423,14.501506947843174,6.798836952916283
3824.722,14.485659723353407,6.110550569363351
3825.604,14.470182455919732,6.91275849444072
3826.4841,14.451885760651829,6.2658571760426485
3827.3665,14.429741608194604,6.46216267009349
3828.2468,14.4057824262624,6.1631397864290625
3829.1296,14.383062279958395,7.708920105563377
3830.0105,14.363645629018901,6.906051116420791
3830.8916,14.347047191519975,7.090286046771019
3831.7751,14.331404333360323,6.091911627440247
3832.6565,14.31522420392265,7.021218620531251
3833.5403,14.297460491391696,6.778567728826791
3834.4224,14.276992513275317,6.367654228908516
3835.3064,14.251884840240537,7.6707515955347825
3836.1887,14.220722902852634,6.380622830805272
3837.0713,14.183955893860196,6.889905565113771
3837.956,14.145358963997857,7.722578146584339
3838.839,14.112330842505639,7.422730651257641
3839.7244,14.092978793512978,7.1059620253802525
3840.6077,14.092177638149026,7.981983983324946
3841.4932,14.107438174666754,6.9997111340202585
3842.377,14.129173629808243,6.700549121458512
3843.261,14.145813058399606,6.217519075105337
3844.1472,14.150152496409325,6.97017032567861
3845.0315,14.14277724806817,7.09558217108773
3845.9182,14.130175407550588,6.030525247324596
3846.803,14.119575538426894,7.149756352970786
3847.69,14.114460101793613,6.967683173615163
3848.5752,14.114187836433132,6.586393059153425
3849.4604,14.116381444779948,7.033496030099765
3850.3481,14.119564871752742,6.486570556558425
3851.234,14.12351751013352,7.003405677564203
3852.122,14.12772014356334,7.750178189437007
3853.0083,14.12962690415876,6.639823936825135
3853.8967,14.124890392646495,6.8733587493812704
3854.7832,14.109504654992417,7.323766648258331
3855.6702,14.082228125646639,7.438714025819541
3856.559,14.045410904166147,6.9865823428997915
3857.4463,14.003816703429093,6.959954946472332
3858.336,13.9612914925825,7.7217557676564885
3859.2234,13.919743433200876,6.656850137744913
3860.1135,13.879099963435205,7.713804977396819
3861.0015,13.840642759958,7.246415718927442
3861.8896,13.807324987896667,6.9835266088081465
3862.7803,13.782140155419885,7.358013649928507
3863.6687,13.764725636552829,6.462323200603109
3864.5598,13.749668643736118,7.129711092526643
3865.4487,13.729902306682682,7.6482825703964785
3866.34,13.701521057302251,7.067904134656509
3867.2297,13.667290959187085,6.966586242727404
3868.1213,13.634238794078874,6.997505658991423
3869.0112,13.608595393813738,7.14187673603743
3869.9014,13.590798451573233,6.881343453325702
3870.7937,13.576190087398597,7.858105914231601
3871.684,13.559912915137643,7.644426000114195
3872.577,13.541280170808276,7.035204843757025
3873.4678,13.524303475468503,7.481923126962273
3874.361,13.513637834491508,7.963860947953323
3875.2524,13.511161616711572,7.185091682788346
3876.1438,13.514925430947354,7.7263396581900965
3877.0376,13.520804538428232,7.637698797050094
3877.9297,13.524161797882313,7.370118149279987
3878.8237,13.520812159240522,7.073399950032721
3879.716,13.507295902899363,8.272655267647954
3880.6108,13.481011835673065,7.653341176061652
3881.5037,13.440925607485386,7.902150746161995
3882.3965,13.388027808183073,7.839768454217933
3883.2917,13.326596170319299,7.2386352646747065
3884.185,13.265258241104828,7.5985599846632885
3885.0808,13.213525864531977,8.191138118979122
3885.9746,13.177675885031393,8.504101161550706
3886.8706,13.155604447757105,7.150851284430768
3887.765,13.138638751937693,8.39767566654564
3888.6592,13.1171274498479,7.515777857815598
3889.556,13.086329643355691,7.939315024565939
3890.4507,13.048151905885916,7.836541879510037
3891.348,13.008209824917056,8.212095939997841
3892.243,12.9733896781541,7.916990088320561
3893.1406,12.949094479451743,8.1774125947532
3894.0361,12.938959458458022,8.316034812264157
3894.932,12.943744674581726,8.59294892823684
3895.83,12.961261017408432,8.415945393578154
3896.7263,12.986198305024445,8.119854939982151
3897.625,13.01181111882974,8.60414244485516
3898.5215,13.032166154781295,8.115632736493525
3899.4207,13.045195650779577,7.5197583119738605
3900.3176,13.052895754689125,7.377796470275266
3901.2148,13.05988545461528,7.749918986893895
3902.1145,13.070915091662465,8.407021054990103
3903.0122,13.089344581346364,8.140855039530614
3903.912,13.11646613305674,8.465182289981241
3904.8103,13.150000726368054,8.453282062827315
3905.7107,13.184205259411263,8.480000264907046
3906.6094,13.21180515856891,7.266208926603594
3907.508,13.2289229590608,7.311003308844309
3908.409,13.237143682886195,8.227530484765976
3909.308,13.241309560293475,7.915860393927103
3910.2097,13.245324357116875,7.840592439395987
3911.1091,13.250191044978704,8.126832501321994
3912.011,13.25576690016786,6.672171146488518
3912.9111,13.262599776213154,7.971285508473826
3913.8113,13.271239110941691,8.099085792761523
3914.7136,13.279567607427648,8.315323941775414
3915.6143,13.281544772171562,7.1722240432628634
3916.517,13.269621328908753,7.581673217414419
3917.4182,13.239325052762945,8.145043678763072
3918.3215,13.192305387173544,7.757963711980561
3919.223,13.136564255377783,8.275641946485347
3920.1245,13.082489927114361,8.557867053000898
3921.0286,13.039172769428204,8.373595074551021
3921.9307,13.011709396379256,8.252478465818099
3922.835,12.999599506869693,8.026391751647713
3923.7373,12.998908242526916,7.680503475226515
3924.642,13.00516462633871,8.421026797812777
3925.5452,13.015480775491046,7.499893283174784
3926.448,13.027939689094866,8.050936210359957
3927.3535,13.039617072820345,8.0330395090817
3928.257,13.0458725159536,8.770952485624365
3929.1628,13.042281234656762,7.766009756684475
3930.0667,13.026964125165728,8.085712714676925
3930.9731,13.001301047643317,8.387528463821756
3931.8774,12.96892242245812,8.251266340773736
3932.782,12.933396897348256,8.445880331781716
3933.6887,12.897746043581979,8.665264697767718
3934.5938,12.865277790261212,8.423006549044887
3935.501,12.839361692581345,8.90361840128891
3936.4062,12.822831918674936,8.002105383878417
