wavl,flux,ivar
3566.9744,10.35414606459821,57.28593992648011
3567.795,10.339220681077366,52.13132837526494
3568.6177,10.32879804377497,48.321692464112914
3569.4385,10.321832096776939,50.845485431498076
3570.2617,10.315903852871063,51.11328739727281
3571.083,10.310175521036955,52.406316170497426
3571.9065,10.306396052762935,52.7600103481154
3572.7283,10.307139562188608,49.262529306023524
3573.55,10.3129148413251,50.20159133952353
3574.374,10.321327518939604,48.54870054574954
3575.1963,10.32843701042955,55.25971525133422
3576.0208,10.330964170671308,49.12054603157582
3576.8435,10.327355179275493,51.39535990347179
3577.6682,10.318033786128613,52.30731256207098
3578.4915,10.305222494636418,52.84870834924051
3579.3145,10.292100375331993,51.39221711090295
3580.14,10.281446914620105,52.4713828671812
3580.9636,10.274385149415366,50.44143232981602
3581.7893,10.269848979172146,53.418172794938
3582.6133,10.26564293561058,52.40383158530747
3583.4395,10.259737150544876,53.962057681202964
3584.264,10.251358325485588,49.90451470021198
3585.0884,10.241142215818062,48.51155084815872
3585.915,10.23059343662562,52.029253008484936
3586.74,10.220946843108505,55.09529872385388
3587.5671,10.211816151504397,50.862752837512055
3588.3923,10.201414863082096,50.34228784397306
3589.22,10.187853804272908,53.34189551515793
3590.0457,10.171125244538327,49.8052074735955
3590.8716,10.153334586246752,54.824003412343316
3591.6995,10.137636006369691,56.70688342710994
3592.526,10.12639389277088,51.98602738004935
3593.3542,10.119506195357982,52.24671372847129
3594.181,10.114483538261785,49.85902475295315
3595.0098,10.107703663705111,55.11059127231093
3595.8367,10.09668943167121,53.71071832654501
3596.6638,10.08157115117182,55.53528617313307
3597.4934,10.065133071252767,54.314445879373686
3598.3208,10.051473145802072,52.999484440732004
3599.1506,10.043543535615692,56.21601738747845
3599.9788,10.041894520535525,55.88391949488479
3600.8088,10.044535152329269,54.919551655384176
3601.6372,10.048483817908805,53.495096947488875
3602.4678,10.051550614785727,51.23694791293782
3603.2964,10.05303293718593,53.91787984184818
3604.1252,10.053258680861646,53.057757981813246
3604.9565,10.052618106030323,49.37106635576329
3605.786,10.051101879760658,57.325222927966244
3606.6172,10.048388667484879,55.39243528898213
3607.447,10.044144932625498,53.651790263396514
3608.2788,10.038002914566194,56.01543798276102
3609.109,10.02939892322523,54.42283535266537
3609.9392,10.017395146441206,50.28843696361497
3610.7717,10.001122950822946,57.687437126677246
3611.6023,9.980670545471755,59.12693234145956
3612.435,9.957111428992343,54.82199860086086
3613.266,9.932502477571616,53.83689667735485
3614.0994,9.908670908342822,54.532651563802084
3614.9307,9.886979619939565,60.28258662022975
3615.7625,9.867715246409023,57.52102182548042
3616.5962,9.850891084369227,56.71779671075911
3617.4282,9.837344636912048,54.5171889033862
3618.2625,9.828936983345667,59.264870494651944
3619.0947,9.827742576259931,58.44005913332817
3619.9292,9.834048462219513,57.617743354966755
3620.762,9.845308929395383,59.572682201601324
3621.595,9.856839787630939,59.382577763023434
3622.4302,9.863676979360683,58.144986436248054
3623.2634,9.862616898163465,52.37428627303613
3624.0989,9.853463397961539,51.354005260216425
3624.9326,9.838615838068918,54.22571345622591
3625.7686,9.821197375456144,59.61262241711007
3626.6028,9.803589746978593,58.1291154494989
3627.437,9.786753717975575,56.88844146887924
3628.2734,9.771200918784118,56.79648255115572
3629.1082,9.757980102523852,53.43656582138564
3629.945,9.748063595244389,57.02227866537339
3630.78,9.741114361348162,55.475317747065155
3631.6174,9.734339465892496,57.124864322996736
3632.453,9.723738558057777,57.12119673774006
3633.2883,9.706592509335183,56.98005298463977
3634.1262,9.683318092439878,58.70980245042017
3634.9622,9.657226188500692,57.29837256375626
3635.8005,9.631898400521829,64.40015619036602
3636.637,9.609870667757821,57.176899098365
3637.4756,9.591818171123514,59.562415459351854
3638.3123,9.577613711294749,58.089634498495634
3639.1492,9.566492091202853,57.438749461432494
3639.9885,9.557317290806955,60.21301548371563
3640.826,9.548786568562324,58.354153164970896
3641.6653,9.539777185022613,61.2645160237431
3642.5032,9.529909520452113,59.44829890200695
3643.343,9.519125924289565,59.93916433617624
3644.1812,9.507183139132174,60.258420858224326
3645.0195,9.493325438587885,60.349687165595164
3645.86,9.47714241293664,64.35561580812686
3646.699,9.459787482523533,61.36394164347225
3647.5398,9.443858531651006,60.705691499729205
3648.379,9.432399604967662,62.65137993801608
3649.2202,9.426809925266094,65.66721713903267
3650.0596,9.426043028994089,61.631128638037424
3650.8994,9.427091893335584,61.67557581079264
3651.7412,9.426847938339519,56.598917974348616
3652.5813,9.423885494557798,58.30742360822309
3653.4236,9.419031747416623,64.38959434701056
3654.2642,9.414426472808833,62.45436421643828
3655.1067,9.411829601634944,63.869441763651814
3655.9475,9.411802679509165,61.28372923078014
3656.7886,9.413887270073038,64.7771580172197
3657.6318,9.417124172258072,64.57213584866717
3658.4734,9.420084120019155,66.09744375659511
3659.317,9.42103185915767,61.77214040789823
3660.1587,9.418687699595104,65.05060295167407
3661.003,9.413207803681553,59.94133073153288
3661.845,9.40619973462514,61.96449947066762
3662.6875,9.39939050375767,58.70009133602191
3663.532,9.39348230768973,60.368214177806436
3664.3748,9.388140854281065,57.198742343948574
3665.2197,9.382725750328108,58.74874150383038
3666.063,9.376888516792274,59.778461859847354
3666.9084,9.37005507794722,66.68020981556928
3667.752,9.360872396806327,59.66307912644953
3668.5977,9.347335872130023,58.88701976105816
3669.4417,9.328562174984956,59.3164990071196
3670.286,9.306147304613233,58.460363160265985
3671.132,9.283897127084135,62.33339099441361
3671.9768,9.265617724033095,63.91903274593075
3672.8235,9.252615045682957,61.04689032955517
3673.6685,9.244027770357729,62.50906432892419
3674.5156,9.238497233458641,66.28269550109296
3675.3608,9.235850972612832,63.117751188786904
3676.2063,9.23666870626829,64.53662191574146
3677.0542,9.240794099264182,61.96083894621928
3677.9,9.246191009612474,61.41011684294461
3678.748,9.249600570035971,72.85058856255998
3679.5945,9.248264965539903,60.57195691731947
3680.4429,9.241475839116044,62.362977758157726
3681.2896,9.23059251995846,63.90546669078734
3682.1365,9.217640275904575,66.48296247163576
3682.9856,9.204114224274193,65.40748741860315
3683.8328,9.191184256048912,66.2574922306831
3684.6824,9.180463698464273,62.43963374997545
3685.53,9.174495252617238,65.25045486371465
3686.38,9.175176979334244,64.31975482483664
3687.2278,9.182115175930848,64.96716775959105
3688.0762,9.192412651213163,66.85141861340084
3688.9265,9.20226222408636,61.48628014418731
3689.7751,9.208708061279543,61.918773158128026
3690.626,9.210555178841974,60.84775589278394
3691.475,9.2080574381914,61.09807954260204
3692.3264,9.202509895050985,66.95159866040544
3693.1758,9.195985135908543,63.09676610258778
3694.0254,9.190964482804764,64.16248601582915
3694.8772,9.189855483450977,64.66735866289858
3695.7273,9.194047302908327,65.23776493951478
3696.5793,9.202750172136797,68.62579677427732
3697.43,9.21232582722434,67.83076697615323
3698.2825,9.217380591406913,66.30087056724035
3699.1333,9.213317987195321,60.928235961508086
3699.9841,9.19909422161706,64.79465242341237
3700.8374,9.177632596745841,65.48869527653129
3701.6887,9.154095655390057,63.3891916809482
3702.5425,9.132560268232677,64.80853182959335
3703.3943,9.114778441581219,67.20455002340351
3704.2483,9.10021877378836,65.51334949627575
3705.1003,9.088110080326752,63.44516855450182
3705.9526,9.078392325051697,67.04757575568067
3706.8074,9.071735870693091,69.73758293436045
3707.66,9.068633139751318,66.29222920705585
3708.515,9.068559276514515,70.91898741013131
3709.3682,9.069986755410945,67.643855105001
3710.2234,9.070923858743672,64.89484522844292
3711.0771,9.069740672344404,65.54990641989083
3711.9307,9.065642918211793,63.975550598218156
3712.7866,9.05835430791012,67.79460892707264
3713.6409,9.047807626644458,70.61285658365173
3714.4973,9.034366129494531,66.72964717467454
3715.3518,9.01973472133718,64.97888105966078
3716.2085,9.00648270978901,64.88771416513791
3717.0635,8.996929864698833,66.76118424845822
3717.9185,8.991847963477005,68.2783410094408
3718.776,8.990774754430054,65.17611128753684
3719.6313,8.992664891090172,67.76519131611262
3720.489,8.995970892464184,67.8332487862603
3721.345,8.998440551766361,67.90010510956152
3722.2031,8.997754625750007,65.57734887381731
3723.0593,8.992882622300227,59.89123119021999
3723.9158,8.984921189217149,68.37916631235652
3724.7747,8.976409854170779,70.63587254921029
3725.6316,8.969792762328279,65.49879224542879
3726.4905,8.966029634430805,70.83260398196276
3727.348,8.96454456913951,68.22707282168555
3728.2073,8.96371319242111,68.73781298709392
3729.065,8.961638508578849,61.94423169331405
3729.9229,8.956838482707028,66.72561531728638
3730.783,8.948713067151772,69.79655579281403
3731.6414,8.937677926070169,64.97250357970884
3732.5017,8.92478778515702,67.4852459752522
3733.3604,8.911721727169276,68.70379797205987
3734.2214,8.900383519608614,69.3778607814805
3735.0803,8.89260844869432,69.8694430216015
3735.9417,8.889163905035948,71.18840803281759
3736.8013,8.889433578084349,65.13575131459635
3737.661,8.891506663350121,69.24975904440258
3738.5227,8.892862708769648,71.53408014884651
3739.3828,8.891184719155385,67.79325123885805
3740.245,8.885363667568274,66.64555820971562
3741.1055,8.876366708771021,64.53627567069323
3741.9683,8.867011243562413,75.36142677155344
3742.829,8.8608171549041,68.73421398348088
3743.69,8.860211021897285,67.56231557245133
3744.5532,8.865646960529746,69.86728033391995
3745.4148,8.875259431827475,68.34260104316164
3746.2786,8.885357358453572,68.27367765730098
3747.1404,8.89158545830499,64.4592982971916
3748.0044,8.891087025011233,68.44898103378908
3748.8667,8.88396699925351,68.62222849487922
3749.729,8.873201651560565,66.1322459387722
3750.5938,8.862773650572985,69.72693472658068
3751.4565,8.8554350785913,69.68263780246434
3752.3215,8.851132579162861,66.42928400661758
3753.1848,8.847531740825318,73.52157420722655
3754.0503,8.841721336721792,69.71264611352558
3754.9138,8.832330104602205,70.12437538466324
3755.7776,8.82033777117052,69.27404375293297
3756.6438,8.808220324651893,76.74502000199892
3757.508,8.798042569478651,71.7787755378008
3758.3745,8.789805071402041,70.68670578604501
3759.239,8.782055254228474,71.15449830790328
3760.106,8.773431125541668,66.35800212947547
3760.971,8.764119706700452,68.59615089535619
3761.8362,8.755530244360894,76.94654432616063
3762.7036,8.74914533360534,70.95749276351893
3763.5693,8.745370152112852,73.38783534966555
3764.437,8.743113739778686,69.78328251379486
3765.3032,8.740520548323408,70.72248925304137
3766.1714,8.735987018247524,69.59136806382682
3767.0378,8.728876178283986,70.66083360419638
3767.9043,8.71932212616626,72.1148961235063
3768.7732,8.707708548175995,70.58091731469699
3769.6401,8.694586137398339,71.10473616943554
3770.5095,8.680730861595169,73.15476982690257
3771.377,8.66767042347832,75.63853072335279
3772.2466,8.657265512832304,72.44711189132175
3773.1145,8.65150194389516,71.75775413775452
3773.9824,8.651894332539698,68.92443945700097
3774.8528,8.659192640472787,75.20514230475541
3775.721,8.672756250743436,75.22616602167422
3776.5918,8.690467962599111,72.09913651439288
3777.4604,8.708898992280005,68.29329253763844
3778.3315,8.724794673298373,72.27200118130663
3779.201,8.735984074339978,68.4884023780456
3780.0703,8.742324383075852,71.46580637521087
3780.942,8.745168132906025,72.07522394498524
3781.8118,8.746210906387123,70.8239090509365
3782.6838,8.746485803274323,78.37666631058553
3783.554,8.74624094085088,71.01910260346007
3784.4265,8.745583151849972,65.39035532651155
3785.297,8.744730939898322,75.69461122278159
3786.168,8.743332415268249,74.4589176616785
3787.041,8.739777616041417,69.5509674418543
3787.912,8.731686799559506,70.54931815781163
3788.7856,8.717122282746455,76.33024022132761
3789.6572,8.695631459970702,69.6107190839582
3790.531,8.667820837889389,76.171663350497
3791.403,8.63528096131288,68.92705765046044
3792.2754,8.600043716644398,71.97138221209863
3793.15,8.564710452306802,76.2647086290917
3794.0225,8.53224655937229,72.12309117715176
3794.8972,8.50451126324732,78.04672438000179
3795.7703,8.482116586538742,76.17227941534846
3796.6455,8.46398452766501,76.68202795389817
3797.519,8.448816309045291,76.02508111539402
3798.3926,8.436422727464775,76.00472873709849
3799.2686,8.428904160712245,76.54759741126725
3800.1426,8.429906811528916,81.68460623102708
3801.0188,8.442095815075989,79.7102789762176
3801.8933,8.464941251465417,72.42149944896553
3802.77,8.495000889481272,69.86938081860181
3803.6448,8.52785655253951,75.6104729512966
3804.522,8.561088426937173,76.92367849901643
3805.3972,8.59410330012643,72.22517157856727
3806.2727,8.62714774842327,74.2993365016826
3807.1504,8.659298146597761,66.9294705079937
3808.0261,8.687997182237044,68.48446934567565
3808.9043,8.71088304095311,71.670866744353
3809.7805,8.72689311937273,66.97010672192725
3810.659,8.737311840710433,68.81249131248073
3811.5356,8.74450019145853,70.28891775439271
3812.4126,8.750285602039682,73.67741418276141
3813.2917,8.754561729354897,68.66583962145053
3814.169,8.75541810304319,65.07560864557635
3815.0483,8.750600457620536,66.44701389739475
3815.926,8.739116164508669,68.22851523737062
3816.806,8.721781835648965,74.62795994694018
3817.684,8.70078840368488,73.58456201742027
3818.5623,8.67835981291478,73.40954183529504
3819.4429,8.656213653239867,72.5379748588371
3820.3215,8.635701761593234,76.29472413080288
3821.2024,8.617244678107454,72.75567659699061
3822.0815,8.600239006624523,70.10366233685093
3822.963,8.582573088377849,75.30460967841094
3823.8423,8.561540352245094,72.74994196077813
3824.722,8.534466058641957,73.6282488232225
3825.604,8.499490186904815,72.92516809540682
3826.4841,8.456359298420546,75.7737409880481
3827.3665,8.40597738986227,72.12808893523126
3828.2468,8.350871470186368,81.00153958886365
3829.1296,8.293373794269131,81.9228924086384
3830.0105,8.235759777891374,76.76825470924516
3830.8916,8.178809555456583,83.7524993479022
3831.7751,8.12236697700265,82.58955832147427
3832.6565,8.066426261628498,90.78806986319329
3833.5403,8.011275039856239,84.13315310049347
3834.4224,7.959949790144847,83.08422633198985
3835.3064,7.9177040745531855,92.94635868880772
3836.1887,7.891620881757476,89.7488929379732
3837.0713,7.887394353822269,88.77702448656409
3837.956,7.907431924299055,93.84071732752903
3838.839,7.949733318122666,88.11142825063517
3839.7244,8.009174788026243,81.95172090403506
3840.6077,8.078430110960205,81.53140940563698
3841.4932,8.150637541058451,81.85733283078962
3842.377,8.21962212864325,73.36540376673447
3843.261,8.282164812261868,79.08289957070477
3844.1472,8.337914027255895,79.27679641652726
3845.0315,8.388461649894369,73.15253607271336
3845.9182,8.436994852299309,74.07189675691853
3846.803,8.486065364615428,78.84352413334499
3847.69,8.537592226820944,71.58130342642247
3848.5752,8.591204399652327,71.34914160527765
3849.4604,8.645010361966394,74.82139146678135
3850.3481,8.696356993150994,70.45438090986062
3851.234,8.742896234066786,67.94494551108876
3852.122,8.784235457893926,66.80836617055556
3853.0083,8.820493568575928,69.54257899167843
3853.8967,8.851927448388338,71.38575229515983
3854.7832,8.877618765254825,71.05291483691417
3855.6702,8.896633588067493,68.25111328644606
3856.559,8.908956294668835,68.35529772038177
3857.4463,8.91609135204576,70.22772607506377
3858.336,8.920459392562856,70.24196884524832
3859.2234,8.923806480922714,69.97929748800826
3860.1135,8.926342408570369,64.41522927311965
3861.0015,8.926785553331449,67.41347925451772
3861.8896,8.923412098473431,66.16945482170334
3862.7803,8.91518877498919,70.48045630233337
3863.6687,8.902543741704815,68.78771186434491
3864.5598,8.886872368350655,67.14796809420064
3865.4487,8.86968024140068,70.9834824735018
3866.34,8.85113049176243,66.47271251222934
3867.2297,8.830089973386254,68.34002386450003
3868.1213,8.804526551690028,70.89814745879798
3869.0112,8.773047162546744,71.01197355142895
3869.9014,8.735196249387403,71.01439018452628
3870.7937,8.691381118581246,69.23177045316362
3871.684,8.642739268385407,68.74935530672425
3872.577,8.590025017354296,72.62597425950041
3873.4678,8.534106114302688,74.80179830781277
3874.361,8.474238932413208,74.40039274855059
3875.2524,8.408942945508713,73.1891386898642
3876.1438,8.336086531431329,75.78836980647812
3877.0376,8.255039863675519,75.04314117321996
3877.9297,8.16823680717385,79.86011139592193
3878.8237,8.07867252204442,85.86052080801849
3879.716,7.989120338263374,87.72549542363357
3880.6108,7.899385037672623,90.11528833353168
3881.5037,7.808539958115302,88.00846500391906
3882.3965,7.714964191390224,91.52422829604674
3883.2917,7.617890226582199,99.21872338901082
3884.185,7.518196761802824,88.76206011832873
3885.0808,7.416344122000001,102.64138629704384
3885.9746,7.314418616149059,106.5389203968728
3886.8706,7.214854511328079,105.92151321267784
3887.765,7.1231152582119845,106.46154212618686
3888.6592,7.0463820588524495,112.26463342431381
3889.556,6.993153671156481,118.17937130877263
3890.4507,6.9709024874711965,121.88025112824096
3891.348,6.982350463041936,115.5528385618373
3892.243,7.02482201037126,111.87952883138433
3893.1406,7.092293917848489,112.66249944944764
3894.0361,7.1776231433813455,98.94023211694525
3894.932,7.275513499513342,101.8863487189934
3895.83,7.381816981012689,102.60569210741016
3896.7263,7.49169544387217,94.4071089608734
3897.625,7.601676686133727,95.76794449140996
3898.5215,7.708788251715544,93.02881042895281
3899.4207,7.813426616126151,88.39421437951225
3900.3176,7.9160677523896705,90.8475672087129
3901.2148,8.017747997067705,85.22731376856844
3902.1145,8.118685114854486,84.02923500696456
3903.0122,8.218179623972446,90.85276200251045
3903.912,8.316801491974042,81.15017983459848
3904.8103,8.414267231815115,73.9959714329281
3905.7107,8.510585409270178,75.67949655646925
3906.6094,8.60420780386906,79.68787293652922
3907.508,8.693943088788133,69.71521231665824
3908.409,8.778948918538653,70.56904779952525
3909.308,8.858207183118518,71.82724121291425
3910.2097,8.931450438466422,65.40208648959583
3911.1091,8.997667101185037,62.52523594590587
3912.011,9.057278146089867,67.28780064700695
3912.9111,9.11149179574752,65.85631948109946
3913.8113,9.162951633711666,65.13294086156483
3914.7136,9.214009879399548,64.55594509151786
3915.6143,9.265200222072938,59.07229608947457
3916.517,9.315887753611399,60.38290352289634
3917.4182,9.36416205312104,60.557705912054274
3918.3215,9.408564540804516,60.90508410129866
3919.223,9.447653789524642,60.84090793195183
3920.1245,9.480856779402988,62.11314931335077
3921.0286,9.50842195771933,58.10493509362514
3921.9307,9.531663050714522,57.7087681763148
3922.835,9.55314481769566,60.16260477462743
3923.7373,9.575001773702061,58.6202594961833
3924.642,9.597864978916277,58.24993539017585
3925.5452,9.61976445158993,58.05725569898886
3926.448,9.637140017620544,59.0536689873695
3927.3535,9.646277486202244,60.21835739541162
3928.257,9.644949204437284,55.8526241284665
3929.1628,9.63357416272605,59.86552328326249
3930.0667,9.615061778566007,58.925999069183256
3930.9731,9.593311799084864,56.74960916923282
3931.8774,9.571752369303722,56.34055836877949
3932.782,9.551719741557593,61.37741849450036
3933.6887,9.532720291204647,58.81204239543969
3934.5938,9.513550048976569,61.61831307080069
3935.501,9.492826930128304,61.11388779623996
3936.4062,9.469366134182417,58.992402411247895
3937.3142,9.441605076709545,60.201271220725275
3938.22,9.408431726189596,58.90610311464193
3939.128,9.369139852311196,62.70376258871644
3940.0342,9.32413843081508,60.83888581187846
3940.9407,9.274030095111545,65.33688204878518
3941.8494,9.219543215032479,65.98367849833436
3942.756,9.161748510147003,64.22336279397703
3943.6653,9.100724573335375,67.76100142676925
