wavl,flux,ivar
3566.9744,0.9504782021481061,404.87500523331505
3567.795,0.9482761961994398,308.2609045628838
3568.6177,0.9485086960071712,241.11220327023963
3569.4385,0.9493521100994118,289.7072503971601
3570.2617,0.9488399335107026,346.7835225289006
3571.083,0.9455751907218736,329.9071502982096
3571.9065,0.9393740058480778,316.64860548476804
3572.7283,0.9314395921872721,392.44580561707556
3573.55,0.9235950969552842,360.6973509666556
3574.374,0.91730675973465,405.20531110402885
3575.1963,0.9132176921887787,292.56038110411464
3576.0208,0.9113691893189333,273.40267231094253
3576.8435,0.9118824718972978,398.85428827330975
3577.6682,0.9149693839308798,336.869405485715
3578.4915,0.920286545828012,407.4904014041394
3579.3145,0.9264522297368614,324.8451493918592
3580.14,0.9315023901005949,246.26456211301272
3580.9636,0.9341080604409963,559.8998402109156
3581.7893,0.9346137673903169,303.4914501058119
3582.6133,0.9345887874082008,305.1595116737386
3583.4395,0.9353985929951766,315.2853059496866
3584.264,0.9371380507899282,280.2580612673908
3585.0884,0.9390149281500614,320.642858597333
3585.915,0.9405429853896274,422.6958879974209
3586.74,0.9421000749818897,367.27233382976914
3587.5671,0.9443797570291501,392.7620436070407
3588.3923,0.94744092198467,466.9667109942738
3589.22,0.9504774546705066,272.5015911021137
3590.0457,0.9522629715465871,271.0067908134452
3590.8716,0.951984660561458,398.9722493293369
3591.6995,0.9496850552685281,283.7458985356698
3592.526,0.9461544188076162,395.82172602987623
3593.3542,0.942208373899998,293.00033778419237
3594.181,0.9380639675559287,276.7358047627184
3595.0098,0.9332498584611971,300.94578130634824
3595.8367,0.9274254453296862,340.51107016451886
3596.6638,0.9211417835320989,376.3092386673727
3597.4934,0.9159701730286397,336.3478179587727
3598.3208,0.9136617125129541,454.3941406379095
3599.1506,0.9149128949265825,440.49946975414707
3599.9788,0.9189793153185493,437.0478608375373
3600.8088,0.9242478286167333,341.1245770953213
3601.6372,0.9291054801875148,534.2785189091082
3602.4678,0.9325264552981182,287.82310900969077
3603.2964,0.9339770098869562,330.8218346976062
3604.1252,0.9333448758204125,264.7503143349924
3604.9565,0.9308940352436834,277.7610581168143
3605.786,0.9273152340546046,342.35160018855845
3606.6172,0.9234815046001156,326.58344111307287
3607.447,0.9201154837886646,255.83876285438882
3608.2788,0.917350348932275,322.5836837590427
3609.109,0.9147035444052919,358.34450124152283
3609.9392,0.9114468548630588,367.89738284575066
3610.7717,0.9073234478024795,318.1688205856376
3611.6023,0.9029809653623061,348.1149841600751
3612.435,0.8995606685262808,343.44690523401283
3613.266,0.897932974217494,544.4062986426724
3614.0994,0.8980431845810767,288.4882860388095
3614.9307,0.8991435573573373,338.10437130640787
3615.7625,0.9006162990404454,379.6322098578624
3616.5962,0.902598846328709,392.10586669363664
3617.4282,0.9056798390784945,370.2309976206185
3618.2625,0.9100165856311586,381.04798994053135
3619.0947,0.9147546045775685,305.69099391470024
3619.9292,0.9185540872235894,330.8461484913045
3620.762,0.9203941508484622,330.65378831560497
3621.595,0.920076365185985,336.8526956267669
3622.4302,0.9179356846753951,298.98271330389457
3623.2634,0.9143865660974962,343.12560003645115
3624.0989,0.909620852132541,393.98668578063365
3624.9326,0.9038435741160964,384.9315245068921
3625.7686,0.8975965777796329,508.8549929598348
3626.6028,0.8920561049409219,436.19686937024096
3627.437,0.8885947851001527,356.00879985421284
3628.2734,0.8881766809728344,428.8240944446944
3629.1082,0.8908832318193165,374.3958077457552
3629.945,0.8959292610421076,307.04169633537344
3630.78,0.9019572994061315,305.3307383391347
3631.6174,0.9075951043898881,266.28390330355217
3632.453,0.9118602768528301,343.42684646191805
3633.2883,0.9146500855812713,469.5544625217186
3634.1262,0.9166430667077258,416.75124333599587
3634.9622,0.9187463916145803,376.8721615592217
3635.8005,0.9214694071912775,282.9757570853759
3636.637,0.9246433918404288,378.5206914847287
3637.4756,0.9277879334964566,289.5974366474783
3638.3123,0.9304284088205833,394.98326454202873
3639.1492,0.9322128864188306,438.65303473886814
3639.9885,0.9328937484105738,305.5915536649741
3640.826,0.9326145848355335,342.0956833330091
3641.6653,0.9320669245122105,395.80801491272564
3642.5032,0.9319800989731396,252.17779434412475
3643.343,0.9323547423598768,372.2245829192877
3644.1812,0.9323280142805629,305.1296778550718
3645.0195,0.9308284104304988,323.29299033963395
3645.86,0.9273651228394446,281.8760060419104
3646.699,0.9224265505403425,333.0573333287086
3647.5398,0.9171160615289886,254.78730762590888
3648.379,0.9124069156934667,551.2607023852144
3649.2202,0.9083108534999307,297.3663849507588
3650.0596,0.9039933741442685,561.0644397007503
3650.8994,0.8985689091834339,308.8672209321574
3651.7412,0.8920912494044441,328.01716511056253
3652.5813,0.8857960812438395,414.545069325752
3653.4236,0.8812837513088781,355.13496015410885
3654.2642,0.8796166549792086,505.8306079524737
3655.1067,0.8807852943545587,295.518222407405
3655.9475,0.8840459120799836,290.9083810804624
3656.7886,0.8885352706498253,605.6482248737127
3657.6318,0.8936427998616192,469.5288762500905
3658.4734,0.8989411566823529,285.5714399276669
3659.317,0.904027462356239,401.6758661131165
3660.1587,0.9082402587453263,264.85003248446526
3661.003,0.9108446510733021,234.24706443702547
3661.845,0.9113402900825895,326.0415553300227
3662.6875,0.9098085650781023,370.70232617564966
3663.532,0.9068187243990642,397.2004165159989
3664.3748,0.9032498135316328,374.58309996336277
3665.2197,0.9001103855877439,229.16051880398703
3666.063,0.8984277613898086,354.2632760152261
3666.9084,0.8988006614448613,390.8648503450575
3667.752,0.9009976295031296,381.4450868983081
3668.5977,0.9039395166098116,312.8336225050881
3669.4417,0.9061528374207799,469.32021752081016
3670.286,0.9064828173681337,331.5593235626689
3671.132,0.9045417294231858,300.41138671275365
3671.9768,0.9008710739007546,380.0437286739357
3672.8235,0.8966921379550429,383.0597680159527
3673.6685,0.8934471902509118,503.7331064743469
3674.5156,0.8921056001006954,452.9924704836859
3675.3608,0.8927672724443496,383.5093656999349
3676.2063,0.894658813158404,386.8278942759666
3677.0542,0.8966280847561042,405.03342859556284
3677.9,0.8977122661699978,324.0223135212924
3678.748,0.8975378955395393,419.057399515455
3679.5945,0.8962925951460999,346.8174460959564
3680.4429,0.8944541877574125,311.3969109141674
3681.2896,0.892525324980595,342.3542890570731
3682.1365,0.8908965823364837,387.41364733204523
3682.9856,0.8898604604550613,444.3052902074259
3683.8328,0.8895646497021188,357.82890928204574
3684.6824,0.8899229459230582,419.56510366845157
3685.53,0.8906873047967215,369.3359498931383
3686.38,0.8916164912667288,465.26445346315705
3687.2278,0.8924869333149505,269.69809860626526
3688.0762,0.8929949639677495,422.2200573146879
3688.9265,0.8928048112147913,322.9859501394641
3689.7751,0.8918626406056234,406.9783815331918
3690.626,0.8905913662079967,503.3005398183079
3691.475,0.8897498397630922,381.9967833010288
3692.3264,0.8901249552152564,360.7567409465152
3693.1758,0.8923724407359088,296.636104506469
3694.0254,0.8968493906651097,531.8573316816195
3694.8772,0.9032505393550333,361.1488055988402
3695.7273,0.9101935325765332,380.7080304367337
3696.5793,0.915568775539356,334.9660589297883
3697.43,0.9174865726473667,363.1132523913542
3698.2825,0.9155619592436538,235.6370225298554
3699.1333,0.9112019196495018,284.94527634578117
3699.9841,0.9065550712488041,387.02424419383436
3700.8374,0.9029845548692752,378.7231932145265
3701.6887,0.9004544027220689,440.08812195417283
3702.5425,0.8980839385621441,361.52187769612493
3703.3943,0.895204383771093,371.6437682058279
3704.2483,0.891740917017334,237.6363608589959
3705.1003,0.8881171509050747,457.54363558706996
3705.9526,0.8848843664248336,420.8977975181541
3706.8074,0.8824632270050506,416.1605842256935
3707.66,0.8809142564506875,343.3985303055937
3708.515,0.8798507205681441,346.1471679990331
3709.3682,0.8787360674333418,320.8776275735358
3710.2234,0.8772175735141707,261.6169286525019
3711.0771,0.8752958062893127,519.5720631110787
3711.9307,0.8731894275886725,287.6755955342916
3712.7866,0.8711495443437939,367.324379202073
3713.6409,0.869363057377763,382.6015771733272
3714.4973,0.8678870335104475,378.86880787578195
3715.3518,0.8667514370633603,536.005323314684
3716.2085,0.8661083209679561,458.666315210633
3717.0635,0.8664024076302635,365.9247203579783
3717.9185,0.86823390299435,378.6299211464157
3718.776,0.8718982810470934,440.98179433621533
3719.6313,0.876831413139852,455.31766976635885
3720.489,0.8817270783135135,350.26840099992233
3721.345,0.8852508217739069,321.22093417842285
3722.2031,0.8870344123255451,527.6053923635055
3723.0593,0.8877749501813844,540.8711321247283
3723.9158,0.8885369999165538,352.4377898943021
3724.7747,0.8898784374412987,428.13453864248936
3725.6316,0.8915908505115399,307.2300531116839
3726.4905,0.8930168059890184,494.6993046166181
3727.348,0.8933431121502541,398.933057242045
3728.2073,0.8918109494699731,346.2038708311045
3729.065,0.8880434939209016,334.71310424255296
3729.9229,0.8824313018713225,504.7003622344458
3730.783,0.8761076196078161,344.77422561761233
3731.6414,0.8703901792372749,553.3405599603298
3732.5017,0.8660131300323018,490.4214668112882
3733.3604,0.8630780675485394,437.92900127072386
3734.2214,0.8612801884658908,611.0641230654759
3735.0803,0.8602418006068754,411.7252607440389
3735.9417,0.8595877125517998,450.0335495799561
3736.8013,0.8590918777111576,356.9242544290797
3737.661,0.8587882879052764,429.1967954961924
3738.5227,0.8589268110906239,559.2555731863
3739.3828,0.859737300200319,378.6065991566408
3740.245,0.8612321005823621,513.314956937953
3741.1055,0.863128673801921,303.1815118417841
3741.9683,0.8648831328081482,595.9152833894561
3742.829,0.8657377810401122,336.285480349367
3743.69,0.865053534657742,307.0897928633072
3744.5532,0.8627612258177805,352.5283508100962
3745.4148,0.8596610785397395,293.3342697986838
3746.2786,0.8570845518977135,604.744525572873
3747.1404,0.8562476883872924,382.259805485761
3748.0044,0.8577060015059816,573.951744508424
3748.8667,0.8613422574476022,416.0312282039729
3749.729,0.8665808424526023,397.6257134003306
3750.5938,0.8724592793093683,428.71234084476015
3751.4565,0.8775701012186382,377.5996765972051
3752.3215,0.8805488112762447,344.2112760096593
3753.1848,0.8808155541442428,304.7023745024206
3754.0503,0.8791834497780936,490.17714715290634
3754.9138,0.8773384463867234,446.09224046898646
3755.7776,0.8764666998056997,385.454972544837
3756.6438,0.8763157620824749,502.23256652331645
3757.508,0.8755657712800645,333.97447185906066
3758.3745,0.873093146924099,580.2976777133166
3759.239,0.8689123706575957,381.3287087414263
3760.106,0.863992867975253,393.7622421955399
3760.971,0.859518845992165,355.2468885057282
3761.8362,0.8560924783398564,464.7101572064935
3762.7036,0.85362709500091,378.4067904326888
3763.5693,0.8517145584835296,412.04434685550524
3764.437,0.8501015301851144,391.3835275833544
3765.3032,0.8489742337689296,449.6996736985247
3766.1714,0.8487505627897407,394.89010522062904
3767.0378,0.8496909662037474,452.192250031551
3767.9043,0.8516582551339512,383.4287060581067
3768.7732,0.8542465679893996,475.7130587242148
3769.6401,0.8570627525703216,396.0501394655988
3770.5095,0.8600061431641738,340.70427003537236
3771.377,0.8631777751084713,533.5483497348314
3772.2466,0.8666196919970259,462.4329264072582
3773.1145,0.8698792517943963,387.5416412968717
3773.9824,0.8720412174067583,239.75584186570302
3774.8528,0.8721797291495883,406.86426593125395
3775.721,0.86994092479117,303.76869908103254
3776.5918,0.8656575264222843,632.7158524002789
3777.4604,0.8601092125453231,436.7862310388638
3778.3315,0.8542386397907121,304.4824413863998
3779.201,0.8493100062218502,320.92880611361625
3780.0703,0.8466852947609956,533.3833348978834
3780.942,0.8472698762222433,494.5700051564454
3781.8118,0.8508162738750454,472.0715473340218
3782.6838,0.8559181506732957,391.0649791982861
3783.554,0.8606850343045941,513.2252664653599
3784.4265,0.8637000587310518,385.0504982378247
3785.297,0.8644130620537516,408.6548078713544
3786.168,0.8631979591232132,467.7223114255602
3787.041,0.8610422746112495,387.78825704750875
3787.912,0.8591727024910196,380.2281568320692
3788.7856,0.8585063386579893,431.9137224637353
3789.6572,0.8591731947720248,393.3857530247807
3790.531,0.8603004100893153,343.8278444082634
3791.403,0.8603909255773785,339.27342035134404
3792.2754,0.8581968234743471,306.1753099299327
3793.15,0.8534579892461271,444.2739123339111
3794.0225,0.8470761197267567,480.0999963501547
3794.8972,0.8405052097762858,332.08300523014515
3795.7703,0.8351278668583936,413.19086576387286
3796.6455,0.8316031233874107,547.3297455705737
3797.519,0.8297429168621074,408.7593637610222
3798.3926,0.8286607016487841,506.9437029569252
3799.2686,0.8274112311539625,347.5063474038885
3800.1426,0.825650621238424,498.58124374585753
3801.0188,0.8238282399163349,443.4624354060944
3801.8933,0.822856703956954,498.0815837154103
3802.77,0.8235367885522724,451.8539798299559
3803.6448,0.8262540553543777,394.10175150683904
3804.522,0.8309580123168004,563.7922748327
3805.3972,0.8370947173137371,466.21394382233063
3806.2727,0.8436678556801999,402.33253951248685
3807.1504,0.8494723624501582,225.92013080123368
3808.0261,0.8536506149263015,420.9638947310903
3808.9043,0.8562311009992909,673.5049357497849
3809.7805,0.8578249602268299,332.06744610054324
3810.659,0.8589440830283511,388.8014380527534
3811.5356,0.8594443749794698,333.1418362948315
3812.4126,0.8587498792614846,327.35878667623024
3813.2917,0.8565065996457258,390.999114154053
3814.169,0.8530832144165353,340.9342878145666
3815.0483,0.8493952120737573,412.6520236876449
3815.926,0.8463869305347816,451.3174036016743
3816.806,0.8444765900595739,454.4141111960073
3817.684,0.8435855164787806,481.8927616042047
3818.5623,0.843514996424114,419.88098979085987
3819.4429,0.8443544375431199,318.8577520799531
3820.3215,0.8463784925345627,434.14775232530224
3821.2024,0.8495087642059912,414.6912773600237
3822.0815,0.8527698574131054,391.0852605942543
3822.963,0.854496308110921,331.10023666268626
3823.8423,0.8532254935448527,439.6112158188808
3824.722,0.8487542124953098,322.305505812574
3825.604,0.8422623153583981,405.1126686236354
3826.4841,0.8354855887565333,446.3387743435503
3827.3665,0.829441558083207,523.6221212820997
3828.2468,0.8241337000779314,443.9638184095972
3829.1296,0.8189061955801453,437.3909969020543
3830.0105,0.8132525335181017,383.9889961021428
3830.8916,0.8070690624182415,582.4132524535146
3831.7751,0.8006194564402108,438.4074101731959
3832.6565,0.794338645711864,521.5743566154488
3833.5403,0.7885441797274257,464.4016245644124
3834.4224,0.7836082776021495,479.7156296809767
3835.3064,0.780020977553797,539.8870730568889
3836.1887,0.778509139857268,492.0480606864982
3837.0713,0.7797618964984754,492.64683989414124
3837.956,0.7841393680997437,463.1340010010902
3838.839,0.7913594414768712,504.87805151668164
3839.7244,0.8005315655634437,400.67428896593793
3840.6077,0.8102797345496124,626.9366522324636
3841.4932,0.8193932574226334,677.907063073548
3842.377,0.8271140815277929,433.20420905754133
3843.261,0.8333557361519778,387.39613042876704
3844.1472,0.8383198615041462,318.7426698683408
3845.0315,0.8421644078303457,424.4701834329985
3845.9182,0.8450606238533493,632.8261942128875
3846.803,0.8472920291198213,419.8174130484254
3847.69,0.8494083638678857,392.7814820824213
3848.5752,0.8520685710165616,341.37983214202933
3849.4604,0.8558093185170532,491.5031995819685
3850.3481,0.8607349151148466,387.8871917745001
3851.234,0.8663061887875859,412.7305681363404
3852.122,0.8716088384518914,400.09556005360275
3853.0083,0.8757245532885712,361.4546808607059
3853.8967,0.878276366726685,468.89764750836923
3854.7832,0.8795066809247523,366.51357842280953
3855.6702,0.880152210891132,395.4718129780585
3856.559,0.881033683495333,383.99196148043785
3857.4463,0.882597681593734,419.3813157547693
3858.336,0.8846043071132127,409.4357497064031
3859.2234,0.8861730370379106,410.2695602672684
3860.1135,0.8863730971566278,374.9388193258076
3861.0015,0.88489746138386,317.1335003919032
3861.8896,0.8823401654787325,312.6133848894461
3862.7803,0.879762636491122,353.214538204805
3863.6687,0.8779364045244041,449.74976585574893
3864.5598,0.8767584556919792,361.42604415155233
3865.4487,0.8754158005250878,385.36193504083286
3866.34,0.8730397098711612,339.40368020085896
3867.2297,0.8694291449011321,361.3708414940183
3868.1213,0.8650996568586312,457.6476362398903
3869.0112,0.8607848672568764,451.05524944120674
3869.9014,0.8567519839543064,404.82997725710015
3870.7937,0.8526957948632513,391.4936961293944
3871.684,0.8480884785875376,519.5854067967131
3872.577,0.8424878261672386,444.4111957235534
3873.4678,0.8358663358648913,422.9627476094993
3874.361,0.8286137747014328,371.9252820419211
3875.2524,0.82154829746756,499.3303113860899
3876.1438,0.8153199339333512,445.1427508584152
3877.0376,0.8099048464028048,551.4594738012672
3877.9297,0.8045748127546722,634.9330128517607
3878.8237,0.7984045821982716,510.2920601029732
3879.716,0.7910857591492053,542.6185796249582
3880.6108,0.7829952307159013,508.5452264733839
3881.5037,0.7749077292418317,590.9051132392198
3882.3965,0.7673071274218627,543.6059549025938
3883.2917,0.7601411306770743,535.1435274866565
3884.185,0.7529188753055808,581.5601844190678
3885.0808,0.7449267376107911,462.7809215107515
3885.9746,0.735938350142544,727.0855408728107
3886.8706,0.7265551543806086,453.93317916906904
3887.765,0.7183556841024961,553.3863805521911
3888.6592,0.7130264547986526,575.1326875658117
3889.556,0.7113935871453259,579.4100662321434
3890.4507,0.7128456977643605,570.1054705886273
3891.348,0.7157595559828094,543.3537883646751
3892.243,0.7186451497654232,650.0602855280372
3893.1406,0.7211565364625093,544.9283610317245
3894.0361,0.7241570268292462,546.4317195745791
3894.932,0.729110728909344,522.1152707679695
3895.83,0.7371643029108822,682.6754783991669
3896.7263,0.7484114375781106,592.4136569732563
3897.625,0.7619776384028608,461.1825992168383
3898.5215,0.7762878547122886,527.051338705277
3899.4207,0.7899774023766076,542.165149447598
3900.3176,0.802036924223785,513.6630196782464
3901.2148,0.8122453970494544,337.0591710328168
3902.1145,0.8210281674952978,465.29300041110514
3903.0122,0.8291850498795644,419.83951430285714
3903.912,0.8375684138380342,389.94498006693533
3904.8103,0.8464292157791343,384.81027300870653
3905.7107,0.8553634563630402,464.40893389065565
3906.6094,0.8634182390292331,391.1336812529436
3907.508,0.8698608692352702,342.6204620287656
3908.409,0.8747540712236912,417.517147165463
3909.308,0.8790515749584309,459.61489364615295
3910.2097,0.8840512244449585,446.9629514212522
3911.1091,0.8903791773690908,396.0730239978639
3912.011,0.8976724429539998,394.34346238959864
3912.9111,0.9048727968933069,374.7996172859975
3913.8113,0.9111545765625371,330.7752264320392
3914.7136,0.9163473279354729,364.59180250603856
3915.6143,0.920732193493948,307.7151273355253
3916.517,0.92462547294412,345.35226421086355
3917.4182,0.9280097788347109,366.93829974579506
3918.3215,0.9307464030122397,301.5901226805937
3919.223,0.9328731591415087,354.53143576662455
3920.1245,0.9347800803608323,285.0360210845552
3921.0286,0.9369120015242689,295.7148599638666
3921.9307,0.9393813643621379,292.7668502920838
3922.835,0.9419682465073133,260.81439683919996
3923.7373,0.9443822810508368,269.02957442405085
3924.642,0.9465218086165672,442.2883816783573
3925.5452,0.9482525959455221,286.0083385972562
3926.448,0.9491174661462465,336.01115026203877
3927.3535,0.948328713286291,313.7562271066227
3928.257,0.9452592611315895,310.3734430101097
3929.1628,0.9399354605732749,361.20776723034345
3930.0667,0.9331630321036242,440.38009521791395
3930.9731,0.9260874953476129,327.7313060278658
3931.8774,0.919928657249054,362.713937055825
3932.782,0.9155893630411788,349.87306383563885
3933.6887,0.9134949708822452,330.42232323676177
3934.5938,0.9133871437739891,288.47094029154914
