wavl,flux,ivar
3566.9744,1.560383879097943,183.99058219805585
3567.795,1.5614367842144297,172.11784581674846
3568.6177,1.561494363280415,170.60287342792458
3569.4385,1.559810867143509,158.02232050159046
3570.2617,1.5564981201529395,164.58950896274692
3571.083,1.5522964734591609,212.7581571275275
3571.9065,1.5479036336151353,164.90787978402315
3572.7283,1.5436038775457142,109.93907505087115
3573.55,1.5392050573827012,175.18999661936334
3574.374,1.5344196253440183,154.5871476169117
3575.1963,1.5293141638044758,167.4704158324707
3576.0208,1.5244610367096674,229.2806478870189
3576.8435,1.5209321766532546,164.9097519168309
3577.6682,1.5197651473239193,186.6096289317865
3578.4915,1.521464622401274,176.94013940772498
3579.3145,1.5257484261996896,168.19293056680092
3580.14,1.5318326533987379,146.72064813514052
3580.9636,1.5387486483925672,226.0949843711143
3581.7893,1.545660037418992,153.5317278478006
3582.6133,1.5517461719270522,166.24591302134974
3583.4395,1.5562770124224397,162.43745287665
3584.264,1.558559736207447,177.97025234722912
3585.0884,1.5582125179305255,153.27420639366576
3585.915,1.5553331886328727,191.22808446218687
3586.74,1.5505557404396308,180.08360359957234
3587.5671,1.5446875564114237,147.43012911927923
3588.3923,1.5384177137087953,158.34367878944698
3589.22,1.5320734730825307,171.47917354955024
3590.0457,1.525840001722584,168.10706244863528
3590.8716,1.5197285475627023,181.93274460377017
3591.6995,1.5136720560109627,180.02017230485404
3592.526,1.5077328672290207,197.29480103690412
3593.3542,1.5023269052841117,172.49451090979812
3594.181,1.4983797270053238,193.24486620693185
3595.0098,1.4967110234969965,205.2156203426022
3595.8367,1.4972931154290838,164.3313630419011
3596.6638,1.4989637378907588,156.35472791582214
3597.4934,1.5001179213609552,143.70447992475619
3598.3208,1.4996512039571868,157.25885859954283
3599.1506,1.497311076577107,201.26590570179326
3599.9788,1.4932622627023322,189.3991927935301
3600.8088,1.4875249930034868,169.54000495647256
3601.6372,1.4801648966652274,169.00106403332228
3602.4678,1.4718824834870452,165.5785026837896
3603.2964,1.4645783435014856,276.1577916861337
3604.1252,1.4606193574244466,199.98782305142856
3604.9565,1.461532309262155,174.5029685505644
3605.786,1.4668765308510947,211.97416435953238
3606.6172,1.474475388274216,202.2874306409059
3607.447,1.4815807622776094,221.64204155925316
3608.2788,1.486153700268042,170.64340217297547
3609.109,1.487209425929615,189.5177051654164
3609.9392,1.48483593179418,166.92869644104755
3610.7717,1.4800606380953496,192.4436733974364
3611.6023,1.4747791947059123,191.49811467183446
3612.435,1.4710877312801094,202.09931201057915
3613.266,1.470380394865959,170.4757127799499
3614.0994,1.472543192818865,218.01166381399864
3614.9307,1.476048956703314,199.80000549392764
3615.7625,1.4788631074293628,205.14297397873491
3616.5962,1.4795107730417132,165.98862547049623
3617.4282,1.477744454773507,197.4791558444566
3618.2625,1.4744497916432249,174.0366346835233
3619.0947,1.47097317169353,177.43005680814917
3619.9292,1.4682858304463866,195.43354980389873
3620.762,1.4666785128347568,163.4462623155892
3621.595,1.4658485370802654,152.13568281118194
3622.4302,1.4652383591814588,194.04191723251932
3623.2634,1.464258518759832,172.62286138737184
3624.0989,1.4624475112662763,181.61446050412312
3624.9326,1.4597153777361978,196.41400583107668
3625.7686,1.4564967250265268,175.55576345486426
3626.6028,1.4537689608739186,186.50739576137155
3627.437,1.4526842508103737,170.6473473562401
3628.2734,1.454134705722655,297.41254639048213
3629.1082,1.4583885300037378,178.6513760183117
3629.945,1.4650821711103381,156.2959560542224
3630.78,1.4732163590197813,173.0065585754111
3631.6174,1.4812674761200484,173.81818638311645
3632.453,1.487173522488423,168.84497455260856
3633.2883,1.4891827045588966,166.2703615472264
3634.1262,1.4868033039894522,187.55897753330532
3634.9622,1.481401147342297,173.25603355066258
3635.8005,1.4755819037685112,274.48006435424765
3636.637,1.4718926870979525,184.19109390300014
3637.4756,1.4714387220631409,183.97289932997333
3638.3123,1.473544022093488,207.4207779737883
3639.1492,1.4763969780990567,208.75707105057026
3639.9885,1.4782765212286864,196.64328146252456
3640.826,1.4784654930208343,222.86110986059032
3641.6653,1.4773940544468256,176.42162466769722
3642.5032,1.4760093386140447,153.35095369260662
3643.343,1.4749671457441829,193.19373319709993
3644.1812,1.4742101432457002,202.38362092647185
3645.0195,1.4730911457342568,168.04318851160585
3645.86,1.4709569218683438,202.3872039269261
3646.699,1.4678942054765776,201.57141668018815
3647.5398,1.4652708085772943,180.8969041135699
3648.379,1.4658501042689207,225.34671282584316
3649.2202,1.4728287911360463,158.96956860458076
3650.0596,1.4875338590930338,229.07208448324062
3650.8994,1.5069750445449073,195.4181689723155
3651.7412,1.5234824577325297,180.95663008150768
3652.5813,1.528276853197771,147.57312670342063
3653.4236,1.517364782560835,220.77803198337494
3654.2642,1.4943799378805807,161.7994759792067
3655.1067,1.4678383250869786,321.83347394994496
3655.9475,1.4459863237919606,214.4232578754247
3656.7886,1.4326949584424378,182.68846943610055
3657.6318,1.4275083032303169,245.40763367762565
3658.4734,1.4274206133255558,199.3552157113794
3659.317,1.4288169199267995,201.1573028462175
3660.1587,1.429060862234033,193.61117835184643
3661.003,1.427395606803385,174.39790023876057
3661.845,1.4248543315834339,184.71588314253455
3662.6875,1.423186886532576,217.8961567079083
3663.532,1.4236841642165536,194.8442771036003
3664.3748,1.4265879211700052,203.92654980446773
3665.2197,1.4312381123786857,197.98895898159083
3666.063,1.4364879575548586,194.21463395003684
3666.9084,1.4412968959707628,192.07518761514714
3667.752,1.4450127149901595,239.55870151944472
3668.5977,1.4474647387704345,209.8873016856282
3669.4417,1.4485848421034164,157.14953370877956
3670.286,1.4482420068179385,185.40218178386667
3671.132,1.4463874366611287,215.790515067813
3671.9768,1.4434031695836824,168.46747942762275
3672.8235,1.4400719619796898,191.203417106136
3673.6685,1.4372151929057964,185.23957851293594
3674.5156,1.435216424950623,221.94255397442038
3675.3608,1.4339553650647823,181.04905742949293
3676.2063,1.4329363574706235,210.01017370970132
3677.0542,1.431577383291162,210.1608348021118
3677.9,1.4295213688031834,165.7979751102655
3678.748,1.4268499763114004,195.66451857394145
3679.5945,1.4241253393955717,228.80811251436563
3680.4429,1.4220359370331348,176.7693551314151
3681.2896,1.4210324217650536,225.0297927180196
3682.1365,1.4211096126426153,219.096310050073
3682.9856,1.4219853663725432,185.83316114872406
3683.8328,1.4233614848762721,191.5830236755232
3684.6824,1.425008514334275,213.92430107795215
3685.53,1.4265534736719403,165.30705825417263
3686.38,1.4274043155034166,201.86316642735122
3687.2278,1.4269669491662758,181.65837705061418
3688.0762,1.425071545501298,231.73228681411922
3688.9265,1.4221311316326402,225.3807193181547
3689.7751,1.4189351123163052,190.75377390850065
3690.626,1.4161555571737297,205.0625387456781
3691.475,1.414090863294942,200.9583884238373
3692.3264,1.4126287304527467,178.6391028716259
3693.1758,1.4115092044886166,179.21782010547258
3694.0254,1.4104941098803114,220.19190939465057
3694.8772,1.4094085952070465,215.96114067323344
3695.7273,1.4080838560742117,252.99250705144604
3696.5793,1.4063833551261986,227.8007061282654
3697.43,1.4044198684731584,208.65983630157976
3698.2825,1.4026060532391864,221.96426359055687
3699.1333,1.4013828021988475,190.87697419369786
3699.9841,1.4007176631746585,202.61288366912095
3700.8374,1.4000209089721756,184.10581860062308
3701.6887,1.3986438399313912,227.40298908231094
3702.5425,1.3964846391685022,173.08762493420187
3703.3943,1.3941122029333166,212.39699071983478
3704.2483,1.3922315498062727,219.56292598760564
3705.1003,1.3912125219109683,230.26368308304208
3705.9526,1.3910362031785537,191.0227520873931
3706.8074,1.3916610993955507,190.80706689114345
3707.66,1.3932008518185055,192.0275028981703
3708.515,1.3957311921681645,232.32966795689904
3709.3682,1.3989223131848476,201.67338636486167
3710.2234,1.402049334723591,218.34014986321387
3711.0771,1.4042659449838748,202.71085911001308
3711.9307,1.4050169643999586,206.81203555200443
3712.7866,1.4041714726013905,207.22487501254412
3713.6409,1.40197100284106,256.70360462957456
3714.4973,1.3988058858615626,206.4070678855259
3715.3518,1.3950574530951396,187.99724828726812
3716.2085,1.3910317003700687,216.62626114868908
3717.0635,1.387200480662566,211.3940592006871
3717.9185,1.3842181922159877,204.53700769897958
3718.776,1.3826745549708963,249.01449259904808
3719.6313,1.3825916829766294,216.72911257354207
3720.489,1.3831665922569911,204.66123844030312
3721.345,1.3831735955866835,189.0748840254067
3722.2031,1.3817323905951875,206.23967683799302
3723.0593,1.3788548736025663,199.452638953913
3723.9158,1.3753558363602574,205.67382739625754
3724.7747,1.3723271800569317,241.59307441934206
3725.6316,1.370589672192093,215.83676281720716
3726.4905,1.3703622619654163,249.55427174516285
3727.348,1.3713749129839161,207.75038360699762
3728.2073,1.3731040318251961,227.70030092496512
3729.065,1.3749031694162437,206.7680543295182
3729.9229,1.3760194852230256,234.45961593299953
3730.783,1.3756431277168713,204.96688718158788
3731.6414,1.3732458291657132,260.5177915105953
3732.5017,1.3690141531157702,223.66962078991588
3733.3604,1.3640763577764095,227.24582015980155
3734.2214,1.3601081248675706,192.05590284186422
3735.0803,1.3586133848913886,266.9605252147796
3735.9417,1.359968636853568,197.40050207168488
3736.8013,1.3630445437850478,280.66377561326755
3737.661,1.3656984921233992,199.3499494187265
3738.5227,1.365979096070561,206.7301291002554
3739.3828,1.3632556263116244,233.14545312320138
3740.245,1.3584657371426478,215.62184401982188
3741.1055,1.3534657305108038,221.4780556046787
3741.9683,1.3499467241738727,233.33673395202868
3742.829,1.3488023803821472,233.1461361388146
3743.69,1.349824706130748,220.27240930443
3744.5532,1.3519571883105725,203.91541912234285
3745.4148,1.353815579702697,256.0128895207885
3746.2786,1.3544034913120513,211.08194958490003
3747.1404,1.3534981319922303,206.984787361644
3748.0044,1.3515351061168095,250.21315709081279
3748.8667,1.349124189431924,224.57368391069252
3749.729,1.3466195140125146,241.36479709550196
3750.5938,1.344137755831839,209.27666303934654
3751.4565,1.3418767658144584,204.06520870515786
3752.3215,1.3402604725477723,237.47386096167324
3753.1848,1.3398447600015893,209.29777215375205
3754.0503,1.340964509744892,227.7567622086194
3754.9138,1.343472806029009,277.72527950789066
3755.7776,1.3467216206751953,208.42194153693632
3756.6438,1.3497677112762831,260.7851424034676
3757.508,1.3516719412692202,186.96538642116147
3758.3745,1.3518667018740267,201.21594316984906
3759.239,1.350349015945076,201.03985682062935
3760.106,1.347713241161318,219.2837636707015
3760.971,1.3449082448701366,212.17947678015904
3761.8362,1.3426967576285664,214.5396542773586
3762.7036,1.3412561395494644,218.21300751649636
3763.5693,1.3401340522619878,225.96809549047538
3764.437,1.3385515360155287,264.65132433386356
3765.3032,1.3358709237281512,204.6742857737707
3766.1714,1.331891701602955,229.51781736302672
3767.0378,1.3270467139038524,222.60774084438282
3767.9043,1.3223141890088554,221.58412272055932
3768.7732,1.3189416217688323,234.6399978761885
3769.6401,1.3178863645932273,223.87699053357878
3770.5095,1.3191765292573492,243.8456105098279
3771.377,1.3218260956122854,226.99467948445186
3772.2466,1.3243840860572245,199.63060082727387
3773.1145,1.3256404682753227,233.49855998744383
3773.9824,1.3250669436678555,211.41394993702903
3774.8528,1.32276405050718,183.85751793376514
3775.721,1.3193376455493258,214.9953075058451
3776.5918,1.3157103012888198,222.3412154348574
3777.4604,1.3129603716746667,234.4310993854973
3778.3315,1.3118671707829799,274.6149216027998
3779.201,1.3125820438066633,208.28078636420784
3780.0703,1.3144916001915667,272.2440448415959
3780.942,1.3165194335921733,247.45865896704072
3781.8118,1.317652441229889,228.78593291547378
3782.6838,1.317514375153801,201.8736345710825
3783.554,1.3165432614411097,230.17990923510507
3784.4265,1.3156365435277029,245.9339125808715
3785.297,1.3154594545096805,227.90363012897757
3786.168,1.3159165974438716,274.33197819737893
3787.041,1.3162262561426967,214.34906788783192
3787.912,1.3154316584767676,179.9011596354848
3788.7856,1.3129234084106738,222.5808850926595
3789.6572,1.3087174357050988,270.2330620129695
3790.531,1.3034362645759805,228.1231424949775
3791.403,1.298232051051043,218.71350974693016
3792.2754,1.2942770261304173,267.05821069501894
3793.15,1.2921833604500645,253.59645455526496
3794.0225,1.291664766771578,229.99418572550937
3794.8972,1.2917842821039105,251.56883693934807
3795.7703,1.291555643581252,263.074561651764
3796.6455,1.2902797403295876,213.9355332458076
3797.519,1.2876210859105521,243.98705138555727
3798.3926,1.2837236372080858,240.21089488804927
3799.2686,1.27940653804333,295.5741743525875
3800.1426,1.276046120510688,261.1606223423365
3801.0188,1.2747859646134079,248.30804078429313
3801.8933,1.275824103942104,266.21355046406063
3802.77,1.2782900707439753,262.96464955841464
3803.6448,1.2809297832188409,228.62960649344356
3804.522,1.283036376403283,252.2798808444963
3805.3972,1.2847660659986015,241.46627281464853
3806.2727,1.2867888073915779,322.2249509365343
3807.1504,1.289543484646687,232.50415132926128
3808.0261,1.2927422912026507,250.87820382516725
3808.9043,1.2955190126644085,256.9595092847205
3809.7805,1.2969208923017579,207.21359948136555
3810.659,1.2965220547380905,239.89181624706998
3811.5356,1.2946028573788586,231.63746872183123
3812.4126,1.2918895880360055,211.84526819624332
3813.2917,1.2890391626388946,199.73062482432954
3814.169,1.2862831408851423,221.3662451518169
3815.0483,1.283413776817472,247.7627759879941
3815.926,1.2802728570348605,291.5390015518373
3816.806,1.2771504404110297,254.15027958083698
3817.684,1.2748254815120725,206.34653084524393
3818.5623,1.27397420790429,257.56198089200035
3819.4429,1.2746267523596326,241.33843485537204
3820.3215,1.2761085788475022,262.9955303010344
3821.2024,1.27758661887801,216.05097412517173
3822.0815,1.2786653576982994,248.08848426881644
3822.963,1.2795726680267763,234.14110905167348
3823.8423,1.2807510020343185,280.8361493562103
3824.722,1.2823161483613357,256.2336868467663
3825.604,1.2838119096090703,249.32752895500298
3826.4841,1.2844299993200128,225.1336823431957
3827.3665,1.2835056395220419,226.85691479118296
3828.2468,1.2808801178435736,235.93709605787723
3829.1296,1.2769560987645345,263.41304975436515
3830.0105,1.2725560525540105,255.52814563077584
3830.8916,1.2685380280947274,294.3572621718445
3831.7751,1.2655026438714132,341.43984775158066
3832.6565,1.263591083898717,241.6576528156463
3833.5403,1.262439077734215,234.1797442161355
3834.4224,1.26150393166134,248.9875962706685
3835.3064,1.26043444680105,248.92199486337987
3836.1887,1.2592863345693366,285.86334916425835
3837.0713,1.2583615404329915,222.93261002447719
3837.956,1.2579200024229298,243.97816968756348
3838.839,1.2579844002370641,274.6692155574683
3839.7244,1.258334747032479,248.47305514860483
3840.6077,1.2587149736674483,238.12909918424586
3841.4932,1.2592048114296959,292.2468149366862
3842.377,1.2604811274879104,242.6445500273667
3843.261,1.2636070841874913,305.5025438796731
3844.1472,1.2692797682472927,278.6442759434629
3845.0315,1.2769503200590544,298.98907941203726
3845.9182,1.2847440488621176,230.40878213545534
3846.803,1.2900798760488812,274.4024580391589
3847.69,1.29108441455744,224.01375895586565
3848.5752,1.287522334407272,225.6515704626642
3849.4604,1.280927135687708,259.3674046325295
3850.3481,1.2737268130088328,257.1523637258372
3851.234,1.2681665255859633,253.80214764863177
3852.122,1.2653782569404586,260.83678503999766
3853.0083,1.2652962646030588,254.82141683403643
3853.8967,1.2669376940231498,246.44116013686835
3854.7832,1.269050621355172,272.0691357921168
3855.6702,1.2707779580476521,234.0375437658453
3856.559,1.2719349894315093,260.36022260502403
3857.4463,1.272763352516981,269.5184606124113
3858.336,1.2734611237219016,216.34829831231
3859.2234,1.273932192014376,271.9537723620852
3860.1135,1.2739253454904955,236.9214348107502
3861.0015,1.2731907878026998,229.66251304528714
3861.8896,1.2714562413922323,244.42396005575154
3862.7803,1.2683699982738736,263.2671931587083
3863.6687,1.2637501284003847,306.46448476710185
3864.5598,1.2579236968717613,253.2239478004914
3865.4487,1.2519941009493019,275.2614159418144
3866.34,1.247330523672019,239.93316828166965
3867.2297,1.2448830047155532,227.49530995151528
3868.1213,1.2444870465889168,272.61248657461937
3869.0112,1.2449372085121435,279.37525733002633
3869.9014,1.2446405892129075,333.12405719774387
3870.7937,1.2425312388700993,226.25152890810833
3871.684,1.2387269204393634,230.0606701960201
3872.577,1.2344102809920037,300.278732461046
3873.4678,1.2310893787315753,296.9257015885582
3874.361,1.229552899059457,281.82285296111985
3875.2524,1.2294855394061488,238.81664434486296
3876.1438,1.2297860792432138,264.51771030952114
3877.0376,1.2293672581299924,294.70901322763393
3877.9297,1.2277777472877895,241.88828625041833
3878.8237,1.2252711401628313,278.6983322743071
3879.716,1.2223950441431375,339.7530301098221
3880.6108,1.2194192231012215,249.5998955571519
3881.5037,1.2162276544682213,272.43742037641493
3882.3965,1.2125826673243079,286.32633258471094
3883.2917,1.2085267003001794,292.92332408295425
3884.185,1.2044273378736103,295.6625931123414
3885.0808,1.2005490463793573,296.2179612140261
3885.9746,1.1968690191163722,268.03680723574604
3886.8706,1.1931932923665562,252.2372641177147
3887.765,1.1896489214372858,256.09642804122865
3888.6592,1.186701307393714,313.4490796630411
3889.556,1.1847036747166066,295.6282495572866
3890.4507,1.1833899736674807,305.33717615278783
3891.348,1.181948228959233,252.89145161210683
3892.243,1.1798078042849245,272.4418059117789
3893.1406,1.1772895931843461,290.7551550961568
3894.0361,1.1755835312214453,298.9482924593477
3894.932,1.175934735859046,435.22736944399094
3895.83,1.1789157932738084,278.0837651714113
3896.7263,1.1841985895393883,314.52876081363064
3897.625,1.1909332347352601,297.76840700809413
3898.5215,1.1979806721758712,305.4182600187946
3899.4207,1.2042104678845962,303.54233115040404
3900.3176,1.2086635250185715,237.27937532748766
3901.2148,1.21122110094043,235.67419024244236
3902.1145,1.2128680030094865,279.1926108338722
3903.0122,1.2152668272539409,313.52526724844785
3903.912,1.2197324892345707,279.0067978583446
3904.8103,1.2263202580214823,304.85908778584854
3905.7107,1.2339586357139674,258.8197548486352
3906.6094,1.241185721012204,258.9745457330167
3907.508,1.247101756834285,234.1363073835776
3908.409,1.2515005330798192,247.63254332760235
3909.308,1.2544311034439313,236.5253575785775
3910.2097,1.255852613169953,258.7374518684104
3911.1091,1.2556473287927536,259.6314790184223
3912.011,1.254036010936868,237.725289646535
3912.9111,1.2517849984152214,343.5897070989553
3913.8113,1.24995202551801,301.94402460874437
3914.7136,1.2494196159418844,217.92667798246333
3915.6143,1.2505290219645626,255.40783909561324
3916.517,1.2529840419861347,287.3610952650811
3917.4182,1.2559685863881178,295.6413175620387
3918.3215,1.2584717986468454,285.9227901188
3919.223,1.2596610541258682,270.9365484476508
3920.1245,1.2593370262660586,195.87933755413928
3921.0286,1.2580240277760917,305.39994275196284
3921.9307,1.2566002293666418,288.9841004543059
3922.835,1.255602652663101,227.70954111060897
3923.7373,1.254893475530857,274.25503615899123
3924.642,1.2539276264471009,257.504164175503
3925.5452,1.2523480220205925,248.98317409904527
3926.448,1.2502385060802064,251.8745012696025
3927.3535,1.247908059401173,279.9453557283631
3928.257,1.2455666344079617,216.14931126849297
3929.1628,1.243141652174934,290.2880786599972
3930.0667,1.24041266710624,270.080566759953
3930.9731,1.237134720668428,292.4183170587593
3931.8774,1.2333047533808925,272.39648511657447
3932.782,1.229336805682809,258.9722744279414
