wavl,flux,ivar
3566.9744,6.16742170243468,16.69172387605304
3567.795,6.14620817254796,15.868307067982563
3568.6177,6.1215813078400325,17.329157540160757
3569.4385,6.101519469255861,15.75581003327364
3570.2617,6.089947629918085,18.477387454417176
3571.083,6.08470326065401,16.317743513118117
3571.9065,6.078988607303232,15.046116026215941
3572.7283,6.066694264207322,18.294715315073276
3573.55,6.047109494830024,19.168326245854058
3574.374,6.02565247925017,22.589489821298883
3575.1963,6.0106042800793995,20.485052828542077
3576.0208,6.008077035214959,14.356503304262326
3576.8435,6.019078916374812,17.451777374928618
3577.6682,6.038673197345385,15.30727720569811
3578.4915,6.057615581076878,17.869220861433238
3579.3145,6.066716908780834,15.009238909995558
3580.14,6.06107274043868,15.57372428401855
3580.9636,6.041825870343946,24.157792682706464
3581.7893,6.014459576544139,19.82983119080557
3582.6133,5.986467916605765,27.141280159045472
3583.4395,5.965063414756086,17.65489076822567
3584.264,5.956174300712674,20.293104919571938
3585.0884,5.962464767259411,18.47879244528613
3585.915,5.98259377916905,22.80182061626245
3586.74,6.011330984641952,18.88513999506242
3587.5671,6.0415322726956795,24.187755411032732
3588.3923,6.0655345527383595,18.332288536164278
3589.22,6.077453175575324,19.15095413555743
3590.0457,6.074596667130147,16.178352083739682
3590.8716,6.058766319710991,19.641726681722815
3591.6995,6.0348576449305185,18.022867039518417
3592.526,6.008319449094284,17.406948767417898
3593.3542,5.982875529960355,17.97717049968724
3594.181,5.961194941826968,19.23400486898571
3595.0098,5.9453353347030236,21.68047800060187
3595.8367,5.936619202470982,16.89125982705781
3596.6638,5.933607446277,17.12237847350621
3597.4934,5.9310819145328,18.347573374735923
3598.3208,5.921030293682558,21.463402705834785
3599.1506,5.896038033550932,18.19377891150074
3599.9788,5.8538255180483025,18.650030900028177
3600.8088,5.798955472713292,24.418534538668883
3601.6372,5.742486103445098,14.389950450579402
3602.4678,5.698017241897806,22.695772887244605
3603.2964,5.678693994729864,23.2018750794176
3604.1252,5.69177960843471,19.218859674494134
3604.9565,5.735203580025997,22.789888401707532
3605.786,5.796506212279249,22.33129083303121
3606.6172,5.85886558066912,18.092495575680584
3607.447,5.908041355028391,17.656372788280997
3608.2788,5.938324746881655,21.841961713934822
3609.109,5.950970439605193,22.651728293753283
3609.9392,5.9502128869911655,17.857466770934273
3610.7717,5.939333199731621,20.695794957957407
3611.6023,5.920797905287206,12.804636503390634
3612.435,5.898078431641493,16.037707997588438
3613.266,5.876813779201779,21.237920982647953
3614.0994,5.862227433649918,19.803660876622207
3614.9307,5.855817566737777,22.391052234842554
3615.7625,5.8536925281273415,15.869631096942738
3616.5962,5.849557487346192,18.584904089108978
3617.4282,5.839697449015744,23.222988685073897
3618.2625,5.825650769614709,24.811303478544474
3619.0947,5.812432944784738,19.8689548616857
3619.9292,5.803497733581014,22.067594526085557
3620.762,5.797604423640325,21.218299329579207
3621.595,5.789497004564949,21.892406022258317
3622.4302,5.774021956791343,15.857982223477874
3623.2634,5.750230875924455,17.79193834800261
3624.0989,5.722206103244189,19.773017647755474
3624.9326,5.697465692672104,22.642771207755786
3625.7686,5.682821852941623,21.2953738279327
3626.6028,5.681217628531578,22.548065813396548
3627.437,5.689605216744766,24.515861985161383
3628.2734,5.700317313735933,25.942010703183104
3629.1082,5.705013711381158,19.699171879643078
3629.945,5.699440464790935,30.278083361801716
3630.78,5.684882401304194,21.762897574213934
3631.6174,5.66533351334397,22.354141520630268
3632.453,5.644211117159647,19.375397679532
3633.2883,5.623844380172223,18.79733529820722
3634.1262,5.6081583082697115,24.371791918352088
3634.9622,5.602850174935912,26.063603366358585
3635.8005,5.610081981145296,20.65735394068725
3636.637,5.623156518156075,27.06710355302687
3637.4756,5.6281801745751645,14.354668270483767
3638.3123,5.613131770880592,18.96455320701636
3639.1492,5.57674824116436,34.33800930590324
3639.9885,5.528800039160051,26.045297500975373
3640.826,5.483248380752564,19.090303889679827
3641.6653,5.449250385467933,22.50164113773582
3642.5032,5.429001175571423,20.293763889536816
3643.343,5.4193618995528325,17.57419301654121
3644.1812,5.415675134968775,315.84343793059486
3645.0195,5.413701776727338,19.932513902833108
3645.86,5.41058239406934,21.689577664932315
3646.699,5.4050654298417395,23.991715288576046
3647.5398,5.3968511352171555,23.979189487850604
3648.379,5.385631155386017,22.5012669327295
3649.2202,5.3708967691720835,17.41449597430984
3650.0596,5.353538271989637,30.339938911771732
3650.8994,5.336496904694236,20.139877335964844
3651.7412,5.323664355334665,32.92762902791303
3652.5813,5.317753070712747,25.260853323821916
3653.4236,5.319512074366726,25.066596794402276
3654.2642,5.328823163518203,23.836174923705364
3655.1067,5.345006267972019,22.7225798357614
3655.9475,5.365247566928321,29.425651064082157
3656.7886,5.383953950284956,23.63681729891278
3657.6318,5.394768351840512,32.10525138375173
3658.4734,5.39462791017829,22.970586892086708
3659.317,5.386142507870096,18.777137101804758
3660.1587,5.375406269264994,24.892394161586086
3661.003,5.366920758856628,24.34077265646559
3661.845,5.360246340983599,26.137893769983368
3662.6875,5.350569416148943,25.20868826024803
3663.532,5.332745820026454,21.291583291640606
3664.3748,5.305710156770793,22.393537499795453
3665.2197,5.274246744442694,25.258345464758754
3666.063,5.247856405471026,25.28231868324871
3666.9084,5.235065956651499,25.013037350818344
3667.752,5.237908041112538,22.680880048458103
3668.5977,5.249966672302877,21.691230963281356
3669.4417,5.261086426938365,22.407127049252406
3670.286,5.265009042914473,25.41635204814564
3671.132,5.262997247865093,32.15017604841596
3671.9768,5.2608824213040215,29.291223996152397
3672.8235,5.262689384537719,22.30386277256553
3673.6685,5.267079862984906,20.573627556057847
3674.5156,5.26932597049759,27.14206205779107
3675.3608,5.266002608536457,23.31464617357372
3676.2063,5.25789542442758,25.08476379805374
3677.0542,5.248908530001209,21.772281990857746
3677.9,5.242955940973811,28.262572254113017
3678.748,5.2415385720224315,23.465931427322058
3679.5945,5.243941443063397,24.87894232376696
3680.4429,5.248290759991459,24.25510493121661
3681.2896,5.251941858555003,29.266459197217934
3682.1365,5.251662058820698,23.878137623407106
3682.9856,5.245072573469471,29.338244801301716
3683.8328,5.233380102413184,26.10895900688167
3684.6824,5.222226597928445,21.427856685167793
3685.53,5.219053010698819,27.468266037197125
3686.38,5.227934076120052,23.25235232992804
3687.2278,5.246522255674409,21.8067692662255
3688.0762,5.267351433199328,23.064943989773415
3688.9265,5.281739433059481,25.192190794857378
3689.7751,5.283480561449789,24.838119246576518
3690.626,5.2710847935845875,22.986446257049657
3691.475,5.248168042404544,22.88924533085951
3692.3264,5.2220110644350815,22.016688100027384
3693.1758,5.2012786366016135,27.270802836584814
3694.0254,5.192774533970184,24.00938552298902
3694.8772,5.199845714685489,23.104621991319096
3695.7273,5.221166881623606,27.1422266946737
3696.5793,5.250669682436313,24.433806010073578
3697.43,5.2785514453458395,21.606286886200614
3698.2825,5.294878190066209,26.58022310861067
3699.1333,5.293134266589442,21.562715380546464
3699.9841,5.273095865777479,20.522229092988947
3700.8374,5.24051838743461,21.151379813804596
3701.6887,5.204670033504608,22.794112108459615
3702.5425,5.1730179667034015,23.786204627951275
3703.3943,5.148010617803147,25.998451673578955
3704.2483,5.126295523120684,24.02673920561372
3705.1003,5.103015670729631,23.255504324807376
3705.9526,5.075861832454204,26.029540199144606
3706.8074,5.04657552942366,33.00817965610848
3707.66,5.018972164694672,19.88428977283608
3708.515,4.995513307896296,24.19786221169514
3709.3682,4.9772712937539385,39.151156002790934
3710.2234,4.964853105730236,28.81381205561788
3711.0771,4.95936555234902,39.56147555107561
3711.9307,4.960743717952902,28.625966473401252
3712.7866,4.966120196825261,24.86054951003275
3713.6409,4.970414943360095,25.03764278056026
3714.4973,4.969842194658396,22.32631129738056
3715.3518,4.96506540225979,32.92625252556366
3716.2085,4.96065630517765,26.66960655689792
3717.0635,4.960761103612072,38.058859560391205
3717.9185,4.964978601005857,29.208074370221873
3718.776,4.969011857531723,30.753001161802555
3719.6313,4.969116012830406,32.46518145868915
3720.489,4.965274338844048,26.225665678333975
3721.345,4.959487150883591,31.23304609176835
3722.2031,4.951911274562332,26.852067403380744
3723.0593,4.940245326631152,23.439760963811917
3723.9158,4.922962312770711,36.647474003047556
3724.7747,4.902621122564059,26.793829337525008
3725.6316,4.885330639872423,30.5543650226158
3726.4905,4.876075822388346,26.685488752784412
3727.348,4.875108790048571,32.36319028980723
3728.2073,4.8778008500484855,24.95207208953201
3729.065,4.878343645394856,27.68141133961618
3729.9229,4.873624128079349,26.345367127966792
3730.783,4.86410254410612,31.634120854485538
3731.6414,4.852019556179518,34.972996247084076
3732.5017,4.839026344095969,27.014744497910662
3733.3604,4.825829951504685,31.612488565790898
3734.2214,4.812744766714246,31.391856021539397
3735.0803,4.8004545822795945,36.719735484622
3735.9417,4.789279306594848,29.63461091194889
3736.8013,4.778795608187602,36.753588717361815
3737.661,4.767973679061309,36.04021844115219
3738.5227,4.756600315678025,33.18543947416351
3739.3828,4.746567203130863,37.88383273579896
3740.245,4.741347933695833,36.09135943243515
3741.1055,4.743886475838416,29.590648708295994
3741.9683,4.753822581006058,33.157127918170616
3742.829,4.766695141063234,33.627548912629486
3743.69,4.776417043197634,29.256619693994228
3744.5532,4.7789831934642395,32.25888426951588
3745.4148,4.774665507540961,35.63654702524601
3746.2786,4.767121696472704,30.88977300546991
3747.1404,4.760875234573443,34.671533382792404
3748.0044,4.7594918840846105,28.17963836980724
3748.8667,4.765100341326729,32.17390052046379
3749.729,4.777333259791464,29.225701715992376
3750.5938,4.791871327431464,23.607126139119835
3751.4565,4.8007182118639085,28.10419449861915
3752.3215,4.7964329412579945,30.28832142856393
3753.1848,4.7770903153800415,28.400951213161406
3754.0503,4.747681301153223,27.853282910941164
3754.9138,4.716619991167294,29.804875204942228
3755.7776,4.689560537998622,35.75517384339484
3756.6438,4.667212594412691,25.250391666476396
3757.508,4.64805134975503,28.447576294254766
3758.3745,4.631947763740362,26.907431301176086
3759.239,4.621245035988817,32.420449497382826
3760.106,4.617440158013175,27.656742931140883
3760.971,4.618702336114077,28.299819241371036
3761.8362,4.620713944535547,25.571461395255398
3762.7036,4.61984659362804,38.250525226183605
3763.5693,4.61488911079048,34.82465748655283
3764.437,4.606396494039028,32.381099019857025
3765.3032,4.595808914452074,31.344245460837833
3766.1714,4.58533526467558,34.161276259665385
3767.0378,4.577938933525805,35.994286824518866
3767.9043,4.575730678254385,32.491924778253455
3768.7732,4.578490673112851,40.00691363384716
3769.6401,4.583871384847093,31.234542544086978
3770.5095,4.589404254870078,31.67729602832649
3771.377,4.5937762646737985,34.86557534868896
3772.2466,4.596525159308329,31.776161105458826
3773.1145,4.597330239501925,29.809586612991342
3773.9824,4.596803981121538,30.06542892136975
3774.8528,4.597581499955173,34.94790134214129
3775.721,4.603676302957379,40.75949884048361
3776.5918,4.617940472033568,32.92437247601986
3777.4604,4.639263970211293,25.624250207558497
3778.3315,4.662038074331894,30.34594056793147
3779.201,4.67736802412219,29.567958521869244
3780.0703,4.677127325350398,33.42403547055452
3780.942,4.6580425192367425,30.843786883009606
3781.8118,4.624499554421116,31.001020897698815
3782.6838,4.58676417044844,33.18701666482245
3783.554,4.556571017988592,34.51067935656282
3784.4265,4.541379276933052,29.206169129341863
3785.297,4.542512816664693,33.64256309891697
3786.168,4.555343409534231,33.06280194645653
3787.041,4.5713936857106185,40.03325618456514
3787.912,4.580743274998926,32.49011127986117
3788.7856,4.575775220387104,32.97602161418489
3789.6572,4.554274668663349,35.931592177683676
3790.531,4.519911967287006,30.49694815716813
3791.403,4.480081964403725,46.13239470912002
3792.2754,4.441915395853411,33.38127760417789
3793.15,4.410267596047007,42.263147400452326
3794.0225,4.387201633170873,32.99102640971508
3794.8972,4.37155792937251,36.85555942978822
3795.7703,4.360271620840697,34.88419500478455
3796.6455,4.35004921494992,32.28959326505272
3797.519,4.339669017155792,34.890532993250886
3798.3926,4.330202138372874,45.0247754273101
3799.2686,4.323734035171039,35.45970940868938
3800.1426,4.322101365593936,38.89194776343366
3801.0188,4.326765986846091,39.85755607420983
3801.8933,4.339258983614254,33.60458653860513
3802.77,4.360627579735477,46.32047871957897
3803.6448,4.389454298122831,37.05894617401162
3804.522,4.421350809184256,34.07137235452407
3805.3972,4.450182034810274,32.866746848043725
3806.2727,4.47214752117702,28.358147181461575
3807.1504,4.487643739187669,40.94887773946178
3808.0261,4.500060737956221,44.69971975978737
3808.9043,4.513044317409865,36.63277767386568
3809.7805,4.528203231091497,30.444022791215687
3810.659,4.545136626928647,31.523227283549282
3811.5356,4.56166059452346,31.642618940434094
3812.4126,4.574775411628433,29.116351797600625
3813.2917,4.581641808717153,32.04915234241272
3814.169,4.580765354877107,28.33404177251809
3815.0483,4.5725355142756525,40.848108972327864
3815.926,4.558926884138819,34.76474132672501
3816.806,4.542834463452209,39.77878757147282
3817.684,4.527462936707475,34.215024311774236
3818.5623,4.514674826223758,36.44533652482379
3819.4429,4.503863979187734,34.27136731794093
3820.3215,4.4923992835822775,30.87734965090866
3821.2024,4.4774080299369885,37.89620993661432
3822.0815,4.457744509915569,32.63973189028924
3822.963,4.433559917189342,39.05288694736555
3823.8423,4.405172023139715,36.79930344048823
3824.722,4.371832805461412,36.99807879956923
3825.604,4.332668291674114,34.16066358586276
3826.4841,4.28850665078816,45.19048210858937
3827.3665,4.241479786466911,41.79273794681465
3828.2468,4.194347043044065,48.274174291876854
3829.1296,4.1476249727169305,40.267266867206175
3830.0105,4.100006764730804,42.94816829172331
3830.8916,4.049459839016266,40.3511905737359
3831.7751,3.9966293043342636,39.98991637828981
3832.6565,3.946794578947912,40.21223859852907
3833.5403,3.9071355450586873,43.05285450750475
3834.4224,3.8836416709419708,50.85010441619752
3835.3064,3.877167042532029,41.570815209619916
3836.1887,3.8836911948248085,42.079521531740646
3837.0713,3.896954837677538,44.66635989144945
3837.956,3.9123549225252265,54.305636167562106
3838.839,3.929147126621661,55.21179844060413
3839.7244,3.950258032655268,58.318319694081964
3840.6077,3.979268371385694,46.34572244650309
3841.4932,4.018110518829781,49.904763403263885
3842.377,4.065533500555301,45.63880853474615
3843.261,4.118360038290658,46.01039085061633
3844.1472,4.1724964452146045,37.200711783410796
3845.0315,4.223564100441707,39.169378147125975
3845.9182,4.268634778394849,42.622895629409754
3846.803,4.305824765989333,46.11010771911885
3847.69,4.3352006996166335,37.823371147277385
3848.5752,4.357774003166837,32.999973400294124
3849.4604,4.3757049054245165,43.76825194939331
3850.3481,4.39164597050766,29.327654468143088
3851.234,4.407780570536097,43.31716073443647
3852.122,4.4250720749974555,32.15305408570021
3853.0083,4.442401240311604,34.261811515676875
3853.8967,4.457242193809163,34.88592386036898
3854.7832,4.4665407100688075,37.75439746167443
3855.6702,4.468660003774787,31.28829281840564
3856.559,4.464621599154664,38.98185827264121
3857.4463,4.458217720763157,36.242127725285386
3858.336,4.454118359436182,33.203845218207384
3859.2234,4.455360910370851,37.49245155415803
3860.1135,4.4617661151314225,35.02250496013086
3861.0015,4.4703932723159765,41.878551654823156
3861.8896,4.477605918976634,38.99288781720175
3862.7803,4.481014940013691,36.0232676856635
3863.6687,4.480238512872659,32.25944210801488
3864.5598,4.476157319519764,36.97058464543176
3865.4487,4.469370665131425,32.37704392355854
3866.34,4.459018212508672,31.750933324806113
3867.2297,4.443098770829804,37.24066326800577
3868.1213,4.4197029196619155,36.966497291880586
3869.0112,4.389037720048804,35.24435963708127
3869.9014,4.353566090257275,39.22763812084578
3870.7937,4.316355356055048,34.612711381572375
3871.684,4.278722595138795,39.74402845204426
3872.577,4.238816276505196,37.99540301311625
3873.4678,4.194461521499279,34.371593891472926
3874.361,4.14522845263838,49.88428176471792
3875.2524,4.094182040367784,42.02393183390864
3876.1438,4.045430560107427,44.65840614871709
3877.0376,4.001949705477331,48.168455673849074
3877.9297,3.9643412807421976,39.477621072252724
3878.8237,3.930261531667525,43.423764388004784
3879.716,3.896394924166253,48.406160536629415
3880.6108,3.859137176459081,45.245552004330904
3881.5037,3.815873707577692,39.42367263728915
3882.3965,3.7647342670821886,48.48505843756777
3883.2917,3.7052395035199486,46.26402140133655
3884.185,3.6390701159960197,60.53739880047836
3885.0808,3.568501649716732,57.28657467943358
3885.9746,3.496999258884115,54.81901076071287
3886.8706,3.4278205938490793,63.769260071356356
3887.765,3.365738381215339,66.5744199682787
3888.6592,3.3160325264238786,61.72041221726312
3889.556,3.2840369059917833,74.65665257608758
3890.4507,3.273445985277738,56.795880414643285
3891.348,3.284217771384017,57.238526950928424
3892.243,3.3126773252594606,56.22497651859419
3893.1406,3.3535372255148412,51.56908926852698
3894.0361,3.401858219489482,65.39971483974486
3894.932,3.455245656561873,46.76458295836881
3895.83,3.513302456892376,67.13228959940322
3896.7263,3.5757023798279475,52.10389871936688
3897.625,3.6419869684059445,63.28756007910377
3898.5215,3.71038680701468,49.756661683298546
3899.4207,3.780160637075562,54.28372714048183
3900.3176,3.8506047332135256,52.432771695770434
3901.2148,3.921515199097868,46.794093782828625
3902.1145,3.991319975713652,36.27821816894192
3903.0122,4.0564300315648625,40.76377286454107
3903.912,4.113687050750187,39.05517167593737
3904.8103,4.16074148409357,32.7657997219499
3905.7107,4.197724043954004,38.040891798450986
3906.6094,4.226382091867593,39.088093510345395
3907.508,4.250595018401367,39.58434435301098
3908.409,4.275819569384383,42.95545048134121
3909.308,4.307603472511935,44.58312075847223
3910.2097,4.349630709786151,35.10708385981966
3911.1091,4.4010310799095524,38.36527115553401
3912.011,4.457244640936093,40.27432043270224
3912.9111,4.511488950219723,29.244958478583545
3913.8113,4.558895743765422,30.254237924124112
3914.7136,4.597810388000186,32.858033099114664
3915.6143,4.628731108148763,33.957922421038674
3916.517,4.652956362714006,28.440665589583247
3917.4182,4.6709560391946505,32.39334632088541
3918.3215,4.682939199309594,35.0257202360474
3919.223,4.689116791499137,32.93513270091685
3920.1245,4.690563847383892,27.364558887902128
3921.0286,4.689839948117816,33.25549578117912
3921.9307,4.691212528961236,27.619780440331926
3922.835,4.699131930013273,32.51639102873208
3923.7373,4.715240712200467,30.93483070424079
3924.642,4.736535097046858,27.643155304484367
3925.5452,4.75621481797611,27.149343347714506
3926.448,4.76779122538862,29.21938753195901
3927.3535,4.768368861625369,28.122749018759215
3928.257,4.759318284864047,30.198743516210612
3929.1628,4.744400474762906,27.73395436698212
3930.0667,4.727687679825314,30.791589794492047
3930.9731,4.7121867357300244,31.976470709666984
3931.8774,4.69978497325753,30.947784713294634
3932.782,4.690700953512386,34.77669669120517
3933.6887,4.683512281550913,31.75583988739026
3934.5938,4.675636301648283,35.74180031240744
3935.501,4.664473235748543,33.75344261092758
3936.4062,4.64913403794848,26.88195871691999
3937.3142,4.6310272083625605,29.42677242441032
3938.22,4.613321681624433,32.59565839689339
3939.128,4.598373016902487,31.71193296763066
