wavl,flux,ivar
3566.9744,8.463834873569107,8.168616902596343
3567.795,8.461587325570695,7.933416562731383
3568.6177,8.467578280633196,5.9479298513579755
3569.4385,8.475881094650132,8.08693151633238
3570.2617,8.484888049528314,6.96437378364504
3571.083,8.495821209169824,8.665579211309009
3571.9065,8.508506811456508,8.561085441788366
3572.7283,8.518874687733048,6.268590161278955
3573.55,8.521909856773272,12.118616890323892
3574.374,8.516662653252748,7.282632493254994
3575.1963,8.508300775097599,7.688260852378112
3576.0208,8.504326385744234,11.259381797777309
3576.8435,8.508985906777905,7.748646002386581
3577.6682,8.5210341117435,9.383602147723252
3578.4915,8.535792717879763,8.714373558572428
3579.3145,8.548253248533957,6.655294584238182
3580.14,8.554422751537071,9.686539375700868
3580.9636,8.552001297709957,7.0582384598504575
3581.7893,8.54151031724615,7.183802714647942
3582.6133,8.52630336492357,7.530866305955967
3583.4395,8.509910310995314,7.8413741794978895
3584.264,8.49294842905026,8.007067576810611
3585.0884,8.472153731012035,7.81672449627632
3585.915,8.443461316086747,7.23006892372196
3586.74,8.40632671342894,7.42578667124293
3587.5671,8.36471011498457,7.838931643769904
3588.3923,8.325772285364014,8.203406852742566
3589.22,8.295664254161046,7.47074347528293
3590.0457,8.277625699446387,9.12635984310299
3590.8716,8.270292389068578,9.305233475256488
3591.6995,8.26843259664448,8.04145367455886
3592.526,8.264722714295413,8.112552744001295
3593.3542,8.252709771524986,7.282462241599174
3594.181,8.229636613422738,7.541150843701039
3595.0098,8.197063710775812,9.804694239111955
3595.8367,8.160310060410293,7.258142588332628
3596.6638,8.125912749651325,7.978737590550574
3597.4934,8.09916429170837,8.310849354930086
3598.3208,8.081245908706194,9.215888802107878
3599.1506,8.067270018989772,8.14800972144463
3599.9788,8.04848015914905,9.271646718872207
3600.8088,8.015961561605634,9.419863910780645
3601.6372,7.9654928687254385,8.423101550929276
3602.4678,7.900804970138047,10.7345024039313
3603.2964,7.83640535003774,7.8586746688389235
3604.1252,7.792716337471149,8.688342369154467
3604.9565,7.786172903774322,13.577236605054196
3605.786,7.817980607695588,10.706233517484872
3606.6172,7.8724159738613615,8.024826732698806
3607.447,7.926220471320546,8.563227297919191
3608.2788,7.962232945484601,9.117872061887656
3609.109,7.9753306339218595,8.060590605902222
3609.9392,7.971129848745369,8.994278742928469
3610.7717,7.9592908723980065,7.9307023456907615
3611.6023,7.947989837411731,9.585504989531175
3612.435,7.941254640741428,9.451719901038027
3613.266,7.940095007084034,8.29691354213975
3614.0994,7.944485455963521,10.790162623298372
3614.9307,7.953951525612588,10.324478375414358
3615.7625,7.966081685989486,9.909290570553184
3616.5962,7.974912573161808,8.341094205320763
3617.4282,7.971956482472632,9.913669276562354
3618.2625,7.950596451926861,7.617965089668403
3619.0947,7.91110531554216,8.49502387776422
3619.9292,7.861445055286892,8.556062958014753
3620.762,7.813823084664058,12.198426770216917
3621.595,7.777505141972206,8.183972032923924
3622.4302,7.755753331915822,8.699455789534058
3623.2634,7.747245274384845,10.451893613777928
3624.0989,7.7491681543210795,9.079882859004545
3624.9326,7.759275491049541,9.519601411205647
3625.7686,7.775762485302268,9.537887858322039
3626.6028,7.796296112520044,9.272217711304062
3627.437,7.81729497501989,9.025275644636043
3628.2734,7.833383027871847,10.663306924365779
3629.1082,7.838933236418953,11.106684370952244
3629.945,7.832057573597234,8.399927621715998
3630.78,7.817024164470186,9.798755363061368
3631.6174,7.802154592915427,10.82085814950973
3632.453,7.7948227546858835,8.902422566139638
3633.2883,7.7970737426139,8.486928669253905
3634.1262,7.805494741449228,11.327278561641565
3634.9622,7.8137767177645445,7.340033585181123
3635.8005,7.816465697800933,10.020519011670087
3636.637,7.811595745075776,8.28218917419686
3637.4756,7.801513151403984,10.53984049095427
3638.3123,7.791398523243257,10.251788565018035
3639.1492,7.785978197863455,8.955463249223286
3639.9885,7.786813846936855,8.320178670652934
3640.826,7.791660929115922,11.368670472864483
3641.6653,7.796444889648585,9.77717142541109
3642.5032,7.797912554086735,8.941474926510258
3643.343,7.794916414682159,9.538743467480488
3644.1812,7.78769812909431,9.795448726549312
3645.0195,7.7768079177706655,9.871059904034095
3645.86,7.76337441824856,8.377474633811008
3646.699,7.750185300727291,12.041090691817997
3647.5398,7.740600349621547,9.784226662357183
3648.379,7.735413601353653,10.11728371445074
3649.2202,7.730233718750729,9.118854281742127
3650.0596,7.717954252905952,9.222737680397408
3650.8994,7.694845650990468,9.257729539193294
3651.7412,7.664693827960552,13.884021339567742
3652.5813,7.63649436820707,10.324264938063118
3653.4236,7.616740974918461,8.599587910704038
3654.2642,7.604762489224389,11.407600776696711
3655.1067,7.5938036662687995,11.008635602525036
3655.9475,7.577120721555741,12.462423918855109
3656.7886,7.552562452966305,8.535245898165657
3657.6318,7.5234571571626585,9.090168223614818
3658.4734,7.496770929590583,12.50710340478745
3659.317,7.479337992425088,12.247804315087993
3660.1587,7.474780288268029,10.922479078022429
3661.003,7.4807657164609,10.519234815137702
3661.845,7.489352711229234,10.555868854846567
3662.6875,7.490784029011236,8.196833958498049
3663.532,7.478685377657925,7.862285901763151
3664.3748,7.453525887408896,11.1963977888408
3665.2197,7.421359850626603,12.121559917188058
3666.063,7.390196657165737,9.237086042976685
3666.9084,7.3659443579262325,10.9794422077026
3667.752,7.35201628137927,11.893741416134207
3668.5977,7.349509865471028,12.429045579758691
3669.4417,7.35744299919238,13.440768206903726
3670.286,7.372101011548349,11.156815366477913
3671.132,7.3881758254874486,9.45338683911575
3671.9768,7.401637132102533,11.207030963205785
3672.8235,7.411888615413853,13.032342682626856
3673.6685,7.41984452211411,10.346616863717488
3674.5156,7.4247872909531,9.57750617619954
3675.3608,7.423630512037212,11.043528673406382
3676.2063,7.413974309749456,9.552326868053592
3677.0542,7.39692584318852,9.964854461110363
3677.9,7.37695317005292,12.272845404612497
3678.748,7.358365051917064,10.254850368612205
3679.5945,7.342788555051608,9.602620609977983
3680.4429,7.328668923583157,10.475455941939464
3681.2896,7.314116236259397,8.927122410530737
3682.1365,7.299535058392293,12.128568022323378
3682.9856,7.28806233545799,11.906954748316224
3683.8328,7.282885474396179,11.703191833854957
3684.6824,7.283890978519051,12.009568781640112
3685.53,7.287511054335584,11.35501707980549
3686.38,7.289647019751783,8.797716172608958
3687.2278,7.288412892493827,10.2623545543612
3688.0762,7.283706702380169,12.070296267635154
3688.9265,7.274716923962846,12.051289125764551
3689.7751,7.259718487414203,11.032323439119796
3690.626,7.239006965688294,11.7598649869499
3691.475,7.217475332879947,9.055992671205832
3692.3264,7.20139069235871,9.890730377241152
3693.1758,7.1926959617322215,9.71753356262958
3694.0254,7.186299281645069,11.084005497029352
3694.8772,7.174571650296302,11.868088721724835
3695.7273,7.154505835644547,9.959487481696291
3696.5793,7.130859513340044,9.856419593577861
3697.43,7.113389057692116,12.346015983119104
3698.2825,7.109655976944207,12.443924128524761
3699.1333,7.119525065549392,10.267985658541242
3699.9841,7.134627160070077,6.760490384153461
3700.8374,7.143703145058441,11.18313134871714
3701.6887,7.139597223311715,9.512738339078902
3702.5425,7.123067920322224,9.640836952087819
3703.3943,7.10083528866168,11.32724191913666
3704.2483,7.079853429776509,11.30604842018555
3705.1003,7.063044825233153,11.623296816656673
3705.9526,7.047924785930736,12.221275905527255
3706.8074,7.029306460447205,11.496553222192308
3707.66,7.003619301977428,9.837615657239233
3708.515,6.9716666751491765,13.416903350975906
3709.3682,6.93922794553839,11.107755620273933
3710.2234,6.9133934623979565,13.31072461420636
3711.0771,6.898791188184973,12.076720309811204
3711.9307,6.894615054444277,11.332359202449265
3712.7866,6.895753336184973,10.458755567372062
3713.6409,6.89638577094411,12.163189141617966
3714.4973,6.893557559984084,12.435358013394046
3715.3518,6.888026004461683,11.458759864670863
3716.2085,6.882129800947338,13.038079539993504
3717.0635,6.876936696943985,10.002091901559977
3717.9185,6.8707044571320885,10.941535933958704
3718.776,6.860178004018363,11.282158978419817
3719.6313,6.843967825841142,9.862945691222937
3720.489,6.82467375064792,11.496376002580138
3721.345,6.807753799031856,13.264850013604406
3722.2031,6.797044190172116,13.642197015911938
3723.0593,6.792399053164841,12.950764083062088
3723.9158,6.790923736241997,12.54558268534642
3724.7747,6.790379150787471,13.10036031208872
3725.6316,6.790734463861499,12.465122760942934
3726.4905,6.793210231263952,12.289988777254436
3727.348,6.798351227457263,12.798894946185099
3728.2073,6.804728145739212,11.256135943986457
3729.065,6.808727461199049,11.206736519894195
3729.9229,6.8058763419738115,12.210158019684382
3730.783,6.793026432942834,11.254560465481436
3731.6414,6.770682823228076,10.84672957575493
3732.5017,6.743258925627587,11.26158615473431
3733.3604,6.717466389127751,12.218384508240193
3734.2214,6.698461273777455,13.127769210247832
3735.0803,6.687442172561114,10.423924364748274
3735.9417,6.6809281960388285,11.62001062537512
3736.8013,6.673636831098004,13.137186877660529
3737.661,6.662338218293055,11.791855340813619
3738.5227,6.64835455210508,12.315129808869113
3739.3828,6.636462982416763,10.734525877025536
3740.245,6.630646616629208,11.152871562320392
3741.1055,6.631036993899554,13.839641960191582
3741.9683,6.634158706983399,10.680503911751762
3742.829,6.635916988300466,11.608428391591845
3743.69,6.634118906498199,14.114432549041693
3744.5532,6.628771125385603,12.58211451954051
3745.4148,6.6212187368232005,12.557831610363735
3746.2786,6.613271260225116,13.711959208736511
3747.1404,6.606958797105514,12.088666397417702
3748.0044,6.603774478175051,19.508937643810576
3748.8667,6.603689874691838,11.832674579679427
3749.729,6.604458878312976,12.00980743527622
3750.5938,6.602521320308992,12.22744837552177
3751.4565,6.59522165691245,12.739733190612025
3752.3215,6.582724528019356,10.38321293912743
3753.1848,6.56827222323023,17.17967769113657
3754.0503,6.556193567440067,13.564934354110857
3754.9138,6.549860263650479,16.45641466917146
3755.7776,6.550105154450974,15.874434295686438
3756.6438,6.555111771776995,14.37986760697853
3757.508,6.560997214187508,13.79045017627152
3758.3745,6.563523548534865,11.364750673460078
3759.239,6.560074218937612,12.38482248459865
3760.106,6.55074914876299,17.786603547527783
3760.971,6.537597831012812,12.819422839659042
3761.8362,6.522592386345909,12.62492025920995
3762.7036,6.5067287464001975,14.04167693997153
3763.5693,6.490845590778974,12.534575371554238
3764.437,6.476086454162738,13.485979419112686
3765.3032,6.463267736017891,14.129593509337113
3766.1714,6.451214794215822,14.322971854365889
3767.0378,6.4375180609789995,15.265679698197268
3767.9043,6.4211248680280235,14.121932751200152
3768.7732,6.404567044993388,14.733331477700649
3769.6401,6.393076601942985,14.750550058801535
3770.5095,6.390503797665346,15.265650046425824
3771.377,6.39601243550521,13.028472118064707
3772.2466,6.4038328259862345,12.353844011768375
3773.1145,6.406655471989937,12.867711288576142
3773.9824,6.400058136274146,13.492661961532525
3774.8528,6.384330086826675,14.845089550770968
3775.721,6.363428433360184,13.452977363677698
3776.5918,6.342063047830359,14.588758045049756
3777.4604,6.324424191740277,12.401187369981889
3778.3315,6.313451055716172,13.734734213845359
3779.201,6.310976335412438,16.066465229914527
3780.0703,6.316463772517472,15.221537136083436
3780.942,6.326423885770547,15.419972313030959
3781.8118,6.335655569993689,13.151150849436267
3782.6838,6.340359520305661,14.504005495330729
3783.554,6.339522864346455,20.150386081103715
3784.4265,6.333540546417355,14.311662013258202
3785.297,6.322113508884305,12.40065950359319
3786.168,6.304276009271099,16.088303036069206
3787.041,6.280480777324577,13.248286049307897
3787.912,6.254412279183304,13.841371304806996
3788.7856,6.231868806253301,15.880716905460998
3789.6572,6.218294971365273,15.722801382047534
3790.531,6.214818959088682,14.825586400992767
3791.403,6.216872521923942,15.249798032486279
3792.2754,6.216331294542265,13.760841136867882
3793.15,6.206746379421659,13.413368592930127
3794.0225,6.187791568016753,14.711658257872056
3794.8972,6.165014882643517,16.475697244796617
3795.7703,6.145805875291596,15.325413654622924
3796.6455,6.134146912513538,15.841573299258469
3797.519,6.129247362987453,14.554304006981836
3798.3926,6.127479546541149,15.71129903344773
3799.2686,6.1256627107057025,14.501749976522207
3800.1426,6.122242440589988,14.584066399325712
3801.0188,6.116353124609302,13.67647336856439
3801.8933,6.107234285149746,14.975637357407988
3802.77,6.09522806168252,13.459102281095234
3803.6448,6.08352196671785,13.879442700890431
3804.522,6.0776626192522505,17.407459030507543
3805.3972,6.083037500018558,15.539510781655853
3806.2727,6.101253765350444,14.35466459112615
3807.1504,6.128029893448739,14.812232267299265
3808.0261,6.153332558119516,14.683831481968976
3808.9043,6.165834580057565,13.418110548697129
3809.7805,6.159064300697821,15.554707711803129
3810.659,6.1364069445818545,17.561873998803353
3811.5356,6.109665515830165,15.38623588816889
3812.4126,6.090993389063984,19.12207261675482
3813.2917,6.0848229732403984,18.221684126635083
3814.169,6.085693662001296,14.706334030924342
3815.0483,6.083678318079772,16.669128958856387
3815.926,6.072634747451195,15.887737767395882
3816.806,6.053998886904952,14.618377964337117
3817.684,6.034044706132011,13.52479354912013
3818.5623,6.017732524750995,15.03196880104897
3819.4429,6.005415117941528,16.32613769958158
3820.3215,5.993758365372774,14.85142891723944
3821.2024,5.978583289003695,13.995941388627173
3822.0815,5.95795215487602,16.624592276703154
3822.963,5.933226887213478,14.582625516533913
3823.8423,5.908925944485806,17.75867796305129
3824.722,5.890197382550561,15.419154917834128
3825.604,5.880333800032555,15.317017005065626
3826.4841,5.878960698790963,17.898585046342536
3827.3665,5.881970953318228,18.8792768392092
3828.2468,5.88354887593554,16.03128384612685
3829.1296,5.878898816713846,16.44647881134031
3830.0105,5.866242603396675,15.522202717242966
3830.8916,5.846861217765849,17.41106727419751
3831.7751,5.823474901987668,17.614500926658547
3832.6565,5.798694366312608,15.649485368403319
3833.5403,5.774069435502092,19.160003594377716
3834.4224,5.751340752494656,17.78511830307852
3835.3064,5.732509242264268,15.30987950031861
3836.1887,5.71935604035685,15.137787834001568
3837.0713,5.711661143959722,16.643595744268634
3837.956,5.707003169029689,15.68999545087568
3838.839,5.702380489484047,15.973404254927162
3839.7244,5.6967527964165585,19.58231098467825
3840.6077,5.692462339960916,17.259471384819246
3841.4932,5.693552879683963,16.3413075511299
3842.377,5.702186001649871,21.535499477721498
3843.261,5.716313368873694,17.221081950939013
3844.1472,5.7313925088828075,14.265520703419968
3845.0315,5.744576192970269,16.812126562494196
3845.9182,5.757483811576819,20.612139807680897
3846.803,5.773888053306281,15.529170397460941
3847.69,5.795623763693847,17.69620581193822
3848.5752,5.8201609193961215,15.773155944641825
3849.4604,5.842919725419296,16.447647959717038
3850.3481,5.8606489092221,17.77409182620368
3851.234,5.872640713479375,17.962314363932027
3852.122,5.879470751433194,17.767409190393852
3853.0083,5.880732283158317,20.39770273252363
3853.8967,5.875064880735816,16.103530301717143
3854.7832,5.861809402668785,18.903199871498344
3855.6702,5.842527379731074,15.035189949626954
3856.559,5.821255622635153,17.19097531174063
3857.4463,5.803571099265444,14.289728579226562
3858.336,5.794296431139957,16.439259699477244
3859.2234,5.79539859393243,18.63716366009923
3860.1135,5.8044900024179045,15.165518091315748
3861.0015,5.815939224204133,16.723751422423835
3861.8896,5.8241558966351334,19.543388082137238
3862.7803,5.826317056550762,17.093500168254486
3863.6687,5.822952484019937,15.189880397636848
3864.5598,5.816444222919271,17.937163364383487
3865.4487,5.8088984387964215,19.461200560415143
3866.34,5.800521327317995,17.306891684333213
3867.2297,5.78975061911643,18.51682044815072
3868.1213,5.77452282179002,17.873189301918224
3869.0112,5.754122102117238,19.14359368707956
3869.9014,5.729380622741895,18.881379767767825
3870.7937,5.701840892754625,15.38774258191247
3871.684,5.6730973590601375,17.724227778443662
3872.577,5.6442292716676805,17.48904901004037
3873.4678,5.616385438029207,22.107058879586344
3874.361,5.589796213822766,17.61265128651802
3875.2524,5.564048763417148,19.3982166768754
3876.1438,5.538221827114063,15.9318207365599
3877.0376,5.511820980754788,16.13989275446167
3877.9297,5.484837549554509,17.965047664256538
3878.8237,5.456591415244494,17.096011907859374
3879.716,5.426071025304296,16.39152131578579
3880.6108,5.3920887339133525,19.771178609364167
3881.5037,5.354417095961361,17.934288623039084
3882.3965,5.313318457165905,18.04144637939479
3883.2917,5.269591340921429,21.494321045613205
3884.185,5.224735660713208,19.917588189005464
3885.0808,5.179899603525575,19.255151121815796
3885.9746,5.136697657282727,22.96466824077633
3886.8706,5.096630176346588,19.114897411512207
3887.765,5.061959735271847,24.028134205541697
3888.6592,5.034684507790899,23.24268729785401
3889.556,5.016448270877622,20.892018472744475
3890.4507,5.008598218747401,24.42656086473428
3891.348,5.0117712769925875,21.236113996912415
3892.243,5.0253598259723935,26.70896893726154
3893.1406,5.0470931889433865,22.822444668158322
3894.0361,5.073592546829998,23.78080043994036
3894.932,5.102667674057423,22.090668499801634
3895.83,5.134389891028744,20.976332076726813
3896.7263,5.169829116607795,17.180205784139876
3897.625,5.209224166736861,22.836105710956808
3898.5215,5.2501290823396465,18.942692845523666
3899.4207,5.289811393205171,22.692175106351744
3900.3176,5.3271016159981075,18.635503967624423
3901.2148,5.363891697544231,15.034431786507087
3902.1145,5.402748967969996,20.985993767961997
3903.0122,5.443930226139507,16.040580384827102
3903.912,5.48509440307148,18.621986958754533
3904.8103,5.521845296750058,21.08269575790186
3905.7107,5.550765280410036,20.054439549801845
3906.6094,5.5708519260782845,18.15460885916029
3907.508,5.584655496719724,17.08597991130147
3908.409,5.596865284906751,18.325871795200282
3909.308,5.611980999793708,22.54431191902505
3910.2097,5.632717003720573,16.712286418810645
3911.1091,5.65922538637332,16.250423711479183
3912.011,5.689746938952833,17.311495582118354
3912.9111,5.720296074177297,16.963066722993247
3913.8113,5.746022868400076,18.773633693734237
3914.7136,5.763399206439276,11.379503168418108
3915.6143,5.772701006136454,21.331944846686987
3916.517,5.778253295161433,18.3161361448496
3917.4182,5.785058651076266,16.389994998703624
3918.3215,5.795374907266374,16.47997152761327
3919.223,5.80776481685251,15.286648208348751
3920.1245,5.819327735950836,17.747209957148886
3921.0286,5.828100928900038,14.840042849579872
3921.9307,5.833831126077922,17.69840758142453
3922.835,5.8373010956352935,19.194246876159866
3923.7373,5.83902527897338,15.613550568623266
3924.642,5.838766089915837,17.75696613470707
3925.5452,5.8358116405193226,17.90577802342
3926.448,5.829818198035668,15.655970604084665
3927.3535,5.821483749752582,15.850136447713018
3928.257,5.812558341422734,16.07579790022555
3929.1628,5.804586064660572,18.461460586058816
3930.0667,5.797675571999722,16.510676869600477
3930.9731,5.789948489330596,15.67674712003734
3931.8774,5.778863651829993,17.592511961959385
3932.782,5.763133203037846,17.474494210639
3933.6887,5.744167905360103,14.675202224575624
3934.5938,5.725640508233659,15.514582257732735
3935.501,5.710535514370253,17.13871940230807
3936.4062,5.698469053522927,17.985604248359447
3937.3142,5.68456471712413,19.61002934195849
3938.22,5.6621473814226455,14.463731087595924
3939.128,5.62682687985157,16.241484838864917
3940.0342,5.5805311353728815,18.41735271191701
