wavl,flux,ivar
3566.9744,2.5279028690699272,94.07053315830416
3567.795,2.5274589643529626,78.93849601155542
3568.6177,2.5284434356955936,85.76064259910892
3569.4385,2.5292289955664193,77.40530628971241
3570.2617,2.528511139499788,80.05634059176775
3571.083,2.5261042606945625,97.45605029809948
3571.9065,2.522692672187549,95.287626582124
3572.7283,2.519027153013059,77.4344729624963
3573.55,2.5155455467446877,89.97157181818066
3574.374,2.5127972638398957,75.53945107251964
3575.1963,2.5116234127320176,105.02036794334171
3576.0208,2.5124588473148015,102.07091766237745
3576.8435,2.5147257835377346,74.0500169729546
3577.6682,2.517329227321146,96.94102725509738
3578.4915,2.519822763995649,112.87495286504567
3579.3145,2.522860664561136,70.00910172594307
3580.14,2.5272607713876876,96.22466770777157
3580.9636,2.5327724210078784,99.50259257027383
3581.7893,2.5380806839107137,79.43362827306149
3582.6133,2.5417469216726185,88.19917581122861
3583.4395,2.5432288367881735,62.31509471978595
3584.264,2.54284566437813,83.42934807260238
3585.0884,2.54125475424054,89.86834023048831
3585.915,2.539043882685576,96.2060398511473
3586.74,2.5367351245603613,77.27066545365258
3587.5671,2.5346719217844673,102.96422111722642
3588.3923,2.5327356698996035,85.23217092711575
3589.22,2.5301164416142523,96.63311966813866
3590.0457,2.525707049575886,82.10777726164531
3590.8716,2.518749254884765,92.17733643748693
3591.6995,2.509377532947344,106.89530418347194
3592.526,2.49881466320399,84.73716790948859
3593.3542,2.488848207433069,99.49570876263157
3594.181,2.481109975506133,91.52967100569488
3595.0098,2.475951875853196,94.23221865097867
3595.8367,2.4723580096094318,81.52958738101309
3596.6638,2.4687693907007353,86.23753129589599
3597.4934,2.4645129233139387,82.23172870316976
3598.3208,2.460442832508727,107.26617106755656
3599.1506,2.458098803610217,87.20304505729536
3599.9788,2.4582775843531883,99.39656944085655
3600.8088,2.460081982117574,95.6317862373387
3601.6372,2.46147212846438,83.85581363582445
3602.4678,2.4608148405024353,93.53584902455847
3603.2964,2.4580906207544704,85.56536355994874
3604.1252,2.454880889673655,101.9468995059006
3604.9565,2.453321963747415,79.70952643405965
3605.786,2.454825448907321,89.24187028672938
3606.6172,2.459298537852246,89.37382104087601
3607.447,2.4653335139948855,82.19445252526039
3608.2788,2.4712353985983597,91.2809472002759
3609.109,2.475826373201023,96.0387067779027
3609.9392,2.4786118934374697,113.86171759969753
3610.7717,2.4791602224844045,105.30681958294826
3611.6023,2.476766568170192,99.13485901832114
3612.435,2.470847030384099,85.79755571703522
3613.266,2.461795473195594,86.89379508244541
3614.0994,2.451233876100134,85.96712555177842
3614.9307,2.441585921983376,98.13608864355972
3615.7625,2.434674837539399,96.53670440662219
3616.5962,2.430776718479683,132.8209152338982
3617.4282,2.4285020647495634,90.11786738828484
3618.2625,2.4257981962870954,93.7986761634309
3619.0947,2.4215206890294243,93.8929033895413
3619.9292,2.4161374956485964,89.98256093372942
3620.762,2.411229569901507,87.2858353552747
3621.595,2.408022724861475,123.17395448838263
3622.4302,2.406365219032776,97.25005819370452
3623.2634,2.4047288598383934,91.31262837330563
3624.0989,2.4012852099295223,84.69860113259435
3624.9326,2.3954935320717654,116.21727713135847
3625.7686,2.388893899480642,84.21416087514653
3626.6028,2.3845130617066386,94.81756902509535
3627.437,2.384751707195606,86.76920111432834
3628.2734,2.3895632740081876,84.19711635274797
3629.1082,2.3961167618895245,102.24301736811353
3629.945,2.400552650153697,86.71815704464922
3630.78,2.4002501178802373,96.29877035129984
3631.6174,2.3950727095573257,92.1219227131949
3632.453,2.3865573489367162,82.46975760484355
3633.2883,2.375890595348115,103.558246646921
3634.1262,2.3626495113821107,89.530930856435
3634.9622,2.3455755766740243,93.58195923506949
3635.8005,2.3242922415823557,74.80277916467324
3636.637,2.3011838953141224,107.75666538689903
3637.4756,2.2804931702052382,129.75582258665426
3638.3123,2.26637681255518,102.43012620411903
3639.1492,2.26006514601977,98.56733958697073
3639.9885,2.2594190451303158,102.4983592201031
3640.826,2.26047420980282,102.6326906977954
3641.6653,2.260130796895204,102.60781890602377
3642.5032,2.257911874589109,136.36945858955528
3643.343,2.2555187234130223,128.21032557224586
3644.1812,2.254794716737329,129.5688834630873
3645.0195,2.2558629726567854,109.95284005084267
3645.86,2.257015877383263,114.07315053060837
3646.699,2.256086548246219,148.74443565315173
3647.5398,2.2519934241015767,86.71165942712099
3648.379,2.2452651530759264,102.59269385314639
3649.2202,2.2373727478932506,121.6256236630681
3650.0596,2.229874455096872,107.32989608362935
3650.8994,2.22364633137692,115.3496097310241
3651.7412,2.2189028073943424,92.1178309457543
3652.5813,2.2155708640547913,108.97571669184063
3653.4236,2.2136140426481545,111.71425571055914
3654.2642,2.213162080273754,110.27466932153973
3655.1067,2.214253983845009,141.70718081926896
3655.9475,2.2166198626574323,88.18122929809073
3656.7886,2.21964564755294,93.28435009890595
3657.6318,2.2225035088142002,143.1909314191531
3658.4734,2.2244100002306193,106.43568000509771
3659.317,2.2250652419972083,125.82804596371741
3660.1587,2.2248960255398487,97.61667724328672
3661.003,2.2249000824943894,114.53749482543942
3661.845,2.226033901494019,126.4052566309822
3662.6875,2.228661374799139,144.5913287848386
3663.532,2.232515565914183,114.76556575738014
3664.3748,2.2369646517019297,119.08690243232175
3665.2197,2.2411648168866067,125.3270261119191
3666.063,2.243730027371274,137.85978733126962
3666.9084,2.2427824130979785,86.75375041088775
3667.752,2.236696091522201,106.67960280280906
3668.5977,2.2252783863200523,130.73370402710083
3669.4417,2.210603377925744,106.49764706014776
3670.286,2.196386321724324,112.32793308527393
3671.132,2.1865059382809258,141.85346603519466
3671.9768,2.183192446438,109.44794154666252
3672.8235,2.1859126662237234,132.70008729559703
3673.6685,2.1919978370101894,97.2861335848752
3674.5156,2.1983444610860734,99.94111822128107
3675.3608,2.2027884848870256,116.84758669840924
3676.2063,2.2045913246667306,101.74997276354414
3677.0542,2.2039585359283627,108.71337526401126
3677.9,2.2015909186723657,140.0228797983126
3678.748,2.1984245500321404,108.76681362412933
3679.5945,2.1955384874808184,105.64187882588944
3680.4429,2.193840602915797,131.4528750238127
3681.2896,2.1936611913335025,112.15741380156199
3682.1365,2.1944369427476946,111.5234863108979
3682.9856,2.1950715105640524,119.29822684315576
3683.8328,2.194716757261659,122.53997604009618
3684.6824,2.193170959752705,108.19880160258126
3685.53,2.190488038448357,121.56012648853883
3686.38,2.186498070551669,110.6175513821118
3687.2278,2.1812036579855643,121.77074302763926
3688.0762,2.1754918331587554,120.07058465490739
3688.9265,2.1712585118817875,110.36626002722292
3689.7751,2.170432097481132,96.5605945535065
3690.626,2.173693554622324,114.5745117806212
3691.475,2.180065746474354,143.5148700371833
3692.3264,2.1875935416630026,118.36420235234579
3693.1758,2.194348649684939,117.42408847610122
3694.0254,2.199386884331851,145.1539122456375
3694.8772,2.2028075045307203,100.58450492692162
3695.7273,2.205192244024681,142.86810655924808
3696.5793,2.206905814471359,151.6645576220848
3697.43,2.2076880920503474,116.4421460279165
3698.2825,2.2068757315853653,121.45649057686526
3699.1333,2.2038824741611607,134.93082893275067
3699.9841,2.1986162567952094,113.13961079057088
3700.8374,2.1915430189621565,131.17461829589254
3701.6887,2.183443243604942,113.30015638447242
3702.5425,2.174869547712624,120.26155141274272
3703.3943,2.1663336367830097,111.63768440210605
3704.2483,2.158550623444037,116.31615963310274
3705.1003,2.152693509552845,141.34936521413044
3705.9526,2.149710648826618,100.7705763986588
3706.8074,2.149826034980618,121.29310275212437
3707.66,2.152496383362042,142.20749957440052
3708.515,2.1567695344443334,118.16426141609743
3709.3682,2.16135215776974,91.96705925692447
3710.2234,2.1645783143771085,101.03473888772206
3711.0771,2.164566737605855,124.84475764715714
3711.9307,2.1600380450501877,123.7243217583931
3712.7866,2.1511307519266345,122.31621989871155
3713.6409,2.1398222601428505,113.64907598783539
3714.4973,2.129168116550147,123.65266903644839
3715.3518,2.122253143025465,143.82152410377978
3716.2085,2.1209360835314532,119.17065798802155
3717.0635,2.1255757148197905,116.02531078703251
3717.9185,2.1352087188789746,124.30920097223215
3718.776,2.1480925531969333,112.85124512078099
3719.6313,2.1620224884144683,108.8469190735104
3720.489,2.174944959315559,107.99331773494335
3721.345,2.1848523512927964,116.56679797044619
3722.2031,2.1900248103159012,121.78631598469528
3723.0593,2.1892890493065837,95.5667927811785
3723.9158,2.1829924739231297,133.43829052808374
3724.7747,2.17328584239051,135.27487206043196
3725.6316,2.163264500062254,133.8445095166672
3726.4905,2.155034593147835,127.09422952157587
3727.348,2.1489347920532365,105.02888043292467
3728.2073,2.1440083694726995,108.2409161743198
3729.065,2.139443426441474,113.16677571367435
3729.9229,2.1353210669328466,112.01926647582167
3730.783,2.132525236230629,113.48968981300054
3731.6414,2.131989061866792,113.20616527001674
3732.5017,2.133822566190356,127.41188698022347
3733.3604,2.136960387799364,114.3180626337349
3734.2214,2.139601658076426,109.12161753577291
3735.0803,2.140104857147671,126.89124838216735
3735.9417,2.137836083173822,108.961868473865
3736.8013,2.1333867142522434,109.34065786219136
3737.661,2.1281976947393813,123.57471384742759
3738.5227,2.1238310846726685,126.52144305959847
3739.3828,2.1211663236006855,119.30032162201358
3740.245,2.119843402250555,140.61075388443726
3741.1055,2.118644760817824,116.38869240632614
3741.9683,2.1164513686160897,141.06383613429293
3742.829,2.1130613889645056,118.27971968186537
3743.69,2.109075819285428,117.34975706169061
3744.5532,2.10527202307253,127.17124852363179
3745.4148,2.1022605096392732,109.474619600496
3746.2786,2.100584555988646,113.32423538697289
3747.1404,2.100986561997675,130.9183812562623
3748.0044,2.1041079614849654,124.76651937408106
3748.8667,2.1098482821439055,125.42703892490218
3749.729,2.117135237706825,119.26406702184784
3750.5938,2.1244124799349677,111.10677217061608
3751.4565,2.130317694215065,114.09678154652858
3752.3215,2.1340773479262136,126.74333736018488
3753.1848,2.1351827511050527,142.39518435221916
3754.0503,2.1334482500222824,119.43906629314762
3754.9138,2.1294230225944912,91.23835416654394
3755.7776,2.1245072095929727,110.65332463232907
3756.6438,2.120221914438804,133.42730335219485
3757.508,2.117256881233851,115.89828594289435
3758.3745,2.115208489574013,113.02510240583482
3759.239,2.1133894880714204,132.71695424078058
3760.106,2.1115999706397,112.69978658031803
3760.971,2.110240484140363,116.99084345677392
3761.8362,2.1096062366465707,140.95369796725006
3762.7036,2.1091969426007395,132.7403126460408
3763.5693,2.1077828092728046,122.69146801665075
3764.437,2.104367875966335,123.97520916356677
3765.3032,2.0992154302796706,123.4379582419875
3766.1714,2.093720740989004,113.47329484704986
3767.0378,2.0893466928669073,143.6219004735976
3767.9043,2.0865578864067102,131.76835180577234
3768.7732,2.084934020138823,110.99830238364437
3769.6401,2.0837989355403526,118.01844060659349
3770.5095,2.082352906367875,148.737943369958
3771.377,2.0794334308780273,129.60698408385386
3772.2466,2.073774661782853,121.558469810974
3773.1145,2.0652167665120387,125.5671406487653
3773.9824,2.055449608808993,144.88699363191873
3774.8528,2.047359913034757,135.18710972948907
3775.721,2.0433555770550043,115.11102853577907
3776.5918,2.043966310715867,140.02169071046734
3777.4604,2.048082592334369,135.46740277730777
3778.3315,2.0540109613321493,139.5899079295029
3779.201,2.06019021120497,103.65303093637289
3780.0703,2.0653253386225416,137.9249958058218
3780.942,2.068193348402696,133.1144539514471
3781.8118,2.067913837296569,129.45308356042335
3782.6838,2.0646032783212704,175.29314192181855
3783.554,2.0596653985477738,121.3746252549393
3784.4265,2.055266347232292,132.1700289456287
3785.297,2.0534127084982625,208.4119811926011
3786.168,2.05493850034457,135.5365639465251
3787.041,2.059191003326258,150.4885268065768
3787.912,2.064328836317735,136.02591934028834
3788.7856,2.0682973434638705,133.1187178046078
3789.6572,2.069675787994743,107.5355170058955
3790.531,2.0681946297838607,118.93911787604789
3791.403,2.0645153948599297,122.61853171731201
3792.2754,2.059612835662087,155.96882610353123
3793.15,2.054192962851836,146.34293509944558
3794.0225,2.048608545264539,118.96949099838639
3794.8972,2.0431343888966964,135.47347580707148
3795.7703,2.038452359851401,142.05074422938338
3796.6455,2.0353788689461174,136.57042366287703
3797.519,2.0342872021416047,142.77687430047413
3798.3926,2.034662678752568,125.17254184250567
3799.2686,2.0354638577309454,157.5716292490188
3800.1426,2.0357999230501367,122.47421362138736
3801.0188,2.03540239955262,119.37813010562861
3801.8933,2.0345788979365933,118.44913345380984
3802.77,2.033766342286373,137.78756424596486
3803.6448,2.0330866412112707,118.53498162585292
3804.522,2.032407695232325,125.05365514131651
3805.3972,2.0319995143273824,124.21944428628682
3806.2727,2.0328667324516374,131.37850644839946
3807.1504,2.036072820183858,121.26414378100402
3808.0261,2.041562835087408,138.82826061660964
3808.9043,2.0479472720179754,144.2284775673896
3809.7805,2.053308952128368,152.2251182795888
3810.659,2.0564280220876623,131.50124698563562
3811.5356,2.0571255469217746,125.87891755969311
3812.4126,2.056105676950768,135.70850339318608
3813.2917,2.0544771102435555,127.12721616410772
3814.169,2.053255166524017,136.5950743859014
3815.0483,2.0527875000555835,114.23096163574007
3815.926,2.052560480097869,130.6456997352721
3816.806,2.0516126117288223,113.79407066973945
3817.684,2.049328764613335,140.25178678010056
3818.5623,2.045907938249299,148.49179839336423
3819.4429,2.0422239560336304,132.53722488372364
3820.3215,2.03932867414725,173.05688768196612
3821.2024,2.037808060883864,124.568888999082
3822.0815,2.037484193443745,119.47956629050157
3822.963,2.037458779903902,140.37918149582532
3823.8423,2.0365589075160297,124.21129110116034
3824.722,2.0337950765822352,135.7122227155588
3825.604,2.0286163283057195,134.45390216169181
3826.4841,2.0211909148757847,128.41653656143134
3827.3665,2.0125770938862684,120.68318334582683
3828.2468,2.0047778206804305,119.68998981991297
3829.1296,1.9997293887871832,161.1619970951897
3830.0105,1.9981248605196686,145.28933704501023
3830.8916,1.9986983324046639,140.95570715596654
3831.7751,1.999069579935775,124.49718863177601
3832.6565,1.9973360185241102,144.76615495099432
3833.5403,1.9932364099880135,140.28500083361993
3834.4224,1.9881578104793123,151.40952590915055
3835.3064,1.984103445490272,139.7889818114641
3836.1887,1.9825927129031105,137.286183320705
3837.0713,1.9839216151642574,149.48874066842555
3837.956,1.9873339941275638,160.26212040800533
3838.839,1.9916963738012947,146.56023866729615
3839.7244,1.9962267652958814,132.83377327259944
3840.6077,2.000500928510584,154.68711478488254
3841.4932,2.004165221656452,155.5719501524024
3842.377,2.0067020828697637,142.5608812911273
3843.261,2.007846810444903,123.58055800505464
3844.1472,2.008008805289216,141.87359477761086
3845.0315,2.0082635342080017,133.7547770422652
3845.9182,2.009792623841204,142.40011931113713
3846.803,2.0131679513404652,143.3918456760031
3847.69,2.018018990797676,140.24269324010893
3848.5752,2.023157231101258,153.36577593088313
3849.4604,2.0272538305039673,189.85418821986502
3850.3481,2.029447909703246,138.11181430981435
3851.234,2.0296507609941434,106.19247181057004
3852.122,2.0284713341781253,109.99071000045436
3853.0083,2.026767517370923,156.1121704050726
3853.8967,2.025019956666309,121.22164721575494
3854.7832,2.02293470868091,136.8964780816833
3855.6702,2.01965296594703,132.426031106161
3856.559,2.0146413511175876,133.40152281733103
3857.4463,2.0084837500071084,146.28197355145156
3858.336,2.002617287539934,147.1719630016459
3859.2234,1.9984253586513787,151.67115889374304
3860.1135,1.9962329035201944,138.2159787927378
3861.0015,1.9953137459934664,145.65203524828763
3861.8896,1.994443409256202,151.28150382787476
3862.7803,1.9926152708452873,132.58697445621306
3863.6687,1.989425844703308,146.43005845989265
3864.5598,1.9850281519363762,143.41430539709486
3865.4487,1.9799788317370037,157.66774817551507
3866.34,1.9749496702859903,116.80037773257607
3867.2297,1.9707725942191356,118.31796223970237
3868.1213,1.9683100000664304,138.01052409485058
3869.0112,1.9682318908393044,128.87640673346166
3869.9014,1.9704742868535594,135.89419822809444
3870.7937,1.9739772005935776,122.074827757537
3871.684,1.9769684094370363,158.39598066928812
3872.577,1.9779182417365393,141.41666934718168
3873.4678,1.9764027686868904,118.49417179580921
3874.361,1.9733442926788942,135.52529371126008
3875.2524,1.97039308475208,165.92476893093763
3876.1438,1.9689032084803093,132.30587000217537
3877.0376,1.969365387658635,154.77077128460823
3877.9297,1.9713483131392762,132.272724321582
3878.8237,1.9736617835104524,153.41722334038002
3879.716,1.9745326959098066,146.2861979922635
3880.6108,1.972174019852532,130.40310286273137
3881.5037,1.9657707564925073,134.06252979389808
3882.3965,1.9561376326902105,156.22654819452643
3883.2917,1.9452931506541435,165.45608235147435
3884.185,1.935343110920879,146.63615028521895
3885.0808,1.927323114360177,140.04763880093395
3885.9746,1.9213203359718019,178.69592240264038
3886.8706,1.9168570197485575,156.56321259343832
3887.765,1.9135607028420942,145.78455721107272
3888.6592,1.9113738923410488,144.574754504091
3889.556,1.9105319908189662,139.97656408132022
3890.4507,1.9111612008908048,150.42472657092657
3891.348,1.9128581544801944,143.22182719252098
3892.243,1.9147357869925286,144.22897726332988
3893.1406,1.9160293892964473,137.71269825560535
3894.0361,1.91667562511955,144.08239234888276
3894.932,1.9174403232087618,165.74376482109074
3895.83,1.9193533497610697,163.31819101974298
3896.7263,1.9227961034627845,148.42673747796843
3897.625,1.9270069110846673,146.30009108205124
3898.5215,1.9305209016312583,159.71945836063833
3899.4207,1.9325769806236193,126.67222765650926
3900.3176,1.933988614150106,144.4888242651063
3901.2148,1.9366637338772377,159.14724393271908
3902.1145,1.9420445451552317,159.46836462280652
3903.0122,1.9499761604768717,172.67679408232306
3903.912,1.9590991203035593,160.26401928924352
3904.8103,1.9678384590703635,140.83249539469801
3905.7107,1.9753902061354969,149.24101469025848
3906.6094,1.981667563593284,118.31774938157425
3907.508,1.9870505693266969,125.36587913232623
3908.409,1.991947746499457,134.87817856170005
3909.308,1.9965580959983955,123.43702889889094
3910.2097,2.000914430556413,128.18945115032238
3911.1091,2.004875978977047,141.13963657850817
3912.011,2.008283157536902,131.77620217641763
3912.9111,2.010854477305491,132.44534341393629
3913.8113,2.012233796094979,124.23691764346562
3914.7136,2.0121426397279807,146.5738364627454
3915.6143,2.010698195665782,127.03434518423995
3916.517,2.008467611666108,139.9009451418255
3917.4182,2.006111654058841,128.11912421007483
3918.3215,2.0038497291305952,130.13863762808393
3919.223,2.0013472021081875,134.05903595471193
3920.1245,1.9980384634461414,127.44842484578922
3921.0286,1.9937541714035367,141.14360810438592
3921.9307,1.989185485663653,134.9784545034913
3922.835,1.9856489831282644,135.0672540872017
3923.7373,1.9843952561901659,160.12210723189085
3924.642,1.985715141823798,138.72493406240898
3925.5452,1.9887168210026969,149.77505426809813
3926.448,1.991884116699561,126.92427352411868
3927.3535,1.9939528394568973,149.55024292592486
3928.257,1.9943558591009254,121.49348062375687
3929.1628,1.9930176208421817,138.62008189034174
3930.0667,1.9898042281656332,147.8710474357448
3930.9731,1.9843503478323794,158.27169921924258
3931.8774,1.9766286478639563,141.77756398308688
3932.782,1.9675055024687416,130.05320439050513
3933.6887,1.958884606790896,146.1781721196756
3934.5938,1.9531235184538807,184.0754894328156
