wavl,flux,ivar
3566.9744,1.3912078231217628,266.8338877476989
3567.795,1.3866296149630364,291.1945757386385
3568.6177,1.3785456900654938,321.372456203275
3569.4385,1.369242655403005,274.4175483764603
3570.2617,1.3613984289896568,231.68782565416404
3571.083,1.3571325660643585,280.3843421835383
3571.9065,1.357046190065363,257.6200322252556
3572.7283,1.3603191718917815,385.88244506106605
3573.55,1.36562486296818,268.4343822167619
3574.374,1.3723043324638606,218.33886884822283
3575.1963,1.3805484211186496,272.96177156882777
3576.0208,1.3905446012646974,255.05706759659995
3576.8435,1.4010408459056434,279.68784247204337
3577.6682,1.4093413631165959,344.21708793485624
3578.4915,1.4125128749598184,255.21392878388406
3579.3145,1.409354834263349,233.0554363759684
3580.14,1.4010567531052753,348.83761965594107
3580.9636,1.3905594398094283,338.7361794530896
3581.7893,1.3808953957941423,250.58716185654188
3582.6133,1.3740500181685846,281.8600371631241
3583.4395,1.3701681658469755,301.6475812606818
3584.264,1.367855989097861,353.2929865315708
3585.0884,1.3651618804514594,256.41246992605943
3585.915,1.3610552514775227,322.7282465350621
3586.74,1.3562134127699614,318.905608107293
3587.5671,1.352290000814856,382.18534075406035
3588.3923,1.350481658050932,294.05154405349475
3589.22,1.35052631941226,266.2318564502094
3590.0457,1.351166006027206,218.843592674916
3590.8716,1.351316640573823,266.71194606218
3591.6995,1.3507583680812298,264.38114549727754
3592.526,1.3498038910734944,270.6876864069015
3593.3542,1.348540824661183,256.2298267204072
3594.181,1.346652723826371,317.51900783838096
3595.0098,1.3439297300393664,304.56513468102764
3595.8367,1.3407824500278156,299.9541009172426
3596.6638,1.337888812924927,345.49935489111226
3597.4934,1.3354789352015515,345.2705764148427
3598.3208,1.3331859834012534,262.05508502876603
3599.1506,1.3306847370407715,415.53216652094795
3599.9788,1.3284368482378799,227.2715133469719
3600.8088,1.3274612107575543,215.36285678542532
3601.6372,1.328423486714286,360.2966275860527
3602.4678,1.3308514018966295,305.01765463028295
3603.2964,1.3333076636005097,344.4337505849394
3604.1252,1.3345187385430908,329.51875999058734
3604.9565,1.3344175996182206,316.59358859218236
3605.786,1.33422237846087,250.344297199107
3606.6172,1.3354236260712395,398.20734715926767
3607.447,1.3386134969741816,411.9024404636573
3608.2788,1.3431327133181818,291.79648167267356
3609.109,1.347503687597145,388.0000391944967
3609.9392,1.350276631805001,275.5786074378985
3610.7717,1.3505987582505155,392.411366846364
3611.6023,1.348495602199162,288.4249242220767
3612.435,1.3447133355493668,424.95536545655864
3613.266,1.3402572752084208,284.7595334925555
3614.0994,1.3358203701512723,306.03794099131744
3614.9307,1.3317059712932622,281.04414011703443
3615.7625,1.3280231322361062,391.8042378278721
3616.5962,1.3251178530345133,276.9930062244385
3617.4282,1.3236236298317463,355.8361154678952
3618.2625,1.3239175946136852,328.015137569758
3619.0947,1.3254487106129476,295.6450434239718
3619.9292,1.3266132819250671,311.99443147773627
3620.762,1.3255583268813331,337.8217585581043
3621.595,1.3214124379301224,321.9495780333496
3622.4302,1.3148678187677252,294.7305738968432
3623.2634,1.3078513312532853,429.65179092170285
3624.0989,1.3024193959019033,295.8769630941806
3624.9326,1.2999915089193246,307.6462977153913
3625.7686,1.3008049617088921,293.44492603361084
3626.6028,1.3039613656010611,298.16929752138765
3627.437,1.3079250581425552,298.761691937967
3628.2734,1.311419869293874,309.0419439168648
3629.1082,1.314138289501057,368.65088777345636
3629.945,1.3167958612316542,292.3175821959292
3630.78,1.3203224884402762,312.15313626458044
3631.6174,1.3250885460733004,424.3563118703618
3632.453,1.330519912448069,313.77602347399466
3633.2883,1.3354320371087007,310.15033313620523
3634.1262,1.3384534800222616,282.0676342485683
3634.9622,1.3384551024103055,274.0773553579605
3635.8005,1.335082855221843,257.65054729975384
3636.637,1.329232248034059,333.5374130392383
3637.4756,1.3229711619223503,335.87168926601936
3638.3123,1.3187110309231185,328.5974211443924
3639.1492,1.3177089623291673,261.1834821870421
3639.9885,1.3194226311291601,303.87316180178885
3640.826,1.3220868903954186,267.8790278453353
3641.6653,1.3241264157646209,285.8353852859054
3642.5032,1.324994629906684,321.86214404939483
3643.343,1.324973544856132,313.983957668701
3644.1812,1.324363857583302,307.792033713863
3645.0195,1.3230262239104689,311.4306087302063
3645.86,1.3205777465406614,275.463110848153
3646.699,1.3169472058517155,297.0176635843031
3647.5398,1.3126524073014225,319.23208886999237
3648.379,1.3086920126415507,387.4618611578018
3649.2202,1.3059547854375329,255.8427070802653
3650.0596,1.3047871279330514,282.8545937374258
3650.8994,1.3047796828756413,251.13110585740228
3651.7412,1.3049896825224538,285.48710950409895
3652.5813,1.3043269644883564,313.00452208615434
3653.4236,1.3020241651053615,287.1436487001716
3654.2642,1.2980496319889665,280.0663898497054
3655.1067,1.2931610527733748,427.5864834627061
3655.9475,1.2886432296771153,279.8829750163124
3656.7886,1.2856422520267328,286.1785442169921
3657.6318,1.2846721967139034,298.2094140533412
3658.4734,1.285405175386974,346.707508872656
3659.317,1.2869112148663977,339.52518440425786
3660.1587,1.2882183373400866,336.051702515564
3661.003,1.2888356317019698,320.71274884462747
3661.845,1.2888426738906171,316.15136186512376
3662.6875,1.2886082990012544,304.49819277095816
3663.532,1.2884059775478993,285.7823755652156
3664.3748,1.2883110476648763,319.86623293953676
3665.2197,1.2884369972345289,300.0798890954104
3666.063,1.2891736634943591,332.1710973867914
3666.9084,1.2909571857580688,303.2220250062904
3667.752,1.2935950728907422,260.42625175153097
3668.5977,1.2959424169706122,331.74516137906494
3669.4417,1.2963886483358131,306.45034199725217
3670.286,1.2939783508115996,304.46433194541726
3671.132,1.289091737047336,331.1626168921701
3671.9768,1.2832826864612006,370.16416719068394
3672.8235,1.2782987408635347,380.05399643412807
3673.6685,1.275263714927714,337.2292616851887
3674.5156,1.2742575650525487,325.9595297747453
3675.3608,1.2745909380906044,353.69634508634385
3676.2063,1.2752271782715372,345.8401613118876
3677.0542,1.2751736275358538,376.17551298552326
3677.9,1.2737596504694702,284.2860241189191
3678.748,1.270900564469326,359.8035684964552
3679.5945,1.2673499575565592,375.12133318430324
3680.4429,1.2645606318163183,331.4300045860706
3681.2896,1.264060201678603,361.9914162489723
3682.1365,1.2663659630339095,294.35405829103144
3682.9856,1.2704120453785053,457.33729255061905
3683.8328,1.274018873360731,332.9040672054293
3684.6824,1.2753773173816336,376.67161582225583
3685.53,1.2741561981308118,302.4322168510192
3686.38,1.2714648239461768,358.2258692041259
3687.2278,1.2687244516668934,389.3316810949583
3688.0762,1.2664944736502783,367.46575734393
3688.9265,1.2643172885135936,273.1025178134002
3689.7751,1.2614946402479703,389.2911285990881
3690.626,1.2579429159741542,323.4830722684715
3691.475,1.2545149293452185,355.2818157748789
3692.3264,1.2525357594346944,343.7001883095983
3693.1758,1.2531626038137655,408.86133297997833
3694.0254,1.256742690105095,371.87861875254157
3694.8772,1.2625740566598114,387.2648408169469
3695.7273,1.2690257141347059,367.2294853187399
3696.5793,1.2742414524131405,566.522100968991
3697.43,1.2768029417710136,340.7228395244355
3698.2825,1.276344837399446,252.29306596772452
3699.1333,1.2735721330906895,382.0828002320159
3699.9841,1.2697658615803873,355.1228518086325
3700.8374,1.2660241144284412,346.5215840072851
3701.6887,1.2628542001670322,293.8295777671847
3702.5425,1.2602348105733026,291.02921087115357
3703.3943,1.258123942269063,387.03300273703155
3704.2483,1.2566763778267025,352.4297730622431
3705.1003,1.2561814224238026,298.9274555098119
3705.9526,1.2567070456152427,339.1027215287603
3706.8074,1.2578546709165916,404.1310630332875
3707.66,1.2587925425238906,323.0304077011584
3708.515,1.2586759026624654,322.29517304544254
3709.3682,1.257084374761966,359.24455434235887
3710.2234,1.2541751453979475,339.4772591314394
3711.0771,1.2505752556238885,328.22422698996746
3711.9307,1.2471537547980704,384.11300056584975
3712.7866,1.2447986610354538,270.7452700850376
3713.6409,1.2440431812482848,453.20770880460316
3714.4973,1.2446243674792,337.82149051467337
3715.3518,1.245521147333396,241.94499455515364
3716.2085,1.2455218324454258,356.4309478488501
3717.0635,1.243891947835601,314.528088702617
3717.9185,1.2406946489580233,440.7445776725369
3718.776,1.236707550022476,302.9827096000693
3719.6313,1.2332065979083158,434.5485638544647
3720.489,1.2314769004754227,362.64046972830454
3721.345,1.232335781665289,317.027495086982
3722.2031,1.2357206900646722,425.8499068657173
3723.0593,1.2406871844214027,332.34812041640816
3723.9158,1.2458526805229626,254.12642082191581
3724.7747,1.2499126220270185,344.6644121636156
3725.6316,1.2520362802414882,320.81934234536016
3726.4905,1.2520813105786324,342.5410720584395
3727.348,1.2504110295321778,338.9511495305895
3728.2073,1.2476245886188662,294.463307251264
3729.065,1.2443696426463358,384.3740547216395
3729.9229,1.241228931565819,342.3489123634098
3730.783,1.2386856498248615,310.93404475821404
3731.6414,1.237000436535304,394.8760648420447
3732.5017,1.2360160105686095,332.57739897796785
3733.3604,1.2352104150658878,322.97010499886227
3734.2214,1.2339721483875583,351.0358175142448
3735.0803,1.2320402984728127,414.3440889999497
3735.9417,1.2297119093681155,353.2705998406519
3736.8013,1.227702917262282,416.72212689480256
3737.661,1.2265554990178167,421.82120210884074
3738.5227,1.2261121577075431,367.5094442087402
3739.3828,1.2255263894455273,367.92519529373953
3740.245,1.2239811058996053,333.6333737899794
3741.1055,1.2215293706461055,344.97017393038044
3741.9683,1.2190794145257433,388.14204375454096
3742.829,1.2175575246576111,407.37633485150843
3743.69,1.217080360719369,432.50743251563597
3744.5532,1.217194422433623,374.3756970246692
3745.4148,1.2177145177506659,347.0833958164557
3746.2786,1.2190564617437363,386.23563260556654
3747.1404,1.2216184932728111,368.9358163435844
3748.0044,1.2251022753732168,336.4651782637804
3748.8667,1.2285307030713661,297.6001263030482
3749.729,1.2309737764589839,319.82161311360016
3750.5938,1.2320414993002307,334.28462395154423
3751.4565,1.2318756004454372,315.24663499976583
3752.3215,1.2308457740999257,389.36902906688005
3753.1848,1.229260311876515,305.72786260182033
3754.0503,1.2272597276633026,316.4439136061316
3754.9138,1.224947046647749,376.14267989166194
3755.7776,1.2225263625418616,409.22171641125954
3756.6438,1.2203635131178399,430.08530314502013
3757.508,1.2188295995661147,362.52961597565127
3758.3745,1.2179858746926835,353.07877367764706
3759.239,1.2174883648875827,357.60596877826964
3760.106,1.216785736401107,291.59312430616467
3760.971,1.2155806424895013,376.7033775324985
3761.8362,1.2140993737111492,393.35865583492944
3762.7036,1.2129204503687459,291.2966859050823
3763.5693,1.212501030792851,349.3454835363478
3764.437,1.2128103975419344,379.65469467073166
3765.3032,1.2133860648353565,361.9068467782573
3766.1714,1.213660692939903,297.8612461642762
3767.0378,1.2132717598035978,403.34210188715366
3767.9043,1.2121914788551085,363.43185303121385
3768.7732,1.2106810932331267,340.4025990690979
3769.6401,1.209196239164465,314.31973254972627
3770.5095,1.2081554681543123,393.93781324535246
3771.377,1.207637636347937,362.11670277779365
3772.2466,1.2071237087211197,470.69286386958066
3773.1145,1.2057346845443915,412.062709487428
3773.9824,1.202904061061037,362.8182663202175
3774.8528,1.1989366509303006,375.22150077869173
3775.721,1.1949614416953351,471.9229655999862
3776.5918,1.1921897286682266,332.3143899472735
3777.4604,1.1913144703165945,370.2640559515968
3778.3315,1.1922232348283306,331.69508814429935
3779.201,1.1942398300325527,385.4038894091951
3780.0703,1.1965283815743855,335.4625334994247
3780.942,1.1984035682037404,344.96174010320175
3781.8118,1.1994381304411912,366.1563190838698
3782.6838,1.199523448950058,326.5481101246349
3783.554,1.198884359934408,340.78598052164693
3784.4265,1.1980492464794468,441.926034387651
3785.297,1.1976457901509392,415.6496726558993
3786.168,1.1980393325091194,396.7890243293469
3787.041,1.199076002201719,337.6063440649706
3787.912,1.200098115980439,487.2586398299134
3788.7856,1.2003329080537628,339.8782886889153
3789.6572,1.1993768438531187,335.46905081793824
3790.531,1.1974269152884107,386.5784694693751
3791.403,1.1950286637228302,454.66607694501624
3792.2754,1.1925269947646062,428.10664693252477
3793.15,1.1898205141723726,334.76461099683615
3794.0225,1.1866321784490834,370.10900187736627
3794.8972,1.1829037958178672,365.3943039620948
3795.7703,1.1790347830729975,358.8213157401563
3796.6455,1.17563830006714,384.518827647349
3797.519,1.1732805844782666,369.75520109535995
3798.3926,1.1721080528945123,373.45739398025904
3799.2686,1.1714964165032162,419.6016746276445
3800.1426,1.1694142815176842,390.0256531215346
3801.0188,1.1614472266834803,422.4261139004549
3801.8933,1.1402799408762383,361.04525433380644
3802.77,1.0972237728876293,375.98822269409044
3803.6448,1.0288353688561636,466.1627053235009
3804.522,0.944537275605011,391.15070298495795
3805.3972,0.8704608055654965,338.51212687493324
3806.2727,0.8369934305659649,2447.5711066633057
3807.1504,0.8599787369501011,327.2682377055782
3808.0261,0.9285481256961856,400.02758156462596
3808.9043,1.0138258197663232,429.627067886214
3809.7805,1.0876667518704872,371.41558364218355
3810.659,1.137630437319422,405.4602485562875
3811.5356,1.1650912307970103,361.7880960729737
3812.4126,1.1777904433235893,394.1816974309482
3813.2917,1.1827342654155788,300.78959531652686
3814.169,1.1843899076454465,394.66553067954584
3815.0483,1.185276703905028,356.8664371842449
3815.926,1.186526916391363,333.13275465780754
3816.806,1.1881713072089153,322.73817092804154
3817.684,1.189472799993709,358.2509533163233
3818.5623,1.1895599738764213,451.7945589600131
3819.4429,1.1879971340635311,416.0228319729464
3820.3215,1.1850472553827631,442.0065940191554
3821.2024,1.1814028888898984,407.2785576724343
3822.0815,1.1777496923026747,416.03478927233266
3822.963,1.174430721624333,407.8168736903532
3823.8423,1.1716178207115568,384.68479975595545
3824.722,1.169451466985967,388.72405373799313
3825.604,1.168025233332833,386.22998380838186
3826.4841,1.1672005059581743,464.5203441217067
3827.3665,1.1665719711249765,444.5314310000755
3828.2468,1.1657196845738573,318.273673349013
3829.1296,1.1644292603043138,442.0237682910843
3830.0105,1.162709050611012,378.53509284130996
3830.8916,1.1605082396339867,412.0238394308364
3831.7751,1.157447758136867,370.4615758877299
3832.6565,1.1529424107225665,380.2288777592518
3833.5403,1.1467607955700554,499.99981827642443
3834.4224,1.1400152109123274,370.5175920150449
3835.3064,1.1358326035661974,576.2519176212667
3836.1887,1.140133277169284,393.34496191270387
3837.0713,1.1623697604713041,377.0100187973908
3837.956,1.215217170534325,404.28886694460255
3838.839,1.3084304033819723,478.94796814112306
3839.7244,1.4376437357349434,459.47065390230523
3840.6077,1.5721101755640179,400.12521119549905
3841.4932,1.6631671022948558,432.8296847783908
3842.377,1.669958195396168,339.12366686616775
3843.261,1.5902930525985166,430.071199347904
3844.1472,1.462096512071359,651.3955820485769
3845.0315,1.337739566948977,429.0474905712014
3845.9182,1.2501053946249052,418.84391062925675
3846.803,1.2039060062884988,422.47106465304705
3847.69,1.1851345070330475,411.4526494632308
3848.5752,1.1784208451239244,354.800018542245
3849.4604,1.1750270606607767,369.7675520983206
3850.3481,1.1727155442867256,418.54235671191884
3851.234,1.171987783444663,478.90579158105504
3852.122,1.1732539137518658,342.4722678645257
3853.0083,1.1761154754110452,343.6396308844499
3853.8967,1.1798350249401701,339.51470401187447
3854.7832,1.1837463109649553,381.3847691686228
3855.6702,1.1873793960860453,363.64296858231063
3856.559,1.19038847331128,427.3831114851939
3857.4463,1.1925866781117271,325.39352519206255
3858.336,1.1939409562655523,385.1868266004008
3859.2234,1.1943228117793445,350.55518034971493
3860.1135,1.1934523658105691,382.2579380295317
3861.0015,1.1911871919163661,390.91971663126736
3861.8896,1.187908611616462,377.54109731286644
3862.7803,1.1845151301681842,411.10780464575856
3863.6687,1.1819643293844484,375.1191423290618
3864.5598,1.1806561099152104,369.5743317229922
3865.4487,1.180300481774249,397.4328510299467
3866.34,1.1801208640283616,436.98648901165086
3867.2297,1.1792657599851382,436.1315137233654
3868.1213,1.1771350907899627,492.8510043952704
3869.0112,1.1736231380896962,419.38075211316
3869.9014,1.16915288629914,368.41291798389767
3870.7937,1.1644668707193804,423.2713044640152
3871.684,1.160214040179873,515.7835341760672
3872.577,1.156506407745345,337.45962341712647
3873.4678,1.1530314834305446,443.80258564380296
3874.361,1.1493075220701254,358.308550959157
3875.2524,1.1450164505793368,395.2385757958668
3876.1438,1.1399698575174486,458.734417821649
3877.0376,1.1340999506167042,415.5777531834792
3877.9297,1.1276041045181184,333.95711821932105
3878.8237,1.1209492779473806,469.7506083409954
3879.716,1.1148337565980486,376.52060133219874
3880.6108,1.1096299006528725,499.47737160774363
3881.5037,1.1050410879423807,389.44886193185965
3882.3965,1.1000509222853119,478.755091124418
3883.2917,1.0936273037735025,425.90610377982813
3884.185,1.0855829257966558,407.3529514781126
3885.0808,1.0766638665664898,428.44604864157884
3885.9746,1.0681327677886499,450.888141315248
3886.8706,1.0608493882275953,431.07671079567984
3887.765,1.0551348532349651,498.0690906157324
3888.6592,1.050898522179361,480.72043267597877
3889.556,1.0480325164681967,525.8819998411918
3890.4507,1.0465092534522311,535.8304420182529
3891.348,1.0462348788129978,468.72600408173633
3892.243,1.04703653686158,473.84893417722856
3893.1406,1.0487741658950323,540.6503657252242
3894.0361,1.0514723336996807,501.2786842469467
3894.932,1.0553482220197383,551.4554201853272
3895.83,1.0606562471326069,593.0145036245376
3896.7263,1.0674731864138747,393.0294765659425
3897.625,1.075731798944554,517.1990986784007
3898.5215,1.0850857449045868,431.11894593158644
3899.4207,1.0951026274845446,408.0636254784103
3900.3176,1.1051612456311466,456.6434666682126
3901.2148,1.1148283303546989,436.31460186690595
3902.1145,1.123969486513982,405.34163375336556
3903.0122,1.1327392246009422,428.7381091061914
3903.912,1.1415561728581,344.5985527876078
3904.8103,1.1505974011387712,511.40595927254356
3905.7107,1.1596749686066752,448.4897827677067
3906.6094,1.1681115167166043,373.1947838690909
3907.508,1.1752533253552966,467.1439333285717
3908.409,1.180828803680411,408.98020869055074
3909.308,1.1850288652604757,434.83659268548
3910.2097,1.188351610678382,338.9375556166644
3911.1091,1.1912286529345677,389.87230255733783
3912.011,1.1940325684646083,361.67120051247025
3912.9111,1.1971375798343205,363.37701390153063
3913.8113,1.2009763724406346,483.4101954028024
3914.7136,1.205769952511577,377.5542900499622
3915.6143,1.2111867108014098,425.5915599904687
3916.517,1.2164417318736787,430.21855740767836
3917.4182,1.2206093906956814,337.59623417094076
3918.3215,1.2231821292127973,321.17898135496176
3919.223,1.224246585169655,372.7612922350682
3920.1245,1.2244323521294733,338.54340344435906
3921.0286,1.2245196392370046,337.8474771980697
3921.9307,1.2250359299925901,305.5695731852148
3922.835,1.2260812955839577,339.3179667323121
3923.7373,1.2274683213698978,347.7321394578887
3924.642,1.2290082952652213,364.8577103224112
3925.5452,1.2305756696999663,343.6820428414082
3926.448,1.2319841951868957,325.3227220477108
3927.3535,1.2328225246287876,395.4236518266219
3928.257,1.2325237352872935,380.2604538800658
3929.1628,1.2306651813397238,322.6973205794193
3930.0667,1.2272374954364824,367.19360030325566
3930.9731,1.2226712400583373,360.85521763780565
3931.8774,1.2178132466198635,344.2971917351148
3932.782,1.2136721926812597,345.53498971229294
3933.6887,1.2111546237750896,352.2053313195309
3934.5938,1.2106262779118637,423.7604927216365
