wavl,flux,ivar
3566.9744,8.399213753615602,14.314896508877228
3567.795,8.351064741239211,9.767816977948746
3568.6177,8.300245368531709,9.140419790915555
3569.4385,8.260716076381943,8.894694443250453
3570.2617,8.238258231273106,16.549309145553654
3571.083,8.231507851999574,10.336134912775341
3571.9065,8.233700985382278,10.161433427047385
3572.7283,8.236042960880065,8.866617811919461
3573.55,8.231517660066544,9.741380603437872
3574.374,8.218189318793259,10.30504365080066
3575.1963,8.200218643965876,13.131470084182201
3576.0208,8.184729391742886,9.340499561620156
3576.8435,8.176500137818921,14.14283530326649
3577.6682,8.17293288775799,10.218892782494951
3578.4915,8.16409255210852,11.159900084843452
3579.3145,8.138150243759096,9.850446860504368
3580.14,8.08924658793632,11.26774946903528
3580.9636,8.023729719531284,14.030098588113614
3581.7893,7.9591625965876025,12.092150909262573
3582.6133,7.9186944237767465,14.721760179727202
3583.4395,7.919562749663633,13.884045971639011
3584.264,7.9644394176084505,10.177095986921833
3585.0884,8.038800693098162,11.21216740193078
3585.915,8.117245053455944,11.113893457315998
3586.74,8.17342832207693,10.76550482169495
3587.5671,8.191221341409179,11.581892613740173
3588.3923,8.168441651229479,8.798449575776182
3589.22,8.1152067586414,11.38605990068542
3590.0457,8.048031381799731,11.013070870842729
3590.8716,7.982114711719415,12.273680729724807
3591.6995,7.927318783118034,12.09991765068598
3592.526,7.887430461308988,11.834930554647197
3593.3542,7.861070050783326,13.33664058251919
3594.181,7.844957345082374,11.23866448456608
3595.0098,7.8351742591092295,12.877158636634661
3595.8367,7.827924439788766,10.686622523606824
3596.6638,7.819484219582732,10.684102502525015
3597.4934,7.806805108326856,11.296839319407184
3598.3208,7.78757939245046,12.633048912408311
3599.1506,7.758842461191105,15.765201577335406
3599.9788,7.717480875135411,10.16046573025063
3600.8088,7.663267462988058,13.544491175572372
3601.6372,7.604656155076786,9.860108324605775
3602.4678,7.558296755596954,12.118065293360607
3603.2964,7.542417622633472,16.69541752853788
3604.1252,7.565390587952141,12.128055497805915
3604.9565,7.621821935544281,14.681078008749308
3605.786,7.696732617458629,10.75723455737337
3606.6172,7.775928999758152,10.915955816564729
3607.447,7.850120686889241,10.503117156112463
3608.2788,7.915051402847641,12.002409922146088
3609.109,7.966693098993989,10.700619658416143
3609.9392,8.000564256365642,16.65731324428382
3610.7717,8.012125040898201,13.410036045338488
3611.6023,7.9993438027471635,9.2742730938341
3612.435,7.96523239434963,11.101491916376581
3613.266,7.918602713868734,11.968560918805876
3614.0994,7.870366889529301,10.02796991705295
3614.9307,7.828611513381488,11.165794664870504
3615.7625,7.794120782048897,14.684010705581477
3616.5962,7.762589669838909,11.946428341463426
3617.4282,7.730091922215127,13.267600048720317
3618.2625,7.696689649129292,13.481456805097057
3619.0947,7.666759478342492,13.684875306847257
3619.9292,7.644893332628773,12.369484130212127
3620.762,7.633088678701982,12.26790353841136
3621.595,7.629408442597047,12.512642543393703
3622.4302,7.629533166849413,12.793535405644823
3623.2634,7.628682560345861,12.780107832778432
3624.0989,7.623185154329895,11.26939351414853
3624.9326,7.61169213998148,13.689851728442333
3625.7686,7.595729081289409,15.142141408707943
3626.6028,7.579297712476097,12.868653550216687
3627.437,7.566359668509374,13.66322282777046
3628.2734,7.558118821504546,13.841542740296264
3629.1082,7.552101563363319,12.559258214188693
3629.945,7.544771813499442,12.905358432268821
3630.78,7.536527238413338,13.217981471464523
3631.6174,7.533265143184104,15.282290066392154
3632.453,7.54169045030894,12.032150765024396
3633.2883,7.562001076889577,15.007556533949078
3634.1262,7.586385559959215,11.79275455856326
3634.9622,7.604596358338521,11.566628024468967
3635.8005,7.610981817067957,14.288077459563029
3636.637,7.60484009360693,11.509609400745312
3637.4756,7.586939581152379,13.850064464069074
3638.3123,7.558009857255006,14.099776996763069
3639.1492,7.520624830297954,10.713157982500878
3639.9885,7.480988255605224,16.361834259352804
3640.826,7.447286068738578,13.088192441579803
3641.6653,7.425009308642525,14.359244315426722
3642.5032,7.415575224031104,11.510245882223408
3643.343,7.417048702769049,15.980543890974173
3644.1812,7.426010093834716,13.178792231176963
3645.0195,7.437848322806588,13.051632067144364
3645.86,7.446663609487503,15.33985071791875
3646.699,7.446622284842576,11.226266084287518
3647.5398,7.434909601796286,11.666243884021226
3648.379,7.4135856519963195,12.131627927040178
3649.2202,7.388359330080119,13.617513512922727
3650.0596,7.36575148168605,15.126198021320038
3650.8994,7.349698508673946,12.677765802356328
3651.7412,7.340783199868771,18.94406637256983
3652.5813,7.337166715528618,16.34851003577413
3653.4236,7.336400285786358,12.691556341762375
3654.2642,7.3370896878731475,14.78450461440119
3655.1067,7.339305025673403,16.706798529077016
3655.9475,7.343815700758155,17.972632126652115
3656.7886,7.350949293517905,16.977247980805803
3657.6318,7.360215430255836,11.477367860902772
3658.4734,7.371080140783162,14.387341231186888
3659.317,7.384134418369671,14.442542237570065
3660.1587,7.400467899882203,13.481176576411066
3661.003,7.420082769011167,13.037053385458226
3661.845,7.440200546042079,15.264682511026704
3662.6875,7.456339965783141,18.567551085015978
3663.532,7.464558108125549,12.901926958162145
3664.3748,7.463920603114755,11.934624353218716
3665.2197,7.457227306112161,13.153334611304043
3666.063,7.449321102637245,11.989129261610266
3666.9084,7.444123778217544,12.377120187853233
3667.752,7.4425397947636025,12.280845456905046
3668.5977,7.442144735610455,14.039851012768946
3669.4417,7.438975960669194,13.32271643702888
3670.286,7.4300540046944334,14.461341847792612
3671.132,7.415029322622232,13.585711208835537
3671.9768,7.3961116361774,16.049968771624883
3672.8235,7.37618205256575,16.27146587472499
3673.6685,7.357456977841224,14.926733488744874
3674.5156,7.3407243730204055,13.664434478580823
3675.3608,7.32624713401598,15.085053070530737
3676.2063,7.313964189075454,14.270546622739312
3677.0542,7.303375568671831,14.669169148976493
3677.9,7.293229122328658,13.532918657855188
3678.748,7.281890556082371,15.41714397178171
3679.5945,7.268691676045796,14.600272479903413
3680.4429,7.253767434123083,16.330566596057682
3681.2896,7.237106833449079,16.31015680370435
3682.1365,7.218023097697394,14.421245889192445
3682.9856,7.197217993623769,13.980351847259893
3683.8328,7.179176434201148,17.95614698383739
3684.6824,7.170824312820487,15.517602904005042
3685.53,7.177350510080812,18.282533555926623
3686.38,7.198178756032615,16.311827848307626
3687.2278,7.227210909974328,15.623265706129422
3688.0762,7.256996601444652,14.129474316625911
3688.9265,7.282204551736485,16.914019643898126
3689.7751,7.300513451126532,14.067479263564637
3690.626,7.311826297421988,13.345115871549815
3691.475,7.316299924068564,15.769978164997273
3692.3264,7.313689909092773,15.416150120089288
3693.1758,7.30387198446968,14.797195875357813
3694.0254,7.288235200227797,13.638297125966957
3694.8772,7.2698747965308295,11.396780180628111
3695.7273,7.251908159080864,17.02407874939532
3696.5793,7.235205237218306,14.690055606903925
3697.43,7.219013344364147,17.655133705306042
3698.2825,7.202506255280821,12.161050167019866
3699.1333,7.185514971221036,13.941904681914059
3699.9841,7.166861423082835,13.497107231005195
3700.8374,7.143788646689623,13.356939884748995
3701.6887,7.114131901546445,18.261717278787646
3702.5425,7.07849328134871,15.127904503206752
3703.3943,7.041073309053571,14.975876624547377
3704.2483,7.006615599239702,15.99192587339688
3705.1003,6.978786574583032,14.000456200780704
3705.9526,6.959188095033643,19.506347361938253
3706.8074,6.948252855477547,17.431393912526502
3707.66,6.944882925008429,16.783914519429395
3708.515,6.945146344439925,16.81583408711998
3709.3682,6.942569561780102,13.482759826094306
3710.2234,6.930875819138777,17.38323636442945
3711.0771,6.908020566125657,16.077619428111035
3711.9307,6.877915971718021,14.848155020193365
3712.7866,6.848320485391493,18.527462785646605
3713.6409,6.826659168810922,13.945915422184317
3714.4973,6.815869348053751,15.356476474355441
3715.3518,6.814162417641753,17.626808565778433
3716.2085,6.816858014769675,13.210874171790831
3717.0635,6.819405652476256,16.852850837000762
3717.9185,6.819779344927479,15.10560481773482
3718.776,6.8193408158811275,19.97512347118275
3719.6313,6.821674590958271,15.17940203035787
3720.489,6.829976220474006,20.19267154833635
3721.345,6.844734855521571,16.407514957954557
3722.2031,6.863429901035797,16.984796278051302
3723.0593,6.881397194294659,16.486217706120275
3723.9158,6.893740450046453,15.920573945540449
3724.7747,6.896626602896456,18.195427597331623
3725.6316,6.888672963457735,15.132347688147108
3726.4905,6.871778005909273,14.276171236765283
3727.348,6.850553158697792,20.795455973788574
3728.2073,6.82981077786351,14.880882408315586
3729.065,6.812426576438628,18.701291029131834
3729.9229,6.798084989143544,13.678284116329781
3730.783,6.784160150674516,17.510885944325647
3731.6414,6.767458290696587,19.441618101889727
3732.5017,6.745926529751153,16.71778247825086
3733.3604,6.720322219724258,15.302160047078289
3734.2214,6.69365543056113,19.947844577225993
3735.0803,6.669913269557261,18.73006077624977
3735.9417,6.651604738769833,17.831461618817276
3736.8013,6.63957176905389,16.62814280033869
3737.661,6.633377620554774,19.758925598316612
3738.5227,6.632518118969131,16.025102761199832
3739.3828,6.636538717013322,17.90819106558077
3740.245,6.644206526554048,16.909275362746495
3741.1055,6.652613354875922,14.877125210017406
3741.9683,6.657718515068449,15.520347014648069
3742.829,6.656089125986189,17.43815317893234
3743.69,6.646989671030246,16.16545070297698
3744.5532,6.63276893155357,17.897314385149784
3745.4148,6.617700505130909,16.244453907138404
3746.2786,6.605514547790597,20.170647221240284
3747.1404,6.597799844209741,18.32841632761321
3748.0044,6.59329890728488,18.932845499465657
3748.8667,6.589255244805805,15.896760286503634
3749.729,6.583583565621252,20.479626134775256
3750.5938,6.576612431722182,16.590505928593178
3751.4565,6.570761424417169,17.78732559716961
3752.3215,6.568144893034924,19.813993885508715
3753.1848,6.56884231526001,15.481123137371945
3754.0503,6.571430015325831,13.481504816030535
3754.9138,6.574963921267666,18.840958620856544
3755.7776,6.579850900329663,17.38045447309748
3756.6438,6.586825074470901,15.301935574726773
3757.508,6.595428715691369,16.88303305947109
3758.3745,6.603504892744734,15.614473497541368
3759.239,6.607446322215025,16.012251488854545
3760.106,6.603744948800211,15.481697353466359
3760.971,6.591133394357266,17.57027926816618
3761.8362,6.572064746676987,16.74787988267582
3762.7036,6.551800824680443,18.280767051572138
3763.5693,6.53523167053436,17.789681985676705
3764.437,6.522947716305761,16.883842622223277
3765.3032,6.510676263921677,16.98986137705745
3766.1714,6.492237349701292,15.733174271640872
3767.0378,6.464978662134154,16.40754432666737
3767.9043,6.432614962322169,21.169319583018172
3768.7732,6.403594137133479,16.465113318783004
3769.6401,6.386107461039424,18.821454833600747
3770.5095,6.382696478605113,15.967232079107886
3771.377,6.3894172081369955,16.572124238520452
3772.2466,6.398866538576025,13.996711621039896
3773.1145,6.405194892574651,18.306456658073024
3773.9824,6.4075614788383035,21.53692847444799
3774.8528,6.409285398712126,17.735671206707526
3775.721,6.414027244466239,19.634558109211536
3776.5918,6.422780634837587,17.928872100744698
3777.4604,6.434244223851971,15.356281151258443
3778.3315,6.447587719214136,15.734201448324779
3779.201,6.463162524441172,18.893760327117718
3780.0703,6.480927294404554,21.641368829368066
3780.942,6.498575867083991,18.667187588487614
3781.8118,6.511930717352698,16.782062297525474
3782.6838,6.517251594457435,17.669103365179502
3783.554,6.512555850673754,18.334417051049552
3784.4265,6.498152374859716,16.54359300838262
3785.297,6.476604441303237,18.609971472300963
3786.168,6.451543021390286,19.811263322771865
3787.041,6.425674170298492,17.573197765414097
3787.912,6.399246082032009,17.89341933101189
3788.7856,6.370095945511036,20.840349998335686
3789.6572,6.336737051408249,17.9960567263692
3790.531,6.299817487643736,20.825103621306216
3791.403,6.2624063388783595,18.001454670703783
3792.2754,6.227579519565084,21.109388605237232
3793.15,6.197374046160201,19.15822018293245
3794.0225,6.1726700788149325,20.41164852415079
3794.8972,6.152641898365844,23.460020747808272
3795.7703,6.135381925896854,21.021841772654373
3796.6455,6.118710063106963,21.461780415725965
3797.519,6.102485824867275,19.831298943944695
3798.3926,6.089367308926039,19.727296325601554
3799.2686,6.08362996025374,20.251577787953877
3800.1426,6.088145072968263,19.74338147072445
3801.0188,6.101868308393104,20.674986464966004
3801.8933,6.119986966162384,24.06966054467685
3802.77,6.1369752425433575,19.24863618074512
3803.6448,6.149698996228289,21.858692252023403
3804.522,6.159250744891118,18.03202014502773
3805.3972,6.169665129955829,20.120522233237917
3806.2727,6.185521423364551,19.667580591130253
3807.1504,6.209308662913733,22.499713323642027
3808.0261,6.239637096036926,21.49637204414276
3808.9043,6.271830215545497,21.560976877489495
3809.7805,6.299658086890753,15.672007293394268
3810.659,6.319404868067034,18.766455768774478
3811.5356,6.331458661655634,18.780404574622175
3812.4126,6.339314139721827,23.956347716905825
3813.2917,6.345805578285463,17.56753310649494
3814.169,6.350654047160888,18.118285061418497
3815.0483,6.351151399091789,20.32455030735744
3815.926,6.344687353562258,18.696440355870905
3816.806,6.331032347940338,17.718866852141954
3817.684,6.312859527804611,20.18595960525871
3818.5623,6.293901803302594,15.021612748703888
3819.4429,6.276513314499866,21.116025370732878
3820.3215,6.2602992767074035,18.958524235209456
3821.2024,6.242174110517654,16.868938693909787
3822.0815,6.218500590142661,18.85383540549396
3822.963,6.186671436183109,19.716324609077247
3823.8423,6.14644904504784,19.497260963286813
3824.722,6.098994103959934,19.956526829949226
3825.604,6.046008942838697,17.363778217658986
3826.4841,5.98964792395155,21.146547775964088
3827.3665,5.931410323243213,19.300762753694855
3828.2468,5.872614168686444,20.473607800259607
3829.1296,5.81234620826784,23.12820068025955
3830.0105,5.748668948727624,23.236718828936716
3830.8916,5.67960198600119,20.896610241676033
3831.7751,5.606319250186348,22.084120031620408
3832.6565,5.534677350972838,30.452734851529037
3833.5403,5.4717509526852295,24.79168340519556
3834.4224,5.423785160061868,27.459044989422292
3835.3064,5.393042668518945,31.656549059267558
3836.1887,5.378976256191687,29.90583883580944
3837.0713,5.379396347889331,25.094153249053832
3837.956,5.392555608354434,24.352488854316043
3838.839,5.417923529837965,24.600764509145247
3839.7244,5.456192082499491,25.31774461889985
3840.6077,5.507404269304523,26.87238536672192
3841.4932,5.570457663200882,21.465356802092817
3842.377,5.642386540873211,26.74997455889756
3843.261,5.720313665554824,27.231831182949968
3844.1472,5.801331408638287,21.159374385748905
3845.0315,5.881247376474415,18.88993480408597
3845.9182,5.956116574012515,21.660610896147354
3846.803,6.022593917018479,20.987150503995903
3847.69,6.0810688226037986,21.74295193858108
3848.5752,6.133483679365034,21.9287543191534
3849.4604,6.181144373218053,21.94847416867478
3850.3481,6.222284317661425,16.760644803990587
3851.234,6.253274252111524,18.502986858151296
3852.122,6.272824861035441,18.569428711722463
3853.0083,6.283089505518797,21.518218100321775
3853.8967,6.288328210848465,20.18141572701132
3854.7832,6.291726592291777,19.6397116897331
3855.6702,6.2944292483113005,17.976239154865844
3856.559,6.2967346017747365,19.705898446568895
3857.4463,6.299763875643563,19.00447288127161
3858.336,6.305678867488021,18.408356747503632
3859.2234,6.316081526064305,18.196037057680588
3860.1135,6.330361846889702,18.642278795509277
3861.0015,6.344992943790249,17.668239332007992
3861.8896,6.35495813225106,18.698621469935294
3862.7803,6.355498716639802,19.373328221179705
3863.6687,6.34385018698314,17.264116068105142
3864.5598,6.3201212213622515,20.28680641458859
3865.4487,6.2873903602014245,15.766620527152169
3866.34,6.249696318526874,18.491746181412218
3867.2297,6.210526985970976,20.46566156934241
3868.1213,6.171133835220167,18.136934426361556
3869.0112,6.131964618134631,21.639601984737784
3869.9014,6.093324328612661,20.71181890139013
3870.7937,6.055523268453095,17.845003489698012
3871.684,6.017840349895518,21.143678383317326
3872.577,5.977208919598293,20.327668373984626
3873.4678,5.930027158179826,22.23743212429325
3874.361,5.873415419971433,21.660284280205914
3875.2524,5.807793144470103,21.12045542702409
3876.1438,5.736160486880184,25.934304217365373
3877.0376,5.6631885422814054,19.791830969904968
3877.9297,5.593808127095591,24.89264102221887
3878.8237,5.5298146854483905,25.039871882739703
3879.716,5.469515202298866,24.637897629485852
3880.6108,5.406989506209939,24.74478984710484
3881.5037,5.335893975042077,27.325564721902598
3882.3965,5.252026898785747,23.33327967041412
3883.2917,5.155700518721734,30.181082680667192
3884.185,5.051891787577192,31.438279590743434
3885.0808,4.945846015557458,31.370088786504567
3885.9746,4.842757346938482,28.82550997248886
3886.8706,4.745553481942419,33.053518595574694
3887.765,4.6583417889494045,33.73340088702747
3888.6592,4.586423238441033,35.46767240022993
3889.556,4.536835770180551,38.753293822394504
3890.4507,4.516441009221538,42.706491331455666
3891.348,4.528239954130287,37.985294602032575
3892.243,4.569948943011217,39.65913637037625
3893.1406,4.635111831032157,37.426545698721704
3894.0361,4.71542745107987,32.3140806267933
3894.932,4.8051815534513,30.8060069364863
3895.83,4.901976368626516,34.18806061661415
3896.7263,5.004213268436103,30.565476943262905
3897.625,5.110050448049031,30.8347122505716
3898.5215,5.214464306352362,28.91540022604385
3899.4207,5.313315578818401,22.308269702123752
3900.3176,5.404114149277902,29.412525558257226
3901.2148,5.488943856283733,22.642690919439882
3902.1145,5.571500674179602,29.035946615214474
3903.0122,5.653282202506783,25.116181932833346
3903.912,5.7335075083336475,23.35259023001695
3904.8103,5.809235260897356,24.23486953601968
3905.7107,5.879664775444084,22.394797924064036
3906.6094,5.946223373600779,20.697356265149047
3907.508,6.012543810285944,19.753346951668632
3908.409,6.081828433050035,22.05168198372197
3909.308,6.154796173746827,20.80888411409786
3910.2097,6.230432282342285,15.865468764362069
3911.1091,6.304861134782712,19.907236240494314
3912.011,6.373352605243071,18.83357436067319
3912.9111,6.430318046315477,18.02075500634565
3913.8113,6.472976038189505,17.559208943679042
3914.7136,6.502729947999615,13.846782088534285
3915.6143,6.524391255868515,16.72675469420581
3916.517,6.543628879434639,18.259116771893698
3917.4182,6.563804610087994,19.68390063628146
3918.3215,6.585939070843477,14.518382883144266
3919.223,6.6097834418438515,18.99488543329471
3920.1245,6.635437241353286,17.063470700385174
3921.0286,6.6631731957282305,17.442624517494796
3921.9307,6.692334500061895,15.98412493663659
3922.835,6.72107653072654,16.151503155293852
3923.7373,6.745829794617321,15.362923973985584
3924.642,6.762665376042753,14.928741675662728
3925.5452,6.768545292239749,16.934930522420068
3926.448,6.76343748727609,13.99047746972178
3927.3535,6.75078075373494,18.836742005154697
3928.257,6.736536555587021,15.955936101704323
3929.1628,6.726478139159113,18.96124865724731
3930.0667,6.723916912375596,18.948468378715877
3930.9731,6.7282839060643775,17.894017992062118
3931.8774,6.735480745758369,16.97245979019798
3932.782,6.739478478308148,15.956446168202053
3933.6887,6.734515822497241,15.055559575464962
3934.5938,6.717561672640271,15.753216962858069
3935.501,6.689838797090967,17.039655363970382
3936.4062,6.656872720319677,15.38650084411276
3937.3142,6.625414390898039,16.700700326667473
3938.22,6.600194578793058,17.549544246940847
