wavl,flux,ivar
3566.9744,358.3005437710184,0.08943376388202687
3567.795,357.30835113519987,0.08936883263221311
3568.6177,356.12959238100035,0.09410491057787974
3569.4385,354.99082182144656,0.10077228704595967
3570.2617,354.00692154958926,0.10148717982021599
3571.083,353.2028223926309,0.09437049210260778
3571.9065,352.53238641429704,0.10461107172392653
3572.7283,351.9539391552005,0.09650716062388456
3573.55,351.4626228657291,0.0988128210406185
3574.374,351.0915399694067,0.09469103139523545
3575.1963,350.8622216611723,0.10352911510035298
3576.0208,350.72490119683783,0.1029721946626156
3576.8435,350.5554335747746,0.09855377951941766
3577.6682,350.19979960796735,0.10085907595036543
3578.4915,349.55173870805515,0.0978641296926431
3579.3145,348.6033686955696,0.09665946388220721
3580.14,347.4526839041894,0.10009972563237346
3580.9636,346.29023998381746,0.09678296739457833
3581.7893,345.34055229354925,0.0983653320366062
3582.6133,344.83778347944093,0.110335410681664
3583.4395,344.9502780669443,0.1072387893550339
3584.264,345.70831731921675,0.10502593354584154
3585.0884,346.94397428479044,0.09389028682734057
3585.915,348.3113598793361,0.10011878648635769
3586.74,349.37738452550917,0.09395162541140117
3587.5671,349.79842241462273,0.10119724045609012
3588.3923,349.42937924002314,0.09903970074532738
3589.22,348.3583704677552,0.09807561076353716
3590.0457,346.8410390168972,0.09975812587566574
3590.8716,345.1642484541723,0.10259919494654877
3591.6995,343.5537246990605,0.10989008310955349
3592.526,342.14657162596023,0.11586916938193946
3593.3542,340.9881821574314,0.10605299080159705
3594.181,340.09389857516817,0.10750057622042056
3595.0098,339.44633231823616,0.1142505394427704
3595.8367,339.00339043531034,0.10439413491209501
3596.6638,338.67860241269864,0.11039132051286465
3597.4934,338.35633855410225,0.10855803996324959
3598.3208,337.90067091787193,0.10379970590988812
3599.1506,337.1412834260757,0.10688648328739746
3599.9788,335.8991787694687,0.11523115988531588
3600.8088,334.065337330725,0.10566309136930106
3601.6372,331.79695324612175,0.10515157124456441
3602.4678,329.6057022628419,0.10984258445392722
3603.2964,328.27003414611767,0.1239327643040231
3604.1252,328.3978383365476,0.14069765855710553
3604.9565,330.0453201107264,0.11128845363054267
3605.786,332.61539149107904,0.11185634342303757
3606.6172,335.2344334392837,0.10132338695314706
3607.447,337.1899634703589,0.10428278887666292
3608.2788,338.22046314861115,0.1036525018110322
3609.109,338.4163738185086,0.10941462635532569
3609.9392,338.0136722914816,0.10964595320970442
3610.7717,337.21612628637445,0.1035150421649639
3611.6023,336.18322501637937,0.116378156143251
3612.435,335.05446052417614,0.1086644355993493
3613.266,333.9675241364881,0.10567184980274867
3614.0994,332.98758958932336,0.11744150935467847
3614.9307,332.1003098336473,0.1083633303169908
3615.7625,331.2392708618425,0.11059969671436273
3616.5962,330.3707587750931,0.11695974923020369
3617.4282,329.52816348545264,0.10602229636272185
3618.2625,328.7629629183453,0.10990010708266668
3619.0947,328.10720083354477,0.11161106399958594
3619.9292,327.54216082391224,0.10190326004596821
3620.762,327.0277236718625,0.11667738291221064
3621.595,326.5090036725656,0.11027672719587524
3622.4302,325.9333861279371,0.11373250315462108
3623.2634,325.28051249668664,0.10676729890332967
3624.0989,324.5769382698595,0.11824024106451184
3624.9326,323.89725283846326,0.11399932398753837
3625.7686,323.3043127244725,0.11472665553058334
3626.6028,322.8220459341723,0.11244068588649947
3627.437,322.4236870800586,0.10727639614313669
3628.2734,322.0578289731942,0.11535378473470576
3629.1082,321.67005309112386,0.11281406443581725
3629.945,321.2089201734006,0.11879240257982933
3630.78,320.6426935425205,0.1283918072053621
3631.6174,319.95446188801594,0.11671282599737695
3632.453,319.15722417995465,0.11916676467953786
3633.2883,318.2869143354266,0.12414296684620679
3634.1262,317.40291119352077,0.12683404968718034
3634.9622,316.56937927931244,0.12269434506094393
3635.8005,315.7955938562578,0.1272533077654239
3636.637,315.030457648642,0.11951410096653724
3637.4756,314.17614641079393,0.11973488048200895
3638.3123,313.17637366857093,0.12765016833882162
3639.1492,312.0604857628431,0.12908953610489746
3639.9885,310.94396820426607,0.12401567520941524
3640.826,309.96870107317034,0.13490014767363967
3641.6653,309.2002637819591,0.12726358889771747
3642.5032,308.6076497274599,0.13344507422755067
3643.343,308.0801882878852,0.1287915098631551
3644.1812,307.5128850420202,0.1238288930817981
3645.0195,306.8666067794873,0.13512905713322565
3645.86,306.19106032072466,0.1329783484417259
3646.699,305.5919492509149,0.1339568301978444
3647.5398,305.15171512537347,0.13504477230073667
3648.379,304.88480136163037,0.12882864525073914
3649.2202,304.72194775498355,0.12527358914164857
3650.0596,304.5547963102413,0.1287335276376592
3650.8994,304.2904347225796,0.1294633287009451
3651.7412,303.8913849115637,0.13138920094798476
3652.5813,303.3813847569829,0.13649964800654688
3653.4236,302.81646596139393,0.1364370377565151
3654.2642,302.2677813774841,0.12555113498380027
3655.1067,301.790103625314,0.13226227103307325
3655.9475,301.4143599915003,0.12388366727694955
3656.7886,301.13500695430946,0.13601772014939578
3657.6318,300.92443663006605,0.1488228546520075
3658.4734,300.75166474191093,0.13934988554521588
3659.317,300.59296426927096,0.13352718734921976
3660.1587,300.4388117492432,0.13771623434771404
3661.003,300.28654498505597,0.14511936139288412
3661.845,300.1379365448437,0.1368830346301772
3662.6875,299.99512714213256,0.13926156922935412
3663.532,299.86361037741824,0.13679517716702946
3664.3748,299.7489113581252,0.14770581591845777
3665.2197,299.6397407883953,0.12884470843196685
3666.063,299.490116421988,0.13859374356005055
3666.9084,299.21447956808754,0.1280026577169108
3667.752,298.72996596198834,0.13918132948631115
3668.5977,298.0163763200163,0.14254690515563576
3669.4417,297.16461202631444,0.1364361437268702
3670.286,296.3320550060146,0.1464269376983167
3671.132,295.6572136550603,0.151684662104264
3671.9768,295.18413789033343,0.13391262958836989
3672.8235,294.8414457680949,0.14730689479608092
3673.6685,294.5089550226816,0.13419464075882018
3674.5156,294.09513544638384,0.13974864021017186
3675.3608,293.59895163112634,0.15145096432066837
3676.2063,293.094545202856,0.14346258712022655
3677.0542,292.6732955573165,0.1415730558372382
3677.9,292.3793865913665,0.14294253164611243
3678.748,292.17643624549305,0.14917527240215178
3679.5945,291.9845748154778,0.1444209654632891
3680.4429,291.7320093852487,0.15336529271396446
3681.2896,291.39488156203436,0.14304520993959716
3682.1365,290.9901729658301,0.1416710601491419
3682.9856,290.5563374029329,0.14126565294299498
3683.8328,290.1421128895786,0.1481585699070391
3684.6824,289.78496195748295,0.1432304920246643
3685.53,289.4976218319472,0.14904178065730575
3686.38,289.25115703297655,0.1370122800992666
3687.2278,289.0047734518562,0.15272992594421847
3688.0762,288.7420272502081,0.13476762748462845
3688.9265,288.4877804922575,0.14690532798398565
3689.7751,288.28078650893815,0.15758479371376014
3690.626,288.1278774210092,0.14325067190086246
3691.475,287.99430045488833,0.15104274691858305
3692.3264,287.8244988895818,0.1458400757978851
3693.1758,287.57696714286175,0.15200581833156201
3694.0254,287.2327193282771,0.15040001582007415
3694.8772,286.7907909019849,0.14489808586392555
3695.7273,286.27279381932004,0.14678133137249416
3696.5793,285.7230775227095,0.15139072880972632
3697.43,285.2082884203071,0.15567503669743316
3698.2825,284.77163017990466,0.15871680070762983
3699.1333,284.39935946311414,0.1553839604503401
3699.9841,284.0090784080082,0.1473402435529185
3700.8374,283.4979577464744,0.15071621924447967
3701.6887,282.8162458452393,0.1476905541282036
3702.5425,281.99714244391697,0.1484130112210882
3703.3943,281.14989102633973,0.15557635123833075
3704.2483,280.38015431293536,0.16229004184838947
3705.1003,279.74827821294656,0.14691005896599224
3705.9526,279.2418972464522,0.15970417907800652
3706.8074,278.80804239184863,0.15526907045111907
3707.66,278.38908504334336,0.1567904076379602
3708.515,277.93401359922285,0.16050710357897896
3709.3682,277.41533927430885,0.15168080742162485
3710.2234,276.82932064904145,0.16594196284211896
3711.0771,276.21210337984604,0.16051180423009956
3711.9307,275.6188025328047,0.1546312855796803
3712.7866,275.09494676797567,0.1451573213428116
3713.6409,274.66304762782516,0.16612705646407974
3714.4973,274.32442920516144,0.1643122725254848
3715.3518,274.08434239792035,0.16653829173050533
3716.2085,273.94126094563865,0.1674412585440662
3717.0635,273.875843788178,0.16345082584837212
3717.9185,273.85221685115994,0.15828733988601454
3718.776,273.84511326865476,0.16508188985676306
3719.6313,273.8503049157177,0.16171127779345734
3720.489,273.85672183567226,0.1636448785721752
3721.345,273.8093515097075,0.16520918338519358
3722.2031,273.6135180531348,0.1659092575106128
3723.0593,273.1918535134464,0.1642447349011776
3723.9158,272.53794663416414,0.16089234937881247
3724.7747,271.71981823796966,0.1629903592303126
3725.6316,270.83940081512907,0.15829357847489098
3726.4905,269.9636872848354,0.17435651327372592
3727.348,269.12652030993684,0.1707973489903076
3728.2073,268.33963103216075,0.17893740527541704
3729.065,267.6306495855082,0.17331018547588092
3729.9229,267.02932239527996,0.17531194883003018
3730.783,266.5547123219443,0.1673029589395472
3731.6414,266.2046276351299,0.17540487612767125
3732.5017,265.9523988918938,0.16003121600423673
3733.3604,265.76585169560377,0.17979080066076197
3734.2214,265.6118703506182,0.18594455283234992
3735.0803,265.4599517664124,0.17707974048886296
3735.9417,265.27243093136804,0.17826443227342537
3736.8013,265.0076605498023,0.17533829989449107
3737.661,264.6328157085287,0.17762340614915023
3738.5227,264.1502402172314,0.17871102675386494
3739.3828,263.6151307198338,0.17291858300950733
3740.245,263.10614387290764,0.18005483936948566
3741.1055,262.6871095411064,0.17732278182969707
3741.9683,262.362801602386,0.17474490332956483
3742.829,262.09509031557843,0.16789318547659363
3743.69,261.8378438384811,0.1822197807157242
3744.5532,261.5741510369243,0.1777190146513867
3745.4148,261.3197257008589,0.17880580940611465
3746.2786,261.0971528409815,0.18622455173607594
3747.1404,260.9237440114315,0.1767015284726955
3748.0044,260.8054539615371,0.1768349723960984
3748.8667,260.7386401364798,0.1855353125767863
3749.729,260.6959883051909,0.18821837455661863
3750.5938,260.6180231306177,0.17619569300264423
3751.4565,260.4293844979776,0.18299008307827563
3752.3215,260.0782749543111,0.17422112163386091
3753.1848,259.57619273644076,0.18348567344413272
3754.0503,258.98912940898236,0.18045477871921317
3754.9138,258.4071280024781,0.1813628796263775
3755.7776,257.89202400525204,0.18789352032276596
3756.6438,257.46324715287943,0.18010701782308597
3757.508,257.10679738968304,0.18391649811198177
3758.3745,256.7865319685218,0.18843971477525265
3759.239,256.469321530444,0.18422297175743788
3760.106,256.1297007651277,0.18918426561593668
3760.971,255.76231600810692,0.18379690162647028
3761.8362,255.37822719217925,0.19070349401288472
3762.7036,255.00222480931507,0.17918134620390938
3763.5693,254.65881054836711,0.19189893582067588
3764.437,254.34703953308238,0.18529897614704252
3765.3032,254.0408724480151,0.1922864069751147
3766.1714,253.69905476251475,0.19408863150745095
3767.0378,253.29488094226022,0.18620330675179533
3767.9043,252.82798929586198,0.18631462026909673
3768.7732,252.32582200324143,0.19583141571204007
3769.6401,251.83598232652844,0.19231226483103123
3770.5095,251.4003200802172,0.19280979798391681
3771.377,251.04865485601215,0.19747242714032157
3772.2466,250.77900949159124,0.19874286777919947
3773.1145,250.5632045010106,0.19080313555444503
3773.9824,250.35928721971737,0.18436131439541786
3774.8528,250.14454918542754,0.20926458462999448
3775.721,249.93687995013596,0.20549181883287837
3776.5918,249.77573393476982,0.19773877608628382
3777.4604,249.6895719201777,0.19825103735555688
3778.3315,249.67154025025485,0.18824849415052966
3779.201,249.6891711148247,0.19589454334305806
3780.0703,249.6977812369613,0.19766639767424665
3780.942,249.64525165611855,0.20300576487275546
3781.8118,249.48027002462274,0.20754982841927805
3782.6838,249.17307764230029,0.19695639289470213
3783.554,248.73914840491045,0.19287517227255427
3784.4265,248.22799473387565,0.20094958580223793
3785.297,247.70246295002863,0.2075306858861917
3786.168,247.20239290978913,0.19668830189859504
3787.041,246.73985320771425,0.20322488498130392
3787.912,246.30964585660942,0.19379784633938066
3788.7856,245.895263933918,0.19461126652818628
3789.6572,245.49059703701695,0.19664723455100883
3790.531,245.09832632332805,0.20716960742309404
3791.403,244.73023727116157,0.20497540130208763
3792.2754,244.38044847230498,0.19488888350199748
3793.15,244.0133607304613,0.21207918403943044
3794.0225,243.58021119132198,0.20400413011341167
3794.8972,243.05506310198183,0.20828685729959256
3795.7703,242.48010151722758,0.22067677451264536
3796.6455,241.94990149875053,0.2101523417622422
3797.519,241.56729470914382,0.21340517132989983
3798.3926,241.37262952486398,0.2086463652349135
3799.2686,241.3202152396585,0.20865488933442794
3800.1426,241.29763125180162,0.22380424664650178
3801.0188,241.1798113610233,0.21157257594683876
3801.8933,240.89192564070635,0.2145771457288914
3802.77,240.4407372103858,0.21412425337089536
3803.6448,239.90787098361895,0.20502820570043268
3804.522,239.3960307101834,0.20911077784160317
3805.3972,238.99078580350968,0.21200792108063332
3806.2727,238.72446389829443,0.21563738133002092
3807.1504,238.57697939381845,0.21735374774774693
3808.0261,238.4889743350595,0.2141774361399745
3808.9043,238.38578570424107,0.20818311856788388
3809.7805,238.20992772260323,0.20992459005772487
3810.659,237.940432567959,0.23083207179378626
3811.5356,237.6000381257301,0.21822586634191968
3812.4126,237.2340201368908,0.21781517292015615
3813.2917,236.88175107029133,0.22514038663552122
3814.169,236.5556308178136,0.2275206457328932
3815.0483,236.23472659246505,0.22401350418176036
3815.926,235.89305118860287,0.216145215021582
3816.806,235.51777093526954,0.2253084099914516
3817.684,235.12014849225602,0.2278552991757045
3818.5623,234.71425809217536,0.22374980955811435
3819.4429,234.3026393585757,0.21436316639008587
3820.3215,233.8807124238964,0.2300855499760252
3821.2024,233.4442125001039,0.2125163540548608
3822.0815,233.00768065496334,0.22788526594656824
3822.963,232.59087080007572,0.2242698315274443
3823.8423,232.21007168133326,0.2376902631615856
3824.722,231.86046175647087,0.22068431138600178
3825.604,231.52296664383906,0.22857481585644607
3826.4841,231.17977638413623,0.21729796449922018
3827.3665,230.82108561061006,0.230110809033782
3828.2468,230.45555691575717,0.22621011806527314
3829.1296,230.0950641028144,0.23465337051468954
3830.0105,229.74454527034263,0.2249857754057481
3830.8916,229.38400174723876,0.22596281607501287
3831.7751,228.98084497449952,0.2254353676113598
3832.6565,228.52194794251417,0.22493165116719038
3833.5403,228.02770487537072,0.2391391181007544
3834.4224,227.5526796900918,0.2415072162792463
3835.3064,227.1457565211147,0.24455002596082528
3836.1887,226.83285712069414,0.2330884869093261
3837.0713,226.60893397011682,0.2351491147148591
3837.956,226.4555415916378,0.24068126072528756
3838.839,226.35612352116956,0.2439979814322783
3839.7244,226.30101744664807,0.23801469080711427
3840.6077,226.28439141149974,0.23253121969370738
3841.4932,226.28900840915998,0.23933812317936531
3842.377,226.27797780613136,0.24086917228918456
3843.261,226.20720073139515,0.23353005576617697
3844.1472,226.053567340378,0.23660562898411266
3845.0315,225.83442998165515,0.2338861019437426
3845.9182,225.59095256143422,0.23404678688272856
3846.803,225.3581951903045,0.23830461959302454
3847.69,225.14009127171104,0.22943248616831435
3848.5752,224.92428980533813,0.23912054296937466
3849.4604,224.70271209101088,0.24599803946626644
3850.3481,224.48013041561674,0.24239262395074107
3851.234,224.2616733651151,0.2507372887694682
3852.122,224.0348236685628,0.2382368809934228
3853.0083,223.77752365415722,0.23803655902222565
3853.8967,223.46762032121313,0.2561043061439729
3854.7832,223.0966979641535,0.2588010155060398
3855.6702,222.66638582470227,0.24131104429189795
3856.559,222.19192255458563,0.2501565839500973
3857.4463,221.70530544843993,0.24775252030208159
3858.336,221.23860059472108,0.25523300307158564
3859.2234,220.81583904232045,0.2552475945435059
3860.1135,220.43750281589678,0.24426944491388064
3861.0015,220.1019379427372,0.24758150306167684
3861.8896,219.8105386990334,0.25581882402266326
3862.7803,219.56392753923706,0.24895612126285646
3863.6687,219.3441290633274,0.2475881979756258
3864.5598,219.1085933910019,0.25291940823156567
3865.4487,218.82098346635013,0.24899006189281273
3866.34,218.47430396040525,0.2599535304293398
3867.2297,218.10032925443488,0.2539696700392468
3868.1213,217.74022148984238,0.2581954100544977
3869.0112,217.42147566869934,0.25659943916894096
3869.9014,217.14049658992604,0.26004829890149056
3870.7937,216.87597501939328,0.2486069154766895
3871.684,216.61118566802156,0.26555725509192907
3872.577,216.34019332520467,0.25075549335023556
3873.4678,216.06586755337955,0.25791849397874567
3874.361,215.7812274411656,0.2762078224992528
3875.2524,215.4712538053345,0.2689352035840585
3876.1438,215.11826528294182,0.2636561957503693
3877.0376,214.7180943305015,0.2675642556340801
3877.9297,214.2892187200171,0.277828438102136
3878.8237,213.85623735958333,0.2634178618824701
3879.716,213.43851566085883,0.27439765379224484
3880.6108,213.03029050179111,0.2842544736526317
3881.5037,212.60897567272045,0.2685874804872434
3882.3965,212.14255402815772,0.2660948330621345
3883.2917,211.61455226105642,0.2748399401000913
3884.185,211.04705369581578,0.27515372729323295
3885.0808,210.4872201063701,0.2814238177107985
3885.9746,209.98616325040456,0.2869063839969516
3886.8706,209.55086146610034,0.2829966969913723
3887.765,209.14313629036238,0.28459110564926526
3888.6592,208.70265120316571,0.28643676633014264
3889.556,208.19707128432853,0.28484415871146695
3890.4507,207.65573098115712,0.2889136965040281
3891.348,207.15048818400751,0.29332023450976535
3892.243,206.76469699046277,0.3019732266615584
3893.1406,206.54141747447255,0.28553443915081755
3894.0361,206.47544682902145,0.2767932071714806
3894.932,206.52511225507862,0.2895944270314054
3895.83,206.64606289760317,0.2986111320505735
3896.7263,206.8080509295361,0.2928862742383861
3897.625,206.99537136526328,0.29168825046304686
3898.5215,207.19148356188109,0.2886861778871883
3899.4207,207.3757390165063,0.28055581309264677
3900.3176,207.52508458561238,0.2858656869560232
3901.2148,207.63072252429362,0.2819302242848524
3902.1145,207.7041741823338,0.27560521092686224
3903.0122,207.7713013201089,0.27846444321971786
3903.912,207.8568239759073,0.29063312538004527
3904.8103,207.96858307273345,0.28894385036679054
3905.7107,208.09773306634597,0.28088333006467137
3906.6094,208.22499224634717,0.2819613053652484
3907.508,208.32830692928928,0.28440248862968015
3908.409,208.3812723260229,0.29037665058511225
3909.308,208.35469568176154,0.2912102104877203
3910.2097,208.22899702408668,0.2773082824648982
3911.1091,208.0119251145617,0.28334008410333555
3912.011,207.7427955073617,0.2857277668260918
3912.9111,207.48280205493435,0.27884363396404094
3913.8113,207.28108836147945,0.28226095375842003
3914.7136,207.14684016513988,0.28295816179867206
3915.6143,207.03984703477082,0.28915251996231695
3916.517,206.8879012575586,0.2687467105056937
3917.4182,206.62844549563087,0.29597403248276677
3918.3215,206.2380390205853,0.29394341015215264
3919.223,205.74384327352084,0.29839592061683046
3920.1245,205.20265006272587,0.2974273650665183
3921.0286,204.6840380477735,0.3081802100387565
3921.9307,204.25993088934217,0.2825329698937428
3922.835,203.98127580872327,0.30017798425717795
3923.7373,203.86884611707515,0.2923102663615566
3924.642,203.89946338281527,0.30114797501741475
