wavl,flux,ivar
3566.9744,1.3941064792449311,12.883854785515542
3567.795,1.415004338835793,10.949157981016263
3568.6177,1.435921946661889,22.612449943124822
3569.4385,1.4513857410189057,9.0369679530695
3570.2617,1.4569115116615932,20630.530266218408
3571.083,1.4515171726132632,583.5109019034869
3571.9065,1.4372141710803685,12.333056768279743
3572.7283,1.4167497879236477,9.793622406571739
3573.55,1.392261662205753,15.190387343203732
3574.374,1.3656589757543174,15.073353261556353
3575.1963,1.338974828177023,19.471629692663328
3576.0208,1.313180345219539,8451.107376737069
3576.8435,1.2882965100478956,383101.64395496564
3577.6682,1.2635019529133256,59.483583777497174
3578.4915,1.238611003512868,604.0807853266984
3579.3145,1.2150639992224195,12.832233073835761
3580.14,1.1975611734757396,14.925251389683861
3580.9636,1.1940113249122342,9.276026006618824
3581.7893,1.211418225289232,212.04808917187614
3582.6133,1.2501622333822267,538.9037428454449
3583.4395,1.30155038916518,158.48426006862883
3584.264,1.3502272450710637,21.713341812266947
3585.0884,1.3819967649822542,12.141490740133893
3585.915,1.3897705057106848,165.9553238686531
3586.74,1.376059255246941,32.23843560180944
3587.5671,1.3508915600362854,27.335359936237424
3588.3923,1.3266416634963856,50.496006946555895
3589.22,1.3116001363283039,16.18629614070739
3590.0457,1.3069119809265748,29.700666809002986
3590.8716,1.3077820428064357,29.759207921606844
3591.6995,1.30907101133085,45.6776832307351
3592.526,1.3103731807671288,21.375525266861718
3593.3542,1.3171435921937282,51.564262849618544
3594.181,1.3366795900417596,138.97187550383296
3595.0098,1.3714570573286196,17.470790186358162
3595.8367,1.413695427513414,88.76509389522552
3596.6638,1.4477131214120167,5.716666722696871
3597.4934,1.4586141263008778,15.595385447775744
3598.3208,1.442336988733026,27.7452757293436
3599.1506,1.408766181305007,9.539583508963716
3599.9788,1.375726528933252,14.668716390380778
3600.8088,1.3579774333161803,3540.1549182644794
3601.6372,1.3597769840452647,29.47265632632342
3602.4678,1.3733073435381213,288.9873438555382
3603.2964,1.383926928857664,23.1074503564235
3604.1252,1.3790221206150806,143.00474690586043
3604.9565,1.35478780531734,24.605516576376875
3605.786,1.3175614350175806,25.319136283092927
3606.6172,1.2785749982673504,343.2628470956155
3607.447,1.2487947160062438,11.74316564696369
3608.2788,1.235445609848241,32.39329897928831
3609.109,1.2412402542153536,34.850701231461386
3609.9392,1.2626339992799203,36.105335757153966
3610.7717,1.289978058048861,41.39064863763346
3611.6023,1.3113459966733505,95.98788148335109
3612.435,1.3195963499940297,44.98147422969228
3613.266,1.315276148392164,6.869320988634845
3614.0994,1.303813087131376,46.213918948806224
3614.9307,1.289948717283952,21.972512381780486
3615.7625,1.2751101104238245,15.513754237176274
3616.5962,1.2594493254752168,11.233139245976991
3617.4282,1.244373590630166,13.832570159213823
3618.2625,1.2317987583218206,98.30505909973247
3619.0947,1.2224908979607683,46.88293464697347
3619.9292,1.2162385628924135,38.71570077763233
3620.762,1.2148154744208564,28.64661394639277
3621.595,1.2231162159687332,31.186663948530715
3622.4302,1.24666738383169,29.00979374882411
3623.2634,1.2868597638618209,47.20477085228113
3624.0989,1.3388903729400905,13.390383369895687
3624.9326,1.3922405554086985,19.357056600370605
3625.7686,1.4355090858342494,21.645806212382876
3626.6028,1.4598406745599004,50.13114704318218
3627.437,1.4624597390067562,14.13384937581083
3628.2734,1.447063668765292,62.60414091721416
3629.1082,1.4234381321579965,15.925028608422489
3629.945,1.4044780861751558,19.140190488408855
3630.78,1.4016185995641373,64.32517460372722
3631.6174,1.4196032932177363,19.026995751826576
3632.453,1.454378975428878,13.089054548259389
3633.2883,1.4951705098111194,8.691076588242547
3634.1262,1.5289410836927146,17.463762293866914
3634.9622,1.5453037564897987,18.048823818346854
3635.8005,1.5410225504143364,11.841382209703312
3636.637,1.520083671540535,8160.390366194155
3637.4756,1.49010903604711,8.7536325924569
3638.3123,1.4583597127581422,31.400403512938606
3639.1492,1.4298428337139066,9.076654437199903
3639.9885,1.408690302488775,134.57303540452068
3640.826,1.3984939093932456,16.979889431452975
3641.6653,1.3998710318536494,18.015147842433848
3642.5032,1.4090553122726173,10.759978048449963
3643.343,1.4197860411696925,16.571113260529625
3644.1812,1.4278294481891267,25.44017331999821
3645.0195,1.4345999451638642,8.535572349442376
3645.86,1.4464235381985229,19.894040180686623
3646.699,1.4699376518696285,10.849816202013033
3647.5398,1.5072660276977872,27.546188389373167
3648.379,1.5538661739710296,7.486659192696956
3649.2202,1.601865863745165,7.135296903709262
3650.0596,1.6437096647667029,123.96209006568039
3650.8994,1.675508737281152,12.865125167607903
3651.7412,1.6962499388517729,22.376161327271888
3652.5813,1.70628298309298,11.08047186178679
3653.4236,1.706162308704636,11.444294798071642
3654.2642,1.6957998722128376,17.393903483419454
3655.1067,1.6752108853910341,18.14723858515092
3655.9475,1.6467442144437945,299.1506540967225
3656.7886,1.6160267411022329,278.175016063311
3657.6318,1.590181187080595,233.77449000840863
3658.4734,1.5741148354583758,9.5113433638552
3659.317,1.5680262206820461,8.766282940504652
3660.1587,1.568986390745103,19.601375641551826
3661.003,1.573134423417536,23.813119514008246
3661.845,1.5766562429139166,6.100967232157837
3662.6875,1.5762252490346471,12.142138020619223
3663.532,1.569860075284446,9.096114660615154
3664.3748,1.5572405670407203,48.538597041217855
3665.2197,1.5383652351469352,7.346914798972486
3666.063,1.5138249891643576,32.47081387782677
3666.9084,1.487809354376989,14.803243881074032
3667.752,1.4713054691740328,10.268738459802586
3668.5977,1.4779296951840621,104.61042630046302
3669.4417,1.5146051551788944,52.822003800219036
3670.286,1.5747431967875942,151.6158744558596
3671.132,1.6410362713571773,13.544297555016191
3671.9768,1.6947626307145514,16.19716120849045
3672.8235,1.7258422912022418,7.645956210594056
3673.6685,1.7344745818978775,170.9194926764069
3674.5156,1.7274098999389982,11.11782647310147
3675.3608,1.7115247731257233,11.082010705734554
3676.2063,1.6902828013690816,32.71357959349534
3677.0542,1.66411662214075,12.816804616472727
3677.9,1.6326637546406915,9.99227030241892
3678.748,1.5953000465478138,50.25032567713941
3679.5945,1.5523060361408487,24.276513383607554
3680.4429,1.5057988887171936,16.05486962522313
3681.2896,1.4626529265485735,79.63388744277472
3682.1365,1.4332616990999567,239.13422755152197
3682.9856,1.4270511721389785,221.37639652175454
3683.8328,1.4459701240586025,43.46859679863728
3684.6824,1.4815996230263897,15.824423580582796
3685.53,1.5181566864261606,20.52217600590612
3686.38,1.5413093608993127,4.597589150847058
3687.2278,1.5456909775112502,129.00107341251606
3688.0762,1.5372019791051073,364.39681042755115
3688.9265,1.5269596414303321,48.16483667719362
3689.7751,1.523657369829612,19.712720147964006
3690.626,1.5302180981192948,168.31581997292017
3691.475,1.5454402387196269,36.56804605926297
3692.3264,1.56570289165737,1652.2077148083283
3693.1758,1.5842099833716756,17.687558770179553
3694.0254,1.591795331334845,16.867417411590473
3694.8772,1.580811716692737,20.93990170236843
3695.7273,1.5510561783184658,11.023371587372893
3696.5793,1.511915348982425,32.16344095980497
3697.43,1.4789430471068683,9.02864661494111
3698.2825,1.465197392857952,76.5112351069378
3699.1333,1.4745954971568014,21.86414380367475
3699.9841,1.500375621678829,21.68809037409676
3700.8374,1.52996201135958,13.112884324905925
3701.6887,1.551600047129189,23.781808101671473
3702.5425,1.560680237435107,17.52405382532717
3703.3943,1.561316839012058,8.398168092042509
3704.2483,1.5629210709736856,101.27256985690944
3705.1003,1.5725358192255996,48.603990479043816
3705.9526,1.5896738021165908,7.9791666104134915
3706.8074,1.608379858638461,33.98643422348419
3707.66,1.6233804457931058,20.582398179172657
3708.515,1.633902041647504,6.522296785239778
3709.3682,1.6413669673320435,8.202587737265883
3710.2234,1.6461821790500035,12.819987690754264
3711.0771,1.6467262421382414,15.688487996953844
3711.9307,1.640712472803605,11.678476854251091
3712.7866,1.6263116714593926,29.34591669543279
3713.6409,1.603008928152551,22.395885995167788
3714.4973,1.5719022660570308,30.28844995208614
3715.3518,1.5362304900917472,50.831578986558185
3716.2085,1.4999815314028107,11.9745981280619
3717.0635,1.4674404019473881,12.86123486396922
3717.9185,1.4420780835332716,20.62585351819266
3718.776,1.42662193634609,10.140098177986896
3719.6313,1.4227554159223446,17.971154665846363
3720.489,1.4306636786914144,13.72889321783856
3721.345,1.4494083130978082,20.674996380327386
3722.2031,1.4772300441168114,13.534755642070738
3723.0593,1.5103842147123405,213.14728112016957
3723.9158,1.542479424168975,14.837177415158276
3724.7747,1.5652427399440216,6.097404877828416
3725.6316,1.5725547690468307,10.76227348839125
3726.4905,1.5655245718468456,24.150307844141793
3727.348,1.5527707509802549,7.761315400138471
3728.2073,1.5450594411012557,7.214934979582223
3729.065,1.5485520028255093,16.340655996025056
3729.9229,1.5621702741123955,15.618604609546146
3730.783,1.5806347425884038,1832.3666961487802
3731.6414,1.598631055974443,12.698293797844068
3732.5017,1.6131031776051188,8.35077918630852
3733.3604,1.6222423623307953,9.786330703856878
3734.2214,1.6243759872859729,23.751955029706423
3735.0803,1.6178691358504234,15.237890144035777
3735.9417,1.6028382960407006,9.729296403754791
3736.8013,1.5828869851628968,16.438175911543862
3737.661,1.5641919859660542,14.02321967219027
3738.5227,1.5524636889045154,51.25980563641577
3739.3828,1.550022366167168,11.440983424460388
3740.245,1.5551804518699412,15.669104788453676
3741.1055,1.564127337545488,160.8549806907423
3741.9683,1.573136371853388,6.74835927687915
3742.829,1.579651672828187,9.482261871552028
3743.69,1.582738626193142,59.688776553693685
3744.5532,1.582526550198553,20.309433234578314
3745.4148,1.5794069576918381,10.197248979408833
3746.2786,1.5737630011756376,6.5914847665600185
3747.1404,1.5667146404341046,14.779598339153928
3748.0044,1.5604400155114193,23.147545922781763
3748.8667,1.5570446176261412,19.270557308638306
3749.729,1.5562485452963148,490.3983262555102
3750.5938,1.5547737458234157,19.16548741327135
3751.4565,1.5485371312520981,12.789634252828527
3752.3215,1.535708000775905,62.11337968318517
3753.1848,1.5176229335460192,36.56184646718326
3754.0503,1.4965970150441648,16.045852401791
3754.9138,1.4743558541643274,8.510846521874512
3755.7776,1.4520496445127338,43.11047241563172
3756.6438,1.4317852553055908,23.715129658810216
3757.508,1.4168382661975352,21.105533614763118
3758.3745,1.4099102524330454,11.45602104724537
3759.239,1.412192739689295,30.78372913787264
3760.106,1.4230448023934406,8.86423979025064
3760.971,1.4399798622572169,40.61893879572825
3761.8362,1.458832389630849,162.98506854086494
3762.7036,1.4746939544268896,16.19537912205029
3763.5693,1.4841396277913557,16.882849774489365
3764.437,1.4876907230691712,15.033151642567002
3765.3032,1.4897344997602597,23.28153145930337
3766.1714,1.4957928382521937,47.08365804486433
3767.0378,1.5081138925575055,38.07592004083129
3767.9043,1.52308914855561,32.22521920155423
3768.7732,1.5329698521941628,22.94871780385443
3769.6401,1.5314372917301824,87.20443720396408
3770.5095,1.519189152055228,43.052601917952224
3771.377,1.5042903909053063,23.3454554285623
3772.2466,1.4961116186788896,56.29186494912549
3773.1145,1.4979805347299855,20.331456300524973
3773.9824,1.5045501934140022,10.335084281811016
3774.8528,1.5067460482174235,107.10883309977156
3775.721,1.4992832860126286,66853.58604559996
3776.5918,1.4843092822863744,18.03242183956762
3777.4604,1.469243018911017,7721.952518565556
3778.3315,1.4614569659289478,204.9718936118651
3779.201,1.4643810100917654,16.718892952700347
3780.0703,1.475666220478177,14.25924305480783
3780.942,1.4887684907611844,60.3087776399215
3781.8118,1.4972549692781614,50.465416452584094
3782.6838,1.4996784572574007,7.031630178122716
3783.554,1.5000826481838963,8.246379261265293
3784.4265,1.503912940766833,8.27501480012793
3785.297,1.5130452289282388,16.362642585592337
3786.168,1.5242313093030904,45.69245830271603
3787.041,1.531064426391056,32.54927481045818
3787.912,1.5276827639307953,7.7309598383087055
3788.7856,1.512486648943384,99.6213289904725
3789.6572,1.4896671388509208,7.272689163560769
3790.531,1.4666697549147074,8.566608361935069
3791.403,1.449998435851629,10.295807715594446
3792.2754,1.441719306321622,35.84052267792197
3793.15,1.4399251976169902,15.313070707279225
3794.0225,1.4409245678629445,13.141042608378017
3794.8972,1.44132785702896,17.375508083962533
3795.7703,1.439522050394308,14.77058309574523
3796.6455,1.4368750774681325,9.926058883416482
3797.519,1.4380343266819877,22.194340090572
3798.3926,1.4489261642339546,18.82274742389334
3799.2686,1.4730666621327473,22.572438346988925
3800.1426,1.5082768335235368,7.958848342977224
3801.0188,1.547571937789651,9.743466628084555
3801.8933,1.5823418994656158,15.417257578312555
3802.77,1.607121533466673,34.312019555898445
3803.6448,1.6204233102259007,44.539411457433324
3804.522,1.6234716076782563,11.319065141476322
3805.3972,1.6175633948642139,6.539364697847588
3806.2727,1.6033527445355815,9.968496403452967
3807.1504,1.5810973249789462,31.66081307272235
3808.0261,1.5511124832981438,9.425216618644813
3808.9043,1.5138626878046924,15.00149808914301
3809.7805,1.4725134699704734,13.640117366645935
3810.659,1.433999068742022,20.992085486487895
3811.5356,1.4077840099492396,35.09268437363812
3812.4126,1.399574907646713,13.48793082978542
3813.2917,1.407389306615989,7.699085268455279
3814.169,1.4228810975990869,29.07198439558706
3815.0483,1.4376117318680637,20.214809063504394
3815.926,1.447978995821756,9.344337738891781
3816.806,1.455618185468185,13.583117183738473
3817.684,1.4633615572857874,313.26371204394036
3818.5623,1.471681357597528,6.08690771580311
3819.4429,1.478259156535492,15.18982907252147
3820.3215,1.4803396055036835,13.30447966178221
3821.2024,1.4771679856143511,15.379024520438247
3822.0815,1.4702441392245231,13.108564267915565
3822.963,1.4618867351027276,14.001657164799067
3823.8423,1.4537415876377764,7.67223518210789
3824.722,1.445976646468369,12.071501935552494
3825.604,1.438051570576224,7.896161417237012
3826.4841,1.4306192724928817,15.664873417014192
3827.3665,1.4268672167117118,9.979049980618528
3828.2468,1.4315881910095756,23.396117789546913
3829.1296,1.4472772154448077,26.457270514761923
3830.0105,1.4701491694293616,25.92644915536854
3830.8916,1.490563500975739,9.374648175996022
3831.7751,1.498288970967746,11.807428938211464
3832.6565,1.4895512801117612,13.16870567524046
3833.5403,1.470390552325592,14.493933610188266
3834.4224,1.4535564581696099,15.376808986693078
3835.3064,1.4505244726103856,15.03884808437532
3836.1887,1.4644223664270808,24.015934629767575
3837.0713,1.4882445099573054,22.789531269977303
3837.956,1.510177042253522,19.777005916496808
3838.839,1.5214256164591666,10.0305936779438
3839.7244,1.5208831484352199,27.589157369146278
3840.6077,1.5129230672717553,19.130706935953565
3841.4932,1.5025580459550398,16.88727637479342
3842.377,1.4929749069160496,14.741361217822151
3843.261,1.4861387013166987,17.412395274638957
3844.1472,1.4839008833938105,20.721028824576305
3845.0315,1.487051642135275,90.18219511855905
3845.9182,1.493755178746639,13.600585290137097
3846.803,1.4997833341740245,16.34545272841644
3847.69,1.5009409596705823,6.141319307909384
3848.5752,1.49534814667718,10.003510557849271
3849.4604,1.4839065052533356,7.81017637007004
3850.3481,1.4686412995893952,42727.55098914956
3851.234,1.4512835558208952,15.918977631134295
3852.122,1.4334723550508688,11.95648292939227
3853.0083,1.4187527289920232,26.730030853158553
3853.8967,1.4117249327326904,41.6430446847422
3854.7832,1.4145072596060029,126.29945826148544
3855.6702,1.4234345506645414,16.579375829601076
3856.559,1.4308386022684816,13.290358840629326
3857.4463,1.4307395302599775,16.42378225532431
3858.336,1.4236419871344477,19.928250789341813
3859.2234,1.4158772064718639,35.57934615544634
3860.1135,1.4140245628214578,115.49613883803531
3861.0015,1.4196436342719925,13.396447883908824
3861.8896,1.4286566666334686,19.804871221052558
3862.7803,1.4354450709134543,22.472594021569144
3863.6687,1.4371575449727283,9.374643847747658
3864.5598,1.435102968186575,31.99930509624856
3865.4487,1.4330425812162542,17.849629222827044
3866.34,1.4345279445023706,44.36198518585837
3867.2297,1.4407766892019507,10.907228412272769
3868.1213,1.450026067336191,23.563948515576044
3869.0112,1.4585687797744773,71.72498031018311
3869.9014,1.4629007874077706,156.34186987400537
3870.7937,1.4609863674098884,32.80491861315012
3871.684,1.452354037206552,11.424280795511894
3872.577,1.4375205803891824,23.601591474442152
3873.4678,1.4182641650652383,31.528145238110177
3874.361,1.3981232717758418,18.848645243535664
3875.2524,1.3827344585579788,19.711252120607615
3876.1438,1.3773574138915854,25.098367885025155
3877.0376,1.3836600253981226,31.003656009082572
3877.9297,1.3977162709313016,10.818785663678824
3878.8237,1.4119327809179014,43.70845707679818
3879.716,1.4193209895504189,19.00910869596293
3880.6108,1.4171705473305833,16.403781756865484
3881.5037,1.4070528222497645,16.902314406213506
3882.3965,1.3923201500662337,13.774529562344124
3883.2917,1.375788927053933,20.91006060505774
3884.185,1.359615488851034,19.23606606635008
3885.0808,1.345685111940551,11.05413754557143
3885.9746,1.3356633094064374,50.93296351991473
3886.8706,1.3294204334785067,26.56389733344343
3887.765,1.3246616583242745,19.18855478137109
3888.6592,1.318405853457378,9.177741306617008
3889.556,1.3097051511664641,22.844095188028984
3890.4507,1.3008819539112881,14.512047588516875
3891.348,1.2956690174445373,21.20237151382451
3892.243,1.296438471219598,18.24037272361974
3893.1406,1.302949559714448,18.281412579039255
3894.0361,1.3135846036079923,11.499084716275206
3894.932,1.3270204802922696,21.381753989253994
3895.83,1.3422904024809346,22.634412787872527
3896.7263,1.3579368464579338,31.24326529915754
3897.625,1.3725829903342281,16.003229770029623
3898.5215,1.3861136198644015,26.098896546201722
3899.4207,1.400799291354522,23.40766175423674
3900.3176,1.4195127165591492,16.38762948597156
3901.2148,1.4427429593895575,16.217144909630054
3902.1145,1.46608401737826,19.241135066086215
3903.0122,1.481199067982779,4.787842494055333
3903.912,1.481156933104042,10.68910276368719
3904.8103,1.4656900548560199,22.544976066610595
3905.7107,1.4425931177655762,13.174502497436002
3906.6094,1.423467643231726,24.804515603894973
3907.508,1.4162157202019272,12.720548210535942
3908.409,1.4206980004972962,60.712746164150325
3909.308,1.429641069279249,11.390824578712305
3910.2097,1.4339774397503284,9.472522687000708
3911.1091,1.4284361006987776,10.361968234442655
3912.011,1.4141428567207124,6.440581900350481
3912.9111,1.397140165618955,8.873104238860266
3913.8113,1.384359793780714,25.871931594497966
3914.7136,1.3804448523243085,20.678845961711847
3915.6143,1.3863925021099854,24.37706534541149
3916.517,1.3997515498936703,22.994380030713756
3917.4182,1.4158903483271081,19.008081974422975
3918.3215,1.4302596021866774,13.931069673470542
3919.223,1.4397593341446502,12.488947663439298
3920.1245,1.4430541613081458,10.421604725863158
3921.0286,1.4397520332710498,11.782574359335076
3921.9307,1.4308183294968781,10.523126379695734
3922.835,1.419722005690939,13.703739557784543
3923.7373,1.4124262420174063,17.801138330664294
3924.642,1.4143694440183352,15.323520699581886
3925.5452,1.4267723579964027,7.872129700100386
3926.448,1.445430368334252,18.66607865392157
3927.3535,1.4634364797832493,11.392546900199154
3928.257,1.4749683480425957,7.550199662943285
3929.1628,1.4776822890606323,12.117871148224602
3930.0667,1.4720662086138296,10.009988231574443
3930.9731,1.460462909289083,12.890044197984833
3931.8774,1.4467455780159928,20.41808960770122
3932.782,1.435187998494511,21.294051569342052
3933.6887,1.4283308873055698,235.66238234840057
