wavl,flux,ivar
3566.9744,7.951936156769794,4.882496253441645
3567.795,7.934761017773237,5.020634240192756
3568.6177,7.925006190313993,4.575798071842192
3569.4385,7.918109629949766,5.402020795207105
3570.2617,7.907425950883276,4.65812820048996
3571.083,7.889157110852696,5.635004216644938
3571.9065,7.864798095867383,6.142409929271355
3572.7283,7.839982586191935,4.653870925630275
3573.55,7.820094953946165,5.845622333598418
3574.374,7.807557515180837,4.094608039396472
3575.1963,7.8018301003263,4.604043878826658
3576.0208,7.800676907624221,4.824433167964193
3576.8435,7.801116579685265,7.264944912405208
3577.6682,7.799385951788952,4.801433596903665
3578.4915,7.791823820480408,5.6562752545229
3579.3145,7.777029889735386,6.273095316600122
3580.14,7.7574017733640455,4.759307289706825
3580.9636,7.738781671446166,4.36371220845654
3581.7893,7.727981999417594,5.321314735709433
3582.6133,7.730727008456768,4.602648448699094
3583.4395,7.749302293998187,6.030479129049005
3584.264,7.780498624323146,8.228342137581421
3585.0884,7.8156974845878855,4.828574316200077
3585.915,7.843966517918417,4.894473577552785
3586.74,7.8566735108242405,4.231071248116691
3587.5671,7.8507652081688075,5.195953238686556
3588.3923,7.827663944424285,5.673158462895308
3589.22,7.790572984923426,5.179904138437374
3590.0457,7.743726761501644,5.910205517576873
3590.8716,7.692416689499069,5.7192832465092005
3591.6995,7.643889073833598,6.602932285668798
3592.526,7.606244510522469,5.780385766903999
3593.3542,7.583957594518348,6.9331554162689875
3594.181,7.574467030740767,6.317154170546116
3595.0098,7.5675282387403,5.376218539553155
3595.8367,7.550980156011062,5.317242828583647
3596.6638,7.518794392102129,5.664211812871965
3597.4934,7.475631790669789,5.744972468893146
3598.3208,7.434260353017621,5.706752739500582
3599.1506,7.40595703805208,7.1560618474442075
3599.9788,7.393675002640182,5.497456088304858
3600.8088,7.390846736388368,5.766637652903886
3601.6372,7.387682969509969,6.2952206246442115
3602.4678,7.378235418786611,6.5917280704550985
3603.2964,7.36402712453928,5.0562794424406965
3604.1252,7.352568788308247,5.291652121988175
3604.9565,7.35277881593761,7.58881830691352
3605.786,7.369128268048674,5.183770205934685
3606.6172,7.397803673905237,6.75158983075664
3607.447,7.4277114516687766,4.261010585129279
3608.2788,7.447536241149129,4.920206779053315
3609.109,7.452787516740599,4.547973340576991
3609.9392,7.448115477824022,6.274386823956512
3610.7717,7.442385410079801,5.091503752476119
3611.6023,7.442275016771469,6.510388886854928
3612.435,7.449055659506905,4.5207281527118175
3613.266,7.45946077242234,5.711329756937995
3614.0994,7.468101022972324,6.941518251187248
3614.9307,7.469489821102735,6.525305986062094
3615.7625,7.460326702905259,5.477095805978519
3616.5962,7.441210753620269,6.184811018595012
3617.4282,7.417062938116601,6.859556614326107
3618.2625,7.394481251365427,6.433047265959514
3619.0947,7.378581976143152,6.422592907774335
3619.9292,7.370320342581513,5.847363359019598
3620.762,7.367026341383727,6.235364853678703
3621.595,7.36399025367865,4.988598605587652
3622.4302,7.35622625229216,5.977206169726416
3623.2634,7.339819599672713,5.5669843091597615
3624.0989,7.3129513073477925,6.266347400851349
3624.9326,7.276926978218347,6.032214335725207
3625.7686,7.2352360752810405,5.508183194667846
3626.6028,7.193253798800496,6.316340658005756
3627.437,7.157007873404737,5.958944029442879
3628.2734,7.132438674975991,6.119506750137622
3629.1082,7.123128546308607,7.191934715591119
3629.945,7.127920500923768,6.754050648441589
3630.78,7.142347631695834,5.921620346528765
3631.6174,7.162830925364034,7.2296013670917505
3632.453,7.189401177171953,8.668909253986584
3633.2883,7.224835399403878,5.647450814799574
3634.1262,7.270302055959236,4.699467356918655
3634.9622,7.320810805561281,7.26447854191173
3635.8005,7.365390716620534,6.6066039075653675
3636.637,7.390448274919142,6.863865661136862
3637.4756,7.388263186470986,5.997032256700794
3638.3123,7.362435502021958,5.146840717469935
3639.1492,7.32690027223091,7.283030967632814
3639.9885,7.298018008435896,7.117386312239283
3640.826,7.285809464274077,6.551253274322592
3641.6653,7.289176827109791,5.099601853162742
3642.5032,7.298772725117043,6.148260505494311
3643.343,7.303951750492813,4.548119386501639
3644.1812,7.299172057849002,6.105422118919414
3645.0195,7.2860806833205976,6.337698551817374
3645.86,7.2704911636667395,5.126054327171284
3646.699,7.257592211591041,6.471111490604839
3647.5398,7.248513340642079,5.076377995046324
3648.379,7.240963542929619,6.62295500770275
3649.2202,7.231662845520358,6.241419398822975
3650.0596,7.218604649456377,5.763056524590782
3650.8994,7.2012254787557985,5.323035909023586
3651.7412,7.179801376389585,7.0602281556743485
3652.5813,7.155289289865868,7.7496994561894965
3653.4236,7.12945787801226,6.408353354689961
3654.2642,7.1056827549643335,5.786711214942193
3655.1067,7.0874032711769805,5.0986779574696754
3655.9475,7.07601952228871,6.014681385527791
3656.7886,7.068745759074345,6.290821508086571
3657.6318,7.059700352706554,7.6912574439420975
3658.4734,7.043785436299437,6.548521414288433
3659.317,7.020765163865602,7.224952808245663
3660.1587,6.996573572461969,5.778648785459739
3661.003,6.979175634607354,5.472659989926513
3661.845,6.973006400092696,6.313911468277158
3662.6875,6.975480730542298,5.499832626637589
3663.532,6.979371744752591,6.432174593642876
3664.3748,6.977990099483925,6.948862471465958
3665.2197,6.969453597620898,6.701609451359299
3666.063,6.95743543681262,6.524141099663034
3666.9084,6.948680283105369,5.8778943864451545
3667.752,6.949807057445586,7.024977285840569
3668.5977,6.9647423623899,6.00851747432441
3669.4417,6.99347878304192,6.904582991805974
3670.286,7.031290022268026,6.859545540369962
3671.132,7.067637429661758,6.505670375689782
3671.9768,7.0872714124717975,7.200590814086833
3672.8235,7.077437389576937,6.509375782221191
3673.6685,7.036927746487299,7.1007906339718385
3674.5156,6.978624666544792,6.994954751614765
3675.3608,6.9216836443022896,6.448934124467773
3676.2063,6.8779464904133,7.512550745106778
3677.0542,6.847366526426785,6.651308722351657
3677.9,6.823889109848861,6.599662177837571
3678.748,6.8038058957413305,6.231883090602348
3679.5945,6.789043142437649,7.313710830122466
3680.4429,6.782125076017454,6.998284758366692
3681.2896,6.780808884890442,7.338116777951107
3682.1365,6.777552377879905,6.217322198987438
3682.9856,6.764443912981663,6.475774260689136
3683.8328,6.738908819842228,5.455794461796967
3684.6824,6.70531944127476,6.060857352645653
3685.53,6.672785231879783,9.455648281833142
3686.38,6.649486290055411,7.6117464057757935
3687.2278,6.63911394172266,12.568773892757529
3688.0762,6.639759907207846,8.288823039271954
3688.9265,6.647193746515087,5.967933394003048
3689.7751,6.65880658874917,7.338050442377833
3690.626,6.675045949150851,8.090066223572851
3691.475,6.696215091882036,7.229230448841132
3692.3264,6.7189804663028845,5.66863060058089
3693.1758,6.73637407035454,8.356875415564854
3694.0254,6.743010030717005,7.942619639223724
3694.8772,6.739123277661741,6.254564718109046
3695.7273,6.730031670400956,6.82204772928176
3696.5793,6.721222553549417,6.612680680583933
3697.43,6.714090220804841,8.378679786023508
3698.2825,6.705460858446157,5.519962487836573
3699.1333,6.691052265729033,7.372610535663586
3699.9841,6.669226843004915,7.119355919923223
3700.8374,6.642710951931346,8.281027344036604
3701.6887,6.617879978019854,7.4466045195943025
3702.5425,6.601270080615524,7.296696303149322
3703.3943,6.596255989116321,6.753174406774045
3704.2483,6.600234058618049,6.098623951314425
3705.1003,6.60549357591367,6.700906136128127
3705.9526,6.603460312629312,7.483730643182279
3706.8074,6.589958895955347,6.348959539143627
3707.66,6.568146812417889,6.899526126262154
3708.515,6.545942858826427,7.019483348949855
3709.3682,6.530418743228261,8.072773431504967
3710.2234,6.522436662661391,9.474317256058535
3711.0771,6.516966076920321,7.513286330084134
3711.9307,6.507693622792845,6.269570561831482
3712.7866,6.492149471909921,7.209599320820681
3713.6409,6.4731778232923185,8.763064962483245
3714.4973,6.4556283542926005,7.33141473110272
3715.3518,6.442310187187509,9.65587661800441
3716.2085,6.431634695269212,6.341361251031756
3717.0635,6.419310254665634,7.783162435814837
3717.9185,6.401511279032336,7.607065750252428
3718.776,6.377797189125591,9.441398471972605
3719.6313,6.352154262484907,7.515545116305452
3720.489,6.330711485465764,8.24735506880435
3721.345,6.318675445554723,7.39695893904064
3722.2031,6.317362915491213,8.121702530357032
3723.0593,6.324553559936948,8.297966829618733
3723.9158,6.336526190168755,9.143569177024718
3724.7747,6.349951630139334,7.685348338613711
3725.6316,6.36256227929249,9.027052559625226
3726.4905,6.373885184563319,7.0021172409043775
3727.348,6.3848641717894585,9.70479593558409
3728.2073,6.396115691156244,8.813168638903546
3729.065,6.404931942704701,7.409601157470206
3729.9229,6.40505013659609,7.084759656452896
3730.783,6.390277629761343,7.7176106794514965
3731.6414,6.360014615991696,7.167674583654953
3732.5017,6.320896151753783,7.1751442254052336
3733.3604,6.2835598501656,8.102504352659128
3734.2214,6.255684726351235,9.164482132942513
3735.0803,6.23873012490209,8.069159222948056
3735.9417,6.228503238685881,9.68223349884466
3736.8013,6.219597448465945,8.326845095841975
3737.661,6.208401592898799,10.084120034412347
3738.5227,6.1941721576009,6.205833413637901
3739.3828,6.178790162882441,9.622291641970293
3740.245,6.165336173548167,7.101013850792601
3741.1055,6.156328959686638,8.074137059876376
3741.9683,6.151877048432787,8.458579739914649
3742.829,6.150211541119959,7.880631695009488
3743.69,6.149306588654095,7.5049616878080565
3744.5532,6.147878730570272,8.672637248808785
3745.4148,6.145158205233158,8.16320234190023
3746.2786,6.140972126392514,8.52513857489688
3747.1404,6.136528007523562,10.088433419895946
3748.0044,6.133846331571381,12.091098361939448
3748.8667,6.1333751063595425,10.22413050826853
3749.729,6.13202277003982,7.82897055663626
3750.5938,6.124676551981104,8.568975583723006
3751.4565,6.108632943582056,7.6677871929520025
3752.3215,6.086724541962312,10.464104989111528
3753.1848,6.066619088729915,8.795177909412068
3754.0503,6.055997309208535,15.883099325558996
3754.9138,6.058309188675572,9.958235946074955
3755.7776,6.07057446831521,10.0064535120396
3756.6438,6.0840102354846275,9.742485890265097
3757.508,6.086075152493493,8.260736908257869
3758.3745,6.065319902329054,8.143110039912255
3759.239,6.018465125939701,6.336074347310406
3760.106,5.9551326721765045,7.710722178436975
3760.971,5.895966438998881,7.380715324090024
3761.8362,5.860478638365639,9.753191758766635
3762.7036,5.85649566481732,6.966510992279816
3763.5693,5.877816258718955,7.470107017127164
3764.437,5.911405506826393,8.350342003827963
3765.3032,5.9455109571021865,8.836795071586621
3766.1714,5.973177303167338,9.535672886014979
3767.0378,5.990578931778631,8.639563551561038
3767.9043,5.9961174531335235,8.337783915959072
3768.7732,5.990170074216312,11.152884804957296
3769.6401,5.975266067618666,8.784221332742995
3770.5095,5.955068594253745,8.433249199319878
3771.377,5.933637897770316,9.64080654811578
3772.2466,5.914743978005291,9.398355904261544
3773.1145,5.902048465849012,8.491144870394653
3773.9824,5.897802608311255,6.876610709078183
3774.8528,5.901454407313241,9.723661086322156
3775.721,5.908924073793599,12.05309218420466
3776.5918,5.91450894271885,7.5772820271506705
3777.4604,5.91425502417983,8.684265192642233
3778.3315,5.908027613220454,8.833620519319386
3779.201,5.897988071414078,8.668279353941431
3780.0703,5.885610371727325,9.027919065608723
3780.942,5.871367378941779,12.652245334362
3781.8118,5.8578765183107935,10.583369362642909
3782.6838,5.852361882815351,9.031778923094038
3783.554,5.864974000511613,9.347941908046169
3784.4265,5.901764096075766,8.272509768693457
3785.297,5.95615989981224,9.143722540894437
3786.168,6.007380298759473,10.856206670599086
3787.041,6.029149597744788,2.1009665232386046
3787.912,6.005637335848245,10.470708740113714
3788.7856,5.941901684495166,10.375561503311662
3789.6572,5.859993781231162,10.184058267501008
3790.531,5.78356732592367,11.29232384675968
3791.403,5.727423027387125,8.719453317217322
3792.2754,5.6941321263665685,9.575502045142274
3793.15,5.67921524415713,11.230198780014032
3794.0225,5.67601071936654,11.324471486272115
3794.8972,5.6783422818081055,10.357738345473752
3795.7703,5.6818976587555685,8.13406891410968
3796.6455,5.684437729446735,9.112113121985088
3797.519,5.6847360357247405,9.793613636973907
3798.3926,5.681039385236998,8.931273995495708
3799.2686,5.670760137741115,9.588878537536178
3800.1426,5.652452829964258,10.710728137228552
3801.0188,5.6276025313732445,9.314901133198989
3801.8933,5.600679355474479,12.95316463397041
3802.77,5.576557922863006,11.592273007035057
3803.6448,5.559402140794157,10.555746001213251
3804.522,5.552232304982715,10.438663111825896
3805.3972,5.556767118556272,14.17583680689155
3806.2727,5.5711390434050285,9.845838933496246
3807.1504,5.588685033492997,12.55759935210732
3808.0261,5.6004169218676525,9.20320626335121
3808.9043,5.6010601286825334,10.409664073697014
3809.7805,5.592710638061502,9.05746623538003
3810.659,5.583107167308909,10.029090754218334
3811.5356,5.579974198196479,8.341163058701946
3812.4126,5.585865323724893,12.591626895810116
3813.2917,5.59704974508154,11.065989264883164
3814.169,5.605892299209268,9.162854509054037
3815.0483,5.605439815503352,8.734253149999676
3815.926,5.593169261437608,10.25630566803392
3816.806,5.5719683308073895,12.618405186368832
3817.684,5.5478511548698,10.495252327235633
3818.5623,5.525730420526744,9.834192065955495
3819.4429,5.507494270674159,10.690384660611661
3820.3215,5.493331921189291,9.295880422296934
3821.2024,5.483567782346197,11.553214387412998
3822.0815,5.479119520392622,11.071355966163441
3822.963,5.479725389147273,10.325796142869994
3823.8423,5.483116040134265,12.217199424547353
3824.722,5.485928844371445,9.572598190356707
3825.604,5.4852379353565945,10.740117044900744
3826.4841,5.479387864806107,11.502816458532754
3827.3665,5.468023998019768,9.521131712057942
3828.2468,5.451977850007576,11.961434218526474
3829.1296,5.432600229958138,9.5863390380099
3830.0105,5.411426634156565,10.774053247997482
3830.8916,5.389487563095677,10.79255149738698
3831.7751,5.367605549437276,11.794554462237821
3832.6565,5.346860770636233,12.646564363952102
3833.5403,5.328036641017905,9.062117886160197
3834.4224,5.311510634947744,10.636774866855568
3835.3064,5.296710058568495,9.402458879134059
3836.1887,5.28297302010096,12.802129490175252
3837.0713,5.270237613928256,15.324711317404718
3837.956,5.259686483659664,10.740303367865426
3838.839,5.253648139335672,10.511686278828279
3839.7244,5.254598669237176,10.740207808096752
3840.6077,5.263701207317531,11.165559028030701
3841.4932,5.279248828990382,12.726821421402608
3842.377,5.296312883643144,11.186172734955882
3843.261,5.308854043898632,12.914643995016398
3844.1472,5.312242763081363,9.674156429952719
3845.0315,5.304701565702645,11.280342395562698
3845.9182,5.287171260735937,12.614198305383276
3846.803,5.263055024823624,10.594602711539483
3847.69,5.237760732720968,10.702975475722624
3848.5752,5.218153486933224,11.494009831425162
3849.4604,5.209630927927875,13.488607459448431
3850.3481,5.213314137613092,11.60782789236048
3851.234,5.224775863013633,12.094400370472078
3852.122,5.236116856984039,14.593457967038718
3853.0083,5.2397267622992105,11.836259183124785
3853.8967,5.231747001675263,12.87477292965131
3854.7832,5.213115341396656,12.14795014605819
3855.6702,5.188203061623924,12.120838632120408
3856.559,5.162384467281263,13.25887101740456
3857.4463,5.140299535990602,12.625911445496905
3858.336,5.124926054916129,12.427395488889182
3859.2234,5.1178971151537676,12.496001399566875
3860.1135,5.1186550166135625,11.305868354834566
3861.0015,5.124166114251504,13.960423534522306
3861.8896,5.130075465740901,11.836856188881692
3862.7803,5.133312194016888,11.247766532873928
3863.6687,5.133773501190837,13.449503493559028
3864.5598,5.133489069276258,15.426913843241419
3865.4487,5.134116074168586,10.926170703913659
3866.34,5.135215253729305,11.535652868342527
3867.2297,5.134340547691184,12.459207715592365
3868.1213,5.128577756191638,13.718455939949944
3869.0112,5.116739323353975,12.079940502224819
3869.9014,5.100752089152198,12.25797112859747
3870.7937,5.084919997416,13.746292421392864
3871.684,5.073193138278245,12.247235223676455
3872.577,5.066275250158109,12.945073821789236
3873.4678,5.061721337907182,10.874384730635045
3874.361,5.056064230891016,13.348577046684108
3875.2524,5.04752626426425,11.711315586675784
3876.1438,5.036819202352081,12.326094979745545
3877.0376,5.025898870535489,15.146546962832208
3877.9297,5.0158660507177535,14.188759322322134
3878.8237,5.005642606282117,12.373978923646145
3879.716,4.993055333169266,13.318661942201484
3880.6108,4.976528734709951,14.05507929520019
3881.5037,4.9563383153747305,12.481470596924193
3882.3965,4.933800211851391,12.690184599650454
3883.2917,4.910101762911987,13.43919701712643
3884.185,4.885814937988789,14.326116554644798
3885.0808,4.860815354077602,12.142952665454278
3885.9746,4.835633643638904,14.093732748634837
3886.8706,4.811431043573731,15.3639061790847
3887.765,4.7900794157565905,14.28951856757512
3888.6592,4.773060770126918,15.35028871128185
3889.556,4.7612147021490685,12.950681626301968
3890.4507,4.7547945760171535,12.283597908187554
3891.348,4.753529701334001,13.031464283744846
3892.243,4.7570396064805704,13.464497248866268
3893.1406,4.764856313129287,11.32117189530818
3894.0361,4.7759626567745785,13.036362418999166
3894.932,4.788487773726703,11.894084752658236
3895.83,4.800037806949098,16.037938425571255
3896.7263,4.808972988149798,15.073100649010735
3897.625,4.8158465235063685,14.180981828246182
3898.5215,4.822912003678922,11.374167725275093
3899.4207,4.832356471049776,13.86230808327458
3900.3176,4.844284067598643,14.9809966339276
3901.2148,4.856890571148458,13.564678384239237
3902.1145,4.868047570983421,14.297034755042917
3903.0122,4.876663935560532,14.976919378190527
3903.912,4.882845721893506,10.8241905010122
3904.8103,4.886850457769853,14.030487777907883
3905.7107,4.888744057634502,15.043752005426551
3906.6094,4.888595469774379,11.81574983222665
3907.508,4.886761273634072,10.788173053735525
3908.409,4.883535327927124,13.481823647650906
3909.308,4.878783576622796,12.001356875022687
3910.2097,4.8723196784055585,13.421610216072995
3911.1091,4.865154367802778,12.461256841064797
3912.011,4.859702100532804,16.451002586440246
3912.9111,4.858330573208446,15.472993296290499
3913.8113,4.861145811872715,13.402282529533046
3914.7136,4.865852833793274,12.970151398007072
3915.6143,4.8696865955822455,15.938206535063031
3916.517,4.871337782036685,13.88345138303507
3917.4182,4.870780740086405,14.852126705570377
3918.3215,4.868020725582024,12.852122042127323
3919.223,4.862587461998487,14.36114117704276
3920.1245,4.8541904057961265,12.82568663688888
3921.0286,4.843483618807178,13.48842149606696
3921.9307,4.832076344963489,13.734127320816562
3922.835,4.821529241463561,13.399347907450284
3923.7373,4.812767348867277,16.850899952290913
3924.642,4.805721146001758,14.448188047509886
3925.5452,4.799932666722853,12.023816553407073
3926.448,4.79500443994919,14.680712251716395
3927.3535,4.790768187120737,13.662839440507668
3928.257,4.786916980299541,14.656788040067816
3929.1628,4.7826040626983,13.31004360911471
3930.0667,4.776867942493421,12.069174822215196
3930.9731,4.769321368768048,13.72587564395481
3931.8774,4.76074696875893,14.208258389643419
3932.782,4.752818229457349,13.146654655377418
3933.6887,4.7476027984936575,11.853433807106905
3934.5938,4.746700038334146,11.20707527985255
3935.501,4.750177298281919,12.601276820990396
3936.4062,4.756218473474369,14.156911984917457
3937.3142,4.76203733978072,16.94571096735176
3938.22,4.765211892077548,14.363038326315873
3939.128,4.764541588532276,13.595471720545266
3940.0342,4.7597865285656775,12.775356252632811
3940.9407,4.751346917879711,11.476361888941323
