wavl,flux,ivar
3566.9744,80.50771892057745,0.0614418324599758
3567.795,80.30501610447745,0.06694051030431342
3568.6177,80.02781582012635,0.06562602127436401
3569.4385,79.7325608872506,0.06640354012255525
3570.2617,79.44519148774133,0.06750648440494916
3571.083,79.17791720180841,0.06239632306308725
3571.9065,78.93157390303573,0.0667522305218543
3572.7283,78.70496493104848,0.06912384850942313
3573.55,78.49606681148038,0.06960412229119194
3574.374,78.30901699304947,0.06170183036071042
3575.1963,78.15214128788179,0.07256210508004109
3576.0208,78.02169552258668,0.07111565564739832
3576.8435,77.89413766667795,0.06806491133607163
3577.6682,77.73040073148326,0.06525785528871794
3578.4915,77.50179940352903,0.0753833154811877
3579.3145,77.20810308002015,0.07056791051770227
3580.14,76.8791578445652,0.06716380528946124
3580.9636,76.56823287562707,0.06864373952440078
3581.7893,76.33828192032804,0.06531082942965319
3582.6133,76.26019585316679,0.0748405135859634
3583.4395,76.3906347946626,0.07731632627716313
3584.264,76.74026911079108,0.07222928228447263
3585.0884,77.24941338261314,0.06998234803683227
3585.915,77.79531886462833,0.07016014903950425
3586.74,78.22854517064478,0.06603513917764449
3587.5671,78.4390877613372,0.06849539150072967
3588.3923,78.38965128324305,0.0653921820813031
3589.22,78.11925849246292,0.06595299125578663
3590.0457,77.70947432620956,0.06527494115892271
3590.8716,77.2402548624688,0.07244331106602245
3591.6995,76.77081985750003,0.07635616566321847
3592.526,76.34366173490733,0.07383732288828095
3593.3542,75.98371730017877,0.06940612906534674
3594.181,75.70429040324204,0.0788766600975077
3595.0098,75.49798998730115,0.07640633188394218
3595.8367,75.34822049873546,0.07447772715494505
3596.6638,75.23976535760085,0.07180286484361964
3597.4934,75.16926580208688,0.08314586551856885
3598.3208,75.13673543231481,0.07087963029019885
3599.1506,75.12588075439652,0.07880708823064231
3599.9788,75.09577705988494,0.07735704202563151
3600.8088,74.99544952586852,0.08471927236859632
3601.6372,74.80195777278301,0.06354172596281198
3602.4678,74.55176920986753,0.07851800988333409
3603.2964,74.33960303071093,0.0798658841104447
3604.1252,74.26288274331209,0.08533274451705535
3604.9565,74.36200639382193,0.08411116922262867
3605.786,74.59496590447833,0.07892777945300081
3606.6172,74.87222806903665,0.07469497308385327
3607.447,75.10899196962912,0.0782700265541949
3608.2788,75.26220726935335,0.07547816143039823
3609.109,75.32336955591788,0.0720482104795866
3609.9392,75.29980317591118,0.07986439723415914
3610.7717,75.19924790427848,0.07461537057217854
3611.6023,75.0323261741834,0.07853242887906128
3612.435,74.81387017132019,0.0785402852192324
3613.266,74.5627244555063,0.07475559770349814
3614.0994,74.29259987395419,0.07920054377608275
3614.9307,74.01795083094171,0.07165210973524919
3615.7625,73.75412475975955,0.07653019220707859
3616.5962,73.51822768067392,0.08082115772386088
3617.4282,73.3213768456741,0.0747839081782554
3618.2625,73.16091399109399,0.07405958915515941
3619.0947,73.02977028859587,0.08164328997326266
3619.9292,72.91926276461425,0.0790857063302833
3620.762,72.81770528269274,0.08144657872728124
3621.595,72.70176588967233,0.07447947207015758
3622.4302,72.54404240778165,0.07873135128380472
3623.2634,72.33434745057652,0.0755208852626141
3624.0989,72.0892382820308,0.08509731772800229
3624.9326,71.8466715306967,0.07801640185497055
3625.7686,71.6402718597759,0.08480360016439761
3626.6028,71.48892316191107,0.08047850510418025
3627.437,71.39209219444535,0.0697311119182149
3628.2734,71.33738849215835,0.0801591791738697
3629.1082,71.30642100225577,0.07609230759979015
3629.945,71.2788784483056,0.08449271660065925
3630.78,71.23705451442248,0.09026066659186607
3631.6174,71.16641294632836,0.0856171572418741
3632.453,71.05642981686681,0.07685376243626454
3633.2883,70.90129606338255,0.08990315265829656
3634.1262,70.70500780169596,0.08305178375985986
3634.9622,70.48647462721617,0.08670295961549859
3635.8005,70.26856946226349,0.09436860806862479
3636.637,70.06689800465641,0.08972563743930324
3637.4756,69.87644643011392,0.08636670536043814
3638.3123,69.68515510922639,0.07745717334813033
3639.1492,69.49011110182873,0.09426547628227729
3639.9885,69.30751821309462,0.09139683335734419
3640.826,69.16146440430397,0.09644895771531964
3641.6653,69.05909327525296,0.08832516717707702
3642.5032,68.98325732976022,0.09434104646953623
3643.343,68.9014838268279,0.09006489214385974
3644.1812,68.79073291705781,0.09090302821291445
3645.0195,68.65411515711477,0.09402324701146436
3645.86,68.52129227192587,0.08719178993740687
3646.699,68.4313762506853,0.08926635906680268
3647.5398,68.40552443633857,0.09719152383300268
3648.379,68.4320216055951,0.09154162688076765
3649.2202,68.47099719488645,0.0839901138345256
3650.0596,68.47960467893826,0.08541253221181401
3650.8994,68.43904458028005,0.09627914899269074
3651.7412,68.35974417958037,0.09904788692742021
3652.5813,68.26480958230867,0.08823562746497832
3653.4236,68.16737872553999,0.0973532282994582
3654.2642,68.06681737748757,0.08282572863467957
3655.1067,67.95791533495714,0.08837222289789701
3655.9475,67.84601479299725,0.08705473970484191
3656.7886,67.74863113964366,0.09286522050114923
3657.6318,67.6869240684039,0.10485607038671454
3658.4734,67.67007028076603,0.10008843988390939
3659.317,67.68378311251762,0.09181823888559236
3660.1587,67.69549594034164,0.10720625369515147
3661.003,67.67322337070789,0.09400055770692599
3661.845,67.60477296560532,0.09658318849377122
3662.6875,67.50129462629134,0.09532464838239885
3663.532,67.38413325866105,0.09396277279507007
3664.3748,67.26838242183857,0.10986569725906538
3665.2197,67.15316329421312,0.08703319789707367
3666.063,67.02838495729408,0.09304849364716893
3666.9084,66.8837841915806,0.08395232270421635
3667.752,66.72236109818861,0.0895516550258097
3668.5977,66.56240483313158,0.09819918388078791
3669.4417,66.434293185383,0.10269421842122206
3670.286,66.36187897926604,0.09608644165322501
3671.132,66.34779564122722,0.10183524840830645
3671.9768,66.36718308457506,0.09619131037923596
3672.8235,66.37613501906556,0.09664276366391364
3673.6685,66.33148107167722,0.08759431210363677
3674.5156,66.21283942425974,0.08644018174412295
3675.3608,66.0364198617971,0.10939367439463112
3676.2063,65.84566669294783,0.10558832322073207
3677.0542,65.68690722334405,0.09798689539832804
3677.9,65.58551201446937,0.1021687208675061
3678.748,65.53598563522148,0.1042976038991793
3679.5945,65.5172949688187,0.10005684531071721
3680.4429,65.51003328224719,0.1004296262680682
3681.2896,65.50480594632663,0.10282496598116378
3682.1365,65.49768243577996,0.09904573981055184
3682.9856,65.48450859010943,0.09958798262277366
3683.8328,65.46006178772232,0.10646035174914481
3684.6824,65.41732353740817,0.10370167465142185
3685.53,65.34649927808654,0.09395259341122618
3686.38,65.23847160375139,0.09152574741832874
3687.2278,65.09852669389605,0.10232672600913319
3688.0762,64.9512816036194,0.09649488039967616
3688.9265,64.82979110569454,0.09347480706854233
3689.7751,64.75301570544309,0.09384492460472521
3690.626,64.71135319246262,0.09062571522966348
3691.475,64.67750774368496,0.1028821324918652
3692.3264,64.62702747057253,0.10443316723028942
3693.1758,64.5526210411002,0.10622940807407427
3694.0254,64.45887051010818,0.10460088137096553
3694.8772,64.3495806594558,0.10037637359446307
3695.7273,64.22395008305763,0.10600120776732692
3696.5793,64.08252370496112,0.09963546621821902
3697.43,63.93785178013803,0.10376147502937445
3698.2825,63.80863958962279,0.11134855058385243
3699.1333,63.70716335189527,0.10228229114677416
3699.9841,63.62501718993154,0.10243386407832493
3700.8374,63.53653677254902,0.10165039533971815
3701.6887,63.417191873045255,0.09697510503486535
3702.5425,63.26132923179442,0.10215183482520118
3703.3943,63.08889131693805,0.10738587398312444
3704.2483,62.926777181450646,0.10558693357527847
3705.1003,62.790462350345244,0.1057980005405106
3705.9526,62.67215534183676,0.1045993058917385
3706.8074,62.55014204927298,0.11076123402537066
3707.66,62.404784428214185,0.10495025754723905
3708.515,62.22684227485677,0.10949283032394706
3709.3682,62.02304790162003,0.1078226166164899
3710.2234,61.80943937926784,0.11329134385797981
3711.0771,61.60874248079262,0.1143672327641199
3711.9307,61.441106148081055,0.10123498717633808
3712.7866,61.320764362089484,0.10341398715716685
3713.6409,61.25469198801118,0.11207985257556179
3714.4973,61.23836480642856,0.12043500879742942
3715.3518,61.254769928630814,0.11235960181740495
3716.2085,61.27646705152373,0.1101094026733236
3717.0635,61.27597533894479,0.11094751435907245
3717.9185,61.239336512291324,0.11205045953542554
3718.776,61.172134753888784,0.11990222797899298
3719.6313,61.09410096687665,0.11430989305944718
3720.489,61.022084427188915,0.11200546840418912
3721.345,60.95723922462515,0.11405635847584755
3722.2031,60.88229251569949,0.11716843210773419
3723.0593,60.775290872300154,0.11497127465917056
3723.9158,60.62444902655374,0.11209019732220887
3724.7747,60.43589673646423,0.11620668160288963
3725.6316,60.23071501475316,0.10656871546560581
3726.4905,60.03072573149335,0.13035688696003014
3727.348,59.8547907811623,0.12421146709492975
3728.2073,59.71513992961786,0.12620477429805638
3729.065,59.62094052198403,0.1206017487305178
3729.9229,59.573775780787834,0.12231566962638821
3730.783,59.5653468952616,0.1199575650516055
3731.6414,59.57705893188795,0.12020685862045397
3732.5017,59.585187741505905,0.11160988505754423
3733.3604,59.568464526262844,0.12397360202942528
3734.2214,59.51435305678202,0.12203080699355011
3735.0803,59.42282050505432,0.12005774332539855
3735.9417,59.30365019629655,0.1259424986244133
3736.8013,59.17176388934379,0.12246633565223554
3737.661,59.03840484878587,0.11924879545577237
3738.5227,58.910896195163204,0.12474279327820302
3739.3828,58.798800524240214,0.11939614640105609
3740.245,58.71473404530736,0.1282172452814073
3741.1055,58.670284618548,0.11509326195374708
3741.9683,58.664485252785624,0.1268694063974228
3742.829,58.68090834194452,0.11497571456858113
3743.69,58.693545255246605,0.12030993730914269
3744.5532,58.67750070217194,0.12070639445053839
3745.4148,58.61755961607761,0.12244302327889066
3746.2786,58.512032754906826,0.12932978079445615
3747.1404,58.3742743287298,0.11979857170819427
3748.0044,58.226080696291014,0.12097897385520172
3748.8667,58.090133235693564,0.13030359787942525
3749.729,57.97688335517317,0.14201077137907228
3750.5938,57.880856558507695,0.11676053001228452
3751.4565,57.78640352209065,0.1256643772808767
3752.3215,57.677664799375165,0.12538903199175713
3753.1848,57.55121104100278,0.1266383345966503
3754.0503,57.41714442128526,0.12006581313776803
3754.9138,57.29510214415698,0.12264233793663805
3755.7776,57.19964666426762,0.13442746305287226
3756.6438,57.13048509798857,0.1303526577143105
3757.508,57.071923101578406,0.12844410888750865
3758.3745,57.00333799154249,0.1340422366935571
3759.239,56.91544613915915,0.13038032132575433
3760.106,56.81456080090464,0.14461869142856035
3760.971,56.718044354831996,0.13184579714792316
3761.8362,56.64159695224631,0.1333973789809067
3762.7036,56.59125458095762,0.13318370147835593
3763.5693,56.559079636576925,0.12807499357194296
3764.437,56.52520175117111,0.12014657148434782
3765.3032,56.470563260125964,0.1318934580527123
3766.1714,56.39148247435011,0.13419809551360437
3767.0378,56.306167103038824,0.13474621321006533
3767.9043,56.24236894697398,0.13415417480922212
3768.7732,56.21739420279414,0.14279650738132485
3769.6401,56.22427581422775,0.14301331873716355
3770.5095,56.23472950009055,0.1231429265311807
3771.377,56.21669486466147,0.1373748066043658
3772.2466,56.152254107227606,0.1374740105349482
3773.1145,56.04504385540355,0.13621922167786646
3773.9824,55.91391557068746,0.13624298731191195
3774.8528,55.78225504161104,0.14733055246336538
3775.721,55.670095601953946,0.1400108822510041
3776.5918,55.58501555264263,0.15453852515380193
3777.4604,55.52070385068595,0.14359358226674804
3778.3315,55.45785912806023,0.13402967256643541
3779.201,55.37720060006055,0.13556319291782729
3780.0703,55.2712888307061,0.1434764432895856
3780.942,55.148371961558475,0.1426673520492001
3781.8118,55.025689053205745,0.1516612707686807
3782.6838,54.9164731185671,0.13166236897660247
3783.554,54.82626881905735,0.13429320617644616
3784.4265,54.751699369966865,0.14480902735442014
3785.297,54.68619763604122,0.14165431547564353
3786.168,54.62327019291638,0.15375987335766314
3787.041,54.561343942189964,0.14738759121249936
3787.912,54.50564165197014,0.13880106259893796
3788.7856,54.46428121288272,0.13253333301043774
3789.6572,54.44353228125861,0.14505360195633588
3790.531,54.44188039486724,0.14291153191552836
3791.403,54.447738862647334,0.13701330446787838
3792.2754,54.43975297818742,0.1436604995331382
3793.15,54.39197047982603,0.13553032486649833
3794.0225,54.28559592703183,0.13573693111674362
3794.8972,54.12068337029088,0.14898126871648668
3795.7703,53.923084368408716,0.15099524645546364
3796.6455,53.73281014032816,0.14247497607527898
3797.519,53.58877683799955,0.15028291751737563
3798.3926,53.5104039807841,0.15125944121930351
3799.2686,53.49515811711453,0.14210379195116274
3800.1426,53.523303964900286,0.16410376447584227
3801.0188,53.56628309268367,0.1421581483206271
3801.8933,53.59554536799956,0.15081746758068462
3802.77,53.59129185824927,0.15088421930973747
3803.6448,53.546819163329054,0.15134954319414426
3804.522,53.4675392981317,0.1434562897336899
3805.3972,53.3672179099744,0.14381852229033926
3806.2727,53.26126535090274,0.14843640611893927
3807.1504,53.162817258559535,0.15577772139228035
3808.0261,53.08057227632718,0.14903987089546183
3808.9043,53.01516141542339,0.1513503040161937
3809.7805,52.9590828695135,0.15611779012233984
3810.659,52.896516474429156,0.1631887156195643
3811.5356,52.81189792909737,0.15022691536321983
3812.4126,52.70058320452588,0.15229637378542854
3813.2917,52.57606047454056,0.15211166538369492
3814.169,52.46445889138995,0.1649615052274495
3815.0483,52.38460282715142,0.18024239785552823
3815.926,52.33529073075864,0.15643690986761044
3816.806,52.29587125944933,0.1513675363942272
3817.684,52.24272127112966,0.15759379275244462
3818.5623,52.161913180170636,0.15790161711065964
3819.4429,52.05116423175422,0.1499903144214003
3820.3215,51.916118505502915,0.16683215441585558
3821.2024,51.76439980622803,0.15282123277754078
3822.0815,51.607128685403154,0.16148965507061155
3822.963,51.45607252303504,0.1558995983973748
3823.8423,51.32454657036718,0.1787361269670612
3824.722,51.22111294953214,0.16135893656884137
3825.604,51.14692295724106,0.15828352990608624
3826.4841,51.09502437404335,0.160500663583657
3827.3665,51.05270600005283,0.16783422980471596
3828.2468,51.00803522600188,0.16453735153988272
3829.1296,50.952049027748735,0.16453410440765998
3830.0105,50.879235979450094,0.1688123492503703
3830.8916,50.78521768596154,0.15033787649093402
3831.7751,50.66828392403777,0.1645435709479394
3832.6565,50.53460036700009,0.1545474905739235
3833.5403,50.398242779090715,0.1652637050213751
3834.4224,50.27980989230677,0.17395389980200263
3835.3064,50.19526925283893,0.17156522413990793
3836.1887,50.15065115162318,0.1694012231204694
3837.0713,50.1399776901828,0.1670295198145912
3837.956,50.15112235044348,0.16856447614294312
3838.839,50.171953007060544,0.18057487421845322
3839.7244,50.19472831075684,0.17294636821688977
3840.6077,50.215129340587936,0.1632808096522552
3841.4932,50.22757228758353,0.16594708509239456
3842.377,50.22065013899609,0.1668905725872
3843.261,50.18031628030218,0.1579333407786048
3844.1472,50.099351784267064,0.16866795166068282
3845.0315,49.98671193450572,0.17721251558263235
3845.9182,49.86479474209042,0.1581341116817181
3846.803,49.760112517473004,0.16771194744285894
3847.69,49.68719937509363,0.16517084877458468
3848.5752,49.643370776771164,0.16025442323520028
3849.4604,49.611759482604974,0.16690136606583783
3850.3481,49.57349205848017,0.164308087911649
3851.234,49.517983590261856,0.16360893493747516
3852.122,49.44530698935222,0.1640194876898953
3853.0083,49.364165783050844,0.1826087219715476
3853.8967,49.28420015981484,0.19960141705638362
3854.7832,49.21087973120023,0.17726500620276947
3855.6702,49.141618624515466,0.17038519285035142
3856.559,49.07060562723121,0.16464172221177423
3857.4463,48.99621061571714,0.17861427682000697
3858.336,48.92238357105998,0.18401434123191376
3859.2234,48.855458212893886,0.1791284124076838
3860.1135,48.79679358533337,0.17617107358211964
3861.0015,48.74271564486221,0.18294085126834392
3861.8896,48.68621018731067,0.18607683796893326
3862.7803,48.621377658723716,0.1698897387831045
3863.6687,48.54675376807409,0.1796011427210159
3864.5598,48.464283666098844,0.18045374264443623
3865.4487,48.378234239737296,0.17963035286602114
3866.34,48.290627176170354,0.17711100725628628
3867.2297,48.203728807327984,0.1956218554742006
3868.1213,48.12159485928068,0.17769155581988308
3869.0112,48.05151237132984,0.1832377413280604
3869.9014,47.99782544131486,0.17562825592983056
3870.7937,47.95760663872092,0.172093125091576
3871.684,47.92110140520701,0.19522950330275918
3872.577,47.876676748675784,0.17701113186065665
3873.4678,47.818351127961726,0.18471178291525717
3874.361,47.747653742295164,0.19290262107839223
3875.2524,47.67087677818223,0.18514923859266832
3876.1438,47.59047674045712,0.18374977896648367
3877.0376,47.50227361396902,0.19024855051417694
3877.9297,47.40162100828334,0.1882804990060998
3878.8237,47.29046482456083,0.18420400562930228
3879.716,47.180293826627974,0.1805969256651096
3880.6108,47.080961945382796,0.18642176370758853
3881.5037,46.99111333047618,0.19189663652795058
3882.3965,46.895783909335535,0.1811526970423965
3883.2917,46.780301097510375,0.1911359496632741
3884.185,46.64675423096753,0.19702663445140306
3885.0808,46.51355194532709,0.20049833044941465
3885.9746,46.40208438716471,0.2039106226169353
3886.8706,46.31523533302884,0.19344493352577133
3887.765,46.23498434796706,0.20034753824192358
3888.6592,46.13541625486368,0.2160907339777874
3889.556,46.00350990129932,0.20281175557489178
3890.4507,45.85041518247175,0.20614954146800216
3891.348,45.70260373285661,0.22476723397423817
3892.243,45.58802190940031,0.2207096799800568
3893.1406,45.51882519177268,0.20893657567038337
3894.0361,45.49082450269934,0.18980593634172915
3894.932,45.491302707504516,0.2113920960655092
3895.83,45.51223635576036,0.22410881535146884
3896.7263,45.55369886277159,0.19799358021889352
3897.625,45.61750526528503,0.21311693492856634
3898.5215,45.69755880591082,0.2119963802362127
3899.4207,45.78066541652224,0.1907858421113255
3900.3176,45.85355087427607,0.21060744345155588
3901.2148,45.91277799975041,0.19782700440135315
3902.1145,45.96311208219801,0.18496274887048955
3903.0122,46.00839606332829,0.20180668065756427
3903.912,46.0450213746187,0.2052072309845707
3904.8103,46.06294063717477,0.20620512461434248
3905.7107,46.05468756607431,0.19424489524957386
3906.6094,46.02102069284975,0.1993151366024603
3907.508,45.968858038632156,0.209305002103301
3908.409,45.905206317798026,0.20761665922725797
3909.308,45.83558493178391,0.19673162145920617
3910.2097,45.76578460344029,0.2049054924269459
3911.1091,45.70518800775351,0.21191037887699715
3912.011,45.66234537581766,0.20265210883862123
3912.9111,45.63977295847108,0.19840804764483186
3913.8113,45.62882985860855,0.19686094288116537
3914.7136,45.611488884524434,0.19298765530334078
3915.6143,45.56810749916276,0.20659760810707084
3916.517,45.48812826996434,0.19499468716802437
3917.4182,45.37845504794002,0.19825812839689141
3918.3215,45.25912135104988,0.20406239301741194
3919.223,45.15271363646862,0.22328377208093922
3920.1245,45.07135283112669,0.22606384742556893
3921.0286,45.016822762722974,0.20792891827489762
3921.9307,44.98750107643265,0.20976616655919386
3922.835,44.9821108096872,0.22216283329063444
3923.7373,44.998257453092805,0.20609947192588632
3924.642,45.029327835589804,0.19848442921078713
3925.5452,45.0665719010273,0.1925119099646309
3926.448,45.10460867107462,0.20310246694154171
3927.3535,45.141794055212586,0.22143590281578968
3928.257,45.17429005847257,0.20775085048796457
