wavl,flux,ivar
3566.9744,2.695362401212513,25.839989355646896
3567.795,2.7141534146134423,33.15108559393648
3568.6177,2.7333861668672896,19.3724354792975
3569.4385,2.747201992757096,28.99722021381882
3570.2617,2.7516731750608225,29.255823501557277
3571.083,2.7461124608334164,27.63716019606673
3571.9065,2.7340825796167945,40.00710751340697
3572.7283,2.722214446821789,36.50148345437218
3573.55,2.716404567335747,21.65850407022814
3574.374,2.7185885007593327,12.860638560113754
3575.1963,2.7266835645216765,19.565503760639558
3576.0208,2.7377121804789546,21.47052863035184
3576.8435,2.7504194334468828,44.2905479799212
3577.6682,2.7655209836988908,38.36559544358093
3578.4915,2.7837561854882464,19.48407189248352
3579.3145,2.8046481311841056,30.528375680709498
3580.14,2.825961850897218,17.510768163349283
3580.9636,2.8435866153473977,30.718672256483163
3581.7893,2.8529338699880604,14.313554901952696
3582.6133,2.85095192329073,30.4453885040573
3583.4395,2.8384699997623155,14.7575302910351
3584.264,2.820077838416022,14.657240384202709
3585.0884,2.801036315921185,13.08703483500852
3585.915,2.7841922964765122,28.92656452048924
3586.74,2.769601979963833,13.507100132633491
3587.5671,2.756118631814063,18.32454092275807
3588.3923,2.7434678726862183,49.28939970180849
3589.22,2.7321794380553404,17.86707879576845
3590.0457,2.7230532727438663,25.57126150021289
3590.8716,2.716138212334787,14.523246867521145
3591.6995,2.710314761531444,18.26015383483787
3592.526,2.7032692097150166,54.59672720678961
3593.3542,2.6923759667125404,47.53324357153902
3594.181,2.6766780134153616,14.738073805763403
3595.0098,2.6579537011961962,20.863235127712883
3595.8367,2.640315626822413,17.938279279038337
3596.6638,2.6278292099030915,19.175620500985367
3597.4934,2.6233420135169334,15.075864895543743
3598.3208,2.6285695320550158,24.04092780880935
3599.1506,2.6439419446271746,31.621927723232446
3599.9788,2.666905830172649,42.855467335775614
3600.8088,2.6912941445758256,19.092224334944383
3601.6372,2.709646561451441,20.3079194947119
3602.4678,2.7184687701442667,25.116146428009337
3603.2964,2.720432703888733,36.15115891505908
3604.1252,2.722424504842159,31.229786965551927
3604.9565,2.7308861930964956,38.04866767486299
3605.786,2.747933907034451,18.894838596332484
3606.6172,2.7701902060845107,70.88264340193645
3607.447,2.7901435711602387,16.91758192256632
3608.2788,2.8004392747421165,31.584366788972737
3609.109,2.7975343035948232,17.59779853445269
3609.9392,2.782958993036478,34.20998694236603
3610.7717,2.761200839759633,9.332009905674035
3611.6023,2.7374263108589747,20.62229519204621
3612.435,2.7156773986255667,19.777403755436808
3613.266,2.6985595784592693,20.77199782716082
3614.0994,2.686012006213274,19.76351105058429
3614.9307,2.675391981914563,39.07830377635315
3615.7625,2.662812162695296,31.108355075628047
3616.5962,2.6462254487985937,23.39873816898839
3617.4282,2.627646691175212,34.139770551190566
3618.2625,2.61196934390101,33.28971626919243
3619.0947,2.6036642341844667,35.2008074772602
3619.9292,2.603142882920975,26.47096600337344
3620.762,2.6064322124348873,24.31166173280199
3621.595,2.607563641812134,38.569151938712096
3622.4302,2.602032902301525,30.11356210339451
3623.2634,2.5895080636486685,25.478381525932672
3624.0989,2.574334466331155,29.474681912768084
3624.9326,2.5637143353604,15.116324812007079
3625.7686,2.563479568903917,20.46369810440337
3626.6028,2.574528393329249,44.03864042593218
3627.437,2.591691004580515,16.85712867023013
3628.2734,2.605716844227591,30.78875190311701
3629.1082,2.606777646166773,17.886510801725986
3629.945,2.5887969819228993,23.43282238495918
3630.78,2.5529586529380572,19.951761930165347
3631.6174,2.5080953125493695,31.33915314277142
3632.453,2.46779187583187,20.153894962183298
3633.2883,2.4431063749736626,67.76273017252137
3634.1262,2.437800581340396,24.945826470598202
3634.9622,2.447459314755591,53.921597974365014
3635.8005,2.462585458718224,142.5395427224661
3636.637,2.473029467401655,38.229678113550776
3637.4756,2.4724565073970575,44.15228410808149
3638.3123,2.4610515365406322,20.784762682052047
3639.1492,2.4450852988622986,80.08352434947743
3639.9885,2.4325159940913816,35.227412485039665
3640.826,2.4279298811189682,20.713582746884708
3641.6653,2.43062742237027,38.26159965810934
3642.5032,2.4372203373284984,26.77368427761768
3643.343,2.4449173106598225,37.56615615603647
3644.1812,2.4522747716801043,41.53670276392383
3645.0195,2.4578814004545038,37.02089365467904
3645.86,2.4591002824265638,14.84397295705337
3646.699,2.4529260219838473,42.06254552589598
3647.5398,2.4383118693515153,32.24117857089752
3648.379,2.4179368774643466,27.78757785969853
3649.2202,2.397144034769021,43.52185628952478
3650.0596,2.381203074157551,35.03561333008202
3650.8994,2.3718714612191643,23.018843657191738
3651.7412,2.366883298420217,57.584435381475316
3652.5813,2.3620077290230768,31.69748357366329
3653.4236,2.354074060047858,22.4659892364645
3654.2642,2.342646470720196,29.995205595555742
3655.1067,2.3291330724662633,21.917361033279935
3655.9475,2.3155695236148492,51.137294518961376
3656.7886,2.3043329045959173,34.68820942649688
3657.6318,2.299250793352168,59.904354011899564
3658.4734,2.305370202923093,46.84006949557112
3659.317,2.3260292009964556,34.078441289822294
3660.1587,2.359013185674882,42.25721769695138
3661.003,2.396216324776505,21.063637770761904
3661.845,2.4268736781412756,21.170392698969952
3662.6875,2.4436893905793617,29.841819216252425
3663.532,2.4451943330948906,33.45052815494684
3664.3748,2.435044300571773,34.940388795396245
3665.2197,2.419609321789103,31.99163838929138
3666.063,2.406048143643252,24.255270749963064
3666.9084,2.400086373577331,36.00271978135997
3667.752,2.4040152679996454,32.459922550594925
3668.5977,2.4156186713221506,51.0564878569055
3669.4417,2.4295280323453685,16.65502884568493
3670.286,2.440235940541481,33.33295090893109
3671.132,2.4441964857934373,30.63226357429512
3671.9768,2.4402205446561687,22.11145967675274
3672.8235,2.4287058659326264,24.489327135331266
3673.6685,2.4110538591540793,19.599851887665597
3674.5156,2.389516872476187,20.882260386850035
3675.3608,2.3675860584729356,52.362077598774135
3676.2063,2.348925412822151,31.029490949232105
3677.0542,2.3361822930576013,32.18124795930686
3677.9,2.329922042580152,30.63695684669252
3678.748,2.328302962252252,70.60330919842963
3679.5945,2.3281346594405483,40.16533684786749
3680.4429,2.3261156647565215,14.373960452147596
3681.2896,2.319735666196243,36.61457455163766
3682.1365,2.3073163355785584,37.59217654266771
3682.9856,2.288161008679487,23.392534733291185
3683.8328,2.2640779915545712,27.154617706729248
3684.6824,2.2404145323869544,45.175173787196044
3685.53,2.22542251335536,47.978834514185706
3686.38,2.225849182049004,51.31515794379423
3687.2278,2.2429591638258333,37.71760775336995
3688.0762,2.271151026004814,25.22200592016184
3688.9265,2.3003251655892,47.6366402146361
3689.7751,2.3202833357459873,50.54197248606292
3690.626,2.32587326486998,51.588712730146426
3691.475,2.319057654116295,35.29641634874966
3692.3264,2.3075537543070643,44.627441933149896
3693.1758,2.300412719515991,31.126412595696372
3694.0254,2.303161728144108,53.73952884669511
3694.8772,2.3156111003010738,29.502614430626515
3695.7273,2.332396601081716,42.05056051376261
3696.5793,2.34616580656092,31.193527371260366
3697.43,2.3509645644951727,38.57723250992181
3698.2825,2.344863527877089,41.214675812400856
3699.1333,2.3300280478749067,30.100915842781067
3699.9841,2.3107432780285806,31.62164779679941
3700.8374,2.2910814055924926,44.21360048136602
3701.6887,2.2739555253868984,31.190717255170163
3702.5425,2.260798729932684,73.58843620900356
3703.3943,2.2521381069982143,40.88747835287265
3704.2483,2.2473419366513028,37.07009350044804
3705.1003,2.245028288509144,31.37134907336907
3705.9526,2.243671713981803,32.09502910062925
3706.8074,2.242352516263876,28.903814219620923
3707.66,2.240835642218547,46.71746164780149
3708.515,2.239050231291949,41.01797594037187
3709.3682,2.2367144438688364,37.27286704772311
3710.2234,2.2335140584161928,22.996830228822574
3711.0771,2.229740456685962,122.25969341970035
3711.9307,2.2265185973516513,15.62298234665166
3712.7866,2.225445587671431,32.115866848633424
3713.6409,2.2277979250374362,35.539124294907964
3714.4973,2.233710067420532,34.16499065280457
3715.3518,2.241810132033885,36.85108788191461
3716.2085,2.249832978479655,32.89551596755323
3717.0635,2.2553802351947434,46.349154678416156
3717.9185,2.256444566591034,28.50594396179097
3718.776,2.2511936508304524,110.61949627183873
3719.6313,2.238326346522955,31.248600298453535
3720.489,2.2180275149556485,25.27636305670079
3721.345,2.1932898790177253,44.69959286615456
3722.2031,2.16933539727402,27.896342170114387
3723.0593,2.1518986268998943,123.65639671005634
3723.9158,2.1439675328948105,38.19134112323632
3724.7747,2.144796422202468,29.192996259902323
3725.6316,2.15139180639416,24.04591011118982
3726.4905,2.1614324039784467,53.79080952942016
3727.348,2.174514851347929,48.7894072034732
3728.2073,2.1909990235751593,28.797060339532838
3729.065,2.2094451469274974,52.68641799331871
3729.9229,2.225989386083793,30.958423542083853
3730.783,2.2359462493858513,32.46578856982522
3731.6414,2.2366912548844238,51.358750621166216
3732.5017,2.229152853772222,31.437579563979718
3733.3604,2.2163696621002624,45.811905692348766
3734.2214,2.20099065702635,24.679022446899936
3735.0803,2.184884180949306,33.32447114579442
3735.9417,2.170321201928661,37.7240885288748
3736.8013,2.161366131138957,29.480117166189164
3737.661,2.1619888084651673,43.843959999372075
3738.5227,2.172844706423551,32.028929338310235
3739.3828,2.189307850895892,32.88596839441263
3740.245,2.203615666714587,30.463712589783576
3741.1055,2.2089198642283656,42.09844448102605
3741.9683,2.202613988515251,38.68460259459899
3742.829,2.1863491913309203,30.22996562818686
3743.69,2.1639491452533246,35.451234742148486
3744.5532,2.139321269970941,64.05801824003059
3745.4148,2.1159653180490534,35.11482535768458
3746.2786,2.096852667818779,30.417848512428733
3747.1404,2.0847754707452766,63.04566869511988
3748.0044,2.0806926522311526,23.2240816064702
3748.8667,2.0825596902514225,77.74868850352506
3749.729,2.0860713387326917,26.56377566874191
3750.5938,2.0878950933593634,58.11983062376863
3751.4565,2.0880832865014827,32.693632204083826
3752.3215,2.089345793207855,44.34346527300265
3753.1848,2.094333621845577,35.18537825467216
3754.0503,2.1041005694597854,48.71213060744093
3754.9138,2.118235691721478,70.43144842248047
3755.7776,2.1354628779319738,47.90332389826084
3756.6438,2.153386435824701,59.92662127099466
3757.508,2.168352937600478,48.6864467614906
3758.3745,2.1768884505286747,23.70648445721999
3759.239,2.177106542198041,46.282556556251144
3760.106,2.1697611289224206,37.11934751091979
3760.971,2.1578370093743744,30.233114845073587
3761.8362,2.145164377439435,40.68162741362809
3762.7036,2.1350674020308733,54.36703556877113
3763.5693,2.129608865459686,65.99614275525224
3764.437,2.12942944344604,37.89900439906883
3765.3032,2.134132461912623,33.229429950641645
3766.1714,2.1421931620050336,65.21703624209282
3767.0378,2.1506702402130866,35.952735044089444
3767.9043,2.155883699438004,34.67787023951398
3768.7732,2.1547949520283662,41.76650606084794
3769.6401,2.1462015789210915,36.41844477600667
3770.5095,2.130732113911255,41.18691246546353
3771.377,2.110577829415249,39.913405189474325
3772.2466,2.0891688871210907,34.756158448604864
3773.1145,2.071426158117207,49.98171205036127
3773.9824,2.062118065219003,39.99570355839346
3774.8528,2.063700497005258,57.703887934927494
3775.721,2.074703765397628,56.91631391391392
3776.5918,2.090706727807723,33.718259721777784
3777.4604,2.1066424454897867,43.85197488166504
3778.3315,2.118854164956099,75.25767059533717
3779.201,2.124835399970757,58.222903671235215
3780.0703,2.1231293250303716,26.39427624566496
3780.942,2.113864830144304,49.75883107536168
3781.8118,2.0997362194943476,47.67334189374128
3782.6838,2.0849222462480332,46.932012837959824
3783.554,2.072710300886052,65.24160674527359
3784.4265,2.0634999177603324,47.700842950032886
3785.297,2.0559781242547532,32.97416168454595
3786.168,2.0493345246744132,56.90767422294911
3787.041,2.0444201640573483,50.12774369724451
3787.912,2.042491377308097,41.33250563697489
3788.7856,2.0431705494050507,32.55622133241668
3789.6572,2.0439359415719665,43.18841152566338
3790.531,2.041320464992012,43.79362587092609
3791.403,2.032640441817681,45.220886827844026
3792.2754,2.0170577813593087,48.706772252189836
3793.15,1.995875268172775,54.19796668993271
3794.0225,1.972570555299894,64.01075567664782
3794.8972,1.9516509995729319,32.931628278347205
3795.7703,1.9375679096247578,39.01509055536086
3796.6455,1.9326735296447997,83.22675193807544
3797.519,1.936376570804275,48.629828225386234
3798.3926,1.9453116423957915,39.84574805316912
3799.2686,1.9551560994095196,41.17534183677574
3800.1426,1.9628066593499696,62.36269397709812
3801.0188,1.967898643555973,46.954209571894545
3801.8933,1.9719956374305934,45.92050167528756
3802.77,1.9765835447141675,49.60754144822889
3803.6448,1.9813078751943958,32.92884184750397
3804.522,1.9843157146090196,45.93797215795359
3805.3972,1.9841986775599403,54.39667975533019
3806.2727,1.9821905525340422,50.285688624559555
3807.1504,1.9825342780634296,99.8462973831034
3808.0261,1.9903608446621197,51.89524100193438
3808.9043,2.008170920442993,45.842182158100336
3809.7805,2.033192931140871,57.52470237535932
3810.659,2.0585677590821443,39.566449607611176
3811.5356,2.0768910237639733,45.705837685986495
3812.4126,2.0847614177214138,45.175115480796656
3813.2917,2.0838554452545304,34.92795474305426
3814.169,2.0788118496568946,37.084525547356066
3815.0483,2.073525257103592,32.858806087059854
3815.926,2.0690561373921548,36.46039672420698
3816.806,2.064297015045297,49.95090751608841
3817.684,2.058329790100582,36.24194195312062
3818.5623,2.051591202438857,29.82021727286432
3819.4429,2.0451721086041794,64.73446724930878
3820.3215,2.0396187423643184,32.63987059232248
3821.2024,2.034522693643769,42.45929698899517
3822.0815,2.0289918854350244,38.43114074740878
3822.963,2.021599697559485,33.27113036481636
3823.8423,2.0105788292891495,41.929618840544734
3824.722,1.9947834772452062,62.220261088228476
3825.604,1.9752145823678833,61.29471060110151
3826.4841,1.9552779486490013,73.31266663196621
3827.3665,1.9383720599498993,32.8098936535679
3828.2468,1.9255922591252963,46.001708310056955
3829.1296,1.9143480763329044,44.99001263352207
3830.0105,1.899927427938363,58.46708674671666
3830.8916,1.8781101709091959,43.37800105824872
3831.7751,1.8478645161698364,69.99834235311383
3832.6565,1.812709049719318,66.0963724966744
3833.5403,1.7790540629506382,72.38297479396282
3834.4224,1.7540829029521607,58.222932186655065
3835.3064,1.7419232066241357,88.96044193011029
3836.1887,1.7420574959793447,70.15256746552014
3837.0713,1.749850747520748,41.68717018526701
3837.956,1.759885960539224,62.96936725640919
3838.839,1.769130491400667,55.34453039327131
3839.7244,1.7781453840257542,49.77276957034853
3840.6077,1.7893160228573315,117.88651978139917
3841.4932,1.8044259524721586,43.17953991418654
3842.377,1.8227261464992555,36.866427838837865
3843.261,1.841259995940059,62.70702323030229
3844.1472,1.8564513694264826,64.81924005167116
3845.0315,1.866225510785353,46.9220476310843
3845.9182,1.8715436210250307,37.697384942190595
3846.803,1.875735251066439,70.91373414978587
3847.69,1.8828535002448274,80.88807825916746
3848.5752,1.8957714704128497,66.26633129805582
3849.4604,1.9153763056765298,54.850708581910546
3850.3481,1.94054071481352,40.76618131513411
3851.234,1.9683145195885547,39.67034200218955
3852.122,1.9952488347696051,50.364467646180884
3853.0083,2.017974602184743,50.99083656239317
3853.8967,2.0343842956716434,41.70720288570553
3854.7832,2.043206961426188,43.27363324768909
3855.6702,2.0442420101478933,31.475843543537742
3856.559,2.0387351837359273,40.63970262371566
3857.4463,2.0301128229887704,26.80069862856365
3858.336,2.0232041965984435,37.53309654621806
3859.2234,2.022202164068013,42.43328288928863
3860.1135,2.0284358253815746,48.73649672482095
3861.0015,2.0397856442129294,31.85373887914665
3861.8896,2.05190467553777,49.503430447631466
3862.7803,2.0601500053988513,50.296886249029406
3863.6687,2.061505589785859,47.90349866538237
3864.5598,2.056115745937272,49.21212980465687
3865.4487,2.0472718494548188,93.57566021502836
3866.34,2.0392036426993307,41.71690408465539
3867.2297,2.0338362886242134,40.08901466810647
3868.1213,2.0287486681415094,41.589798855377836
3869.0112,2.018855352800954,32.9750512112873
3869.9014,2.0001498378780087,38.86009615206869
3870.7937,1.972384470945649,43.142301167639324
3871.684,1.9390395231086934,47.71798414170465
3872.577,1.9045469711012364,44.8115086150341
3873.4678,1.8728138318793222,73.44493655266818
3874.361,1.845781217233819,43.934259210132716
3875.2524,1.8241758108673543,36.913469342495844
3876.1438,1.8073152636334793,81.71407911031633
3877.0376,1.793373681267613,73.9597031593212
3877.9297,1.7796504458690006,43.382147637150844
3878.8237,1.7633145130898524,46.79566267818817
3879.716,1.7430383324359224,54.54308916077735
3880.6108,1.7192389511472588,83.42355729156118
3881.5037,1.6936009171723097,53.38220234934319
3882.3965,1.6672520862274378,48.30806421878155
3883.2917,1.6400406608411577,75.52401949128033
3884.185,1.6109993584853264,60.10827141159504
3885.0808,1.5789225026572669,75.15894895664623
3885.9746,1.5441895961331917,94.82065798874372
3886.8706,1.5088737293007823,66.70179778354903
3887.765,1.4771077113523727,76.17284694046768
3888.6592,1.4532917956923832,80.69476372963223
3889.556,1.4406826033471116,78.04132918579873
3890.4507,1.4402754667364255,65.43649862116932
3891.348,1.4507898672361077,86.06062320917519
3892.243,1.469950595130843,71.1901134106683
3893.1406,1.495966034068331,67.49430508410913
3894.0361,1.527311517232747,63.3651512868623
3894.932,1.5622736328758886,94.37991740099125
3895.83,1.5980559415150892,82.76094929696991
3896.7263,1.63117498255993,83.69124049449948
3897.625,1.6598051799988305,41.82472805125763
3898.5215,1.6843091112039181,80.06823915299826
3899.4207,1.7073101945517721,54.8366738119573
3900.3176,1.7315390229625864,86.65464253453571
3901.2148,1.7588746402173872,49.249480642800386
3902.1145,1.7895044599793382,75.74260805336185
3903.0122,1.82163165351927,55.27106239168956
3903.912,1.8526177388245366,30.055797503180255
3904.8103,1.8796835506659257,60.98029600980272
3905.7107,1.9016421634830163,37.09806444818261
3906.6094,1.9188231776264686,42.93994205055219
3907.508,1.9330288878571786,52.393092851663454
3908.409,1.9467178815063468,62.174832669216784
3909.308,1.9620682205329276,32.520426204641446
3910.2097,1.9801019705289384,42.86723847978675
3911.1091,1.9996476383483772,43.86342350196956
3912.011,2.0179781982020244,78.15650613070962
3912.9111,2.0316039848708076,38.16066360045359
3913.8113,2.0380550553829306,29.975614374213812
3914.7136,2.0371220373798122,52.74089452684014
3915.6143,2.0316457850459706,40.70907778128937
3916.517,2.026643745324418,33.71235936104567
3917.4182,2.026928621963753,51.384077879141174
3918.3215,2.034625528235096,48.8578041229448
3919.223,2.048491091796699,39.43959112508984
3920.1245,2.0654620913603017,36.918072087036
3921.0286,2.0828398133235737,44.60096114629316
3921.9307,2.0993827970198407,43.08427789086011
3922.835,2.1152526368436364,39.7845582365772
3923.7373,2.1305235227767403,51.01570424085122
3924.642,2.1447758626450892,33.93145657062032
3925.5452,2.157104981493269,35.788804319086786
3926.448,2.166963583836049,46.69312219459818
3927.3535,2.1741583954436674,29.191471117243854
3928.257,2.1785361679384803,36.93613805823523
3929.1628,2.180231647887615,33.04635705139688
3930.0667,2.1800350325245392,36.07047709201796
3930.9731,2.1792423396865206,37.212098440814074
3931.8774,2.178527830903002,39.362637039466925
3932.782,2.1770830816682345,34.670076423104184
3933.6887,2.1731810049517035,48.01495936510581
3934.5938,2.1657165380142875,25.11714632255764
3935.501,2.1551321133083254,33.10277036711216
3936.4062,2.1432822026035327,31.77883076984476
