wavl,flux,ivar
3566.9744,24.24357732042953,2.5657506788400792
3567.795,24.13874516241898,2.4150077323639874
3568.6177,24.007634292649225,2.4391532678511387
3569.4385,23.889292866869884,2.207990728162611
3570.2617,23.80552308709687,2.9523139491328623
3571.083,23.757052443401438,2.843312853479325
3571.9065,23.72697231837336,2.475716540062856
3572.7283,23.694755031117275,2.596284487712466
3573.55,23.648566024367035,2.422362856368556
3574.374,23.590769358385835,2.552978674570266
3575.1963,23.533612782971858,2.833914128822644
3576.0208,23.48738359895894,2.7355571306373387
3576.8435,23.452962916843322,2.7699974248387043
3577.6682,23.42100048480794,2.633409110428956
3578.4915,23.379325322874912,2.6025016337927176
3579.3145,23.31875962563921,3.0516021623947025
3580.14,23.23532321915946,2.7513078652132594
3580.9636,23.132996279516203,2.7401177836028414
3581.7893,23.026491881268274,3.2954553494060583
3582.6133,22.94424991361979,2.935055615877734
3583.4395,22.917522699623614,2.9512788158853396
3584.264,22.96422525818726,2.7266176094245735
3585.0884,23.075552886964275,2.6740395125421137
3585.915,23.218343335782954,2.492770825606058
3586.74,23.345983479711688,2.804639598165105
3587.5671,23.415962546973773,2.4106705325275772
3588.3923,23.401190771623927,2.4708803678881166
3589.22,23.30034064286334,2.940065600044927
3590.0457,23.139770927571504,2.889752603056921
3590.8716,22.9622219702873,3.272181714797224
3591.6995,22.809781930666016,2.746588767724885
3592.526,22.709148828293163,3.0026245923881603
3593.3542,22.66338706434312,3.0921137465316892
3594.181,22.65715076613326,2.8345782314875323
3595.0098,22.665251297119173,2.881620107193116
3595.8367,22.664368821327585,2.622964489541316
3596.6638,22.642138108747716,2.8579797679627785
3597.4934,22.599034481050403,3.4134662905142794
3598.3208,22.542735950879685,3.3106760677266958
3599.1506,22.477738726716538,2.9671078565768956
3599.9788,22.40206009668181,2.93078276334408
3600.8088,22.31068308416195,3.6616383935101147
3601.6372,22.207487782479674,2.8846921153112777
3602.4678,22.111490747256433,2.625724513501031
3603.2964,22.05569611901282,3.5023080523198487
3604.1252,22.070631494636526,3.3791538777316874
3604.9565,22.16773394544992,3.2157901058324523
3605.786,22.329106446853423,2.742712851587275
3606.6172,22.515749730590237,2.8414621881029247
3607.447,22.680907352092696,2.8389086179063097
3608.2788,22.788653650044772,2.7242359186417806
3609.109,22.82141120933123,3.0281350503976463
3609.9392,22.78386743074077,3.2716996987848783
3610.7717,22.69627859733064,2.850448295143972
3611.6023,22.585920146300133,3.323597711876177
3612.435,22.47561112241745,2.6597405910279575
3613.266,22.379744545274924,3.1451217468278148
3614.0994,22.301086008339677,3.2123538192558456
3614.9307,22.234722731265997,2.875696523950187
3615.7625,22.171470802589585,3.0475332778615005
3616.5962,22.10487465832193,3.1115532028802977
3617.4282,22.03595388671721,2.9768683340254043
3618.2625,21.971544120555308,3.6490423794697198
3619.0947,21.920135834463533,3.3230197881923376
3619.9292,21.884854328155143,3.319964085306876
3620.762,21.862570928842107,3.388988940637256
3621.595,21.84604000027382,3.0440803501276648
3622.4302,21.828369761752004,3.139843809312182
3623.2634,21.804794382691174,3.1381764898492785
3624.0989,21.771493570509385,3.069698615160074
3624.9326,21.726235005233427,3.258718928686894
3625.7686,21.67094788312203,2.8295056267643757
3626.6028,21.61576353438128,3.0618526336848895
3627.437,21.57581026563246,3.222459798643702
3628.2734,21.56274023639301,3.2428871817155818
3629.1082,21.57575316316426,3.2158272432679262
3629.945,21.600968977956008,2.8119943038320354
3630.78,21.620402895297765,2.900801551909782
3631.6174,21.622800859631838,3.1732912358911367
3632.453,21.606933029605557,3.057039987664366
3633.2883,21.577743372844733,2.9476566842708176
3634.1262,21.54025782179608,3.5388810713947336
3634.9622,21.496943816097772,3.6376415816898247
3635.8005,21.447142822016524,3.4343386246413927
3636.637,21.3897192533403,3.357528182992695
3637.4756,21.324092163460268,3.0020778043770924
3638.3123,21.25335628829359,3.4993860917741086
3639.1492,21.18383716853113,3.432927627110734
3639.9885,21.123097049223478,3.602235825709686
3640.826,21.075189938787673,3.357892554938738
3641.6653,21.03602009039893,3.0610235994025907
3642.5032,20.99652480368881,3.525189205795782
3643.343,20.948961068733734,3.3776728481994858
3644.1812,20.893499562421916,3.3840041394641203
3645.0195,20.837271672995552,3.2571813567450287
3645.86,20.78934794448281,3.768557099937709
3646.699,20.75580314659588,3.4264700979119977
3647.5398,20.737237192084976,3.175342937089445
3648.379,20.730244991893468,3.1988682800590253
3649.2202,20.728376188549348,3.627662161438975
3650.0596,20.723913824941924,3.3549490920417493
3650.8994,20.710534965702042,3.786533793056085
3651.7412,20.68655410800837,3.5716798476424225
3652.5813,20.65731445473462,3.7080208109960813
3653.4236,20.634373074387394,3.667525547511119
3654.2642,20.63158931909656,3.4807651838015565
3655.1067,20.656211786911758,4.336519465093442
3655.9475,20.699983163070414,3.745984355581014
3656.7886,20.73885485415205,3.6579962174162595
3657.6318,20.745667390355393,2.9994669157762095
3658.4734,20.70901644533234,3.5026642178670446
3659.317,20.641419923746337,3.503174971085627
3660.1587,20.568909875950094,3.697604205452184
3661.003,20.510119092639986,3.2858955858548415
3661.845,20.46666205711166,3.876604005237549
3662.6875,20.427735297435188,4.185974173121282
3663.532,20.384979233234464,3.6125458154407126
3664.3748,20.341965434518595,3.234430686773278
3665.2197,20.310879037329435,3.3020825707192896
3666.063,20.301754072649686,4.184045001312041
3666.9084,20.31243343663673,3.7702843118675218
3667.752,20.329843347021097,3.730961591541234
3668.5977,20.34055693928213,3.73912303746778
3669.4417,20.340323980173626,3.867112970884668
3670.286,20.33480394084678,3.798044944713183
3671.132,20.331691878316917,3.6577172551613506
3671.9768,20.332548406640647,3.6613443179125227
3672.8235,20.330918890671416,3.772567259941571
3673.6685,20.31766658111025,3.5135318486949383
3674.5156,20.288135604380013,3.6602645515280714
3675.3608,20.245632965425873,3.5554914353306235
3676.2063,20.198153492596038,3.8442783100049636
3677.0542,20.153103408994347,3.718883005390159
3677.9,20.1141777908094,4.001057731296767
3678.748,20.080411890154085,3.4674222820933465
3679.5945,20.04891247589367,3.557297130913998
3680.4429,20.01630653640817,3.7180718425499872
3681.2896,19.980880344549128,4.119710234688946
3682.1365,19.94267959515026,3.7282966340670236
3682.9856,19.903735629998092,3.9344797266736014
3683.8328,19.868596954356697,3.970220834976494
3684.6824,19.843731794344432,3.770465719199995
3685.53,19.836133949418045,3.9138274344236033
3686.38,19.84830842603071,3.6386711787017285
3687.2278,19.87452101591928,3.9302225956313364
3688.0762,19.902093076722974,3.7604188861978307
3688.9265,19.918049606452584,3.772394942674928
3689.7751,19.91663285249694,3.4458849708226253
3690.626,19.90186246566476,3.877635202640077
3691.475,19.883098691351805,3.819288558766781
3692.3264,19.867679349468332,3.821286829528906
3693.1758,19.856771570677733,3.7390640426047717
3694.0254,19.845540505907213,3.9461934633701894
3694.8772,19.826877141140955,3.804422137050666
3695.7273,19.79604702061601,3.798206849272603
3696.5793,19.753849312591427,3.3919281713996274
3697.43,19.70717072084896,3.748154257132473
3698.2825,19.663628418226313,3.851056766755397
3699.1333,19.62590372358431,4.02722082916854
3699.9841,19.58913650238644,4.083378049812632
3700.8374,19.54560639222471,4.24144699153861
3701.6887,19.491462618458574,4.466808131845321
3702.5425,19.428507849779024,4.059011191909365
3703.3943,19.36310618627916,3.8896472021479545
3704.2483,19.300624066001056,4.153653664049346
3705.1003,19.243015010313517,3.834518885733717
3705.9526,19.18675829939403,4.445233016706748
3706.8074,19.126015748653025,4.005809488081102
3707.66,19.05801347896932,4.029711544704506
3708.515,18.985053032769002,4.134895635362294
3709.3682,18.914829797145725,4.572834350301995
3710.2234,18.85533733381845,4.134057568000566
3711.0771,18.812700234029037,4.577491503601192
3711.9307,18.788304485832857,4.340761103417319
3712.7866,18.77817958211625,4.119994620780342
3713.6409,18.773841803760178,3.9562114215061106
3714.4973,18.766152830641506,4.371115139641397
3715.3518,18.750716313591028,4.115038331200083
3716.2085,18.7296446724277,4.568863822043159
3717.0635,18.708678483289482,4.284965656176078
3717.9185,18.691666250879962,4.5579447912836315
3718.776,18.67809299767548,4.233809870453995
3719.6313,18.664754166443714,4.125017127677394
3720.489,18.648798870732463,4.643451510069123
3721.345,18.629707221962242,4.383965633549171
3722.2031,18.608354145109836,4.397001064684747
3723.0593,18.585896827130778,4.451074404525573
3723.9158,18.562157218822986,4.233208867574856
3724.7747,18.534887829048387,4.507787674175637
3725.6316,18.500537236965336,4.104661786659014
3726.4905,18.456427301419872,4.028997591972808
3727.348,18.40422857801642,4.779813214340286
3728.2073,18.349204682171397,4.163044960393329
3729.065,18.29791845862671,4.8568622571966715
3729.9229,18.253900049377986,4.256374310915044
3730.783,18.216048523211825,4.694761187133597
3731.6414,18.179070642664307,4.69671929758727
3732.5017,18.136146765134345,4.316093504929531
3733.3604,18.085032816172667,5.187034994912234
3734.2214,18.030606627281518,4.363274047768097
3735.0803,17.982996925256185,4.994118368187613
3735.9417,17.949163281268014,4.909150665984876
3736.8013,17.928762593748786,4.599955475329459
3737.661,17.915807913345745,4.362689643722233
3738.5227,17.90628299030817,4.775777661158032
3739.3828,17.902805548077225,4.927967383595114
3740.245,17.91155269689386,4.948845631593613
3741.1055,17.934300212020172,4.855862374031896
3741.9683,17.96336497495279,4.356118099294845
3742.829,17.983897670519674,4.8832847351868125
3743.69,17.98285003457904,4.382044122335124
3744.5532,17.955864400806107,4.149749409903932
3745.4148,17.908762223785395,4.822584373374237
3746.2786,17.8528210696786,5.035827725770947
3747.1404,17.800347658283926,4.945382474392635
3748.0044,17.760342541225924,4.936135875127243
3748.8667,17.73750971517411,5.0377848633953946
3749.729,17.73056312169489,5.108289845753646
3750.5938,17.733388224542608,4.580276480593477
3751.4565,17.737760191940097,4.312447471162271
3752.3215,17.736598749269245,3.9780569378137733
3753.1848,17.725221904774152,5.175288416135731
3754.0503,17.70072115271495,4.6218195894987995
3754.9138,17.66222951636535,5.069811181989829
3755.7776,17.61226871801368,5.439254965268138
3756.6438,17.557970088363714,4.548564708507889
3757.508,17.509305538025263,4.886497984065922
3758.3745,17.473157965648173,4.692842985944835
3759.239,17.450701942362013,4.68874801449541
3760.106,17.43747027532159,4.488682862182662
3760.971,17.427042562595638,4.725153529485307
3761.8362,17.413024512749143,5.130201800658474
3762.7036,17.389953639499527,4.814359267350833
3763.5693,17.354745699428744,5.121551451998727
3764.437,17.308085566509344,4.941167868335478
3765.3032,17.25500114021531,5.371235157722612
3766.1714,17.201642172813937,5.433684446178308
3767.0378,17.153738244599243,5.332839213917959
3767.9043,17.115874523386033,5.241339523031389
3768.7732,17.092601992744164,4.877604173034881
3769.6401,17.086973581241075,5.28478879631336
3770.5095,17.096786020897344,5.02017629746797
3771.377,17.113318143884886,4.861886288537343
3772.2466,17.124776221364733,5.113872122438906
3773.1145,17.122471611844478,4.994973249449307
3773.9824,17.10568536496156,5.358626304951372
3774.8528,17.081089268782637,5.4502460612800885
3775.721,17.058447804275474,5.732508362543778
3776.5918,17.044737992400687,5.415267334913321
3777.4604,17.041370463539597,5.206827864882487
3778.3315,17.043794197268305,4.887368900872413
3779.201,17.0438509619759,5.274868154889331
3780.0703,17.03319564213573,5.254170338977869
3780.942,17.006984869245713,5.394951839801132
3781.8118,16.96731787444391,5.702007075522767
3782.6838,16.9234006053897,5.46759004487723
3783.554,16.888444088838007,5.561327799867904
3784.4265,16.871795341170056,5.200600306009015
3785.297,16.87330601744852,5.408045132656655
3786.168,16.882339137484966,5.065438525565879
3787.041,16.88384152072948,5.146886288585449
3787.912,16.866904933766225,5.421161346646024
3788.7856,16.83051137466271,5.2132328458846935
3789.6572,16.783336852098458,5.404147203231623
3790.531,16.737032252527694,6.036252336757954
3791.403,16.69994860125997,5.042460545934362
3792.2754,16.673273482417,5.138700594379479
3793.15,16.653564871910614,5.714303556430519
3794.0225,16.637265099225516,5.3276762509265545
3794.8972,16.622906872963778,5.601350776627685
3795.7703,16.61027769924066,5.433272312575854
3796.6455,16.597352436028846,5.592304223587889
3797.519,16.57927883870783,5.575153015095938
3798.3926,16.54984198799628,5.772982171635192
3799.2686,16.505007032587205,5.213254013046679
3800.1426,16.44672164598191,5.6062732855269735
3801.0188,16.38274728716138,5.29288761229556
3801.8933,16.324296500419425,5.458359602301389
3802.77,16.27892600623011,6.410822089664408
3803.6448,16.24713002117306,5.834172556882015
3804.522,16.222887264852165,6.253811283873867
3805.3972,16.20067923205622,5.3772019495776915
3806.2727,16.180296281158526,5.530817722538891
3807.1504,16.166239957991017,6.4198055729994925
3808.0261,16.16237985827639,5.791873520796225
3808.9043,16.167878033004282,6.180580710757856
3809.7805,16.178350074586188,5.40491389560753
3810.659,16.189787731103422,5.777109773258616
3811.5356,16.200767472376484,5.47151782081558
3812.4126,16.211849466600864,6.412637260054421
3813.2917,16.223301576005856,5.889436831820162
3814.169,16.233801435780045,5.8559462846769454
3815.0483,16.241032660152264,6.264360232438019
3815.926,16.242369565505,5.945439962051741
3816.806,16.235243020525317,5.349071881906459
3817.684,16.21734448523694,6.072014105983008
3818.5623,16.187673829413733,5.319223499526284
3819.4429,16.14790161729796,5.445077959267505
3820.3215,16.102851334345473,5.525193283629527
3821.2024,16.057682064510857,5.782785542034641
3822.0815,16.01583783481145,5.60336274887377
3822.963,15.976669685381083,5.525288673491483
3823.8423,15.936698389038266,6.068128344067285
3824.722,15.891352493438312,5.913180522286621
3825.604,15.838413391923229,5.4464518860431115
3826.4841,15.780383181222549,6.399614363346326
3827.3665,15.7222107567418,6.388121252008249
3828.2468,15.668457420212595,5.700381642763747
3829.1296,15.619349029707138,5.700831032686908
3830.0105,15.572789136519145,6.93011662294545
3830.8916,15.52740212821066,5.92144148952396
3831.7751,15.486084468978742,6.416725653558467
3832.6565,15.455516281549457,6.586347396675092
3833.5403,15.440949696954895,6.6407894474888005
3834.4224,15.442122830832522,6.217243279044468
3835.3064,15.452156505767533,6.78096833756357
3836.1887,15.461307435038721,6.227846064159121
3837.0713,15.461937315657694,6.136448854288402
3837.956,15.45101009734768,6.72871320792254
3838.839,15.430342257663364,5.833438746137753
3839.7244,15.405504904421544,6.695916773375733
3840.6077,15.384466143469105,5.866386098100901
3841.4932,15.373842090939377,8.148817883995589
3842.377,15.375282159484296,5.961050182819774
3843.261,15.384195370128237,6.343114381275036
3844.1472,15.393245061631088,6.365266398534158
3845.0315,15.397120647957237,7.062240728358704
3845.9182,15.394989797138766,5.993800354363745
3846.803,15.38935591996617,6.2294216786015175
3847.69,15.383733524285804,6.121273322942918
3848.5752,15.38090179915656,5.949087118443453
3849.4604,15.381317329074383,6.384459240695272
3850.3481,15.381696352169367,6.520065025476423
3851.234,15.374963638818622,6.330281773713693
3852.122,15.353385943216479,5.895686031339732
3853.0083,15.314065089417493,6.712751980638089
3853.8967,15.26144636702211,6.39610125581719
3854.7832,15.205378365847608,7.04249580306652
3855.6702,15.15406658428667,6.515377141975648
3856.559,15.109968094256908,6.510986622179777
3857.4463,15.070136984992972,6.535114522333292
3858.336,15.029433823255134,6.627160133413316
3859.2234,14.985673056846661,6.6764836177765465
3860.1135,14.941054756303592,7.173389749266625
3861.0015,14.902168137780192,7.284764122559426
3861.8896,14.875692329484115,6.932712303378731
3862.7803,14.865160740089143,6.972738869330083
3863.6687,14.868922630987816,6.9166264940754925
3864.5598,14.88048942734193,7.148196318606992
3865.4487,14.89100457754885,6.38043221622256
3866.34,14.892938084143843,6.998198120950697
3867.2297,14.882758497443767,7.118939811760238
3868.1213,14.861323359108512,7.029512121391129
3869.0112,14.832099486207355,6.231379610828756
3869.9014,14.798663434770784,6.4253636083828924
3870.7937,14.763826225071947,6.65045930414741
3871.684,14.73001208689738,7.496663561651907
3872.577,14.698799321637427,7.351035911344591
3873.4678,14.670979448503722,7.492539355313063
3874.361,14.644848960168645,7.464767712439749
3875.2524,14.616336006622559,6.628433890492973
3876.1438,14.580237385974405,6.980718832359523
3877.0376,14.533948196013291,6.716781768662326
3877.9297,14.480745406323475,7.494534425535917
3878.8237,14.428153874929714,7.463961046501022
3879.716,14.384227634611713,7.5983562296932945
3880.6108,14.351925044848091,6.938181758911845
3881.5037,14.328211091988951,7.53066035404186
3882.3965,14.305894396464893,7.1754416199537845
3883.2917,14.278553093074043,6.941497914896531
3884.185,14.244499678589856,7.1706248144940545
3885.0808,14.206569082521614,7.45517368710787
3885.9746,14.16956908580684,7.5876910539575375
3886.8706,14.135862578154862,7.3183091769024715
3887.765,14.105095343654856,7.400225765777162
3888.6592,14.075905544837758,6.904843129341916
3889.556,14.048542982448003,8.067971790854807
3890.4507,14.024784880567093,8.320626099975676
3891.348,14.005174422166514,7.6354953419542015
3892.243,13.98842435387736,8.022169795882856
3893.1406,13.972614917045508,7.5205377455412075
3894.0361,13.957751742192999,7.932717440759827
3894.932,13.945859747900455,7.360326985467148
3895.83,13.940247901991741,7.918848405289262
3896.7263,13.944816223027061,7.116100861652512
3897.625,13.963274835310676,8.230693861504767
3898.5215,13.997127355061947,8.218876438413073
3899.4207,14.044016198037172,7.951475277498913
3900.3176,14.097120738432315,7.037436351462133
3901.2148,14.14890070304007,7.034254062488411
3902.1145,14.194290701063615,7.1387112330458296
3903.0122,14.231986375781974,7.5721850382602645
3903.912,14.264108158525318,7.747275005551105
3904.8103,14.293127967926756,7.943037813817252
3905.7107,14.320660156928614,7.362908551356091
3906.6094,14.34638603371222,7.3760102930996885
3907.508,14.368759655352171,6.7972385889990115
3908.409,14.385452587230914,6.997071518074014
3909.308,14.394245292597327,7.8229833063286955
3910.2097,14.394310253159183,6.806703710087083
3911.1091,14.386268103787367,6.795829112664086
3912.011,14.371094184093442,7.7496263846678035
3912.9111,14.34923239262318,6.560496565320471
3913.8113,14.321114195625912,7.537732743315081
3914.7136,14.28891732832455,7.207576038620999
3915.6143,14.256935136387561,7.037421210828189
3916.517,14.228498497451312,7.854957624243775
3917.4182,14.203708756002845,7.766736736097171
3918.3215,14.17918684602754,7.216771797765163
3919.223,14.151879945311855,7.733261931674334
3920.1245,14.121962018451105,7.666851913389481
3921.0286,14.093462030709949,8.009447280679868
3921.9307,14.072188472398159,7.5651886709435106
3922.835,14.06204489840781,7.562971991887008
3923.7373,14.062870750425441,7.481374582670083
3924.642,14.06973773180674,8.44275445797296
3925.5452,14.07538314366089,7.780934888162852
3926.448,14.074625775147142,7.912745795353537
3927.3535,14.067177139320059,8.867359364253161
3928.257,14.05654450656227,8.743414550177887
3929.1628,14.045842602083406,7.829216418358165
3930.0667,14.034821763349637,7.604731086410656
3930.9731,14.01959316640286,7.453789349230211
3931.8774,13.995262942005954,8.515553611742597
3932.782,13.95905354804588,7.5373450117210705
3933.6887,13.913269054943186,7.757679463562609
3934.5938,13.86601070263747,7.764958481546299
3935.501,13.826964038299282,7.91537744234114
3936.4062,13.80293118005874,8.353026511717244
