wavl,flux,ivar
3566.9744,0.5401947171682416,483.41732179258673
3567.795,0.5384392986547698,480.9660657349077
3568.6177,0.5351647002706124,771.5262868851873
3569.4385,0.5314132102677797,860.6434720205804
3570.2617,0.5280685631463377,440.5952491469647
3571.083,0.5258750351825976,499.4470383055323
3571.9065,0.5253897857801315,862.1465655650902
3572.7283,0.5268269671732847,621.6319862900338
3573.55,0.5298388772714111,471.8304827705306
3574.374,0.533635524297145,956.146440286493
3575.1963,0.5372665520376764,441.7784461230545
3576.0208,0.5399391609898891,581.3168444884475
3576.8435,0.5410463773977221,370.62929268528296
3577.6682,0.5403031996518296,496.66024346885314
3578.4915,0.5379135717594237,536.5875865406382
3579.3145,0.534657948396139,624.2472764829738
3580.14,0.5316675637876375,476.323398913648
3580.9636,0.530025492190156,782.5429838072968
3581.7893,0.5302984952731178,346.37997493625954
3582.6133,0.5322857136014331,776.0102747837686
3583.4395,0.5349639661444199,412.34859935729355
3584.264,0.5367943376449035,271.6090336845996
3585.0884,0.5365033791595952,377.60622841405836
3585.915,0.5337425348441658,507.99155426142636
3586.74,0.5291956282058479,615.730001554579
3587.5671,0.5239478621345794,585.0093834917485
3588.3923,0.5188998442022016,657.8269882238777
3589.22,0.5143984059813164,510.69282090636864
3590.0457,0.5104390724341188,639.5416457592548
3590.8716,0.5068339653883797,455.9385237086496
3591.6995,0.5035064883910484,535.270813949724
3592.526,0.5006019242609306,570.6458072686762
3593.3542,0.4982837532143376,596.7522788714446
3594.181,0.496546612037395,672.4355943221944
3595.0098,0.4951872094647406,893.7091741853658
3595.8367,0.49410560346754895,502.4253296669958
3596.6638,0.4934496026210935,545.0195473157199
3597.4934,0.4934971390055921,709.9883542165725
3598.3208,0.4944526961289669,520.4625342016092
3599.1506,0.49648668762643694,458.3107317563783
3599.9788,0.4998256120802786,573.7781591944494
3600.8088,0.5046035230218988,544.8536602021828
3601.6372,0.5103417010897475,541.4480758442046
3602.4678,0.5158260548393666,526.7828481349724
3603.2964,0.5194798700639909,521.1002809436279
3604.1252,0.5203560319483146,426.3308034194341
3604.9565,0.5186780025102988,552.8006238096627
3605.786,0.5157237805199565,744.3461809067368
3606.6172,0.5130363944226788,332.32095881839695
3607.447,0.5117011287277706,444.2552940186058
3608.2788,0.5119599251568877,1112.192726280772
3609.109,0.5133332331112153,557.7838933021585
3609.9392,0.515022927837873,673.9702999374854
3610.7717,0.5163705108588365,1435.2223329294325
3611.6023,0.5170601143319598,668.7819292518103
3612.435,0.51702908111609,754.6421487908515
3613.266,0.5162881471424484,512.1985452351967
3614.0994,0.514956873755905,471.24161520547995
3614.9307,0.5133784464846609,869.7601095612154
3615.7625,0.5119748350765292,519.6103014811912
3616.5962,0.5109702877936554,480.7093541244494
3617.4282,0.5102883219028885,508.9681480956747
3618.2625,0.5097046686570633,731.7991245480453
3619.0947,0.5089986141748125,413.72265143960806
3619.9292,0.5078768505656666,583.2301530696841
3620.762,0.5059970169413261,441.92884284874026
3621.595,0.5032533855642958,536.610697725291
3622.4302,0.5000786109529801,597.8351385964183
3623.2634,0.4972929915107859,809.2312149887788
3624.0989,0.49541496478526725,576.7299170892531
3624.9326,0.49421584285001485,570.1241615218366
3625.7686,0.49284032431588165,643.2342534253482
3626.6028,0.49053326754331694,534.8060562777516
3627.437,0.48723572621070094,642.1386212780578
3628.2734,0.48363364752277366,951.2199352172645
3629.1082,0.48074516375821164,568.0817812941573
3629.945,0.4793806562154623,933.3236864472321
3630.78,0.4799665069724438,562.0111384342182
3631.6174,0.48247868022314483,549.4565938531832
3632.453,0.4863790222775129,903.8687701441577
3633.2883,0.4906453509523076,531.587016548413
3634.1262,0.4939770765647796,624.2865207526133
3634.9622,0.4952244240842097,749.2351702217356
3635.8005,0.4939457233622142,792.8626566567868
3636.637,0.4906182363111194,515.7923649526027
3637.4756,0.48636161788755533,529.5833901024681
3638.3123,0.482371652326421,554.0288031414838
3639.1492,0.4793068639511515,630.3862607702811
3639.9885,0.4772153923668235,840.9091136343975
3640.826,0.4758031608767676,774.6805658060339
3641.6653,0.4747046029080981,987.1980650976939
3642.5032,0.47366170549890907,906.541829320015
3643.343,0.4725528274047899,563.6927710013174
3644.1812,0.4714533239948834,663.8348618945271
3645.0195,0.4706035846951826,634.6807646370053
3645.86,0.47027222213238057,546.0211455699551
3646.699,0.4705114363028304,578.1386505553239
3647.5398,0.4709606695134775,572.2736500743811
3648.379,0.4709030614002278,517.6315225948096
3649.2202,0.46965843325825074,504.35356590759136
3650.0596,0.4670886934089266,801.8969034005721
3650.8994,0.46373366671753347,589.5251149465627
3651.7412,0.4604512685182422,738.6336998428391
3652.5813,0.4579082373552399,559.3842814152133
3653.4236,0.4563316968889271,609.769804853382
3654.2642,0.4557446368112283,934.0970495350233
3655.1067,0.45615154562951504,722.5527722275203
3655.9475,0.45751933778957454,563.6906742389228
3656.7886,0.4596577208458508,1025.7801256828532
3657.6318,0.4622703602053209,610.2777930123988
3658.4734,0.46508220746250206,709.7969680041508
3659.317,0.4678778336252623,746.9903874830886
3660.1587,0.47027774367700537,467.2537786691667
3661.003,0.47172667452989986,444.58133557341336
3661.845,0.4716910204273236,480.37542452988794
3662.6875,0.47005466519852274,635.3515921270123
3663.532,0.46731818430293176,1059.8781810702494
3664.3748,0.4645390319532844,538.9405911568232
3665.2197,0.46282149340501194,709.974258721774
3666.063,0.4626933531828812,513.985339199928
3666.9084,0.4637216447236022,872.0608148710202
3667.752,0.4648560410177298,1022.6623955441165
3668.5977,0.4652193160412638,891.449890616041
3669.4417,0.4646240334518771,772.9659210784823
3670.286,0.4634803147643183,655.0421131160531
3671.132,0.46231358538357276,622.3526621354476
3671.9768,0.4613923608052602,837.8966525645723
3672.8235,0.46061306962965576,578.8793057730344
3673.6685,0.45962000089496174,779.7439700772732
3674.5156,0.45799105377407556,783.3165020860309
3675.3608,0.45551965826483726,578.8246949450078
3676.2063,0.45241622572251067,712.067241537572
3677.0542,0.44934001312735594,756.8284400156972
3677.9,0.44714739925670205,1118.4203675371136
3678.748,0.44638425636648077,663.4033033628851
3679.5945,0.4470209763012084,773.1085400424655
3680.4429,0.44849144603582397,893.1399718505231
3681.2896,0.45002454061093133,817.5966308739595
3682.1365,0.4510200975980566,683.5943940124846
3682.9856,0.451239390111779,914.4194881521661
3683.8328,0.4508142641534455,677.3621383415438
3684.6824,0.45007774151351615,684.3656881107614
3685.53,0.44933113322983237,1423.0784542282854
3686.38,0.44868408603656385,831.3409805532679
3687.2278,0.4480291841253848,606.92633236867
3688.0762,0.44686617535462775,749.1673172331467
3688.9265,0.4438504052364784,847.279232747324
3689.7751,0.4366355603474553,685.1642961601423
3690.626,0.42312587004847824,791.7023096967383
3691.475,0.404901042341247,604.6137510226174
3692.3264,0.38984977420824624,1050.0397751386363
3693.1758,0.3904107334659524,1505.4481918650833
3694.0254,0.4148456895527132,14382.335575856909
3694.8772,0.4584953137288288,13830.632796652548
3695.7273,0.5032340468563846,210.5638645140796
3696.5793,0.5296137276724577,728.0301744169461
3697.43,0.529612806068102,581.4177527442974
3698.2825,0.5101838460904894,1044.1167198260532
3699.1333,0.48510275654865903,835.7059594782869
3699.9841,0.46472398100387907,714.7936654359768
3700.8374,0.45228175262570447,605.0447687139749
3701.6887,0.44623356995884367,740.8441910360459
3702.5425,0.4437078442705077,647.9280767540727
3703.3943,0.442592018458637,738.105148676873
3704.2483,0.44169653973644946,619.4857344080957
3705.1003,0.4405507991962373,836.93885566319
3705.9526,0.43923507380330573,1193.8607618300875
3706.8074,0.43817249930583874,683.6632033549708
3707.66,0.4377130912867908,683.9640952424705
3708.515,0.43774084503994176,566.4593568921508
3709.3682,0.43770494028408247,838.5373237479157
3710.2234,0.4370265060456457,687.2854229995505
3711.0771,0.43555919205193255,633.4963116720087
3711.9307,0.4337338769378899,1320.4510323210845
3712.7866,0.4323226247774033,977.847430864084
3713.6409,0.43200265628429707,644.1530510110458
3714.4973,0.43293692056549843,635.3231591588192
3715.3518,0.4347250642531735,524.8983163409011
3716.2085,0.43684687046539844,906.2281203058346
3717.0635,0.43921995281936094,689.4834554750337
3717.9185,0.4422922733888266,1307.5319664256447
3718.776,0.44632134330355827,1378.864716336217
3719.6313,0.4505602636935135,621.7252514171266
3720.489,0.4534817529647557,709.5426935644605
3721.345,0.4537838872554788,600.6040204360254
3722.2031,0.4513794051012261,597.172381366646
3723.0593,0.4473836241950695,827.864588532053
3723.9158,0.4433055531949275,805.8575783521601
3724.7747,0.4402405136840053,880.8225900856398
3725.6316,0.4384894806742078,926.2012251468657
3726.4905,0.43756598696422794,716.5121850041788
3727.348,0.4366112485001195,747.3906089626311
3728.2073,0.434860642389141,666.5893184804456
3729.065,0.4320279063803379,802.2354140593059
3729.9229,0.42833927280271783,826.2550000513195
3730.783,0.42432579121484704,696.8004266957747
3731.6414,0.4205770391502428,873.9730084478651
3732.5017,0.4175059164483758,1246.9429990008593
3733.3604,0.4153697985214649,924.2755019491675
3734.2214,0.4142494520321394,872.0574596577568
3735.0803,0.41412954640578015,630.4355625791798
3735.9417,0.41490251810287226,967.869411180269
3736.8013,0.41635379798963373,866.5448199317901
3737.661,0.4181230952206662,780.0377777088431
3738.5227,0.41974644933577593,895.5624237231968
3739.3828,0.42085348067121275,925.2695559480671
3740.245,0.42144542213845865,681.2695517329805
3741.1055,0.42188334270148936,1237.3336356050777
3741.9683,0.4225656731934591,601.8412835705026
3742.829,0.42352787437395717,562.999614894306
3743.69,0.4244113989309629,930.1321858408073
3744.5532,0.4247974269504161,652.4263985226077
3745.4148,0.4245771620836037,691.1334096194332
3746.2786,0.4240396459388133,1257.5376073745592
3747.1404,0.42366344481156065,754.7413823566461
3748.0044,0.42383222721356906,849.9425029275792
3748.8667,0.42465638880252055,867.8662478877355
3749.729,0.4259111354022441,718.7343075024814
3750.5938,0.4270891124632027,974.2180218815491
3751.4565,0.42757705459677453,840.8646667024641
3752.3215,0.42698022450999124,695.1842847635837
3753.1848,0.4253699283423651,1551.5883830728617
3754.0503,0.42326560560449045,878.0952466772318
3754.9138,0.42136985505254704,658.3132425060109
3755.7776,0.420192841772564,778.8675897226576
3756.6438,0.4199226706790539,799.2002868876518
3757.508,0.42049157813653504,792.910972116396
3758.3745,0.4217032691254254,981.0898135867637
3759.239,0.42326452595757474,897.0645680732223
3760.106,0.42479654360385416,654.9290406483883
3760.971,0.4258999020947229,678.5003735250116
3761.8362,0.4263917023857051,748.7510052438654
3762.7036,0.4263945534595044,903.0566206677673
3763.5693,0.4261499200707215,876.5874726647793
3764.437,0.4256956963290732,860.9102671331424
3765.3032,0.4248283735338723,897.7070548515196
3766.1714,0.4234295165632056,936.2930233646587
3767.0378,0.42178186727519545,1016.6646359844066
3767.9043,0.42041291051079915,703.1789695946628
3768.7732,0.41966019229993645,1012.5559220916108
3769.6401,0.41940669152284543,860.7955731178769
3770.5095,0.4192065123649541,878.4596633169554
3771.377,0.41861889190787555,644.8375455674045
3772.2466,0.4174199094810255,873.6330259259779
3773.1145,0.41570976206457955,928.8619839397862
3773.9824,0.4139455484827879,804.7581855080339
3774.8528,0.4128541764993032,828.3478798087908
3775.721,0.4130730647182213,1613.2800911690115
3776.5918,0.4146559123485902,1044.2850271858724
3777.4604,0.4168896063517385,1129.5021430448753
3778.3315,0.41868757041720606,903.1087204343196
3779.201,0.41922142678579527,605.9726065207377
3780.0703,0.4184118679302012,909.2388741302881
3780.942,0.4168700174277606,850.7362558133435
3781.8118,0.4155325962620139,793.6781931541137
3782.6838,0.4151802816932168,765.9761057511467
3783.554,0.41607958701877035,1927.8871035647119
3784.4265,0.41782359380410783,1034.9516888278108
3785.297,0.4195641317645761,855.2052013541469
3786.168,0.4206281258702759,922.9091565458114
3787.041,0.4209443855414908,1046.4796062868663
3787.912,0.42090624609264343,810.2068892434443
3788.7856,0.42083192190744373,714.0875723039591
3789.6572,0.42062313038222043,897.6330170518663
3790.531,0.41991780641809245,735.7404509597192
3791.403,0.4184759253429465,758.5914157759653
3792.2754,0.41638567633584406,719.831335077795
3793.15,0.41400194706690424,684.3731393509916
3794.0225,0.4117461430633665,1129.3441643597184
3794.8972,0.409855205373259,652.570179283343
3795.7703,0.4083651491155922,928.5398423309866
3796.6455,0.4072016600367508,1038.3141051050459
3797.519,0.40636097066524257,875.176771939677
3798.3926,0.40589424853805867,1116.8528496845706
3799.2686,0.4057791241104456,1028.5395753484136
3800.1426,0.40581640446688017,917.5209000688499
3801.0188,0.4057136290454832,816.2859495955515
3801.8933,0.4052989420193422,751.5352047805094
3802.77,0.40464453008813434,1084.9987032679799
3803.6448,0.40399449871689536,1068.9688611072268
3804.522,0.40356058179812065,821.4517499539131
3805.3972,0.4033880983237558,814.1372689658342
3806.2727,0.4033265302688977,703.49438735522
3807.1504,0.40314754695818344,926.3243060908043
3808.0261,0.40277386971051504,776.4595858981213
3808.9043,0.4024664960464893,753.2579245968591
3809.7805,0.40272590448344914,823.9745719070218
3810.659,0.4038588280836797,912.2773750923182
3811.5356,0.4055802491756434,732.8414512070747
3812.4126,0.4071050006026903,1185.752979370959
3813.2917,0.40766859604018585,783.9990695727051
3814.169,0.40706727715990554,863.1699116977029
3815.0483,0.40580671820920633,761.3318779620596
3815.926,0.40480216651564876,824.9948329574512
3816.806,0.40482194777251684,1271.3434744306937
3817.684,0.40600931943119484,811.162403188471
3818.5623,0.40773081694905183,878.2390072728504
3819.4429,0.40892992786080984,1042.7880187650264
3820.3215,0.40878803238441314,782.4722386628288
3821.2024,0.40727142033361274,892.5901459506297
3822.0815,0.4051264356510219,1031.2795357287619
3822.963,0.40336849806995234,978.1563400513844
3823.8423,0.4027474448450438,1080.1779333565942
3824.722,0.4034259221886863,763.0751451840335
3825.604,0.4050180077427288,807.0925695661508
3826.4841,0.40675009600203677,906.4373405807332
3827.3665,0.40775438215918525,1137.4454881866668
3828.2468,0.4073557852369217,1286.1133927451963
3829.1296,0.4053588850049526,894.0467227162675
3830.0105,0.4021502205429679,1381.8777767369907
3830.8916,0.39845830786579817,971.6235675740871
3831.7751,0.3949322319991278,875.3413097203328
3832.6565,0.3918386569124263,953.9325607571662
3833.5403,0.3890494701969619,879.4279357188992
3834.4224,0.3864896258478648,1114.6715880973122
3835.3064,0.3844086847099174,1458.9575913891567
3836.1887,0.3833522434716271,1444.7717926247835
3837.0713,0.3837289399090776,2240.783494625987
3837.956,0.385488556906072,925.4928083350915
3838.839,0.38810285780383474,1159.037473619686
3839.7244,0.3909000764104211,939.8007881558563
3840.6077,0.3933537208049663,980.474304415606
3841.4932,0.39529214914502947,750.9019901350216
3842.377,0.39684996275629775,871.5233342399174
3843.261,0.3983801648452324,921.2446473400884
3844.1472,0.40022594250019633,1214.415675403226
3845.0315,0.40246854391760184,749.8520500582473
3845.9182,0.4048383667599812,1384.3149233264762
3846.803,0.406764859589234,725.529169860722
3847.69,0.4076725755723285,953.9863715478706
3848.5752,0.40725130789455016,854.0673668475966
3849.4604,0.405694637727486,825.619859050503
3850.3481,0.4036746410218637,815.9248567011933
3851.234,0.4020501182695851,818.2804542691999
3852.122,0.4013709492287823,894.9789974793151
3853.0083,0.401666392601961,925.4574248945819
3853.8967,0.4026123985666778,745.1693554894798
3854.7832,0.4038935582237397,910.485982381015
3855.6702,0.40535728596774456,1076.5915995300534
3856.559,0.4068333760221837,1099.742149986086
3857.4463,0.40793483484934717,824.9641287980442
3858.336,0.4081747581857016,1040.1193702770518
3859.2234,0.4072834857038581,835.9410032374519
3860.1135,0.4054292299110652,833.2956376651258
3861.0015,0.4031233462621556,1018.8220167085516
3861.8896,0.4008677551034157,1003.9279846542648
3862.7803,0.3989343800858145,1356.3173172331694
3863.6687,0.39739402324322803,991.7550905433047
3864.5598,0.3962577086049777,809.2230960241782
3865.4487,0.39562549842574785,1360.4944391585184
3866.34,0.39558617211836,1013.3346495594703
3867.2297,0.39603416877223185,641.6434998295781
3868.1213,0.39655263415265596,1008.4078690907078
3869.0112,0.3965138458145059,987.0025776925871
3869.9014,0.39536012015300115,967.1783781331663
3870.7937,0.3928770139054623,981.2771953310236
3871.684,0.38937771608827165,817.8816145778379
3872.577,0.385597358829988,1029.0575040493861
3873.4678,0.3824591387483362,1155.739990577654
3874.361,0.3806025763950962,1408.5946525111697
3875.2524,0.38015069900679965,1313.061296532309
3876.1438,0.38066817421806987,768.1135896281847
3877.0376,0.38142437693921843,1366.49886177051
3877.9297,0.38171911892632915,1178.9943910884867
3878.8237,0.38120228581729526,977.4896487366354
3879.716,0.37999367424949754,1039.8214559371454
3880.6108,0.37848824377612605,1890.549235440447
3881.5037,0.37700562488831507,1231.4268995637078
3882.3965,0.3755711879448999,770.726510335241
3883.2917,0.3740807951433689,1036.2406796370735
3884.185,0.3725578256142088,1259.593746147744
3885.0808,0.3711211839529656,1427.3713565181943
3885.9746,0.36982502351914814,757.3166214607571
3886.8706,0.36859734119906046,870.7891579741562
3887.765,0.3674414323897049,1528.7209677066364
3888.6592,0.36651476476634354,1166.7540622907313
3889.556,0.3660137259146635,861.3334629647918
3890.4507,0.3660245308032873,1005.6629854124692
3891.348,0.36651856161814006,981.19139994084
3892.243,0.36741889303361325,850.295089787396
3893.1406,0.3686000903773405,1416.1783833253858
3894.0361,0.36983701763331883,1175.0377012076265
3894.932,0.3709123182564232,1049.2445864403703
3895.83,0.3717932237558723,871.5594661760282
3896.7263,0.37270951886142495,994.6693494205838
3897.625,0.373989791855433,1149.137992736547
3898.5215,0.3757180342832347,1296.9444741123325
3899.4207,0.377622343434561,1040.1727723237113
3900.3176,0.3792699437907975,1014.5826131173365
3901.2148,0.38051574420856205,761.6121101861959
3902.1145,0.38168979510831663,826.9794492528384
3903.0122,0.3833674208644142,946.6563739867705
3903.912,0.3859101559847857,819.8401340145039
3904.8103,0.3891190860213013,1201.5018830241743
3905.7107,0.3924133962263663,829.6774480284403
3906.6094,0.39521465806666173,1143.2194346116373
3907.508,0.39731010891613333,913.6125022617603
3908.409,0.3987782042819727,1135.8444236382677
3909.308,0.39973489546187635,915.9275542981812
3910.2097,0.4002397646909727,838.348289640329
3911.1091,0.4004005906680428,1257.9200331828497
3912.011,0.4005311046001561,965.0827500890799
3912.9111,0.4010761051077098,1260.6243420635742
3913.8113,0.4023514399231203,1037.2700599669183
3914.7136,0.40432620974728073,915.9662803584127
3915.6143,0.40659422795302946,1071.0459650096043
3916.517,0.408597423987336,718.8001590052985
3917.4182,0.409859099524194,751.5344025106842
3918.3215,0.41022115367043255,891.8115397587726
3919.223,0.40985860365190535,807.8371540054555
3920.1245,0.4091117437807986,1156.664151879334
3921.0286,0.4082096508548599,1032.9904336745924
3921.9307,0.4071663186348847,737.1286915310138
3922.835,0.40594235101607096,1006.1190800050864
3923.7373,0.4047444500571003,829.8915262127823
3924.642,0.40402463326870575,889.6041271673193
3925.5452,0.4041579352031716,1049.343118634165
3926.448,0.40504811306716837,988.4787213190881
3927.3535,0.40612401988046326,951.1088658217614
3928.257,0.40671063740837166,750.6132350673074
3929.1628,0.40648813768390657,953.5643414350119
3930.0667,0.40560020787635004,850.4890900773862
3930.9731,0.40440249991814353,1233.4865576664445
3931.8774,0.40316651004108517,797.8147463317382
