wavl,flux,ivar
3566.9744,3.604460029451997,210.93922370784463
3567.795,3.60861943023526,189.46867045103986
3568.6177,3.6131677485575593,176.1596236126226
3569.4385,3.618986238962879,197.4933500375022
3570.2617,3.6262753663669347,169.76482334447246
3571.083,3.634263450189276,204.41317415859484
3571.9065,3.6420347021881776,153.15975886691177
3572.7283,3.6491100620913124,196.04706486849273
3573.55,3.655445341810266,187.12489473338755
3574.374,3.660494929910918,165.35179774822834
3575.1963,3.662692441315101,191.0963520540888
3576.0208,3.6602125116297395,154.8184076886554
3576.8435,3.6522320899069727,176.15474527804136
3577.6682,3.6394719003646596,235.42386047543167
3578.4915,3.623790066475033,175.34580987844828
3579.3145,3.607162115173225,186.88521625790446
3580.14,3.5914232446451457,194.017820845233
3580.9636,3.5786557820350278,212.31850376785684
3581.7893,3.5708302137163628,182.13606081083338
3582.6133,3.569212258684395,194.24644965557874
3583.4395,3.5733214142684186,212.98897342457383
3584.264,3.5808904240907995,172.8252233290802
3585.0884,3.588825431280471,190.08744393636243
3585.915,3.5943289232269144,203.6142629354707
3586.74,3.595462376387304,178.00174631466209
3587.5671,3.591357429603825,179.6973078816023
3588.3923,3.5823310834343083,183.46961659494178
3589.22,3.5699371249667307,178.84925947285012
3590.0457,3.556845664354843,179.04774030961352
3590.8716,3.5456652216841076,213.15996400653833
3591.6995,3.5378935883495983,211.72959031697008
3592.526,3.533429926159485,192.715292371641
3593.3542,3.5309995135891508,227.88800150555682
3594.181,3.529267683310161,189.48627392672992
3595.0098,3.5273376115611574,202.00526997384372
3595.8367,3.5245374506371636,219.19538177565371
3596.6638,3.520089803747491,236.2510537659676
3597.4934,3.5136535761583767,183.29125348313815
3598.3208,3.506402909415014,200.52068145464506
3599.1506,3.500916336214139,196.4497710266763
3599.9788,3.499716768530571,218.2743584836345
3600.8088,3.5033320420065186,198.31889358174274
3601.6372,3.510089503913686,175.0717066299694
3602.4678,3.5176994802279413,216.9128389924654
3603.2964,3.524756879959093,200.73525406938987
3604.1252,3.5311170597928543,187.28259331990535
3604.9565,3.5369970001522604,193.23635532836357
3605.786,3.54224858358338,215.89791540600078
3606.6172,3.546562066303438,192.92236234629985
3607.447,3.549864208666037,205.4143314099037
3608.2788,3.5525714269801285,169.85794501164102
3609.109,3.555115263325695,173.59192477712062
3609.9392,3.557305485095695,160.05923154280944
3610.7717,3.5580059625569085,190.91388258355337
3611.6023,3.5556546512287146,211.16745942978994
3612.435,3.5493378685280623,176.87171117451663
3613.266,3.539671148752984,175.8303269593883
3614.0994,3.5285792027502554,207.99940389470578
3614.9307,3.5184687469213145,219.98841149290305
3615.7625,3.5108704927896213,212.13821150470903
3616.5962,3.505954343740701,209.60166985923675
3617.4282,3.502772328639502,189.59889384977333
3618.2625,3.4999869695907857,189.90921521798538
3619.0947,3.4966873121723214,228.89105078903196
3619.9292,3.49258305499354,184.38251251692276
3620.762,3.48784459776148,215.85692784455276
3621.595,3.482660354611894,183.4683536123454
3622.4302,3.477083602498364,197.71329060705784
3623.2634,3.471205213921893,196.1973598483404
3624.0989,3.4652723571890327,182.64786852247997
3624.9326,3.459761653797928,192.86354003041282
3625.7686,3.4548867409691693,191.31474976998933
3626.6028,3.450392206461024,195.02175453364427
3627.437,3.4458024226927297,181.60006335951115
3628.2734,3.4412823077079526,209.8882587611106
3629.1082,3.438013302941066,195.52831549226084
3629.945,3.437263419402536,185.31612959009058
3630.78,3.4390314469527983,193.47674825627132
3631.6174,3.4416101537127157,226.58864379022427
3632.453,3.442770410825861,190.87893194195487
3633.2883,3.4416224382357927,197.59574937219278
3634.1262,3.43931912930074,200.91378381962977
3634.9622,3.4379847249391178,217.59408322600405
3635.8005,3.438618710903364,223.0381178377663
3636.637,3.4399525347123925,202.74246257308292
3637.4756,3.4393028109468315,196.48248183826684
3638.3123,3.4347295507497853,239.19181188787636
3639.1492,3.426679754213626,232.12824051999638
3639.9885,3.4179021503557006,200.6349835161874
3640.826,3.4119637182766014,218.3648459626969
3641.6653,3.411028888004461,220.54321071770397
3642.5032,3.41455639282935,190.94228670063984
3643.343,3.419407957452219,211.16928669908188
3644.1812,3.4215724561314746,230.5198325225411
3645.0195,3.418498636114385,187.7530579290101
3645.86,3.410224181320556,199.05739315201885
3646.699,3.3989636404795553,212.16821130819056
3647.5398,3.387404284488939,207.7721690917784
3648.379,3.3774051653365182,222.2610671571616
3649.2202,3.3691365824032906,211.18338934959058
3650.0596,3.3615384744965477,198.9466793169765
3650.8994,3.353131155630543,223.30154884321223
3651.7412,3.343162723218553,247.85668196826518
3652.5813,3.3323103745740545,215.08386854133914
3653.4236,3.3224995311763834,204.52535405153355
3654.2642,3.3163973085102834,212.78531337684078
3655.1067,3.3160358084446244,215.97908778487812
3655.9475,3.321558738915842,215.82581337533463
3656.7886,3.330606529290741,208.8879519420488
3657.6318,3.3393104480008047,214.8593891377906
3658.4734,3.3444449906164246,197.4338843398243
3659.317,3.345526316339078,247.5135952682014
3660.1587,3.3447660307662685,242.53421684151465
3661.003,3.345168648844923,198.23173271017703
3661.845,3.348329663602443,192.92760305701927
3662.6875,3.3538110169204276,204.72310532462032
3663.532,3.3601382491356127,218.9179097743348
3664.3748,3.3659623241384775,199.07910220409303
3665.2197,3.370453977484669,208.86182108888644
3666.063,3.3727777948732744,230.9812960268888
3666.9084,3.3720052970657033,227.63561765405325
3667.752,3.36766569601134,213.0528660356734
3668.5977,3.360379439048943,238.09209599047298
3669.4417,3.3517042333156177,218.35632589023544
3670.286,3.3430216710700127,218.21902915101975
3671.132,3.334878658102876,212.97177548622005
3671.9768,3.327280898796296,274.1561074017382
3672.8235,3.3202852731118226,224.63598958765382
3673.6685,3.3144592079921495,208.7957375651177
3674.5156,3.310491087331254,202.4759249502387
3675.3608,3.308763832072214,257.9109177314601
3676.2063,3.309003386782634,201.11594153693358
3677.0542,3.3105422879418076,238.85276411311997
3677.9,3.3127603476676324,221.54489281095763
3678.748,3.315349348528437,233.48212205216925
3679.5945,3.318025612050112,236.5794059760138
3680.4429,3.320176111644521,275.96593697794833
3681.2896,3.320791119106531,218.33956859629
3682.1365,3.3190325408384687,223.88365453128222
3682.9856,3.3149147826237315,214.8479623168557
3683.8328,3.309647220713932,213.04343842125076
3684.6824,3.305111115161412,197.99843108109283
3685.53,3.3029656536125045,205.2509326609151
3686.38,3.3035777156244186,222.64603110063592
3687.2278,3.305680596837475,224.62104807472736
3688.0762,3.3070760907309493,240.0489842695671
3688.9265,3.3061686639643653,226.21911915639373
3689.7751,3.3031875888347226,235.826897742303
3690.626,3.2998457101615912,224.4742747194632
3691.475,3.2977749221730126,223.7386387898167
3692.3264,3.297185910451891,243.22944499343535
3693.1758,3.297075855486174,218.12893890157778
3694.0254,3.2963353988487425,245.2686772240398
3694.8772,3.2945526178693187,247.72523936254498
3695.7273,3.2920658457610967,211.35445254978353
3696.5793,3.2896475245189283,212.49895362487737
3697.43,3.288212244593429,225.36721614478014
3698.2825,3.288260776308589,222.29429346257473
3699.1333,3.289309872727823,241.09389859136056
3699.9841,3.2898738381691257,236.87236175470872
3700.8374,3.288303389473935,206.1034984486664
3701.6887,3.283884485978378,219.39865302774427
3702.5425,3.277217737669215,219.00892062728656
3703.3943,3.269822263107366,238.92440376578674
3704.2483,3.2631240894093816,222.93328006776616
3705.1003,3.257881816936413,248.54155035635216
3705.9526,3.2538899861343227,234.7657299688927
3706.8074,3.2503948030794425,227.4134851393615
3707.66,3.246716669797756,237.68472894331407
3708.515,3.2426058200161787,211.31702581314727
3709.3682,3.2382851445017224,217.31547774460032
3710.2234,3.2339471670391493,227.04245642731587
3711.0771,3.229373343185421,258.39058973349773
3711.9307,3.223884383940946,230.1577823521407
3712.7866,3.2170679152915973,201.70364933372528
3713.6409,3.209830665669425,233.12825258265502
3714.4973,3.2045110722022883,215.8298851930967
3715.3518,3.203868269400102,264.8827504799465
3716.2085,3.2092340333768994,217.15183237363038
3717.0635,3.2195398805033926,236.3678943668483
3717.9185,3.231990749051257,228.3570497338585
3718.776,3.2436715174094237,212.3435894156482
3719.6313,3.2526780872047434,261.0389470736595
3720.489,3.2584615721735815,236.06773391094904
3721.345,3.2610020788052534,214.73065050837548
3722.2031,3.2603388807837974,244.17590954884577
3723.0593,3.256598863937414,217.75734605952326
3723.9158,3.2505421389824694,253.78508564388557
3724.7747,3.2438989057314025,264.0694525135436
3725.6316,3.239251637209799,234.38043879845645
3726.4905,3.2394949650065765,236.5990305853976
3727.348,3.2474948031234203,249.55475059656365
3728.2073,3.265235099484552,251.8404350067197
3729.065,3.2916947132044,212.00535866429524
3729.9229,3.320925560493504,232.58911930955207
3730.783,3.342361148505449,221.1676853240169
3731.6414,3.345518596849625,57.145157478248834
3732.5017,3.3270901037637413,253.94694256379012
3733.3604,3.2938036108715507,245.14598911319231
3734.2214,3.2578864056286196,227.66844306840196
3735.0803,3.229805773994386,272.05956413400673
3735.9417,3.212824756289484,221.90377361834533
3736.8013,3.204498802280334,225.7011087929112
3737.661,3.2002879270854456,257.15195036481316
3738.5227,3.1968204909013958,239.1203479082252
3739.3828,3.1925934884658815,254.3560020689069
3740.245,3.1872058473688387,242.4535548636609
3741.1055,3.1807833116125934,247.02015970728868
3741.9683,3.1738318502805365,244.01894557982308
3742.829,3.167507084562181,223.32277139779902
3743.69,3.163222314511829,241.91283845266753
3744.5532,3.162042805725377,233.46254901028715
3745.4148,3.1641838703456853,245.35297659300537
3746.2786,3.1691283225398874,261.66878533251884
3747.1404,3.1761102935703582,256.4457348213962
3748.0044,3.1844985800574994,242.53419535208687
3748.8667,3.193543616614653,246.4370509362045
3749.729,3.2023800329676737,219.7314249257554
3750.5938,3.210254951243963,244.943773272896
3751.4565,3.216878988193356,260.2644678807207
3752.3215,3.2225521588102226,235.9896684992445
3753.1848,3.227495986271427,287.2965672328338
3754.0503,3.2314475673136758,236.58366988038722
3754.9138,3.2336597819762636,207.49783634541438
3755.7776,3.233579957751483,236.90151861660797
3756.6438,3.2312678254208196,247.53327288324533
3757.508,3.2273125669297023,235.7559190567345
3758.3745,3.2223093994823615,255.04309269874219
3759.239,3.2166233359293743,228.23285241482606
3760.106,3.2103168011633856,212.6699686603484
3760.971,3.2033999531987907,255.3400433676642
3761.8362,3.1957887760938606,247.57775830532427
3762.7036,3.1873392617561738,231.66514339717185
3763.5693,3.1779211879496163,217.18162816825281
3764.437,3.167407661774764,246.13917582563883
3765.3032,3.156073192722442,255.12199302631296
3766.1714,3.1445991030920903,251.37590768682009
3767.0378,3.1340857955591894,246.45008634010657
3767.9043,3.1253812915027472,272.5713682512788
3768.7732,3.1187112053288923,242.9278566999065
3769.6401,3.113783764323674,254.56198943168468
3770.5095,3.110258050545407,245.5821334151561
3771.377,3.1084269694664757,258.09683489858935
3772.2466,3.1091696403134867,229.06880970231114
3773.1145,3.1133561992797256,251.935440079747
3773.9824,3.1210133953905745,234.8439379504537
3774.8528,3.1309451131548447,252.72522345440092
3775.721,3.141027983757535,266.00881714065906
3776.5918,3.149539398622862,239.8772607844203
3777.4604,3.156128414450682,229.54661671073396
3778.3315,3.162258442668546,233.86427693879858
3779.201,3.1700300009953963,246.31989677720313
3780.0703,3.18070482745266,227.6479532260629
3780.942,3.1937748164697237,268.26869391085404
3781.8118,3.2071434072162766,255.25845044803762
3782.6838,3.218334794519685,224.43074378126616
3783.554,3.225146625744874,245.0404556310021
3784.4265,3.2262911054654717,223.13266440811722
3785.297,3.221570661623336,263.5078997239128
3786.168,3.212076468007787,241.20842715731558
3787.041,3.1997523073406726,235.0187962058904
3787.912,3.1865266002146564,247.03562836614807
3788.7856,3.1731546293531947,229.4989261257197
3789.6572,3.1593880122331215,258.54077237216285
3790.531,3.1444415078503796,251.65807568712498
3791.403,3.1280307458157584,248.02855573613687
3792.2754,3.1103335080750028,258.62045591081926
3793.15,3.091785515944403,246.23226369235888
3794.0225,3.0728877852979877,263.3185307700523
3794.8972,3.0537967562791826,243.01702077827898
3795.7703,3.0348229472981965,272.4283878890335
3796.6455,3.0164446552308983,260.3598260330484
3797.519,3.000075228110665,265.89405064192556
3798.3926,2.9878731362868014,277.53249718870745
3799.2686,2.982235202623744,294.78608764004804
3800.1426,2.984576989199525,271.9391519655096
3801.0188,2.9943791574786314,282.977738614774
3801.8933,3.009460035022843,282.9802392167744
3802.77,3.027438390845588,249.65444676054358
3803.6448,3.046755146156443,267.44782942670054
3804.522,3.067302010857492,259.62323372875335
3805.3972,3.089305415919421,293.59117274417054
3806.2727,3.112632364783902,260.3690887351369
3807.1504,3.1361641737630994,257.143120847366
3808.0261,3.1580904722209455,258.74921532433314
3808.9043,3.1772506225763912,256.7168601886814
3809.7805,3.1933156815866193,240.36768399817657
3810.659,3.206963839547219,240.14580398697606
3811.5356,3.2188659358608853,285.0180279929482
3812.4126,3.2293249873834813,222.70799666312723
3813.2917,3.2380378343523604,235.27288695499712
3814.169,3.244348429193209,231.06255648965217
3815.0483,3.247845949095466,230.26968012739601
3815.926,3.2485718503572643,217.5649606298682
3816.806,3.246999412593608,225.85944046364742
3817.684,3.243542033106664,212.77491533652002
3818.5623,3.2380745166025156,237.27703193012525
3819.4429,3.2298996066530083,238.83204948499065
3820.3215,3.218351081506949,232.75887230436277
3821.2024,3.2032772247418615,240.5632324761795
3822.0815,3.185431218778108,271.8937333312056
3822.963,3.1656340757320467,257.20042835325415
3823.8423,3.144215718855174,228.94686316810134
3824.722,3.120448194619497,261.941148266302
3825.604,3.0934388603768572,249.76809274193195
3826.4841,3.0634439145452133,276.7358307094474
3827.3665,3.031628083862673,269.10557550316184
3828.2468,2.999769825083381,253.8065623622003
3829.1296,2.9686929250971517,254.87806666022988
3830.0105,2.938719825322211,283.50669048202917
3830.8916,2.90964163127897,316.93705908114475
3831.7751,2.881362171975426,281.11615208915555
3832.6565,2.8541024307968104,291.11142960128126
3833.5403,2.8279147624128433,319.88767040709183
3834.4224,2.8036191909376056,294.71992790172703
3835.3064,2.7827230995775736,303.74833654802484
3836.1887,2.7677196707970144,322.2334606423875
3837.0713,2.7610848545998468,334.94611857968243
3837.956,2.7646493003524033,389.62750974806187
3838.839,2.7789245666589255,325.05558868857986
3839.7244,2.8030708650360165,307.95873020097616
3840.6077,2.8349458411792745,301.3160538822249
3841.4932,2.8722140192888252,299.5847423432133
3842.377,2.912543315260957,312.3349119426145
3843.261,2.9545904777791288,292.13129075281654
3844.1472,2.997645527921452,284.658902160961
3845.0315,3.040733076419903,268.96405452663936
3845.9182,3.0827021735740483,246.49256484094192
3846.803,3.1212493409722226,226.01925163594623
3847.69,3.1543393900289485,251.98623520258317
3848.5752,3.1806437637484555,260.295714509294
3849.4604,3.200943882568403,245.44111887985397
3850.3481,3.217692365871047,254.59191795218678
3851.234,3.233678859514565,216.6131862556009
3852.122,3.2508571539493456,221.0203063905604
3853.0083,3.269292061311308,217.00486543704378
3853.8967,3.2878437789027224,215.44439731350315
3854.7832,3.3047705352052397,204.81301628844554
3855.6702,3.3188447454850616,222.92032526096622
3856.559,3.32949205136464,233.26717066451977
3857.4463,3.336726956269149,208.98920981665032
3858.336,3.341150939520092,249.41485394417106
3859.2234,3.343668235096009,219.37737865537767
3860.1135,3.3452711522805645,214.62833131128613
3861.0015,3.3464777279318976,225.69275452292868
3861.8896,3.3469538299540402,226.27312741256324
3862.7803,3.345535413621694,212.66245076505137
3863.6687,3.340893556297589,208.42028995049748
3864.5598,3.332373364485529,198.54271841390235
3865.4487,3.320580847063882,227.9555917769385
3866.34,3.306840379095263,244.87002579476973
3867.2297,3.2924445944231544,217.60545945597016
3868.1213,3.277604609313426,224.99542633769394
3869.0112,3.2616780929892584,210.32719701630938
3869.9014,3.2436607325339786,258.53170050875457
3870.7937,3.223021103683809,207.5470901207981
3871.684,3.200081584516191,235.1367790416042
3872.577,3.175286071512808,229.97653605395402
3873.4678,3.149107399251206,248.99495688163933
3874.361,3.121370712943581,250.63115604637048
3875.2524,3.0919807750497115,263.444048734461
3876.1438,3.0606913536744704,267.9681161943544
3877.0376,3.0272469535272015,288.24386404535977
3877.9297,2.9916242525763264,292.8616227499618
3878.8237,2.9536720180069307,312.39088156205406
3879.716,2.913870702649888,295.42491624650654
3880.6108,2.8724075333581522,274.0618753568704
3881.5037,2.829351072715124,326.4143501967538
3882.3965,2.7837984688516726,322.15131484530883
3883.2917,2.734635055377897,316.3482228955434
3884.185,2.6817710797173384,327.8649013380385
3885.0808,2.6257358638583153,334.6584101322469
3885.9746,2.568599236784161,408.9758737482959
3886.8706,2.512524781025257,337.777988837527
3887.765,2.4606684907112597,407.76529211378727
3888.6592,2.4165771811362555,498.387985389222
3889.556,2.384730004611756,429.38226218130893
3890.4507,2.369947001557002,478.39149937694987
3891.348,2.3750946004010984,530.5992928844865
3892.243,2.3996158994451764,456.1164133780226
3893.1406,2.439505873471854,397.6133919003149
3894.0361,2.488510190350186,401.2171707565326
3894.932,2.5411528970153916,367.3651055593419
3895.83,2.5940276585627986,385.40011195702806
3896.7263,2.6456084845775387,311.7492335255374
3897.625,2.696457943918187,363.814341402615
3898.5215,2.7472213209893694,315.3048023118184
3899.4207,2.7988538184960503,322.46064333348494
3900.3176,2.8510596906165673,308.0108803307233
3901.2148,2.9032758238743215,331.49378101407103
3902.1145,2.954583911465232,274.1008215538464
3903.0122,3.003762583555815,276.28158592533384
3903.912,3.050421319424734,254.4970796683619
3904.8103,3.0942281126450055,244.9155498183222
3905.7107,3.135726327504314,223.94478509713085
3906.6094,3.1753638660710783,256.30080994617816
3907.508,3.213764186993557,248.05274907430532
3908.409,3.251252270602036,217.91055470790218
3909.308,3.2877648870629037,201.58550678826617
3910.2097,3.323759667871511,242.93599554562743
3911.1091,3.359480862660894,213.1013289975182
3912.011,3.39523920244002,218.15301510291147
3912.9111,3.4303984796150297,211.10366321289624
3913.8113,3.4641006215879875,192.6124307113861
3914.7136,3.4953189555482833,197.41526015050854
3915.6143,3.5228385449407797,194.6118943256825
3916.517,3.545993751727262,187.97659133939732
3917.4182,3.5645935615826425,200.88393516269198
3918.3215,3.57950562986994,188.28848774221947
3919.223,3.592065345795917,184.95324115458575
3920.1245,3.60384987364367,181.28452586495334
3921.0286,3.6161906133858195,200.52490137754162
3921.9307,3.6298763744202884,201.64733298046167
3922.835,3.6451665514086424,186.67108372816642
3923.7373,3.6613178664159096,187.70207002704268
3924.642,3.676848821502802,178.37606435082424
3925.5452,3.689697662380108,163.7256130807456
3926.448,3.6982694692115783,170.96835156934475
3927.3535,3.7019154978246616,180.24361251367137
3928.257,3.700971737459174,170.36187891311548
3929.1628,3.696509868891631,172.74408336988202
3930.0667,3.690002900359933,179.30571949496172
3930.9731,3.6828633099112964,185.08544131634858
3931.8774,3.676051513387404,167.85905185455573
3932.782,3.6696736053864334,185.33197647605277
3933.6887,3.663357716292646,170.03309659587384
