wavl,flux,ivar
3566.9744,19.96878670551992,6.429581469574224
3567.795,19.942719168305054,7.435345027489817
3568.6177,19.888626749076877,7.549529462110851
3569.4385,19.813783998512783,7.233607656988904
3570.2617,19.738413185186538,9.196605663833285
3571.083,19.688656499513165,7.73622205767295
3571.9065,19.68236242353334,8.255568272704794
3572.7283,19.720121732461898,7.622993141451479
3573.55,19.785221804943838,7.353792894039028
3574.374,19.854455556056053,8.697101642134843
3575.1963,19.909459719492094,6.961218417189091
3576.0208,19.943048751516578,7.885673067449519
3576.8435,19.955756124678583,7.524963583311449
3577.6682,19.951497810596177,6.583725731628875
3578.4915,19.933801049750336,8.075174474984243
3579.3145,19.90449185452379,7.70456082022763
3580.14,19.86453373672321,7.206327983651086
3580.9636,19.817691089383878,8.218319556084374
3581.7893,19.77189233736141,6.734484575456522
3582.6133,19.736964977353423,8.420896584678328
3583.4395,19.71718271100364,8.375698927730168
3584.264,19.708238746174434,8.050021761759627
3585.0884,19.700627630175507,7.866644438677705
3585.915,19.6874479050916,7.729694129619948
3586.74,19.66880341086998,8.169552937988657
3587.5671,19.649602190928828,7.637052990368031
3588.3923,19.63480450391578,8.055615919458322
3589.22,19.62561880767416,7.722220268510136
3590.0457,19.619736143142866,7.440855139022729
3590.8716,19.61350254655237,7.521137856124062
3591.6995,19.604489061527445,7.341855445603836
3592.526,19.591646126403425,7.514264018831559
3593.3542,19.572728291891256,7.195153869393033
3594.181,19.54329255537782,6.899512800261343
3595.0098,19.499704386010496,8.223469348574408
3595.8367,19.445477228117937,8.50223661312168
3596.6638,19.392343662751898,8.433549223621686
3597.4934,19.355721259497706,8.286813450724923
3598.3208,19.347141176155773,7.650627606512392
3599.1506,19.368691984764137,7.87781914495253
3599.9788,19.41304319590188,9.321735425201231
3600.8088,19.466370198840387,7.667342521974317
3601.6372,19.5112630226624,7.8527922647644965
3602.4678,19.532414042087552,7.216597468459638
3603.2964,19.5226234249336,7.059921815011865
3604.1252,19.487988957040585,7.083299891782961
3604.9565,19.44453800526156,9.30353603497939
3605.786,19.4075414924662,8.432554049557233
3606.6172,19.37933803381014,7.565212267709881
3607.447,19.349031213573014,7.5967176885852234
3608.2788,19.30294654368444,6.834415378833905
3609.109,19.238674757755383,7.097097090439094
3609.9392,19.16870873277691,10.050559127545387
3610.7717,19.11359345576109,6.843097820448344
3611.6023,19.090434909866403,7.904528507775063
3612.435,19.10297970446855,7.85464943893452
3613.266,19.139397065625246,7.870745707047248
3614.0994,19.177874199084023,7.673559944587792
3614.9307,19.198692018923957,7.944355516812614
3615.7625,19.196934541624334,7.449631538876126
3616.5962,19.18359172645326,9.125239029166378
3617.4282,19.175087747194947,8.697177132010914
3618.2625,19.17975255814619,7.531157054502373
3619.0947,19.19341248182654,7.493917241703848
3619.9292,19.20576312726435,7.049216053508276
3620.762,19.20963704739425,8.471812049735627
3621.595,19.205347712530028,8.448167343357326
3622.4302,19.19778180397004,8.87794944973552
3623.2634,19.19179569874794,7.738695967760164
3624.0989,19.190188155832544,9.252488613003495
3624.9326,19.19431263452696,8.582369988819615
3625.7686,19.204025853023925,8.199962919555894
3626.6028,19.217024388617983,7.675965257237544
3627.437,19.230112545986106,6.714834771136455
3628.2734,19.241537943188888,7.770407497416165
3629.1082,19.251317954930002,8.361780435211653
3629.945,19.259457908270523,7.8873876122940745
3630.78,19.265083594631257,6.899561959762202
3631.6174,19.26894362399106,8.805963057647713
3632.453,19.27479145735443,7.200694314113858
3633.2883,19.286197517077433,7.7613003398737535
3634.1262,19.30132911656735,8.723676702974567
3634.9622,19.312232813025485,8.120987216201176
3635.8005,19.31094556333822,8.200841414984929
3636.637,19.295859580012557,8.053878773683303
3637.4756,19.272449798297966,7.5173347195268
3638.3123,19.248658031521018,8.358068018248712
3639.1492,19.229248416416503,7.155501575530962
3639.9885,19.21424741014204,8.270076137222729
3640.826,19.20083068378672,8.049464922559944
3641.6653,19.1863884731782,8.752138990335833
3642.5032,19.17098159069197,8.682296345459953
3643.343,19.156044174699627,8.583642788149419
3644.1812,19.14117922441258,7.414497967343146
3645.0195,19.121967016388368,9.315951443153757
3645.86,19.092226581971012,7.523544917779201
3646.699,19.049054574468453,8.246879883650813
3647.5398,18.995707455638897,9.580441448429264
3648.379,18.941894617136334,8.551260327924306
3649.2202,18.899213227582763,8.30592707191066
3650.0596,18.87788255077728,7.872323534477214
3650.8994,18.883936999126473,7.06542968302945
3651.7412,18.91898298332678,8.101108739161429
3652.5813,18.97708761271602,8.272705392102312
3653.4236,19.04223375719718,7.644945097292572
3654.2642,19.090428375429433,7.916403532693243
3655.1067,19.103196575609168,7.829633607518993
3655.9475,19.08025558084329,7.292364203613708
3656.7886,19.04031670787415,9.087399429075399
3657.6318,19.006119047233284,8.114663691110707
3658.4734,18.98798084787391,9.09063874285101
3659.317,18.978923442248487,7.348493043659228
3660.1587,18.964412538738266,8.063514751339822
3661.003,18.93406152668094,8.114315531944504
3661.845,18.886519072295336,9.355831500903868
3662.6875,18.825285301313826,8.64623952983964
3663.532,18.75435170042856,8.888374720364421
3664.3748,18.679434561177114,8.012793925702681
3665.2197,18.61098763192172,7.774221016045195
3666.063,18.5647608022159,9.05159155302154
3666.9084,18.55149612884131,9.564528944697544
3667.752,18.56749768945419,9.0180191693109
3668.5977,18.594255804415745,8.750062645319815
3669.4417,18.61004026994795,8.127883857758397
3670.286,18.604153698215416,9.084702655263994
3671.132,18.58195960545583,8.95714162676031
3671.9768,18.559224428980006,8.179270349388656
3672.8235,18.55024751941657,10.166180467573398
3673.6685,18.559448952339825,10.233743321721265
3674.5156,18.58045765724824,8.18616937610173
3675.3608,18.601535794264752,9.716545807003731
3676.2063,18.612987810114863,7.878861847143095
3677.0542,18.612019094427644,8.28384681827753
3677.9,18.60430951085564,8.840991318274435
3678.748,18.600831193382557,9.18226032614399
3679.5945,18.61100655118364,8.534046733809928
3680.4429,18.636505642284437,9.165337929066018
3681.2896,18.670382564876384,9.854339842910326
3682.1365,18.70230599106239,8.044916848124803
3682.9856,18.72405433770859,8.034094144028282
3683.8328,18.731837277599315,8.186761672547483
3684.6824,18.726276282753073,7.488967356799283
3685.53,18.711563035703275,8.509615270025293
3686.38,18.694464902118987,8.990672793683604
3687.2278,18.68181320380397,7.859398381650768
3688.0762,18.676412448700965,8.30272954952304
3688.9265,18.675261917256833,7.454619431379306
3689.7751,18.670824820838067,9.366489172404755
3690.626,18.654307615075712,9.880733709305824
3691.475,18.61964621964814,8.595368834845447
3692.3264,18.566617496831746,7.768356108646585
3693.1758,18.502558030405527,9.00117572277219
3694.0254,18.43787828586669,8.503310159303405
3694.8772,18.37977874176773,8.12076413268555
3695.7273,18.32881875648071,9.33713887035935
3696.5793,18.280614662716946,7.520533655570767
3697.43,18.23246459388538,9.128937020440487
3698.2825,18.185096262458526,8.989250068493684
3699.1333,18.141237398597486,8.572971300749717
3699.9841,18.102001833199218,9.194467648983109
3700.8374,18.06723103730187,9.18252726177043
3701.6887,18.037368874901446,8.208968564274196
3702.5425,18.012492315703042,9.211812690721072
3703.3943,17.99070941152481,10.143547673787845
3704.2483,17.967706410857268,8.895276320372615
3705.1003,17.94171458031635,8.767798304135718
3705.9526,17.917887566175622,8.113641572308694
3706.8074,17.907459284114715,8.70340507981444
3707.66,17.920253661246978,10.071692414324897
3708.515,17.957028537840973,8.270277608162704
3709.3682,18.00819059217751,10.073072891017322
3710.2234,18.059846000190053,8.979714331647957
3711.0771,18.099153943771594,9.467745219187835
3711.9307,18.117472620691018,9.90561200353343
3712.7866,18.110323756882693,9.078487330487734
3713.6409,18.078886260492684,8.78979621347565
3714.4973,18.030657075401493,9.674605066923563
3715.3518,17.976879729484025,8.63809849828066
3716.2085,17.92566539381352,10.266952226559896
3717.0635,17.879075598726725,9.27414961037641
3717.9185,17.83368601357141,8.734032921176997
3718.776,17.785350477370752,9.795254673071307
3719.6313,17.733415961945838,8.423329772638391
3720.489,17.681643740747358,8.939731133284576
3721.345,17.639006561386115,10.1209142373698
3722.2031,17.61572284714595,11.199727016988781
3723.0593,17.617465337936082,9.519586460284406
3723.9158,17.638752690093003,9.715452171812352
3724.7747,17.66354907833581,9.37896531053904
3725.6316,17.67358039572082,9.233261388362902
3726.4905,17.660141981633416,8.908772250222523
3727.348,17.629132584271332,9.875280261987669
3728.2073,17.595871656657994,9.892567801548468
3729.065,17.574851672272175,10.555295326523334
3729.9229,17.571453702420555,9.21383883834496
3730.783,17.58147757668743,10.027948382940554
3731.6414,17.5950833966173,10.658884140888878
3732.5017,17.602144137906684,9.79020992568184
3733.3604,17.596050864320336,9.770946540957404
3734.2214,17.57549368194761,10.45829581979378
3735.0803,17.544082065042147,9.263355130767815
3735.9417,17.50836221904701,10.311614643121581
3736.8013,17.477054753335167,8.878293092235591
3737.661,17.458308175724348,9.724415435029648
3738.5227,17.45578422020145,10.49320022769579
3739.3828,17.465358600782295,10.29675221395227
3740.245,17.47817190390442,8.871442755175998
3741.1055,17.488967396258005,10.310397887864859
3741.9683,17.501445198303454,10.652824477465668
3742.829,17.523805709736912,9.672975855838159
3743.69,17.559736614933048,8.025713987262698
3744.5532,17.60340265810309,9.825557234581536
3745.4148,17.64160319712552,9.170726610317848
3746.2786,17.661108679535573,8.625043270272764
3747.1404,17.65383239272943,10.53296654974286
3748.0044,17.619889769254378,9.505119837660635
3748.8667,17.567449344265224,10.184959573076025
3749.729,17.50907667449428,9.527792018889492
3750.5938,17.45659948624477,9.532076664781957
3751.4565,17.417113907746447,8.897777371941874
3752.3215,17.390559166164955,10.304133638336571
3753.1848,17.37172670761382,10.016551382530269
3754.0503,17.35257462790046,9.373326186423139
3754.9138,17.32687807291477,8.575775064873982
3755.7776,17.294376698807728,9.572615467097798
3756.6438,17.262255911107783,9.335355849254833
3757.508,17.24123578452684,9.63829049396698
3758.3745,17.23741560907715,10.004845037809872
3759.239,17.24723962264922,9.692581854761247
3760.106,17.258860243199507,9.752103147785405
3760.971,17.259815527261296,10.256767620796266
3761.8362,17.245421296371074,9.05728233332049
3762.7036,17.220718995250277,12.518092644426948
3763.5693,17.195734590632497,10.020482838195091
3764.437,17.177556358214115,10.098188834349555
3765.3032,17.166145441044254,10.720480682459787
3766.1714,17.154393966719905,9.880616938492173
3767.0378,17.132357618958874,10.309766570571517
3767.9043,17.092528552111407,9.554030544422112
3768.7732,17.03440670336374,10.673518119329945
3769.6401,16.966783428326888,9.898751690104346
3770.5095,16.90379321767504,10.175577434651514
3771.377,16.860278048875276,9.640863359213588
3772.2466,16.84616250130763,11.767512234698309
3773.1145,16.866548522416522,10.700533953589416
3773.9824,16.921981755145474,10.345182903563826
3774.8528,17.007278351060098,10.582855339093681
3775.721,17.107846463781534,9.91928230485691
3776.5918,17.203400468827578,9.353204948780748
3777.4604,17.27475979899113,9.288838019665755
3778.3315,17.315548502090497,11.447662154600732
3779.201,17.333457790624482,11.188311497155691
3780.0703,17.34454273699229,9.29244557713129
3780.942,17.36151319118393,9.752527687958512
3781.8118,17.384583067280186,10.066239342501952
3782.6838,17.400273037899662,9.063081507701579
3783.554,17.388920058662116,9.11698076180612
3784.4265,17.337290688349125,9.85862510617641
3785.297,17.24772459941944,9.712238444592971
3786.168,17.13658597309742,9.060271699285009
3787.041,17.025665914897974,9.622341909896601
3787.912,16.932611736770607,10.782451027964898
3788.7856,16.86249342532759,10.600085128711898
3789.6572,16.80919384950288,10.010709706572875
3790.531,16.759044439902638,10.932777140812938
3791.403,16.699202560973873,10.151198042894489
3792.2754,16.62204867341429,10.458070217180339
3793.15,16.526823238578316,10.77865200455315
3794.0225,16.419223652935536,11.386011550406636
3794.8972,16.307866531928507,11.594258890675233
3795.7703,16.204265638838244,10.988922218334753
3796.6455,16.118570022004814,11.27082294551007
3797.519,16.05867474658928,12.078350472504956
3798.3926,16.027189871224326,11.780050769353238
3799.2686,16.02325223680126,12.93600316318199
3800.1426,16.045895159899427,11.241996885989918
3801.0188,16.097511475396406,11.748395096032993
3801.8933,16.182594306665013,11.773525663039448
3802.77,16.302867325199784,11.348436928279854
3803.6448,16.450023401558695,10.698584702628857
3804.522,16.608471900558904,10.180880576202533
3805.3972,16.759088719618628,10.538866821271982
3806.2727,16.888736989957266,10.98134022572943
3807.1504,16.991933049412545,9.375193576424227
3808.0261,17.070132865154296,9.472136114309416
3808.9043,17.13079573659858,9.63463183051237
3809.7805,17.181218175967572,10.358935946079395
3810.659,17.22532162535229,9.725587305053272
3811.5356,17.26135247486385,9.51354337114976
3812.4126,17.284543864069363,9.758712831846895
3813.2917,17.289040538314197,10.269032775340674
3814.169,17.270026386961458,9.219282452997481
3815.0483,17.226625562830375,10.159677845987561
3815.926,17.164868144591793,9.498720720094589
3816.806,17.095266497339807,11.228901138346039
3817.684,17.027307175340162,10.283282749381543
3818.5623,16.96296974584988,9.657760179515304
3819.4429,16.898272980945134,10.811127993468894
3820.3215,16.829962374517773,9.977410698601936
3821.2024,16.758541077760356,10.727076299873678
3822.0815,16.687587048481195,9.791659085373427
3822.963,16.617380006224682,11.85132368991424
3823.8423,16.544037676752932,10.777980923429897
3824.722,16.461437149823475,9.355688308807592
3825.604,16.36609600604486,11.55546194836439
3826.4841,16.258845214019416,12.144638100415506
3827.3665,16.140075263187487,11.825421142740272
3828.2468,16.009131831292542,11.084917617896302
3829.1296,15.862924005916838,12.613535019088863
3830.0105,15.701013969861508,12.17440945138517
3830.8916,15.523766035362867,13.825357708402745
3831.7751,15.332568062636005,12.600190501537252
3832.6565,15.132768421052834,11.264541453589207
3833.5403,14.933517117725502,14.61438756764939
3834.4224,14.7530880908861,13.217581943511872
3835.3064,14.61187586136749,14.942691365020458
3836.1887,14.529392849322338,15.176426725800464
3837.0713,14.517562429445665,15.6014047455176
3837.956,14.58053823908474,13.476936608566644
3838.839,14.713527799152853,12.8903127615695
3839.7244,14.904530902451118,17.599316567391742
3840.6077,15.133565993921996,13.041065292968126
3841.4932,15.379450377094008,12.251633618298053
3842.377,15.619848963987852,12.645091290053657
3843.261,15.837930402675338,12.286881511555936
3844.1472,16.022549321005204,11.610405049036535
3845.0315,16.169405251457526,9.77041604319141
3845.9182,16.28521770218947,11.872297961271837
3846.803,16.383043933828024,10.843343009942478
3847.69,16.479861095903527,9.820295295756583
3848.5752,16.58854959887552,10.380225927265371
3849.4604,16.714113770952384,11.650807983401295
3850.3481,16.850566872109262,9.701440473136698
3851.234,16.981902855607373,10.459058112070998
3852.122,17.092278710140317,9.755811058980987
3853.0083,17.172874263249085,9.384558812963883
3853.8967,17.228055968210747,9.315541614487321
3854.7832,17.26967281629216,9.88595859477762
3855.6702,17.3095730497124,9.351803496562859
3856.559,17.35249012911223,11.23444343685983
3857.4463,17.394722396596116,10.105799439476236
3858.336,17.42854684744623,10.911121385722968
3859.2234,17.4476194666074,8.985805910577028
3860.1135,17.4525348830404,9.710013708316206
3861.0015,17.451079086906372,9.564921278217408
3861.8896,17.453820409052486,10.19371800357735
3862.7803,17.466963502119352,9.633991294190073
3863.6687,17.4874077271553,9.867453842560533
3864.5598,17.503808139110227,10.118423960163291
3865.4487,17.502036909818344,9.227978248642989
3866.34,17.472487817900223,9.619624437120779
3867.2297,17.41470092992795,9.66461791846601
3868.1213,17.336359330434753,9.680704258117698
3869.0112,17.248605475979375,10.364516883204757
3869.9014,17.157756703554906,10.581626988099742
3870.7937,17.06239225442062,9.200788617858263
3871.684,16.957355428411493,10.132706115353118
3872.577,16.83791241441737,10.364066678408154
3873.4678,16.70340654504102,11.12240476255675
3874.361,16.551533330042943,11.056749965553355
3875.2524,16.37857544484477,10.552856983938876
3876.1438,16.17929094342759,11.302200193570886
3877.0376,15.952150304151786,11.736916065060468
3877.9297,15.703551333701459,10.700202794441669
3878.8237,15.4422899155002,12.62923541607722
3879.716,15.17934539535652,12.716941617599678
3880.6108,14.91942840079261,12.750175844849537
3881.5037,14.66400451631587,13.480544735007703
3882.3965,14.407843947076627,14.446747331274256
3883.2917,14.1427820228556,16.995925898638184
3884.185,13.862393613117154,14.242766430882922
3885.0808,13.560796456747756,14.194290413435724
3885.9746,13.242663784768842,17.026529317004293
3886.8706,12.92081640091654,17.202392043813152
3887.765,12.622234543282595,18.623057153839657
3888.6592,12.379511959158524,19.743524246563425
3889.556,12.225765161004677,19.897269680092705
3890.4507,12.1850775904474,23.204316495523734
3891.348,12.26122908556895,23.19763498039164
3892.243,12.437094880764684,17.942394138824895
3893.1406,12.684823238856588,19.059759396187975
3894.0361,12.97460084669078,18.82633347483754
3894.932,13.285803112199066,15.922355022654521
3895.83,13.604351819174386,15.987438356871579
3896.7263,13.916971589217724,13.904604065527895
3897.625,14.216276426632593,14.58032021576139
3898.5215,14.496828117351496,13.378960956445397
3899.4207,14.762296742743182,12.739735832455219
3900.3176,15.017293859545179,14.224105897736232
3901.2148,15.26834248393749,11.84066889936156
3902.1145,15.517995041460138,13.393917778861011
3903.0122,15.762431360864175,11.74449936044832
3903.912,15.99816018815085,11.47704596033904
3904.8103,16.22110587804991,12.274702510062431
3905.7107,16.432154568464583,9.914428182540709
3906.6094,16.631436511441066,12.58970493670337
3907.508,16.81857517890978,10.716399839255203
3908.409,16.990417730375317,10.031763877556285
3909.308,17.142181429684914,10.491658268674652
3910.2097,17.273738020014484,10.222980963630949
3911.1091,17.388577500391616,9.383254891543057
3912.011,17.49433091828347,9.574349423286604
3912.9111,17.595877348693225,9.480387744633262
3913.8113,17.69453715566632,9.406352285384658
3914.7136,17.789355617714122,8.911959487608737
3915.6143,17.880529461554342,9.68084794602873
3916.517,17.97217502615045,8.960869826614205
3917.4182,18.06785375022589,8.555400303727112
3918.3215,18.168416845279477,8.195191418996874
3919.223,18.268933419301117,7.920137794294425
3920.1245,18.361557654453037,8.696345123974167
3921.0286,18.437442338743637,8.355999159694393
3921.9307,18.489518822364637,8.273771584730644
3922.835,18.516462921264278,8.773037822464051
3923.7373,18.52284385444561,8.258598078262098
3924.642,18.51835057031371,8.589102468714335
3925.5452,18.514132579085114,8.98590509669081
3926.448,18.51838370799301,8.794762712885165
3927.3535,18.533269504967123,8.262494910938702
3928.257,18.554619719293626,8.233535031506362
3929.1628,18.57374642162731,8.319378198424673
3930.0667,18.576744616336974,8.191169533423125
3930.9731,18.542912813756185,8.795047272954363
3931.8774,18.4504036925084,8.672718882850523
3932.782,18.294547653474098,8.57170868940926
3933.6887,18.107809968538835,7.761150967940161
3934.5938,17.957109833567188,9.11001476584465
3935.501,17.902741094043435,10.541008220653708
3936.4062,17.95647914711015,8.416918794019798
3937.3142,18.072708736064065,8.900926665169203
