wavl,flux,ivar
3566.9744,0.7988028780894383,980.2169495121657
3567.795,0.797197382345959,1055.5745102494527
3568.6177,0.7946968879905207,959.7283589600712
3569.4385,0.7917756199651849,1154.439386373686
3570.2617,0.7891626774593608,794.4809705507455
3571.083,0.7873062250866345,1013.4187708495714
3571.9065,0.7859947983947407,1058.9097054988886
3572.7283,0.7846273453835192,1344.2497346176322
3573.55,0.7827387169716452,889.4229855867546
3574.374,0.7803988093494679,1133.3085665335498
3575.1963,0.7782804388336112,892.8846642134948
3576.0208,0.7774610674101723,1577.179728046873
3576.8435,0.7791499404452916,1590.4876756217775
3577.6682,0.7841503852859353,1745.1963645318608
3578.4915,0.7921830589124099,985.0348958174912
3579.3145,0.8016686448530417,1242.3256278732945
3580.14,0.8102159197879822,868.8289336797823
3580.9636,0.8155877994282443,1381.7237058822184
3581.7893,0.816842715292685,1321.4144232850551
3582.6133,0.8145610194241079,930.5576495642955
3583.4395,0.8103567891573047,1348.3790387163435
3584.264,0.8059441108069032,966.3037938331354
3585.0884,0.8022997734036684,1364.0187835808285
3585.915,0.799499815438284,1100.7945156485387
3586.74,0.7970850209892114,1152.1739467732978
3587.5671,0.7945755855220422,1002.7257575713313
3588.3923,0.7919840705893777,1402.551402567849
3589.22,0.789898293404001,1234.1158769366032
3590.0457,0.7891973757449565,1017.9423921373256
3590.8716,0.790343710276952,1392.292058577316
3591.6995,0.792898324893641,889.2116373465707
3592.526,0.795584569242885,1461.739061214689
3593.3542,0.7969856531263749,986.3925197877807
3594.181,0.7962473894293778,840.2030511903916
3595.0098,0.793496377892281,1201.5643104070532
3595.8367,0.7898485583880428,1459.1707728647823
3596.6638,0.7869277867356247,1087.3418732595537
3597.4934,0.7860307836883029,1360.1430472609275
3598.3208,0.7872022229036747,1501.3955130297081
3599.1506,0.7889513237642449,1352.6967245587496
3599.9788,0.7890247751234946,1271.5012697099592
3600.8088,0.7858483583075948,1035.5140203866067
3601.6372,0.7796458275942344,1074.5141986685082
3602.4678,0.7724201571823899,1209.5266711608854
3603.2964,0.7670319691265274,1008.4257006236247
3604.1252,0.7656479490453203,1381.190802420419
3604.9565,0.7687736681333467,1376.9216217043293
3605.786,0.7749886423255933,1457.42332128506
3606.6172,0.7817857335619136,936.884703825165
3607.447,0.7868412970597474,885.3757458855487
3608.2788,0.7892246301815556,1305.3921942005907
3609.109,0.7894429700230793,1317.2710304572192
3609.9392,0.7886531136443379,1343.8599718201817
3610.7717,0.7877323012733981,1131.114098931097
3611.6023,0.787061536073875,1237.4370723107916
3612.435,0.7867861926536565,1424.071456617273
3613.266,0.7870030853210264,981.9178299012913
3614.0994,0.7876523368333065,1308.2158309022118
3614.9307,0.7884196875361315,1073.8759935016485
3615.7625,0.7888217751168453,1050.7019504143898
3616.5962,0.7883207657023157,951.6616586444785
3617.4282,0.7864414228665013,1017.7749332893547
3618.2625,0.7829285764840024,1293.9289324968731
3619.0947,0.7779989844004165,1193.8332238297098
3619.9292,0.7723313376992278,983.6332493172334
3620.762,0.7669419874853841,1574.2587435884066
3621.595,0.7627067198142409,1329.5035386868485
3622.4302,0.7600462552650441,1355.2351342633524
3623.2634,0.7587864425344611,930.4342452074877
3624.0989,0.7583472718322125,1709.6825534170234
3624.9326,0.7583252205128813,1521.6175583590327
3625.7686,0.758935070165344,1180.6801675883191
3626.6028,0.7608755417870381,1864.9333465988962
3627.437,0.7646553577273876,1249.4903248053893
3628.2734,0.769999812655743,1476.0336631786588
3629.1082,0.7757540923607007,872.6828302299283
3629.945,0.780416331225839,1072.7903074818937
3630.78,0.7826419987856247,1173.921394788822
3631.6174,0.7818816314065467,936.6637426405065
3632.453,0.7787334370275947,948.6709498902543
3633.2883,0.7748732641481011,1361.138969131475
3634.1262,0.772304350132272,1095.4635053405855
3634.9622,0.7722762640118654,1248.0356651670504
3635.8005,0.7745130219929228,1161.6094624025943
3636.637,0.7774218597195407,962.8971626025944
3637.4756,0.7791085841765885,920.228693680472
3638.3123,0.778392727177873,875.6180304606107
3639.1492,0.7753142434459634,1255.9126140252165
3639.9885,0.770844622564793,878.1510125056669
3640.826,0.766264653720042,1233.4752400778573
3641.6653,0.7624702366903996,1420.7816904148817
3642.5032,0.7598907320207241,1600.985585297999
3643.343,0.7586641956128415,1610.0004026961371
3644.1812,0.7588455890325883,1264.6014612911727
3645.0195,0.7601845399220443,1090.7226850201916
3645.86,0.7618797850816397,1552.5426305891422
3646.699,0.7627835425107093,1101.0644504536808
3647.5398,0.7621686102477788,1142.741172275803
3648.379,0.760302665540672,1062.251848225561
3649.2202,0.7582198367492002,1453.44981528417
3650.0596,0.7568985923927846,1085.3329376877757
3650.8994,0.7565479109231293,1300.2831824389532
3651.7412,0.7566299327967753,1298.5046778059586
3652.5813,0.7563415781356033,1257.6777195776926
3653.4236,0.7551567530717916,1012.1628411792981
3654.2642,0.7532070846410077,1091.0050650959085
3655.1067,0.7513497779811891,1471.9852195526908
3655.9475,0.7508240872235534,1135.9553281711421
3656.7886,0.75242077465355,1292.3771565632153
3657.6318,0.7557773393699488,1449.4452881740865
3658.4734,0.7593301338893891,989.8937182343051
3659.317,0.7612370727575115,998.8647748602259
3660.1587,0.7604436298978439,1159.7627894034938
3661.003,0.7572175851415092,893.0910939082305
3661.845,0.7528484752300174,1443.230309776913
3662.6875,0.7488871027109297,1026.820727900576
3663.532,0.7465818582701531,1642.0593544864246
3664.3748,0.7465094955379057,1233.683367347166
3665.2197,0.7483893361444097,1401.4485856426288
3666.063,0.7512384432509055,1278.7518364480204
3666.9084,0.7539091769222662,1168.9439581921904
3667.752,0.7556611347314337,1445.7781852027504
3668.5977,0.7565323299254606,1040.412810110356
3669.4417,0.7571405532338383,1364.0813873333548
3670.286,0.758158812200714,1106.253562091014
3671.132,0.7597735434494786,1287.1671725650597
3671.9768,0.7615554380933421,1092.5276535550472
3672.8235,0.7628359007521675,1804.772924278031
3673.6685,0.7631280930323753,1089.1827028958503
3674.5156,0.7623233465989403,952.6326154640275
3675.3608,0.7606355819724956,1166.1027643534014
3676.2063,0.7584926747779086,1319.5064961711985
3677.0542,0.756413517398962,1356.0987401982138
3677.9,0.754854552652831,1046.2439488250823
3678.748,0.7540591467840233,988.9263078998931
3679.5945,0.7541150907583614,1462.6765793772715
3680.4429,0.7549597460634913,1282.2060602403028
3681.2896,0.7562463667867431,1358.2054560195245
3682.1365,0.75722941410724,1141.640609498772
3682.9856,0.7569790393386018,1217.1521071780237
3683.8328,0.7549852684225851,1395.2056097615332
3684.6824,0.751673789130663,1348.425436976007
3685.53,0.7484044387645279,779.9082112761926
3686.38,0.7467012882675348,1285.8063795494497
3687.2278,0.747184051218552,1007.2044210241689
3688.0762,0.7484384919286463,1144.6055229936537
3688.9265,0.7464572736593095,933.4318167368378
3689.7751,0.7354169169286394,1418.9296385734083
3690.626,0.7104506212229218,893.0760244522794
3691.475,0.6722808019769871,1216.5010277017464
3692.3264,0.6296033869097248,1285.2567100993808
3693.1758,0.5972354575082658,2440.8061321704945
3694.0254,0.5876354832057317,40547.434698411205
3694.8772,0.6038316532444358,1295.1217455186697
3695.7273,0.6379921582497565,1610.7591316941496
3696.5793,0.6778152829296363,1313.8453617005157
3697.43,0.7138670651876367,1335.1516050857174
3698.2825,0.7438113487217775,1244.593477264449
3699.1333,0.7700273361890179,1205.6823162708588
3699.9841,0.7952925214172234,1319.3393024791517
3700.8374,0.8185467097246004,1182.446291969993
3701.6887,0.8343397118561862,917.8130701759152
3702.5425,0.837105133537963,976.7537576224407
3703.3943,0.8259316293506901,1276.2966461883054
3704.2483,0.8060433368297837,1237.5757956037482
3705.1003,0.7854076888004798,1311.5435725881946
3705.9526,0.7695429978431448,1167.612845626164
3706.8074,0.7596614000832804,1314.822392817309
3707.66,0.7540867661980624,927.717847831111
3708.515,0.7505381872200751,1109.1300114381966
3709.3682,0.7476891720251283,1312.0153451576662
3710.2234,0.7451325361286868,1388.5029721476121
3711.0771,0.742850323100749,1368.9484142828544
3711.9307,0.7405551686955746,1050.2982046278673
3712.7866,0.7369377835382069,1258.1470120628182
3713.6409,0.7283203664884613,1314.9297666770672
3714.4973,0.7070413715336663,1928.988105505155
3715.3518,0.6627847219430925,1384.8934782401889
3716.2085,0.5890072220284921,1152.880852708488
3717.0635,0.4949980511458803,1130.5996662989367
3717.9185,0.41000967685279394,1014.6373332349262
3718.776,0.3719182203829453,1309.626371635803
3719.6313,0.40241369557167544,808.921945128363
3720.489,0.48957945750612003,815.8710241406728
3721.345,0.59590151369643,1144.9107333385896
3722.2031,0.6853128808964845,1170.633946397313
3723.0593,0.7409925036248636,1045.3400448358223
3723.9158,0.76679528892598,1349.79141216846
3724.7747,0.7743946376162637,1253.7025241492447
3725.6316,0.7734639880599086,1239.269541376243
3726.4905,0.769000303974975,662.439633758126
3727.348,0.7630391966740652,1407.890965363969
3728.2073,0.7566871259086086,991.8595816247487
3729.065,0.7509473646921875,966.441996202464
3729.9229,0.74648705919141,1578.173343498683
3730.783,0.7434952710541118,1115.368347680739
3731.6414,0.7418133723242775,1469.9263057989824
3732.5017,0.7412190719760088,1255.274379397601
3733.3604,0.7416466565639052,1615.9504879221658
3734.2214,0.743010720790406,1205.169362333063
3735.0803,0.7448550095768532,1151.8919304480987
3735.9417,0.7462882345673083,1323.72449542978
3736.8013,0.7463100578865959,1153.4846584010224
3737.661,0.7443519225641975,1333.910768112356
3738.5227,0.7404838040424747,1360.488935016605
3739.3828,0.735318686084683,1192.5367122659861
3740.245,0.729703838497732,934.2404602526478
3741.1055,0.7246654926298765,1163.615806995507
3741.9683,0.7211462575385459,1203.437540118863
3742.829,0.7197518663632233,1280.5576469915834
3743.69,0.7203624993992191,1272.2031221253785
3744.5532,0.7222627973606808,1421.9938124338526
3745.4148,0.7245808643071234,1159.303060189767
3746.2786,0.7267413350927215,1672.7394290297013
3747.1404,0.728478049313197,1219.3852522036077
3748.0044,0.7297297676369536,1303.4115717777768
3748.8667,0.730568453234972,1419.3972033601412
3749.729,0.7312219679286988,1460.7346058239682
3750.5938,0.7318981323440283,882.673414932329
3751.4565,0.7325575490229917,1350.8922334603992
3752.3215,0.7329637068894925,1455.2666357204125
3753.1848,0.7330162910385968,1232.2864224291804
3754.0503,0.7330498287417255,1692.088510957801
3754.9138,0.7336918325642167,1228.8289594500936
3755.7776,0.7353311193916638,1297.0453099395331
3756.6438,0.7376795184308618,1358.2419059235028
3757.508,0.7398678319256072,1221.944512822817
3758.3745,0.741121249021631,1272.0094262569849
3759.239,0.7412771875856027,1388.9581714026854
3760.106,0.7407633049664415,1492.6466072623546
3760.971,0.7400628112952291,1233.3684371320019
3761.8362,0.7392378456025032,1363.5373436712493
3762.7036,0.7378973153283619,1275.3696270962087
3763.5693,0.7355678122790927,1448.741652784892
3764.437,0.7321248179428175,1102.3847810147338
3765.3032,0.7280881737009764,1268.6909328616866
3766.1714,0.7244574846455062,1186.6109767015844
3767.0378,0.7223036518738831,1320.1713593334455
3767.9043,0.7221504014149662,1281.4820338757513
3768.7732,0.7236867091258627,1587.8090465147316
3769.6401,0.7258591414674472,1333.0096125529465
3770.5095,0.7274348257438487,1165.7703283263284
3771.377,0.7276363747432804,1432.2527956154684
3772.2466,0.7265644695532428,1241.0558517209945
3773.1145,0.7250589322233084,1293.530654153115
3773.9824,0.7241091850289625,1126.6645685587941
3774.8528,0.7242465494231816,1370.5827887869577
3775.721,0.7253500016364068,1436.3547913518307
3776.5918,0.7270119510820202,1491.3715561206793
3777.4604,0.729021050315013,1382.3837144111146
3778.3315,0.7315039691821265,1279.7664579829952
3779.201,0.7345387005635627,1304.117341614961
3780.0703,0.737868016375754,880.1739407844339
3780.942,0.7409639496407535,1196.1324250230402
3781.8118,0.7433468294655611,1404.8240246073383
3782.6838,0.7448558249551892,1140.6678376066727
3783.554,0.7455251669854357,985.4905503378691
3784.4265,0.7453629550389673,1725.1107416595196
3785.297,0.744209590045216,1230.3861076409396
3786.168,0.7419016532350512,1215.3162323579936
3787.041,0.7385805659381931,1198.309306314127
3787.912,0.7348474093732519,1109.0656808896517
3788.7856,0.7314284986704618,1582.4991321354275
3789.6572,0.7287898974448023,1481.1324638066171
3790.531,0.7268692000415514,1313.1234535955648
3791.403,0.7253143604932268,1640.7775844689497
3792.2754,0.7237536508391672,1518.989890633508
3793.15,0.7219279404687134,1334.1597181304298
3794.0225,0.7196669818549174,1368.2746398418426
3794.8972,0.716883625244631,1286.9753480257841
3795.7703,0.7137387714884893,1563.4402340523739
3796.6455,0.7106269194584528,1878.1142782424138
3797.519,0.7080708259859102,1504.77684236006
3798.3926,0.7064352597340074,1421.254240260171
3799.2686,0.7058078079365889,1742.5977584822222
3800.1426,0.7060222133241155,1143.9006277564285
3801.0188,0.7068389466121023,1340.5844340362082
3801.8933,0.7081855990950083,1406.6942096904552
3802.77,0.7102483436602526,1280.5349437136083
3803.6448,0.7132289542035897,1521.3920325629977
3804.522,0.7170576390494696,1314.0552471898839
3805.3972,0.7212524406661259,1227.7314979838645
3806.2727,0.7252483099752354,1156.7144808314022
3807.1504,0.7286786557003229,1312.1215275661496
3808.0261,0.7314158559732757,1504.4138310658846
3808.9043,0.7335283440879014,1144.3642791679456
3809.7805,0.7352410991621706,1164.2621359928614
3810.659,0.7370841416775289,1189.5546689215
3811.5356,0.7397449234790546,1464.5008226766329
3812.4126,0.7436813881147941,1680.6116729491016
3813.2917,0.7487213401540044,1159.0735276387336
3814.169,0.7540001403011248,1016.6334054226904
3815.0483,0.7584092819731876,1244.6048651511774
3815.926,0.7609741241596257,1300.7199732066033
3816.806,0.7612747126593776,1257.6024973910562
3817.684,0.7595591356675402,1086.9499047959666
3818.5623,0.7566374595910439,1230.749654067758
3819.4429,0.7534359304606334,1087.6810201095643
3820.3215,0.7505233957672638,1204.3025217890633
3821.2024,0.7478427149233684,1556.1703360654435
3822.0815,0.7450058071024626,1263.5288835393328
3822.963,0.7416720878314242,1126.0983834624617
3823.8423,0.7378157034749782,1489.0401124340026
3824.722,0.7335297569937423,1398.9720291671301
3825.604,0.7287842490235986,1819.368618627269
3826.4841,0.7234014787080401,1301.968008305808
3827.3665,0.7171363332116099,1315.2686096456468
3828.2468,0.709945497847654,1532.1713309056847
3829.1296,0.7018808824707858,1326.5664924008402
3830.0105,0.693195772854152,1469.7601823376344
3830.8916,0.6842238131117141,1519.2263788385162
3831.7751,0.6754154118906123,1390.432728398498
3832.6565,0.6672887591121872,1201.1591606636682
3833.5403,0.6601912836801679,1285.331140466899
3834.4224,0.6545243675470203,1210.117032299327
3835.3064,0.6506764859730283,1685.154590477347
3836.1887,0.6490118417784178,1464.840613399325
3837.0713,0.649597624264546,1425.787945653886
3837.956,0.6521825657446407,1345.65388746811
3838.839,0.656342065675032,1553.699695816002
3839.7244,0.6617892431637933,1507.9528718054207
3840.6077,0.6683975233594196,1669.7059971660076
3841.4932,0.6761871259314719,1593.742678554415
3842.377,0.6850657146188448,1427.6862080222602
3843.261,0.6949293851569788,1419.9470704254593
3844.1472,0.7056660956485833,1388.2958704299936
3845.0315,0.7170245310706616,1683.8682547834335
3845.9182,0.7286329642692951,1277.5933009402563
3846.803,0.7396543585577258,1433.696672985845
3847.69,0.7491111750026214,1391.7616003962023
3848.5752,0.7560854087096989,1064.2118203924776
3849.4604,0.7603577110664717,1217.5752894673947
3850.3481,0.7625508864835507,1340.9181683143477
3851.234,0.7639113667838199,1162.2032683818197
3852.122,0.7658056945641194,1125.561442171372
3853.0083,0.7691191154055294,1186.0524713289121
3853.8967,0.7739595474530181,1200.2369835905342
3854.7832,0.7795967378993471,1203.5216375216323
3855.6702,0.7848980356703493,1209.636721203727
3856.559,0.7888377321559911,1028.1090900495644
3857.4463,0.7908966572001421,1048.8790473236245
3858.336,0.7911603623994511,1067.3140526204681
3859.2234,0.790107568418763,1114.696885039201
3860.1135,0.7884533076277034,1032.873085216289
3861.0015,0.7869983990148016,1304.593166526914
3861.8896,0.7862829760966559,1233.2904468924598
3862.7803,0.7862665544816739,1212.7862525411424
3863.6687,0.7863176603723951,1086.0686144294841
3864.5598,0.7856284100996711,1157.442047626748
3865.4487,0.7837199557324513,1140.0685213321672
3866.34,0.780637457646234,1109.0295985729758
3867.2297,0.776852549712355,1053.594458447209
3868.1213,0.7728739612587922,1345.6525106924255
3869.0112,0.7689649050867126,1304.0547596974404
3869.9014,0.7649567536225177,1061.2812237594792
3870.7937,0.760465638816348,1196.1842001248358
3871.684,0.755288259688607,1255.583393629179
3872.577,0.7495186195710809,1182.4719175834707
3873.4678,0.7434941706573498,1087.5221236249995
3874.361,0.737363644311051,1153.2165683906608
3875.2524,0.7310431541724282,1098.3786553684463
3876.1438,0.7242354768376946,1575.521156251696
3877.0376,0.7166874771663234,1272.9779342427387
3877.9297,0.7083451816806937,1495.8774399305214
3878.8237,0.6991670425956229,1533.6036831337492
3879.716,0.689211326287545,1398.567203114798
3880.6108,0.6785438701038244,1354.436171815562
3881.5037,0.6675026679118513,2006.4891658663682
3882.3965,0.6564336522763549,1558.6848701634551
3883.2917,0.6454903977856935,1604.0588789199899
3884.185,0.6345556201243855,1584.1852075223458
3885.0808,0.6232355601615771,2171.174229031347
3885.9746,0.6114802104569603,1737.8657496707317
3886.8706,0.5995672963494888,2117.869405563569
3887.765,0.5881829938461063,2219.174117607684
3888.6592,0.578076557371742,1783.5083213646215
3889.556,0.570203414736819,1627.9951822036905
3890.4507,0.565829290085713,2420.339130576714
3891.348,0.566048420301972,2047.110763488889
3892.243,0.5711973381799974,1984.952425547974
3893.1406,0.5805384704841285,1865.2030111958777
3894.0361,0.5925389407845029,1544.2894272805565
3894.932,0.6058042950480211,1930.8759011846043
3895.83,0.6195307512781633,2374.0709259023197
3896.7263,0.6333254377889249,1794.6253049090235
3897.625,0.6470578343948843,1643.6180363501635
3898.5215,0.6603537600535084,1368.4036324334204
3899.4207,0.6729777569564921,1315.5799510197821
3900.3176,0.684765495782422,1166.473342910835
3901.2148,0.6958874729484542,1416.6221928104846
3902.1145,0.7065444968146616,1276.72586312209
3903.0122,0.716751035356241,1801.0309460849937
3903.912,0.7265700905226816,1093.0819761290195
3904.8103,0.7360630703805524,1251.3677938062453
3905.7107,0.7454879056978775,1685.4468145021442
3906.6094,0.7550415058965945,1662.0530922938706
3907.508,0.7648960809961185,1162.8900004419897
3908.409,0.7750268772903208,1424.518352554942
3909.308,0.7850261573722503,987.8099875026302
3910.2097,0.7943814423713367,1186.5688544206826
3911.1091,0.802743109404149,947.6971880726079
3912.011,0.8104767492171986,1083.4218397435088
3912.9111,0.8182436157102753,1058.5826292153188
3913.8113,0.8263841531292744,1147.0193306254864
3914.7136,0.8344102681522688,860.0955653925605
3915.6143,0.8412983045000644,929.3325041081216
3916.517,0.8464221973752202,1005.2945860111504
3917.4182,0.8499145167506784,818.9541627965838
3918.3215,0.8525162106257377,1121.5628592311925
3919.223,0.8549065568570781,817.39491268227
3920.1245,0.8573764488309428,906.4672352821389
3921.0286,0.8598611592219167,903.1965263251532
3921.9307,0.8621417026304858,873.8789521504979
3922.835,0.8640050223565165,1094.2999520389694
3923.7373,0.8652487785236291,953.9085581304337
3924.642,0.8658034404084254,1132.401397934315
3925.5452,0.865784458307335,811.4153132389605
3926.448,0.865429998261836,867.1442216709979
3927.3535,0.864919982164916,914.530293335998
3928.257,0.8643170010132264,1073.4306803969403
3929.1628,0.8636538796885574,810.6954762407569
3930.0667,0.8630458695794293,830.7223610695025
3930.9731,0.8626472429973651,1096.041489669351
3931.8774,0.862545185701391,883.210865933686
