wavl,flux,ivar
3566.9744,1.4196401941778918,151.5373502301202
3567.795,1.4311922530219878,150.7267441658122
3568.6177,1.4406330281950535,164.91866557508044
3569.4385,1.444125457555332,127.47575407637027
3570.2617,1.4412648024377983,146.20584348430302
3571.083,1.4342886430395443,144.8155143340615
3571.9065,1.4261847270426782,141.38299239262915
3572.7283,1.4192935405069567,175.3937614577686
3573.55,1.4146149497196492,153.91384143535183
3574.374,1.4120637462545587,151.99004420563352
3575.1963,1.4110345874417436,114.23434144551639
3576.0208,1.4109540573064436,137.2351685594026
3576.8435,1.4116637221441355,132.13868973793308
3577.6682,1.413468582365998,139.93440008984322
3578.4915,1.4168976678594347,157.72586479357324
3579.3145,1.4222405157357816,147.4191947272165
3580.14,1.428998133858083,167.28402566633685
3580.9636,1.4355715409173764,157.8575869305324
3581.7893,1.4398094615907264,136.30800175036657
3582.6133,1.4398690226664324,120.06386094445045
3583.4395,1.4351854490970906,186.27402637920034
3584.264,1.4268136617348992,162.19079936081104
3585.0884,1.4169508176712347,152.24888688141823
3585.915,1.4079978874037027,150.15501255292423
3586.74,1.4016904774889194,162.86788309866375
3587.5671,1.3984596564688847,164.83803592802064
3588.3923,1.3976963018349347,167.85449810940798
3589.22,1.3982897709893838,135.430935774842
3590.0457,1.3992543571470923,164.10614360045457
3590.8716,1.3999431350923581,153.3025658228876
3591.6995,1.3999071521081263,185.6715338532363
3592.526,1.3987712686168337,146.9391115073804
3593.3542,1.3963309945009823,139.90186298029877
3594.181,1.3928115154770575,141.1695647106446
3595.0098,1.3889552478192977,156.29342816357283
3595.8367,1.3858856171998493,143.76046342751053
3596.6638,1.3844720375282802,174.67124396910208
3597.4934,1.3847354168515464,193.42890031232275
3598.3208,1.3856810254107066,128.4308691686967
3599.1506,1.3858811711044403,162.7430065993566
3599.9788,1.3843244363501268,142.8026238168681
3600.8088,1.3809001747563268,137.14551580548797
3601.6372,1.376375121658367,137.51406672988793
3602.4678,1.3719927588279912,192.26103513609746
3603.2964,1.369112298707478,200.3777178780445
3604.1252,1.368688567861185,186.9890095872824
3604.9565,1.370976584782144,136.91700358371347
3605.786,1.3753776995354112,151.6840206136922
3606.6172,1.3806877016631802,185.88873931011398
3607.447,1.3854295098550182,150.5253093983406
3608.2788,1.3883180371274828,149.1605807143604
3609.109,1.388456801234218,163.5665888353999
3609.9392,1.385560562249218,161.9424511344561
3610.7717,1.3800399192583,166.4943049167785
3611.6023,1.3730664890944593,168.71804098307845
3612.435,1.3661133618916466,215.81167453668812
3613.266,1.3603791649666783,178.59412675424622
3614.0994,1.3561097481465445,144.85826149239594
3614.9307,1.3528503698189402,166.2420393310708
3615.7625,1.3501353179310533,178.9218654956157
3616.5962,1.3481192674639824,143.45534577098326
3617.4282,1.347379585969831,184.4225812046215
3618.2625,1.348238001243576,178.47063252449757
3619.0947,1.3504386347742523,159.041640463011
3619.9292,1.353414606257291,182.07034302741891
3620.762,1.3566555721710736,184.36230635741478
3621.595,1.3598654316216712,183.81386285445336
3622.4302,1.362758570515321,183.37752923269892
3623.2634,1.3648265898373217,138.3501244493705
3624.0989,1.365397603243165,149.89612309914764
3624.9326,1.363928924895342,150.67428697026867
3625.7686,1.360444568691438,193.7366792067314
3626.6028,1.3557310601540058,172.95346285070204
3627.437,1.3510450163533403,160.79293468416137
3628.2734,1.347694975317644,148.70078488459845
3629.1082,1.3467463591534492,207.8123018309551
3629.945,1.3488172936937095,160.63843280263654
3630.78,1.3539380877883442,193.56235429561005
3631.6174,1.361422755292075,183.18580006888143
3632.453,1.3697983896681254,140.5964702896944
3633.2883,1.3773686579272764,153.56498068062115
3634.1262,1.382823458864899,144.80135669896268
3634.9622,1.385638872267873,142.7237683390517
3635.8005,1.3861329104704183,156.3602500117868
3636.637,1.3850657187539415,155.614279813773
3637.4756,1.383297134061826,143.55115786488045
3638.3123,1.3815040536244034,151.80389224361957
3639.1492,1.379946144830876,144.35547549565993
3639.9885,1.3784582922562325,134.1779651283164
3640.826,1.3766995726059632,175.73392917449246
3641.6653,1.3744592288758184,159.0201468986985
3642.5032,1.3718239472596054,141.00469778280214
3643.343,1.3689678977270638,166.10325272172287
3644.1812,1.3659281159232428,197.87554924989246
3645.0195,1.3625226126752823,180.05844066161285
3645.86,1.358658133957329,192.4473542529644
3646.699,1.354739192209526,150.66247126708313
3647.5398,1.351656822272661,163.18680669707015
3648.379,1.3503772429621705,156.36240510043885
3649.2202,1.3512172999528622,171.74631630903014
3650.0596,1.3535604952340614,150.0749691882359
3650.8994,1.3561873302325045,185.98050018864018
3651.7412,1.3578342208996055,159.26760223121138
3652.5813,1.357512031879445,186.41059429853408
3653.4236,1.3546060074311865,166.38807920158496
3654.2642,1.3490383335066536,158.43545933742462
3655.1067,1.3414387358809525,142.04603620827302
3655.9475,1.3332048293063878,162.0957105665153
3656.7886,1.3259724119427945,145.52250304199265
3657.6318,1.3211008976596936,180.9414741194988
3658.4734,1.319277035528308,153.32320507189837
3659.317,1.3202920510503318,255.2668176906397
3660.1587,1.3231986359350258,183.6371206031106
3661.003,1.3267520105556727,154.38875416129275
3661.845,1.3299787713083997,147.4964112452958
3662.6875,1.3326870988659678,165.64467974744502
3663.532,1.3353681424076662,218.22081908333894
3664.3748,1.3386410532583006,185.96497161136062
3665.2197,1.3426831979202472,169.364146474839
3666.063,1.3469815597957702,202.1897886795176
3666.9084,1.350768562376908,167.30510067703875
3667.752,1.353479744258838,138.89863043050934
3668.5977,1.3549806462046947,237.13858720617378
3669.4417,1.3552363407936943,217.17683871377668
3670.286,1.3541103344843255,165.8793864633584
3671.132,1.351544154390839,167.32328432353708
3671.9768,1.3480083027649334,145.15290243311108
3672.8235,1.3445536115255616,175.48598837121384
3673.6685,1.3423435233525118,169.8715229834631
3674.5156,1.3417634976740742,160.3919498120487
3675.3608,1.3419677770722807,170.36879101298703
3676.2063,1.3413214705256098,156.9898309505527
3677.0542,1.3386120107379893,196.4919656112916
3677.9,1.3340314334930572,170.92294204289385
3678.748,1.3289116541105082,160.8973404022204
3679.5945,1.324713651758159,185.36050792705214
3680.4429,1.3220439045978654,172.14186241044544
3681.2896,1.320691641501157,161.56476454062482
3682.1365,1.3201285674758585,144.50350566938386
3682.9856,1.3200120569879885,196.4364983095158
3683.8328,1.320284498118117,170.98075093772178
3684.6824,1.3209795741831174,182.95409749116527
3685.53,1.3219033458556178,214.92877104857084
3686.38,1.3224845569445474,130.14737255865532
3687.2278,1.322032224538782,136.6694330890715
3688.0762,1.3203443781621753,212.12917218657503
3688.9265,1.3180410812439602,176.66698105034746
3689.7751,1.3162618762363576,202.87823911822883
3690.626,1.3159372911356826,208.3573966218978
3691.475,1.317368723734718,181.51382253014276
3692.3264,1.3202421378682074,163.9513379961949
3693.1758,1.3238350010658007,174.98326617055582
3694.0254,1.3273036515532792,155.47039085236182
3694.8772,1.3299046962445686,132.00833580481628
3695.7273,1.3312025754114338,173.96618908563298
3696.5793,1.3312092589945976,164.82249466909707
3697.43,1.3302614555333971,194.60803292742375
3698.2825,1.3287162983457075,188.18744718350666
3699.1333,1.326620038979169,196.03348936814712
3699.9841,1.3236607885920275,187.15998421546112
3700.8374,1.3195966718723469,181.58816072677854
3701.6887,1.3147931464818394,168.30083056790298
3702.5425,1.3101261281203238,212.39281489497597
3703.3943,1.3064747277678996,203.48318384449038
3704.2483,1.3040463243850027,200.32514231217198
3705.1003,1.3024263032436278,180.78081075866396
3705.9526,1.3009862087574817,173.5102076639638
3706.8074,1.2992802420497542,192.0517288212805
3707.66,1.297064955981685,184.02228013649585
3708.515,1.294172632064269,162.12107305014584
3709.3682,1.2906715899205536,212.24338525600496
3710.2234,1.2869740597642711,170.6034024222619
3711.0771,1.2837704956031402,207.92261068259273
3711.9307,1.281618275709779,196.84214348140037
3712.7866,1.2807441345181958,195.6147337925113
3713.6409,1.2811516977626198,201.6168693661773
3714.4973,1.2828172695352429,178.95670388671778
3715.3518,1.2856603664719455,184.084610779619
3716.2085,1.2893610840492515,191.90416664073814
3717.0635,1.2932966601648375,172.65687217645757
3717.9185,1.2969447763997062,161.63782081205008
3718.776,1.3001759561417636,157.15567485632428
3719.6313,1.3030724802922202,213.05634251313583
3720.489,1.3055411259260792,169.39558306913733
3721.345,1.3070892616363428,159.39441248442307
3722.2031,1.3071781586654931,145.44103245313704
3723.0593,1.305655631305209,244.53486714595178
3723.9158,1.3029443470567572,229.96328448162663
3724.7747,1.2998224064556714,166.2055503050163
3725.6316,1.2970558517718127,188.3409463757107
3726.4905,1.295044533466415,171.52810924207034
3727.348,1.2938288448809538,156.61136464781046
3728.2073,1.2931693363294927,180.97414302664322
3729.065,1.2926770252857673,187.38178191372683
3729.9229,1.291938900189062,169.80496876376537
3730.783,1.290768169968498,158.8462667680678
3731.6414,1.289424633695883,177.54720984849956
3732.5017,1.2884993519398356,154.88993923885855
3733.3604,1.2885242693702563,163.49622129123037
3734.2214,1.2895689223810334,159.59932307437143
3735.0803,1.2911463911729428,180.9561155620955
3735.9417,1.2924207810251793,193.71378843414996
3736.8013,1.29245794954447,152.35336058302934
3737.661,1.2905258170716005,214.35972664295426
3738.5227,1.2864046289002786,180.4287618818534
3739.3828,1.2807933332028225,157.9450708543081
3740.245,1.2752835536099782,193.9964493543569
3741.1055,1.271823185757799,186.8856214892696
3741.9683,1.2715231600971728,228.12106350415533
3742.829,1.2739297254797795,208.35873069585244
3743.69,1.2772735657970646,174.3762599176382
3744.5532,1.2796689209906034,177.04472548904923
3745.4148,1.2802348772407075,167.35784721659138
3746.2786,1.2793831284071837,192.36092776088034
3747.1404,1.2781276060553808,191.52306043770906
3748.0044,1.2772129758972992,172.19875093992488
3748.8667,1.276806060554586,198.36047307631836
3749.729,1.2767297278643075,162.89306087092857
3750.5938,1.276781621062089,243.32723500269245
3751.4565,1.2767673486114335,159.21739625301578
3752.3215,1.2764666803904001,150.7838497863314
3753.1848,1.2757876760767282,170.9723113360517
3754.0503,1.2749071959755789,229.77699054270357
3754.9138,1.2741215482592665,196.70588396815393
3755.7776,1.2735319238873133,166.5304649862457
3756.6438,1.273004746628987,182.8083178535688
3757.508,1.2723648716395404,191.3459348756802
3758.3745,1.2714870907537168,174.05886804054876
3759.239,1.2702688484846303,178.19055448788941
3760.106,1.2686474654717443,184.62997280856416
3760.971,1.2667312938435114,237.28442401795712
3761.8362,1.26471069278734,200.59127678122667
3762.7036,1.2626490961637866,185.71599331531354
3763.5693,1.2604426343980684,215.03839930257655
3764.437,1.25803219795504,154.6101429843263
3765.3032,1.2556833786120978,208.43791228760267
3766.1714,1.253856433150585,205.70837398821126
3767.0378,1.2528966434801734,200.34060719826527
3767.9043,1.2527684300170532,210.75330653982266
3768.7732,1.2530948316076123,196.03826159809591
3769.6401,1.2533006781226812,194.4450059835846
3770.5095,1.2527987146079353,177.64601655699678
3771.377,1.2512148703764001,216.33981119735714
3772.2466,1.248560892699474,207.51852503892755
3773.1145,1.2452475706152912,251.80485929291788
3773.9824,1.2418374722746277,327.31739488325707
3774.8528,1.2388654062588962,168.9108204078387
3775.721,1.236825134256868,172.423770228213
3776.5918,1.2361276063429374,220.64804678328179
3777.4604,1.2370441242369488,238.54619217812112
3778.3315,1.2395245332659988,199.67785394186225
3779.201,1.2431449961282952,207.92173651795352
3780.0703,1.247319475648688,175.00232323351474
3780.942,1.2514648841233018,200.0424779847008
3781.8118,1.2548846669110136,164.82824719156278
3782.6838,1.256719106136053,206.15560351576005
3783.554,1.2562373396255249,184.21815637840248
3784.4265,1.2535845767982234,219.17859435706978
3785.297,1.2500886203256552,171.4572711582951
3786.168,1.247534544137777,214.92943170368306
3787.041,1.246991845040238,204.46649248639062
3787.912,1.2481313830986356,156.98192028572936
3788.7856,1.2495692182448759,155.86193405239948
3789.6572,1.24984037918034,191.03143501634855
3790.531,1.24827190799636,211.08542710995903
3791.403,1.2452178626950299,184.522809744694
3792.2754,1.2416244259918119,222.76688816457005
3793.15,1.2383260003766023,212.47771291432358
3794.0225,1.2355803802102232,205.63346363406166
3794.8972,1.2330511420749426,192.51864007849585
3795.7703,1.2303149011163903,213.44730151729092
3796.6455,1.2272640503951318,196.59983745449878
3797.519,1.2242728531082274,217.5412166752577
3798.3926,1.2219426765069739,228.90830531883714
3799.2686,1.220840463835408,179.92174054485275
3800.1426,1.221300852696103,196.138027340987
3801.0188,1.2232707582772266,227.64435437678205
3801.8933,1.2262078396710105,215.23444000376938
3802.77,1.2291853403923112,211.82872780987222
3803.6448,1.2311834844273375,221.4648216431488
3804.522,1.2316074429328545,193.02199153817898
3805.3972,1.2305930903990485,235.23834459629342
3806.2727,1.2289943991298273,194.27034606120537
3807.1504,1.2279365525392871,215.55672684927663
3808.0261,1.2281947138985574,216.80112203795872
3808.9043,1.2297851599805734,187.51012419192267
3809.7805,1.2321163320324042,254.56981341402397
3810.659,1.234558996246491,192.22812735692617
3811.5356,1.2367568325873763,192.15232112635857
3812.4126,1.2384762133583644,225.42899507189924
3813.2917,1.2392563978435298,189.77903101868486
3814.169,1.2385954355521256,199.86929134203746
3815.0483,1.2366205007138595,172.44374565072485
3815.926,1.2344044587380454,166.45333468765003
3816.806,1.23329637665867,249.932285955732
3817.684,1.23387002290761,183.32040598930558
3818.5623,1.2354888468019631,165.91112046929194
3819.4429,1.236935162420363,198.11397441479738
3820.3215,1.2372906891902133,195.94190929088876
3821.2024,1.236300915003741,258.77312418325374
3822.0815,1.2341305638854607,192.35715168177006
3822.963,1.2310987043309993,217.05043584021323
3823.8423,1.2277703819780859,193.91659692243306
3824.722,1.2250161058253541,185.76230118635675
3825.604,1.2237991412564384,212.89596754330628
3826.4841,1.2245872623130303,217.5955162596753
3827.3665,1.226871366061064,204.67219618457622
3828.2468,1.229292326361595,207.59694566941025
3829.1296,1.2303766355780763,200.06072606332756
3830.0105,1.2292464957119749,211.6523310951054
3830.8916,1.2259248650219672,193.88513069439279
3831.7751,1.2210827503903166,189.49264342407727
3832.6565,1.2157034464743626,288.92094722102473
3833.5403,1.2107335486111028,187.7627020537883
3834.4224,1.2070733414103707,227.49418010667145
3835.3064,1.2053340257329148,224.11674081336685
3836.1887,1.20562391348001,240.36795546419174
3837.0713,1.207352304028104,226.04793807642903
3837.956,1.2094766319044072,202.8793397049689
3838.839,1.2110564013108942,216.1102950285216
3839.7244,1.2117977418732235,219.48278341417796
3840.6077,1.212015263343793,204.80115276147865
3841.4932,1.2121309159734066,220.72305920537673
3842.377,1.2122124998568438,192.84720061325714
3843.261,1.2120962357030824,195.10759567495026
3844.1472,1.211885829721446,205.92820465392967
3845.0315,1.2121215422510803,231.97490890720712
3845.9182,1.2132648883650048,283.8232959908162
3846.803,1.2150317247447389,251.92359018716778
3847.69,1.216441582821953,166.60742057298765
3848.5752,1.2166030626909634,185.51006341997152
3849.4604,1.2155293444255453,228.83069318215337
3850.3481,1.2141325986118068,191.53926552991976
3851.234,1.2135620657856834,190.02388074461064
3852.122,1.2145003747694318,206.53153666624786
3853.0083,1.2169490580687392,209.99733396369675
3853.8967,1.220389360075108,179.99804581812504
3854.7832,1.22397528941675,229.78202970840297
3855.6702,1.226859635937888,207.53204463084046
3856.559,1.2284869173264004,196.24500233989934
3857.4463,1.2288054787270575,201.93396529373157
3858.336,1.2281692097451378,208.12420667478352
3859.2234,1.2269593328417991,204.70843736656155
3860.1135,1.225274069099493,197.54499939850922
3861.0015,1.2229915186894063,199.6521647487956
3861.8896,1.2200514385207473,183.7277644011247
3862.7803,1.2167153730803753,195.0202142392358
3863.6687,1.21352004204809,191.91437569162701
3864.5598,1.2108799951492928,190.94162237489581
3865.4487,1.2088781027811524,258.06211733630334
3866.34,1.207204951396091,186.7815549091901
3867.2297,1.2054011419423956,214.64239115632682
3868.1213,1.2030920689555837,228.30842922239884
3869.0112,1.2003042213792667,222.51627579571291
3869.9014,1.1975618990549832,199.34325606041236
3870.7937,1.195647058956873,247.3538767606351
3871.684,1.1950555060307362,204.12115371757864
3872.577,1.1956183316752949,199.11760857242365
3873.4678,1.1967041976526833,178.96205437761083
3874.361,1.1976904204935952,195.8381775523468
3875.2524,1.19819405590013,206.55253827221236
3876.1438,1.1980486614479788,183.44603870708937
3877.0376,1.1972565744513817,226.04321715929336
3877.9297,1.1960363594661483,219.03786984986849
3878.8237,1.194691055258005,176.6937739906647
3879.716,1.1933222240383268,185.41845811007593
3880.6108,1.1916157722746779,233.70353235848424
3881.5037,1.1890226773908357,216.72188928209755
3882.3965,1.1851472554500457,205.92210540055325
3883.2917,1.180125172484606,204.56900939097363
3884.185,1.1747223265891362,199.30874018738322
3885.0808,1.1698641951654563,199.14660212533983
3885.9746,1.166181205644881,226.68640491522345
3886.8706,1.1636564677128947,241.22706045759392
3887.765,1.16192880982178,233.00832356979882
3888.6592,1.1607167188096297,211.0397469595619
3889.556,1.1600836290815022,229.55046695545082
3890.4507,1.1602769459866678,208.14518899899286
3891.348,1.1614094254878562,203.67510465420202
3892.243,1.1633418722457722,200.48944999070662
3893.1406,1.1658445188420334,260.72473398079313
3894.0361,1.1686897661892015,211.7757967362146
3894.932,1.1716270451935809,245.59801930392203
3895.83,1.1742275091769825,203.47051032375657
3896.7263,1.1759616418433791,202.26338893050172
3897.625,1.1766109900527082,202.9285726563311
3898.5215,1.1765384361167723,194.45403103498617
3899.4207,1.1765709368577684,235.63629376329868
3900.3176,1.1774749940233893,215.73216738344385
3901.2148,1.1794859602214574,206.05802795939553
3902.1145,1.1822594187152873,200.9965137927182
3903.0122,1.185176545081366,233.38723047491905
3903.912,1.1878109630223197,203.92989479676208
3904.8103,1.1900992825401129,221.5806664474735
3905.7107,1.1923496428818703,191.4697180909995
3906.6094,1.1949887160827193,192.94425788993348
3907.508,1.198316002725087,232.10355922114476
3908.409,1.2022775965184145,216.53004438788653
3909.308,1.2064102204009803,241.49349666760386
3910.2097,1.210110552495387,230.57058669531847
3911.1091,1.212882724793157,180.01580447644105
3912.011,1.2146237799513075,183.68639044700365
3912.9111,1.2154932329219146,226.63311556409965
3913.8113,1.215613002957474,203.3509712194058
3914.7136,1.2148038321223802,208.67170947920474
3915.6143,1.212797237074422,222.35045575277218
3916.517,1.2097147717303545,233.42520598844828
3917.4182,1.2063399526463303,233.9955328858394
3918.3215,1.2037368478316952,203.03757614064963
3919.223,1.2026721050420228,218.7343600274427
3920.1245,1.2031920897096897,213.66840893686114
3921.0286,1.2047795807427837,217.57699134088227
3921.9307,1.20676476116725,208.00985916757554
3922.835,1.208714339068738,232.56045574340146
3923.7373,1.2104272700525467,199.98816367780816
3924.642,1.2117407436927863,201.17778295241237
3925.5452,1.2123227321081873,243.4649599011928
3926.448,1.2118098372447421,201.13883423009167
3927.3535,1.2101106249317775,230.08093311376615
3928.257,1.2075872602193038,210.48375666985123
3929.1628,1.204721382446154,205.672118470524
3930.0667,1.2015963356417572,215.80444204505326
3930.9731,1.1976488829443173,203.13179105140912
3931.8774,1.1923116374627003,186.05155390708737
