wavl,flux,ivar
3566.9744,4.559230790070827,7.050142925598207
3567.795,4.589247485869477,9.321339080429118
3568.6177,4.603198936945991,6.447915655024897
3569.4385,4.596497574285438,4.586477245699223
3570.2617,4.569963260749349,7.352511940104416
3571.083,4.531163905073387,9.344327212671834
3571.9065,4.489780829785627,6.217301765967455
3572.7283,4.451740134696812,8.405052392227816
3573.55,4.4158658650388585,30.771429043819992
3574.374,4.378049169733168,5.044420726642946
3575.1963,4.338810515169576,8.300666137431053
3576.0208,4.306665070054657,9.859473309337428
3576.8435,4.294722630979202,6.73128055699139
3577.6682,4.310240306937452,14.279495682629715
3578.4915,4.347230058929012,8.221037993783765
3579.3145,4.388283733498634,9.534151877180841
3580.14,4.414769621137919,10.859375931671678
3580.9636,4.417312703310365,14.431075306197847
3581.7893,4.399949455068475,9.070000838275885
3582.6133,4.375139499135854,8.133988648011869
3583.4395,4.355615437263188,7.110700825164896
3584.264,4.350142989142726,5.491501889897219
3585.0884,4.362636698327564,6.200141598242245
3585.915,4.39205859036392,11.812994884818055
3586.74,4.4303526757977725,5.938567738553003
3587.5671,4.463605708454818,7.370426323193859
3588.3923,4.477248119790163,8.014782460673953
3589.22,4.464310321493122,8.894673818792818
3590.0457,4.428734251302511,7.2186055399179825
3590.8716,4.381899825141789,14.802935094243079
3591.6995,4.335703953636015,5.45886654942478
3592.526,4.297554027267823,9.741280753238177
3593.3542,4.268120578809928,7.857815012308137
3594.181,4.243575022309283,9.308290180446255
3595.0098,4.218734777389244,15.418942392823515
3595.8367,4.191737571215263,10.088879460045119
3596.6638,4.165561418508165,12.08503211439564
3597.4934,4.14632597577889,7.343611188096326
3598.3208,4.1390863641152595,6.699591196983918
3599.1506,4.143955253203945,10.250152174157199
3599.9788,4.1555622099358445,8.042452954688638
3600.8088,4.165573967572693,7.791851324990339
3601.6372,4.167391277734395,6.185291431882556
3602.4678,4.160958153118471,19.779829523729074
3603.2964,4.153903022673204,7.868069092771041
3604.1252,4.157417214090229,9.096048093760718
3604.9565,4.17941256818659,8.776404211288312
3605.786,4.21911549086068,13.243098591611506
3606.6172,4.267847695085942,7.416012756824478
3607.447,4.313537530547466,8.44505751623482
3608.2788,4.347168201140361,7.029344779430621
3609.109,4.364503066246174,6.363445229938349
3609.9392,4.365327852737448,10.66200723197704
3610.7717,4.351155673994948,6.834184358306746
3611.6023,4.325823382487558,6.339315699215997
3612.435,4.296689958009936,8.050235039644964
3613.266,4.274001264364673,12.989355446439614
3614.0994,4.26544238534827,6.534102370403418
3614.9307,4.271239288367278,8.84356047133754
3615.7625,4.283807783424051,6.333462416047795
3616.5962,4.293424907945424,7.362493130329816
3617.4282,4.2942652373047965,8.899412028267449
3618.2625,4.285860799170607,7.596129914116565
3619.0947,4.270009925667012,11.498860355287631
3619.9292,4.247946340208629,5.750114243124866
3620.762,4.221190087175524,9.872188272182436
3621.595,4.192915150792313,8.176292908089225
3622.4302,4.167828418385549,9.270404922461921
3623.2634,4.150054952284125,9.190472402519248
3624.0989,4.140406023755325,8.381633515101186
3624.9326,4.135826206721128,8.098116290578202
3625.7686,4.130204801727098,7.138320977223529
3626.6028,4.11745187748315,7.687866938326561
3627.437,4.095168827729989,7.267504791170477
3628.2734,4.066704368749009,7.413177146352573
3629.1082,4.039662046019138,9.672606077514036
3629.945,4.020294068074366,9.817360329785924
3630.78,4.009470303133487,18.658350526769823
3631.6174,4.0027500216428304,7.929244864035386
3632.453,3.995822835259085,8.662987897110408
3633.2883,3.9892016943999504,11.853344246173075
3634.1262,3.9877783846255275,9.606458654474135
3634.9622,3.995252318665875,10.87312093533893
3635.8005,4.008984615967627,9.415888711905085
3636.637,4.020259066119919,8.488749081302645
3637.4756,4.020266630450577,8.361717572601275
3638.3123,4.006224407489113,14.682376815928007
3639.1492,3.98313408949886,6.446351201243966
3639.9885,3.959877718998122,9.773486313314582
3640.826,3.9433851658984174,9.489253784039514
3641.6653,3.9345916225882163,9.712672976064503
3642.5032,3.929885102580635,11.74329180906944
3643.343,3.9249040698860234,8.85379319074115
3644.1812,3.917605633388186,7.693951949228373
3645.0195,3.908279071473894,9.834834781380621
3645.86,3.898064948246591,7.754322953138219
3646.699,3.8878945065763633,6.634727165350779
3647.5398,3.8780963862271456,11.56751472567328
3648.379,3.868849030742062,9.11218725957899
3649.2202,3.8604364042238566,6.87686461674838
3650.0596,3.8537881730788426,8.937762542578133
3650.8994,3.850200693655731,7.985523707562642
3651.7412,3.85038669114504,7.964675133013477
3652.5813,3.8529789953372093,10.068131801044547
3653.4236,3.8542810570077153,9.659467706707336
3654.2642,3.850276385478487,5.094964114683268
3655.1067,3.8397355884564366,5.8824614258289625
3655.9475,3.8256783128550977,10.85530965263322
3656.7886,3.813395332858837,11.955887371195402
3657.6318,3.807028149339531,15.773608473421424
3658.4734,3.807406337011282,9.250200741144184
3659.317,3.812509014095054,10.364589505845474
3660.1587,3.819581906835206,8.333124381595278
3661.003,3.8267010904404914,9.653270520030825
3661.845,3.8325373427728717,6.200263986695131
3662.6875,3.8356727231609278,16.364373809967322
3663.532,3.834690800499657,7.024635731803348
3664.3748,3.8297650246687827,9.122465413569383
3665.2197,3.8236435168521123,8.529005218698027
3666.063,3.8202790397685757,13.755810856195561
3666.9084,3.8218008097966663,11.342971814665153
3667.752,3.8269273046176826,8.822549129403932
3668.5977,3.831782618747263,9.64099296340756
3669.4417,3.831685970052245,10.883165079383863
3670.286,3.823054467873737,8.074956800661216
3671.132,3.8051464870456253,7.4400456889582145
3671.9768,3.7814884003690206,11.669588703945116
3672.8235,3.7587170012559183,13.19581724041467
3673.6685,3.743586874084007,13.897489353854388
3674.5156,3.7389253593838707,10.706000739195428
3675.3608,3.7425346513318676,12.352168760268672
3676.2063,3.749265736538119,9.558114006804486
3677.0542,3.7549173142497665,7.483107171916637
3677.9,3.7581775455229787,9.564060141150703
3678.748,3.7594232225966047,13.520464576559524
3679.5945,3.7581445486877194,10.895007797261549
3680.4429,3.7523438492300283,7.518104181626892
3681.2896,3.7402611547450095,12.29604499967843
3682.1365,3.7222823075878213,10.401396894891185
3682.9856,3.701443320022355,12.662604904453108
3683.8328,3.6824521036583153,8.791268267058275
3684.6824,3.6692826597154826,10.351255990459205
3685.53,3.6637086412292272,14.10304428057884
3686.38,3.6643866690766904,6.780466648199897
3687.2278,3.6677346868213587,9.218313740555073
3688.0762,3.670020499133203,21.659919430796073
3688.9265,3.670274447574134,12.155922609002388
3689.7751,3.6720679050479363,17.97824535162585
3690.626,3.6816400657361554,7.878471767939498
3691.475,3.702451483034241,9.874544928136153
3692.3264,3.731000121136527,17.63891837521156
3693.1758,3.7577378197275895,12.019661787138848
3694.0254,3.7738536516655494,8.625564534838592
3694.8772,3.776436902571063,9.481055728905366
3695.7273,3.768418352190415,11.565030202791016
3696.5793,3.754119991829018,7.785862841714826
3697.43,3.735802085681681,11.306804384842868
3698.2825,3.7136927467753567,15.889032003116174
3699.1333,3.688420705054471,8.09725153892737
3699.9841,3.661533869807663,12.334477182381173
3700.8374,3.6345003892288634,9.842257131140732
3701.6887,3.6078145266988106,10.432040437481218
3702.5425,3.5809156922007945,8.828221251403376
3703.3943,3.554366422488855,14.304847518985842
3704.2483,3.5303169368796485,12.069706880269486
3705.1003,3.5120305626359536,9.427360329269758
3705.9526,3.5012584449028776,12.836299499157146
3706.8074,3.4972851428586944,14.285330473170136
3707.66,3.497783397154701,16.295544092797478
3708.515,3.5005162224291184,14.753682832917544
3709.3682,3.503937511445998,16.430966131661318
3710.2234,3.506437931039128,12.865670507821523
3711.0771,3.505950288316203,9.623425955397854
3711.9307,3.501271847675851,13.239986953889884
3712.7866,3.493627122073889,10.836053836786608
3713.6409,3.486436195389119,12.953027802919127
3714.4973,3.4825450549317156,10.510969136111715
3715.3518,3.4816043339825646,9.85579973237192
3716.2085,3.479927113360678,13.881157711164754
3717.0635,3.4737683066515657,8.840024572263516
3717.9185,3.463357242387663,21.75546804059392
3718.776,3.4538980262374985,17.06743710925218
3719.6313,3.451968088176144,14.098801081178877
3720.489,3.4597123528034857,11.895016005023816
3721.345,3.472298861100116,10.632049498992735
3722.2031,3.480966879578321,20.198621065655814
3723.0593,3.4788849778322235,14.948587220277979
3723.9158,3.465749843959235,14.547502766256477
3724.7747,3.4477158371263483,15.76949756138568
3725.6316,3.433670438169088,13.59052795685444
3726.4905,3.4295259811252286,22.47292241803836
3727.348,3.435149615536157,12.910873022236041
3728.2073,3.4452598729447157,13.264667211926922
3729.065,3.453407626993901,13.498362425805826
3729.9229,3.4558323143233842,13.41464073710939
3730.783,3.4525142566455,11.315464351452693
3731.6414,3.4460865184947487,10.163502681140498
3732.5017,3.439718935818154,12.396178240168446
3733.3604,3.4354810956922317,11.187430129910014
3734.2214,3.43351222898002,11.051981149092025
3735.0803,3.432427280851047,11.558004425791804
3735.9417,3.430283388364182,9.719821847631303
3736.8013,3.4256673249224683,16.049140167618134
3737.661,3.4181169483166514,13.866462212214117
3738.5227,3.4078214610053745,12.638715395774367
3739.3828,3.3953039676125782,10.782735300166033
3740.245,3.3814398032421398,13.896910435833945
3741.1055,3.3683265120567714,10.47946378053441
3741.9683,3.359012021200834,14.185762195354997
3742.829,3.356299556913885,19.999780925768636
3743.69,3.3605256772436105,11.233520857603983
3744.5532,3.3688125042205614,12.841598506584068
3745.4148,3.3763936292061283,13.78806943645943
3746.2786,3.3797750757675202,9.596774434949449
3747.1404,3.378647566410371,17.801234422361333
3748.0044,3.3748931205329717,12.382874650324569
3748.8667,3.3695969413396525,12.086510230566388
3749.729,3.361418902933736,9.631953213430252
3750.5938,3.348160538817503,12.31365221277594
3751.4565,3.3301526175959033,12.03287613925325
3752.3215,3.3120223759142178,12.171354843231807
3753.1848,3.3017971495607292,15.586996931951237
3754.0503,3.3062340072439262,15.184714476146706
3754.9138,3.3257128483557503,22.57000447526783
3755.7776,3.352368776313369,12.250762679227215
3756.6438,3.373821613817355,11.474152460450558
3757.508,3.379984677127451,14.508881700522807
3758.3745,3.3686995456359883,14.673455770684065
3759.239,3.3458921186232606,14.249678268156712
3760.106,3.321261879050157,11.833253287056216
3760.971,3.303250734823342,16.844840849001958
3761.8362,3.295065156043297,12.009615385452532
3762.7036,3.2946107124375517,17.639257466381267
3763.5693,3.2968159680460296,20.769486863830657
3764.437,3.2968703601881115,15.000031823903214
3765.3032,3.292196959222396,16.3205376831826
3766.1714,3.2824423190158036,15.567577310698901
3767.0378,3.268698993128298,13.007654099216753
3767.9043,3.252975419736216,15.314575964819074
3768.7732,3.2382213929785504,12.950143945674593
3769.6401,3.227755685252754,15.57144908667281
3770.5095,3.2232648958302015,10.440708432577187
3771.377,3.2236909668838067,11.448375138354905
3772.2466,3.226009939751623,12.71405667477866
3773.1145,3.2278174137175184,13.299069419701201
3773.9824,3.2290134060050035,16.386119019774128
3774.8528,3.230915154572926,11.686497875363274
3775.721,3.233995615176145,16.160189249683413
3776.5918,3.2367788884256252,11.323595201325709
3777.4604,3.2368829133190475,12.139929316474348
3778.3315,3.2332680707697934,18.493911096309702
3779.201,3.2274510544302757,14.41189919365971
3780.0703,3.2225608195184354,13.653539213019032
3780.942,3.221119792606364,14.277320824884722
3781.8118,3.2231946670877014,19.153705998206313
3782.6838,3.2261487792242307,18.473494808337662
3783.554,3.22624048251013,10.94523927364246
3784.4265,3.2212443764712124,11.328495709254389
3785.297,3.2121684371211914,12.275117092942075
3786.168,3.2021902154731468,34.63273140457583
3787.041,3.1934712445170472,18.905877959515514
3787.912,3.18484523957742,17.706653594693336
3788.7856,3.172711195397025,14.325863542435908
3789.6572,3.1548302938514725,20.22641208535893
3790.531,3.1325938060356298,16.040921010731985
3791.403,3.110388613186538,15.529906992117283
3792.2754,3.0919601811517103,18.18330048712643
3793.15,3.0781245587388044,12.994793361909132
3794.0225,3.067221571254814,15.662585845550252
3794.8972,3.057404161630004,13.607115358993115
3795.7703,3.048969582939183,12.573371284077746
3796.6455,3.043917480460599,16.082367882681943
3797.519,3.043813461524802,17.001103828567786
3798.3926,3.047947720533978,11.799636287465585
3799.2686,3.0541642033986274,13.855844989796912
3800.1426,3.0609514117713723,17.162846243810474
3801.0188,3.0683132937059003,17.463742077487147
3801.8933,3.0761983469083947,16.008799479849618
3802.77,3.0833396976304113,9.821207786900763
3803.6448,3.0881309269313637,13.429793498970461
3804.522,3.090944376887518,21.883059903484796
3805.3972,3.094581853592678,14.72627886776393
3806.2727,3.102421925352441,9.375520048481144
3807.1504,3.1159862030915146,16.482353025850944
3808.0261,3.133654183431338,13.180099310671432
3808.9043,3.151195525576442,26.705211512094564
3809.7805,3.1629718403121543,14.990059209202009
3810.659,3.1649946225821495,14.842281328209104
3811.5356,3.1574885559891803,13.41646179725055
3812.4126,3.1450903347327195,13.468852905534854
3813.2917,3.1333368457111876,16.163211798534274
3814.169,3.124509896062098,11.811995357946426
3815.0483,3.11622706118659,14.093074027231676
3815.926,3.1043295718069426,10.336031206535067
3816.806,3.0865012402062275,17.754890357784593
3817.684,3.0642128642918025,22.061020748943456
3818.5623,3.0413500881901454,20.10218202872961
3819.4429,3.021832590884009,25.61692051485801
3820.3215,3.0078044419191086,12.830930918940778
3821.2024,2.9987985297756303,16.577727834799337
3822.0815,2.9929466241869425,14.781283822615485
3822.963,2.9882912620618693,13.66075508889009
3823.8423,2.9837577440551466,13.707500616780436
3824.722,2.978709387323111,16.027385571512077
3825.604,2.972105226767013,21.172956503351074
3826.4841,2.9624104075222375,17.465881694842928
3827.3665,2.9484022017155325,19.842772588294324
3828.2468,2.9304407442991343,12.816885209100816
3829.1296,2.9101993936339343,18.526537245028695
3830.0105,2.8897597405840485,21.66504353318626
3830.8916,2.869896242614966,14.801945905199492
3831.7751,2.849953134565437,23.19374026891488
3832.6565,2.8289604731250027,15.071479115183827
3833.5403,2.8065260986280207,20.731719408662755
3834.4224,2.783938895327219,17.95715497021446
3835.3064,2.7636640369192893,16.161429691076023
3836.1887,2.748999437093023,21.700426509958575
3837.0713,2.742598173148063,33.8472380696022
3837.956,2.7454696321048986,18.54108223322685
3838.839,2.7564830063394847,28.200534295974283
3839.7244,2.7733265531409725,17.421839786240707
3840.6077,2.793737452098049,30.68522374053337
3841.4932,2.81635727015482,21.364360141956272
3842.377,2.8397143098672073,18.200537213726133
3843.261,2.8618327030850974,13.704983479385193
3844.1472,2.8805115361396765,19.022804736333047
3845.0315,2.8946287022506714,14.598458757946037
3845.9182,2.905470056059558,19.702858454964506
3846.803,2.9161325832029505,21.07009801355953
3847.69,2.930151769763223,18.931867349884445
3848.5752,2.9491183702759147,15.419538153244062
3849.4604,2.971498016468487,20.564359119896267
3850.3481,2.993295540555595,21.510788264866285
3851.234,3.0105063103993697,11.835066552660008
3852.122,3.0218534919262647,18.440995484803285
3853.0083,3.028268943916215,21.502914679536513
3853.8967,3.030760895050068,17.02080762424868
3854.7832,3.0285330716317036,17.515584656992996
3855.6702,3.0198509835058474,14.968770457182748
3856.559,3.0043940596485954,14.866655738196163
3857.4463,2.985032545286158,18.745063559681107
3858.336,2.9669425590193943,18.937093338590145
3859.2234,2.955361157448631,15.4166054878906
3860.1135,2.9525032421556485,20.904020584996353
3861.0015,2.9568135066430536,24.433344598286535
3861.8896,2.964488127806876,17.022810327759604
3862.7803,2.9722066330020898,15.588237908442277
3863.6687,2.978234044160734,13.471634421288105
3864.5598,2.9816237248217683,21.267827950111233
3865.4487,2.9809277468668083,14.695694382400955
3866.34,2.974707590456252,15.499970635561764
3867.2297,2.963085655031482,13.650778029850692
3868.1213,2.948208635854225,15.513281303066005
3869.0112,2.9330738703610533,17.664010752148073
3869.9014,2.9192635895577412,13.965560535968818
3870.7937,2.906147850127437,15.643713290328261
3871.684,2.8919985925747866,15.153705587749107
3872.577,2.8757782441835142,22.77076672125843
3873.4678,2.8586006342420873,18.428570168897604
3874.361,2.842580295865092,18.813677218589184
3875.2524,2.8288709211831016,19.785479803916203
3876.1438,2.815762895858303,26.287861886724812
3877.0376,2.799513828988711,29.137951094133115
3877.9297,2.777046414267455,16.66733688299862
3878.8237,2.7478483416677366,18.641339446990624
3879.716,2.714505005832374,20.446038052333435
3880.6108,2.6806867177262084,26.079616815128624
3881.5037,2.649858321655926,26.88618224153603
3882.3965,2.623517670018605,19.61143441158615
3883.2917,2.6013490873491256,23.52131945401863
3884.185,2.582157022302326,19.83095956542006
3885.0808,2.564351320177197,22.53629590228936
3885.9746,2.546537381602307,26.87529370420996
3886.8706,2.5270753534198267,16.876967664399498
3887.765,2.504999793854729,25.029573564554344
3888.6592,2.4807527733304857,24.492939628355558
3889.556,2.4565047836277936,20.484835586906176
3890.4507,2.435454095634114,32.82568217783856
3891.348,2.4204235455726564,39.46386873716126
3892.243,2.413936162887146,27.19037996501727
3893.1406,2.417751793347098,24.447725729518304
3894.0361,2.4323059210704963,21.638702015597893
3894.932,2.4561863260450987,28.93299085201538
3895.83,2.486707702524165,21.708750937688478
3896.7263,2.520862280480757,20.782456772271143
3897.625,2.55686359784132,22.637272155614657
3898.5215,2.5937241875889994,24.2895259229162
3899.4207,2.6316427283061192,24.892442016194455
3900.3176,2.6705705254219754,31.5007880877791
3901.2148,2.7103302173238584,20.47307767808008
3902.1145,2.750140325042415,29.799590136730657
3903.0122,2.7886573398488013,16.48191247543253
3903.912,2.825163131722513,13.591358059942003
3904.8103,2.859245906245477,21.178213764354766
3905.7107,2.8914056130641748,20.782994355104208
3906.6094,2.921764520027018,13.931935549468257
3907.508,2.949455746613948,14.937641856766925
3908.409,2.971831565319527,18.865546384956406
3909.308,2.9852085639525767,13.84693203255907
3910.2097,2.987395233007935,12.829261822487744
3911.1091,2.9797027438088866,12.818907840422757
3912.011,2.9674698459552467,16.42298484796009
3912.9111,2.9581254285575276,17.892131982505664
3913.8113,2.957513757616559,15.067724929982207
3914.7136,2.967218909751345,19.248932259475993
3915.6143,2.98395006472455,15.475739729511245
3916.517,3.0014638504908207,14.821585331589949
3917.4182,3.013135966581621,17.31189169919347
3918.3215,3.014875851330799,15.786257801289295
3919.223,3.006673990030409,17.907427781256626
3920.1245,2.992724872145254,17.29226589895821
3921.0286,2.9795990722014674,20.587816344798266
3921.9307,2.9734856478987193,21.57890597357954
3922.835,2.97722609696213,18.28885558546454
3923.7373,2.989214069409224,18.813227801719464
3924.642,3.0046976422096594,15.775390304248301
3925.5452,3.018568229190375,12.226572158730892
3926.448,3.0280784924501343,20.593792015231003
3927.3535,3.032984834466389,15.057388000915338
3928.257,3.034083030778372,17.06742930394684
3929.1628,3.032132965273954,16.327627253737276
3930.0667,3.027879126847058,18.95027586853903
3930.9731,3.0223559069871277,15.105295178717617
3931.8774,3.016548245733075,18.00580142847857
3932.782,3.0104868253585746,14.39527567187759
3933.6887,3.003158301855131,18.115293373191044
3934.5938,2.993432227091455,15.42306422500928
3935.501,2.9810479971458115,14.922483936343799
