wavl,flux,ivar
3566.9744,1.2181150282765891,537.5797365107429
3567.795,1.2153848105189005,578.5213802484784
3568.6177,1.2128383767562683,536.8409415677212
3569.4385,1.21073264429614,567.0443815656915
3570.2617,1.208876332448975,491.47449736279066
3571.083,1.2070326103024118,609.738319939229
3571.9065,1.2050420113154288,405.6188660125311
3572.7283,1.2029458890823603,494.5401458853096
3573.55,1.201077539324601,464.9640710849105
3574.374,1.200030120358559,614.2193518307621
3575.1963,1.2002217045666916,503.44616207896536
3576.0208,1.2013196217709854,455.3876249230114
3576.8435,1.2022076033163271,584.4276213695371
3577.6682,1.2017920762028054,490.99695060846113
3578.4915,1.2000389822682718,642.1731490354713
3579.3145,1.1981824358405624,575.191280596244
3580.14,1.197669193580874,612.7733147523284
3580.9636,1.1987284502847984,572.3424831315427
3581.7893,1.1999412869437485,374.54138307873575
3582.6133,1.1992855845527894,499.9181513371251
3583.4395,1.1956956156306133,572.843663679025
3584.264,1.189813524368093,500.4328488678968
3585.0884,1.183396693873729,750.1197291599658
3585.915,1.1781861453695264,836.3063805819024
3586.74,1.175167844560509,792.9545403642643
3587.5671,1.1744121524001903,566.2195117140176
3588.3923,1.1754073064668749,596.7990545649353
3589.22,1.1772523551760774,596.5099661616202
3590.0457,1.1787722163132124,648.0536041601578
3590.8716,1.1788870820596309,441.3383667650561
3591.6995,1.1771979988257435,573.4783072229139
3592.526,1.174405459579251,590.4373183818198
3593.3542,1.17189914541313,688.7959224342244
3594.181,1.1707845754229804,480.50915172820606
3595.0098,1.1711203635518765,396.483294545281
3595.8367,1.1721375770313085,625.7655547495553
3596.6638,1.1730373242869134,686.588572084777
3597.4934,1.1735252147076443,515.1074768676677
3598.3208,1.173692852005243,506.80009274153906
3599.1506,1.1735963944083176,492.13482996175946
3599.9788,1.1730671168661104,557.5687805731002
3600.8088,1.1719827798491083,531.2681711959614
3601.6372,1.1706991363963024,656.2686617489142
3602.4678,1.1700531795592994,600.3781154731506
3603.2964,1.1707901631292619,622.2619732949084
3604.1252,1.1728397245159978,599.7348436700253
3604.9565,1.1752520391699008,468.24024361464615
3605.786,1.1769084338587505,507.9845985130195
3606.6172,1.1774665459357134,566.7562551172399
3607.447,1.177515408603342,641.9562884925394
3608.2788,1.177877977529973,533.0664305108197
3609.109,1.1787109228952386,517.9147926057813
3609.9392,1.1793253011401281,873.2406787204119
3610.7717,1.1788310992547195,632.5806119081391
3611.6023,1.1769290231181204,477.0154741685303
3612.435,1.1740992660814173,615.4378965577487
3613.266,1.171241089984566,539.1733516751644
3614.0994,1.1691331084468533,496.1248912981829
3614.9307,1.1682427046639903,721.3767764111465
3615.7625,1.1686845619101354,509.92526759739496
3616.5962,1.170300987798143,760.8100406143728
3617.4282,1.1726931718477869,495.2940896838143
3618.2625,1.175373888470152,726.3880720221574
3619.0947,1.1778665075973647,468.88342783814915
3619.9292,1.1797314629434918,578.940666346229
3620.762,1.1803775326736332,658.572409757145
3621.595,1.179171993650341,491.42364757457614
3622.4302,1.1758468130499564,572.506854140213
3623.2634,1.1709204983106785,608.788406394494
3624.0989,1.1654390876960266,573.6913148725056
3624.9326,1.1604077059376408,513.9533114152212
3625.7686,1.1562045547677553,611.2944642203511
3626.6028,1.1527268759676779,568.745468437605
3627.437,1.1497132142837811,620.1132983812674
3628.2734,1.1470334923796266,692.8337030058109
3629.1082,1.1446040014849248,477.3896729327071
3629.945,1.1420915348525382,727.5319482303598
3630.78,1.138985148855315,646.2667782899456
3631.6174,1.1350238189691035,937.3557823940032
3632.453,1.1308541799818734,686.5087664216194
3633.2883,1.1279889255198021,526.137959377716
3634.1262,1.128013150666505,492.2583151773847
3634.9622,1.1314109618779633,778.9394912403664
3635.8005,1.1370671947390585,682.0113130298662
3636.637,1.142784365602034,527.823039001182
3637.4756,1.1465130978966223,446.2811866255304
3638.3123,1.1471423935887988,559.2604811676179
3639.1492,1.144901814823918,539.583774739501
3639.9885,1.141238392373982,722.0172849442154
3640.826,1.1384127810356988,601.0280996468234
3641.6653,1.1384363263624702,632.4690485094453
3642.5032,1.1419014457091066,526.1646127716945
3643.343,1.1474519177424924,680.2363118802715
3644.1812,1.15247075544293,730.9998188342416
3645.0195,1.154717454205474,603.6812020039869
3645.86,1.1535135124140687,672.0764846691898
3646.699,1.149848262070458,729.781518237392
3647.5398,1.1453599771545275,640.8318456166669
3648.379,1.1412175262573863,616.2599148680139
3649.2202,1.1375613051278683,547.1429510776167
3650.0596,1.1339277526502558,692.2320177527781
3650.8994,1.129925967231091,550.0717223439544
3651.7412,1.1258113758761872,583.8889045079136
3652.5813,1.122480814051788,597.318447834176
3653.4236,1.120860872584149,545.9728496559926
3654.2642,1.1213107663848436,567.4740103777049
3655.1067,1.1233227924623317,592.2086206018535
3655.9475,1.1257245150275,696.5544223688432
3656.7886,1.1271820701699875,599.3217009865604
3657.6318,1.12675357320973,510.6662199896402
3658.4734,1.1244083854686215,580.4897619847818
3659.317,1.121118803343214,524.0961509400936
3660.1587,1.1183501276565424,761.8088034657814
3661.003,1.1171370709272659,546.2162020764731
3661.845,1.1176108146118942,877.783660045957
3662.6875,1.1191895246746395,744.7127919074807
3663.532,1.1211519518624564,619.3953365468494
3664.3748,1.1228788410493593,589.1681225699479
3665.2197,1.1237999848347635,527.0488530840115
3666.063,1.1234294531549402,656.144866739279
3666.9084,1.121741445569246,540.84421053219
3667.752,1.1193189186191026,701.7231964824408
3668.5977,1.116851867967599,774.3812669991122
3669.4417,1.114571505520199,730.0632077251768
3670.286,1.1122539595633625,599.8584555622843
3671.132,1.1098937766071588,682.0726064914968
3671.9768,1.1081246077799123,647.4448397788606
3672.8235,1.1077628696711208,685.2796730135838
3673.6685,1.108999064381063,688.3983971246471
3674.5156,1.1110802010246026,570.5281005750804
3675.3608,1.1128097587424348,671.8685458088562
3676.2063,1.113364178949719,644.9939113594746
3677.0542,1.1126228552364523,794.6955979872242
3677.9,1.1109767974976248,651.6204208202635
3678.748,1.108881151228902,730.5431172618909
3679.5945,1.1065942310711274,562.9114601748615
3680.4429,1.1041204791194588,648.8533702214545
3681.2896,1.1014470529730058,625.4244285898392
3682.1365,1.0987748676736735,649.4210460011701
3682.9856,1.09671445225941,659.7981444564712
3683.8328,1.0962377080593082,751.4270085381968
3684.6824,1.0982632248008461,564.9439059396743
3685.53,1.1030626974546611,595.965422697129
3686.38,1.109895557196786,696.9225938901378
3687.2278,1.1169373060955181,527.8256435330263
3688.0762,1.1214638124789424,593.5596069433386
3688.9265,1.1193825340002515,625.962500669981
3689.7751,1.104885220824336,594.172842689682
3690.626,1.0715549687188466,696.9363681025558
3691.475,1.0168458423321594,636.7419448608239
3692.3264,0.9469123047804726,873.0902361136481
3693.1758,0.8794356765061213,992.9941225968471
3694.0254,0.8365149900462581,1497.9524731063204
3694.8772,0.8335509757264172,1704.4374060339042
3695.7273,0.8697490660340718,2842.6121281117757
3696.5793,0.9292020589422748,602.383885535793
3697.43,0.9907046140860146,718.5146986987535
3698.2825,1.0394686114836853,618.5030179454767
3699.1333,1.0706208152718937,571.1591092934664
3699.9841,1.087344410217542,741.0695208212848
3700.8374,1.0952817816820675,531.2529211153441
3701.6887,1.098873689447865,689.1926186984475
3702.5425,1.1003716980172509,631.1194322019563
3703.3943,1.1004194133345486,698.5472713298154
3704.2483,1.0992078446790985,614.0123982021842
3705.1003,1.0970966183888677,798.614912023783
3705.9526,1.094621080487028,704.7204811874255
3706.8074,1.0923095205327065,572.582620960784
3707.66,1.0905954481485371,637.7127620566226
3708.515,1.0896750674637676,576.9101594532735
3709.3682,1.0893530338845543,740.3720017951619
3710.2234,1.0889683831380204,654.5931757552696
3711.0771,1.087813014009372,624.1699470523772
3711.9307,1.0858762893665288,609.2219940532672
3712.7866,1.0843381357547521,738.5477696233295
3713.6409,1.0854014553989042,678.6337034213469
3714.4973,1.091584007945237,622.8561524861817
3715.3518,1.1047592531426929,763.5309422080375
3716.2085,1.1250102338301753,612.5548069294643
3717.0635,1.1487403476147116,928.3737364788533
3717.9185,1.168469087579886,650.2545007535176
3718.776,1.175461257610101,1436.6294430335442
3719.6313,1.1652543917317084,660.5238990464621
3720.489,1.141542097849706,604.818627348083
3721.345,1.1141499053073,678.5736517682334
3722.2031,1.092069552078487,491.1823688674978
3723.0593,1.0788437270839544,653.4568258297501
3723.9158,1.072585397302879,618.8141929872907
3724.7747,1.0699615278455983,728.405273372692
3725.6316,1.0689695878833265,623.9574611195371
3726.4905,1.0691041600066384,634.5078931425275
3727.348,1.0702496678236082,598.0799634774933
3728.2073,1.0719319379625611,676.9576161218413
3729.065,1.073392100149277,573.9036584917911
3729.9229,1.0740262739778481,627.3854174723509
3730.783,1.0736390886704215,748.4178839835402
3731.6414,1.0725116887798436,784.1299845080398
3732.5017,1.0712985265277621,720.7446490994414
3733.3604,1.0707380957664683,718.9726098049827
3734.2214,1.0711835672363872,698.5652863621294
3735.0803,1.072347849502165,693.4452910521172
3735.9417,1.0735376087999942,640.6502919673741
3736.8013,1.0741225012148874,767.9473540871534
3737.661,1.0738040139348728,770.9906495877192
3738.5227,1.0725159586273256,723.2665013105704
3739.3828,1.0703721831830249,710.400939098982
3740.245,1.067732816874036,606.574624939087
3741.1055,1.0651859550583178,710.7764672015222
3741.9683,1.0631329331733215,903.6026875674293
3742.829,1.061527723681784,612.0025621572244
3743.69,1.0600291544689255,717.7914901282511
3744.5532,1.0585319390638344,581.9491169632583
3745.4148,1.0574009173491934,783.5978883317179
3746.2786,1.0571091835217958,599.5755813199557
3747.1404,1.0577697323166388,740.3435542051807
3748.0044,1.0590795593454168,674.3297014496206
3748.8667,1.0607063770478664,789.987260682562
3749.729,1.0626233614711522,641.4109200502709
3750.5938,1.0649623424945087,719.6548380885729
3751.4565,1.0675763147838233,687.5973402607881
3752.3215,1.0699022561091294,754.7326812848963
3753.1848,1.0712374731071312,654.7100518414095
3754.0503,1.0713399975262932,693.0120333316307
3754.9138,1.0706556871162352,695.963726899539
3755.7776,1.0699559875054638,755.6016406745067
3756.6438,1.0696763335544965,677.2377537034271
3757.508,1.0696245330154477,732.1241752846274
3758.3745,1.0693250391788096,713.5987668444251
3759.239,1.068623380370052,664.7172920733719
3760.106,1.06790857301307,679.5920336710614
3760.971,1.0677890784996273,771.5401687871612
3761.8362,1.0685217731571524,761.3118338194741
3762.7036,1.0696992588826173,781.2586959009996
3763.5693,1.0703240568465016,723.8964469661706
3764.437,1.0692493997707015,811.8580611616369
3765.3032,1.0657769014266918,591.0522382730281
3766.1714,1.060127434117649,740.9047448805027
3767.0378,1.0534825983002827,785.6247563696148
3767.9043,1.0472580680965955,1006.7915141907832
3768.7732,1.0423364147119276,906.1519177354153
3769.6401,1.0388627225142901,764.2934820898234
3770.5095,1.0365694138336996,891.526519869171
3771.377,1.0352902245008893,716.9224078730311
3772.2466,1.034865553303411,927.2861578174296
3773.1145,1.0348670284905677,728.1292166113989
3773.9824,1.0346502657061154,726.0090779535016
3774.8528,1.0339363156700672,803.4089350316514
3775.721,1.0332910332409309,839.9712610707425
3776.5918,1.0337886608785092,920.9814926032775
3777.4604,1.0360403236667497,926.2768454346542
3778.3315,1.039556599204305,816.3733184210272
3779.201,1.0430713087324543,713.8226504719657
3780.0703,1.0456160858066972,800.0095940509337
3780.942,1.0472090928560702,675.2944843723318
3781.8118,1.0486906139793208,734.0379573150615
3782.6838,1.0509615158674313,908.335840359948
3783.554,1.0542016216260073,737.2185345922626
3784.4265,1.0577108330300808,703.2192424312934
3785.297,1.0602100904984155,567.5802001402624
3786.168,1.0605324183018965,623.7381805819379
3787.041,1.0581676482287807,713.7214724961848
3787.912,1.0536012115409499,723.65049046453
3788.7856,1.048040681041833,811.6808045192074
3789.6572,1.0427679611818652,1020.0914431617258
3790.531,1.038308979753789,803.9387000737577
3791.403,1.0344424943889063,711.9744987923334
3792.2754,1.0307165910203746,784.0692838054065
3793.15,1.0270155773341514,716.1639419753635
3794.0225,1.023444066469722,885.120636659577
3794.8972,1.0197606078131356,806.1002131525811
3795.7703,1.0154154295342581,602.4443866950461
3796.6455,1.0101695361370637,679.7904924614666
3797.519,1.0048679794942563,834.937765582007
3798.3926,1.0012121201021955,801.6546413170797
3799.2686,1.0008183382648932,843.4034665453656
3800.1426,1.0041959195468741,754.346731330634
3801.0188,1.010495148899428,810.5692776745162
3801.8933,1.0180287029411301,718.3869049969178
3802.77,1.0252317344028914,806.5468416179643
3803.6448,1.0311336143211098,654.7455065791166
3804.522,1.035593579740518,719.6911313256122
3805.3972,1.0389446680835994,853.7762890029927
3806.2727,1.0417342350987715,811.6426860020697
3807.1504,1.0444401075251204,819.7667848110187
3808.0261,1.0473837118831448,668.492465118625
3808.9043,1.0507480379070435,659.393688466542
3809.7805,1.0543846161255805,808.9656990890418
3810.659,1.0577311263551874,688.2597938299775
3811.5356,1.0599049666927112,749.4860187795066
3812.4126,1.0603053585976345,743.0206683558098
3813.2917,1.0590802912190898,531.4577897560747
3814.169,1.0570710969302681,759.2960309538414
3815.0483,1.0551636002940379,743.421904416393
3815.926,1.053787225792291,794.093056164349
3816.806,1.0529176081302898,684.0968442978896
3817.684,1.0524509855167157,870.573022614817
3818.5623,1.0523156548801964,779.9770395301906
3819.4429,1.052293782929672,827.7794557694552
3820.3215,1.0518973435904904,848.1440986964503
3821.2024,1.0505643606247574,689.8316111578099
3822.0815,1.048005467544045,785.7263838608818
3822.963,1.0442843851167651,750.2169889005123
3823.8423,1.0396419518947526,854.0638914099062
3824.722,1.0341574652750103,736.3452741143968
3825.604,1.0277469603152283,754.1737335341156
3826.4841,1.0204540523604755,684.9208970162706
3827.3665,1.0125102795818939,942.229435438272
3828.2468,1.004444328942035,767.2425636097058
3829.1296,0.9969137335846663,660.7380098741583
3830.0105,0.9909573866530479,724.0784745623127
3830.8916,0.9877701191527694,1017.9582687304794
3831.7751,0.9881064835257514,909.9172027717449
3832.6565,0.9911606672418998,769.4398876830483
3833.5403,0.9940568961475149,894.6730009914046
3834.4224,0.9928901523318743,750.1140028195532
3835.3064,0.9852753696773083,832.9074111874695
3836.1887,0.972458276077999,1071.9467640509856
3837.0713,0.9587431838771623,978.360504724102
3837.956,0.9486787281170453,1131.3211668350589
3838.839,0.9444745406429388,965.1197994782735
3839.7244,0.945568394199524,935.5243610661537
3840.6077,0.9503011740398554,962.6887355979603
3841.4932,0.9574474461566047,879.5591772841647
3842.377,0.9664989618879989,726.8048732678809
3843.261,0.977385059204012,840.6218744329278
3844.1472,0.9900843991987501,834.1056490376927
3845.0315,1.0043235667263781,767.524751487391
3845.9182,1.019573301197418,659.6933946951128
3846.803,1.0345460840957446,787.0912512135117
3847.69,1.0475606395194024,719.6959912310464
3848.5752,1.05690949587833,615.0175780972503
3849.4604,1.0620174207860285,720.5118509095038
3850.3481,1.0639128668432316,640.1024197982301
3851.234,1.0649116582262568,645.8511152773387
3852.122,1.067491730419884,691.0674463228936
3853.0083,1.0730102363735463,580.4610598696415
3853.8967,1.0812317886718295,745.2152254162836
3854.7832,1.0906051180043232,648.9195171778215
3855.6702,1.0992634907717465,662.9364874859491
3856.559,1.1057607987994051,603.0188138264797
3857.4463,1.1094750308674781,647.4133022572607
3858.336,1.1106772003156058,683.9023014765603
3859.2234,1.1101441551856466,698.0379019777681
3860.1135,1.108740194895507,688.2220006998795
3861.0015,1.1070514188559832,679.2704588203645
3861.8896,1.1052074576224058,699.5170287935966
3862.7803,1.1029547296240956,656.7420924846947
3863.6687,1.0998988822676823,646.8552521374969
3864.5598,1.095748908173286,642.3984231584175
3865.4487,1.0906167373667277,624.2196870134258
3866.34,1.0849142512265744,750.7042352909181
3867.2297,1.0791340278371366,644.1957975369078
3868.1213,1.0734016375909956,655.2036615909964
3869.0112,1.0676104743284842,581.9007025478063
3869.9014,1.0617527957447928,662.6674888225401
3870.7937,1.0561909255738273,861.914174080713
3871.684,1.0513245751318283,607.2966664134054
3872.577,1.046872613751802,697.5788397079851
3873.4678,1.0418579060289326,818.1858887404447
3874.361,1.0351564622166063,648.5111457889903
3875.2524,1.0263918565778474,797.8759363162575
3876.1438,1.0159844964366225,818.5166631987082
3877.0376,1.0046527097327989,767.5156354578191
3877.9297,0.9929114523447814,770.457856690068
3878.8237,0.9807056474708925,842.5157138807317
3879.716,0.9678724041849167,973.6527317064205
3880.6108,0.9543377174267424,1055.8011367410886
3881.5037,0.9405360623499627,837.1125367412882
3882.3965,0.9269254875321696,945.4190570814876
3883.2917,0.9135358322360272,1081.513641487281
3884.185,0.8998087481993026,942.4589800779205
3885.0808,0.8847679239547008,1102.8990142668126
3885.9746,0.8681568000738589,938.3874786712362
3886.8706,0.8507683571145146,1139.7543114214861
3887.765,0.8346428042057167,1515.689692691619
3888.6592,0.8220664325816993,1472.2234060250767
3889.556,0.8148304974315614,972.1479011307049
3890.4507,0.8137242562224745,1357.335321299878
3891.348,0.8183948462676349,1162.2324447614064
3892.243,0.8277244656044561,1331.7442331129566
3893.1406,0.8404367440987468,1054.8835755195032
3894.0361,0.8553031027768055,1023.1868787945823
3894.932,0.8714312844376949,1222.3197277462407
3895.83,0.8880133184380259,1111.187117858452
3896.7263,0.9041732506669323,789.7406903734864
3897.625,0.919539925471736,949.0802422929623
3898.5215,0.9341963652678469,919.4768335636628
3899.4207,0.9488008076944257,1035.5033277210293
3900.3176,0.9636832449340572,732.507968035383
3901.2148,0.978715280479003,770.2153351074422
3902.1145,0.9933371554140454,893.3198465682208
3903.0122,1.006967701658364,685.7596010816951
3903.912,1.0196118673709846,861.5582301387631
3904.8103,1.0315717086578777,774.0928494266363
3905.7107,1.043422477624944,647.2519905492342
3906.6094,1.0556126679703435,676.7302486297494
3907.508,1.0685121345340844,634.5266055422559
3908.409,1.0821203548350118,701.3630805228624
3909.308,1.0957280207416729,601.7544708238594
3910.2097,1.1082907483413527,721.4236863017541
3911.1091,1.118929494975166,539.4631394158279
3912.011,1.1279695023521943,588.2102640140081
3912.9111,1.1366891412842277,698.3713111228037
3913.8113,1.1464041848287827,726.5781069335064
3914.7136,1.1572337385293934,583.8772805327823
3915.6143,1.1678633749230578,499.01219332646156
3916.517,1.1767224323241416,617.2177236022436
3917.4182,1.1830616218101548,522.1307025530072
3918.3215,1.187595470199323,574.1033004186015
3919.223,1.1918775668749373,541.9391451671306
3920.1245,1.197318917768767,592.3120581820955
3921.0286,1.204239812403892,545.4605900737497
3921.9307,1.2115727592339374,480.63794966571675
3922.835,1.2175803052639402,517.1753108656454
3923.7373,1.2208449285020178,504.2718690023609
3924.642,1.2212702788144374,662.902289167145
3925.5452,1.2200598686947823,542.3031717259779
3926.448,1.218827499012687,478.0585967517096
3927.3535,1.2184176094098973,538.6832599055173
3928.257,1.2184463290909404,602.7755805685082
3929.1628,1.2178639516391125,492.3727901020941
3930.0667,1.2159858525529585,503.91506004129417
3930.9731,1.213014956602169,615.4634421617657
3931.8774,1.209766153393183,534.1217199691441
3932.782,1.2068496180128703,515.2858790343998
3933.6887,1.2041712064925434,516.7049194946559
3934.5938,1.2010449067577151,521.0724424014902
3935.501,1.1967427663576171,590.0356577016032
3936.4062,1.191141604261921,523.1258485634705
3937.3142,1.1846919917959888,546.0671668397282
