wavl,flux,ivar
3566.9744,1.4766435173663408,471.98552303929785
3567.795,1.4751489330299423,542.5984025309358
3568.6177,1.471403424161884,430.3167288325095
3569.4385,1.4669644505222224,490.61889457787294
3570.2617,1.4628034140919652,536.663316907444
3571.083,1.4590124840407765,455.1728082784582
3571.9065,1.4549339658156761,483.4991946237148
3572.7283,1.4497961764088991,422.05160270441115
3573.55,1.4432124514996207,436.8143840618545
3574.374,1.4355211372772827,586.6983217105084
3575.1963,1.4277939600870917,504.69232689945716
3576.0208,1.4212558478864146,534.7080444547262
3576.8435,1.4168228092750617,533.2033807730718
3577.6682,1.414622082036692,502.49695600394824
3578.4915,1.4141277887306967,572.7715318322736
3579.3145,1.4144799159163701,557.7180365782547
3580.14,1.4150003792557473,600.7781135874181
3580.9636,1.4156716538902352,477.64690921276576
3581.7893,1.4173607079636452,428.8813248312581
3582.6133,1.421352378264027,610.1704911369535
3583.4395,1.428391953704018,480.7704927375035
3584.264,1.4378191380953995,542.6654423128475
3585.0884,1.4478043959456903,567.3185850651903
3585.915,1.456202816653269,380.8605358176544
3586.74,1.4613648811785722,529.0560468578445
3587.5671,1.4626814466317566,469.2865753767436
3588.3923,1.4605511861322666,516.1490521966138
3589.22,1.456265757502193,504.50140338790544
3590.0457,1.451597174813389,507.90106508013133
3590.8716,1.4479896726701427,618.7302676411609
3591.6995,1.446022891475722,587.3555490765891
3592.526,1.4454892876280476,567.7455985862138
3593.3542,1.4459363422010605,451.58887814497473
3594.181,1.4470171611094895,508.6108101802985
3595.0098,1.448273074924649,398.89112460647715
3595.8367,1.4488556042635967,524.1426596015588
3596.6638,1.447860958063051,526.576737223811
3597.4934,1.44498242171314,538.0217883824475
3598.3208,1.4408488914260373,500.6095466253556
3599.1506,1.436603582536894,492.63218694880936
3599.9788,1.4333688338284323,552.2341462829647
3600.8088,1.4317309518531554,543.684113649656
3601.6372,1.4316029961203,615.3279000685899
3602.4678,1.4322879630940026,470.950145481039
3603.2964,1.4329627063905261,553.9341203574432
3604.1252,1.433334846741924,580.3769391648104
3604.9565,1.4338712037219976,466.3189011065013
3605.786,1.4352713231329188,472.34618159873776
3606.6172,1.4376344800623868,436.53873840040865
3607.447,1.440071024404942,509.50669764348214
3608.2788,1.4411559117700803,569.4061963053034
3609.109,1.4397046771124216,576.7184044581841
3609.9392,1.4354189584812762,591.4323585776506
3610.7717,1.4290326640173743,427.04371913228096
3611.6023,1.4220660262997367,490.1899297326834
3612.435,1.4159644508374383,673.669551533822
3613.266,1.4114316668085003,592.6739298980658
3614.0994,1.408109048184945,457.6398628600899
3614.9307,1.4053057453361963,521.604378235062
3615.7625,1.40291260842855,613.2838419392976
3616.5962,1.4018207271091636,563.8961565133334
3617.4282,1.4032781118983135,479.1650075115428
3618.2625,1.4077858619303927,511.2839948190493
3619.0947,1.4144578921164526,463.93790781633476
3619.9292,1.4214388230992507,516.5314379979022
3620.762,1.4267409217620164,540.2524371433096
3621.595,1.4292636594746762,617.898658887049
3622.4302,1.429069279079143,675.1229778119831
3623.2634,1.427041179515234,547.0844050236675
3624.0989,1.4241257501193716,691.111551994096
3624.9326,1.4208731357765165,636.3561536439045
3625.7686,1.4174802956109291,571.5653338395165
3626.6028,1.4141996291972394,663.3523889568289
3627.437,1.411364641130439,511.36615831253306
3628.2734,1.409154723646578,455.8157976391614
3629.1082,1.407425289923608,551.739279718397
3629.945,1.4058692144043978,516.1615611372137
3630.78,1.4044172155672594,580.3693077694297
3631.6174,1.4032910641549123,641.2926099882977
3632.453,1.4027191123930243,573.6550938152986
3633.2883,1.402564713441634,563.9048653805305
3634.1262,1.402389194184812,670.1743570299919
3634.9622,1.401943791944133,550.5300686970023
3635.8005,1.4016594857525182,478.48094471691644
3636.637,1.4025957307015509,706.066843848263
3637.4756,1.4057604404061785,672.5056279015041
3638.3123,1.411308349852608,544.1788419739288
3639.1492,1.418360618225755,469.2596115982529
3639.9885,1.4254453559653908,494.0176730822092
3640.826,1.4311739505297854,492.2422232196084
3641.6653,1.4349240696652759,437.1512838187789
3642.5032,1.436832539470992,551.3152515485029
3643.343,1.4375075176463876,565.9222588573759
3644.1812,1.43748054189503,532.3740843368589
3645.0195,1.4369218565624422,434.9971323791289
3645.86,1.4356905883646867,572.4266715995634
3646.699,1.4336696764548522,603.4796716417703
3647.5398,1.4311292274077816,583.6882780698396
3648.379,1.4289530443904288,501.925241932071
3649.2202,1.4283291874234854,523.136130983327
3650.0596,1.430085416771976,500.3915319218848
3650.8994,1.4340865822646625,505.04703023400555
3651.7412,1.4392104147917557,617.3432302761516
3652.5813,1.4437120750697245,601.6010078897914
3653.4236,1.445871837284144,450.2294855648356
3654.2642,1.4445531662440139,414.4909266471332
3655.1067,1.4397461529818234,570.9207738326227
3655.9475,1.432609959575919,553.1466801473342
3656.7886,1.4248362871857125,397.1219508243083
3657.6318,1.417953657894877,627.9292983868507
3658.4734,1.413029807013539,485.51397603603664
3659.317,1.4105850264950368,531.2220948343864
3660.1587,1.4107421711749735,533.253822724858
3661.003,1.4132170806592896,521.7444887212409
3661.845,1.417428360446227,555.126044647965
3662.6875,1.4227088798229857,677.5015596137034
3663.532,1.4283234880315192,524.5435214272048
3664.3748,1.4333083949330532,460.73900074129955
3665.2197,1.4365360752021517,620.2564887235785
3666.063,1.4369533828244678,557.6488877677438
3666.9084,1.434174832296846,471.11284045161074
3667.752,1.4288676980277617,565.4475457747271
3668.5977,1.4226203409476887,540.4070374516576
3669.4417,1.4174988094718122,545.770202185906
3670.286,1.4152284347514292,523.0402971442232
3671.132,1.4166324973396833,591.6465822760355
3671.9768,1.4213186957970823,741.7690297734075
3672.8235,1.4279576733731554,483.5763563265503
3673.6685,1.4349053103082856,473.1840850209422
3674.5156,1.4410305454802328,595.8603945091604
3675.3608,1.445923018055516,565.7290351508319
3676.2063,1.4497908821108598,589.6773594810394
3677.0542,1.452952004246841,501.28311565096715
3677.9,1.4555249265869192,471.62403493073
3678.748,1.4574904640769175,514.8046878542565
3679.5945,1.4587821191297754,572.9957279914742
3680.4429,1.4593937261160599,364.782662185204
3681.2896,1.459271399870671,530.6264009900501
3682.1365,1.4581617986758209,625.926104498989
3682.9856,1.4555216518919734,490.8821891607893
3683.8328,1.4507770666496833,509.5529834037621
3684.6824,1.4438471990960327,507.0597857062267
3685.53,1.435799651591671,554.4727652875429
3686.38,1.4285914384972176,641.8497953008657
3687.2278,1.4241819188841336,571.7013395571602
3688.0762,1.423212666345963,514.9154782274547
3688.9265,1.4247632237048768,604.8767145735661
3689.7751,1.4270346290074718,514.2346029698366
3690.626,1.4283907445135111,578.7804861204453
3691.475,1.4278880556524092,537.7916486429818
3692.3264,1.4254081014366438,439.43918770378536
3693.1758,1.4216672991997545,666.0161912430043
3694.0254,1.4179918967967615,536.5671593783964
3694.8772,1.4157520492568696,479.9533254742116
3695.7273,1.415658044419039,563.7077514213171
3696.5793,1.4174677436169856,648.575230642446
3697.43,1.4203081320193707,527.832691528055
3698.2825,1.4231356531305364,615.0401552324298
3699.1333,1.4249310359147147,460.63757189597334
3699.9841,1.424912726149551,474.3063459236599
3700.8374,1.4227778412022383,497.5592929611228
3701.6887,1.4189037786315377,519.2050216692938
3702.5425,1.4141292010610294,538.108214969556
3703.3943,1.4094474001633,486.77169736829876
3704.2483,1.4056401196354043,568.0348364776628
3705.1003,1.4032459865168267,554.7104633267072
3705.9526,1.4024376675880155,665.790708865902
3706.8074,1.4030856516553156,525.6390355114753
3707.66,1.4048770839500881,513.9805202207216
3708.515,1.4074440560870634,534.7516755977616
3709.3682,1.4102148997017656,466.9225418341666
3710.2234,1.4123124785473815,547.9740270180778
3711.0771,1.4127915775979731,538.2359016153591
3711.9307,1.4113319283855377,498.2083701695381
3712.7866,1.4085408871049625,539.827933530235
3713.6409,1.4054834272089878,614.6382035167732
3714.4973,1.4027188132587216,542.48299519339
3715.3518,1.399956215428786,474.0830820272268
3716.2085,1.3964711153293232,620.5537069726666
3717.0635,1.391971190432351,469.3036152545563
3717.9185,1.3869458268928998,511.4228687585966
3718.776,1.3824201706859913,572.3483291823673
3719.6313,1.379374982043547,606.8984477617377
3720.489,1.3781838806720164,682.7916624740012
3721.345,1.3785962849656002,589.8031630516538
3722.2031,1.3799597707483087,495.28615018351275
3723.0593,1.38153123531603,496.0928859841094
3723.9158,1.3827494572626584,437.22313829486205
3724.7747,1.3833892156778942,517.8841520520667
3725.6316,1.383524608495938,534.7514652920925
3726.4905,1.3832584750306907,612.7142541635706
3727.348,1.3824835118117271,677.0370028716285
3728.2073,1.3810388885792941,499.52789617464373
3729.065,1.3791282030015966,653.3726622789751
3729.9229,1.3773969743888261,525.0684460414006
3730.783,1.376545209622093,605.3508675729208
3731.6414,1.3768830574424489,624.3949177369406
3732.5017,1.3783105030766978,604.2484934041643
3733.3604,1.3806513622555685,521.2908107757578
3734.2214,1.3838952469945776,744.0635113714968
3735.0803,1.3880000126455032,528.5382381115571
3735.9417,1.3926494518039199,547.657729512676
3736.8013,1.3970747115309547,616.0030450009858
3737.661,1.4004093348186495,560.6333110740608
3738.5227,1.4021051471105588,594.856226037531
3739.3828,1.4021628920444642,615.3209532273929
3740.245,1.4009493097507306,551.1868128594864
3741.1055,1.3987735049834125,490.37366667369884
3741.9683,1.3956616830631319,547.555119224925
3742.829,1.3915602677337418,640.7390700640442
3743.69,1.386554921474139,503.7568169757428
3744.5532,1.3809832523687688,539.15309177123
3745.4148,1.375432151863649,482.6558886341241
3746.2786,1.3705639186576875,525.4123755357156
3747.1404,1.3671045157170405,596.0278902188353
3748.0044,1.365541598343761,586.8663828619741
3748.8667,1.3659319808044474,542.3396845778318
3749.729,1.3678053570437079,506.43587577330635
3750.5938,1.3704109389739985,601.9745238088839
3751.4565,1.372984663989009,626.5225684208624
3752.3215,1.3750006719177783,566.069054894283
3753.1848,1.3762777325840438,631.9676137747005
3754.0503,1.3771407650698115,605.9563202298187
3754.9138,1.3782994849293053,621.1718456329419
3755.7776,1.380405554416284,596.638063024493
3756.6438,1.383504725009112,719.7774626545022
3757.508,1.3868689945895558,540.2568932951679
3758.3745,1.3895185525631804,579.1100558546365
3759.239,1.3908378276892714,569.2388753790086
3760.106,1.390893925124091,531.1190889174179
3760.971,1.3901278632203737,454.31221690332546
3761.8362,1.388942261929034,568.5503113888216
3762.7036,1.3875836382234046,574.0061139963161
3763.5693,1.3863058907168084,564.6468485258885
3764.437,1.3853927993355653,682.177625447196
3765.3032,1.384978469906075,659.1989607085418
3766.1714,1.3848491404957397,624.1841768638355
3767.0378,1.3845411221665154,457.4381851840914
3767.9043,1.3836390652883528,471.32232455884815
3768.7732,1.3820274695081212,579.6405967800209
3769.6401,1.379981329298741,496.765274408671
3770.5095,1.3780601701535378,612.0411546100414
3771.377,1.3769577039206657,567.3652541961762
3772.2466,1.3771558352746769,561.616293086026
3773.1145,1.3785879305731439,509.20779669362054
3773.9824,1.3805381384627289,587.5836711432011
3774.8528,1.3820185273433767,512.9282148464721
3775.721,1.3823943302619448,512.4259165944909
3776.5918,1.3818314747605511,537.4036944605413
3777.4604,1.3811621873262785,672.8713199280354
3778.3315,1.381290038988312,611.8722647418604
3779.201,1.3825772131868919,542.3250003992678
3780.0703,1.3847021564155966,466.05954629893483
3780.942,1.3871072241404285,518.6867868337289
3781.8118,1.389511116303795,565.6270482973304
3782.6838,1.392010756075462,583.8608923706794
3783.554,1.394615844157854,589.5737539438583
3784.4265,1.3969051026384058,525.9231575396506
3785.297,1.3980333153198097,541.4558408082008
3786.168,1.3972244441599015,513.6541679650223
3787.041,1.3942358371505625,556.0119755412287
3787.912,1.3896187651415686,522.0392885851861
3788.7856,1.3844528246551362,625.653953785
3789.6572,1.379859693225051,616.5282411268252
3790.531,1.3762540584876624,570.204170883288
3791.403,1.3731014865792455,604.8310624207354
3792.2754,1.3692386842300304,545.160913489305
3793.15,1.3638633084128062,517.1357457743256
3794.0225,1.35735909729596,606.009491704196
3794.8972,1.3509900118207363,706.4529773427838
3795.7703,1.345952406110092,603.3819196912154
3796.6455,1.342430218279025,597.072919287278
3797.519,1.3398385156957673,668.8480782340109
3798.3926,1.3375919044713687,545.8302346925614
3799.2686,1.3357787658851508,605.3301870052094
3800.1426,1.3352241391738338,600.2241651691064
3801.0188,1.337080520426867,748.6737388466426
3801.8933,1.3422452681089958,628.8118917324134
3802.77,1.3507728101899255,608.9670747179748
3803.6448,1.361365776464229,638.4646395219111
3804.522,1.3717409845093353,649.9629667353934
3805.3972,1.3794740640355505,657.6356148570784
3806.2727,1.3835412116703107,540.1235398681333
3807.1504,1.3848946356243155,575.3304242233736
3808.0261,1.3858255854761024,621.6547411043053
3808.9043,1.3884213105011314,580.8826382085391
3809.7805,1.3932859824986965,484.9111537216534
3810.659,1.399524386489351,564.367771547279
3811.5356,1.405493610653399,458.1242235766258
3812.4126,1.4097744807639145,519.7554368038386
3813.2917,1.4115279914515104,466.7729805585442
3814.169,1.4105577721436389,510.149502299822
3815.0483,1.4073284843211624,528.7023264869391
3815.926,1.4029330974879453,542.3073275115424
3816.806,1.3987326008413643,530.5774835629069
3817.684,1.395803830810928,511.01005886247606
3818.5623,1.3943166513607845,604.9123424049143
3819.4429,1.393520173424631,595.1087211835716
3820.3215,1.3922799810277944,491.3766393230879
3821.2024,1.3898042893917018,507.9217670280617
3822.0815,1.3860680114378736,621.7010359644895
3822.963,1.381563674302012,606.4359150537073
3823.8423,1.3767880072059702,551.9022016506395
3824.722,1.3716895745009354,654.2446630482349
3825.604,1.3656324677126968,627.9777703038502
3826.4841,1.3578116503350908,594.9611242337614
3827.3665,1.347668184334573,552.6661229733978
3828.2468,1.3353854543039863,623.1788104609986
3829.1296,1.3216315542446688,696.4672596187488
3830.0105,1.3073854306417934,540.9100610104018
3830.8916,1.293246337843916,554.3974813034143
3831.7751,1.27935489441666,556.2649279125196
3832.6565,1.2657263516674049,570.3464234159444
3833.5403,1.2524427328382466,770.9210413137354
3834.4224,1.2402466639351941,635.5045892425801
3835.3064,1.2302839880936638,874.8157578876971
3836.1887,1.2240055462418509,785.4991181337222
3837.0713,1.2225758212856441,702.6896566300026
3837.956,1.2265453226646466,702.8961491308701
3838.839,1.2355030973733387,689.7133157101251
3839.7244,1.2482274811621137,654.8085233383856
3840.6077,1.26297849917303,651.6561513175022
3841.4932,1.278348913371731,612.6448929948109
3842.377,1.2934574318471026,607.4050951316392
3843.261,1.3081509703897547,700.1925893440222
3844.1472,1.3224516415838101,564.2326298987041
3845.0315,1.3360349785234924,759.2608468576948
3845.9182,1.3484532167447754,566.6392194695624
3846.803,1.3592631972223053,524.1231515621399
3847.69,1.368676538106905,636.3425428010119
3848.5752,1.3774500637386429,565.3262654719116
3849.4604,1.3867515375377393,531.1451094466653
3850.3481,1.397580848864292,611.836161970313
3851.234,1.4101589702789261,487.4335347904852
3852.122,1.4239163115130438,499.2124353745215
3853.0083,1.4374984980167498,547.9684589687329
3853.8967,1.4495962348148816,559.8561008240486
3854.7832,1.4592758912098995,482.4502231780599
3855.6702,1.466447292375763,514.1013713955152
3856.559,1.4715850688443217,521.9492134044489
3857.4463,1.4753227020133446,503.55913257849517
3858.336,1.4781690408289316,463.42559764581006
3859.2234,1.4803618296659087,551.9733901547706
3860.1135,1.482069594996926,473.24385276370424
3861.0015,1.4834819586933368,448.88640580994854
3861.8896,1.48481404642721,489.2687021058557
3862.7803,1.4860869207486063,568.8695456386588
3863.6687,1.4869111093458516,452.0835261846602
3864.5598,1.4865223126928853,462.416558974732
3865.4487,1.4841238496475846,428.7338699282833
3866.34,1.4793680555865418,493.1748459234342
3867.2297,1.4726515292018096,597.1637286352666
3868.1213,1.4647771235677638,491.95063529147586
3869.0112,1.456467801348324,502.0140497604218
3869.9014,1.4478247946273284,568.2326999922451
3870.7937,1.4384237498382029,466.8425123940369
3871.684,1.4278006608157356,554.6373476879857
3872.577,1.4156776280731571,499.7623096519098
3873.4678,1.4022670133329536,571.9674275433438
3874.361,1.387871204739379,525.6887607301549
3875.2524,1.372938138652424,566.5591826545394
3876.1438,1.3577431872688437,582.815420897027
3877.0376,1.3425108501186054,607.5322503099233
3877.9297,1.3275444564213248,625.2676526659831
3878.8237,1.3128702784913295,596.594744317185
3879.716,1.2983264722600765,632.4827878459249
3880.6108,1.2832529928987717,667.044715700435
3881.5037,1.266906599638092,677.4347004013309
3882.3965,1.2485033888679422,605.973003482265
3883.2917,1.2275802763838948,660.7391948632853
3884.185,1.2043481722585458,723.7015322392289
3885.0808,1.1793201634563772,730.9523830746207
3885.9746,1.1536523425511698,713.1106341451689
3886.8706,1.1285536431253231,836.1324443312748
3887.765,1.105715983624236,821.5131897940154
3888.6592,1.0869533513185858,997.55558541684
3889.556,1.0742764164561267,1030.1519971018351
3890.4507,1.0695221000316613,1037.0929533015294
3891.348,1.0735034222202395,990.0496056367235
3892.243,1.0856260794141455,953.579214558144
3893.1406,1.1041179411592332,844.4443062854863
3894.0361,1.1264720780267456,863.5333673687159
3894.932,1.1505486289687052,805.861433457284
3895.83,1.1749606563860524,825.4749373787291
3896.7263,1.199028995857528,819.469249000753
3897.625,1.223067237846202,731.0613173922476
3898.5215,1.2475271275598072,683.6129580785964
3899.4207,1.272916581543292,696.4963632879435
3900.3176,1.2987249819070605,576.1195207760795
3901.2148,1.3238802622959491,560.2321413360039
3902.1145,1.347221704538912,580.3325454658624
3903.0122,1.3682057131587493,536.7200955433774
3903.912,1.3874559466592475,582.3428609716127
3904.8103,1.4056696261085682,569.0955717703087
3905.7107,1.423213281401109,444.73900919715624
3906.6094,1.4398194112312563,511.9401134254356
3907.508,1.4554784946578998,579.2773291849455
3908.409,1.470692786963692,527.4610422591168
3909.308,1.4860204310714724,517.656236159589
3910.2097,1.5017027713635804,494.3305837365609
3911.1091,1.5172066465774134,505.10779486949485
3912.011,1.531944631580052,490.4931303565496
3912.9111,1.5454698181935866,466.2843752850921
3913.8113,1.5578149288374705,443.24358479375377
3914.7136,1.5690828646179005,448.7948442114501
3915.6143,1.5790866507491477,491.21257239483464
3916.517,1.5876119571538398,390.88484497310856
3917.4182,1.594656673647272,409.6070422661526
3918.3215,1.6008850733333861,398.66125252689096
3919.223,1.6073330437352853,420.79720580012076
3920.1245,1.61493369672761,398.5834665649291
3921.0286,1.6239410191824324,476.72017023885996
3921.9307,1.6337482854581176,438.60209759780514
3922.835,1.6433908097230705,364.5689959514823
3923.7373,1.6518731968788964,388.23564408780874
3924.642,1.658659672153432,384.5436410769414
3925.5452,1.6635341529581538,368.24612664458107
3926.448,1.6665237953882344,400.5244110653242
3927.3535,1.667656232906602,361.12181358074986
3928.257,1.6669578974272654,338.00266674095815
3929.1628,1.6646223834657077,383.6876097925894
3930.0667,1.6611342282004498,368.92008365612566
3930.9731,1.657127683117039,402.6616317262927
3931.8774,1.653165916718762,391.15272014932316
3932.782,1.6494148168142182,391.10325367900987
3933.6887,1.6456325169226473,402.3119011995101
3934.5938,1.6413473362362825,485.08154265512013
3935.501,1.6360282154147754,372.54113408298065
3936.4062,1.6293758130361449,351.8494782118238
3937.3142,1.62136726128217,390.3233546908794
