wavl,flux,ivar
3566.9744,10.323438968274893,9.416710528853963
3567.795,10.29035285897345,13.308082905225527
3568.6177,10.250306563479821,14.830110503571886
3569.4385,10.211626678620565,11.939099455647206
3570.2617,10.177539222735213,12.543448233617356
3571.083,10.146403029832772,14.196880405935152
3571.9065,10.11411975707852,11.860284311156775
3572.7283,10.079790399112822,14.146564297549217
3573.55,10.047902527397424,13.886031743459563
3574.374,10.02611961546127,14.793480956941591
3575.1963,10.019518918338088,19.451039305092817
3576.0208,10.026010362057153,13.43456232506282
3576.8435,10.03711362654305,16.018022939628263
3577.6682,10.042239580652035,14.371821345268451
3578.4915,10.033167061186129,13.003910398877615
3579.3145,10.007272744601648,14.34740494090826
3580.14,9.968640571193315,10.999032493003279
3580.9636,9.927825624553353,15.391367426696348
3581.7893,9.898392245051392,15.076311543370224
3582.6133,9.893383325325159,15.866783934692126
3583.4395,9.92063980497265,15.750984064200168
3584.264,9.979431799213657,15.772044610657701
3585.0884,10.059669440901292,13.062837808074775
3585.915,10.144235650981743,14.507843046501412
3586.74,10.213204126555535,12.38460955740687
3587.5671,10.251204588006544,11.673811107673062
3588.3923,10.250733749904597,15.194994798756003
3589.22,10.213747150881677,13.0978374745683
3590.0457,10.1492000012711,15.100947866415048
3590.8716,10.068649485388107,13.828398945212315
3591.6995,9.983278109974782,14.921000515451222
3592.526,9.903236878303726,13.10815663643544
3593.3542,9.836468418892162,11.975720549816023
3594.181,9.789655973972186,15.87561697224098
3595.0098,9.765098276701417,16.915931308507222
3595.8367,9.759217241837607,14.115947771062961
3596.6638,9.76282392968988,11.741365150659501
3597.4934,9.765928904829815,15.28833114535166
3598.3208,9.761994000025114,14.576352903820162
3599.1506,9.748534958829065,12.218796488076409
3599.9788,9.72493390439414,18.145239618058376
3600.8088,9.691041637534594,12.723271569132132
3601.6372,9.650004724996693,14.412463891523162
3602.4678,9.611508681050337,11.753328949748363
3603.2964,9.59233950298226,14.589708244443615
3604.1252,9.608597685461175,15.184142315680553
3604.9565,9.665904613438219,15.820826618644299
3605.786,9.752872297030606,12.276031187873256
3606.6172,9.846299845469563,13.591562669439117
3607.447,9.921046603164935,12.24420467539761
3608.2788,9.962252248513792,11.647338032442322
3609.109,9.968757930183404,14.251940322898802
3609.9392,9.950844231996669,12.36077975112631
3610.7717,9.922506951378471,15.551425468246965
3611.6023,9.895031135899469,14.85956875528606
3612.435,9.87259196997735,16.668601072354477
3613.266,9.852433010984251,14.118903478288741
3614.0994,9.827548501573911,13.747142615885908
3614.9307,9.79256004324427,13.588263201529347
3615.7625,9.747478772467476,11.858718952742693
3616.5962,9.697392997046451,15.235412551261003
3617.4282,9.648407849768901,15.172788630695669
3618.2625,9.603298260213146,13.200352644138764
3619.0947,9.563139234149999,17.339174670630058
3619.9292,9.529730047683389,14.043575204869976
3620.762,9.507478580368728,15.428784200896054
3621.595,9.499756402400322,16.014752768545677
3622.4302,9.505152031461245,14.784151700864328
3623.2634,9.516644984127229,14.85940207948279
3624.0989,9.52530741563929,15.00310314910828
3624.9326,9.524411475207762,16.972699967833876
3625.7686,9.511031644011986,15.047894822045619
3626.6028,9.485271022683696,15.945187735228872
3627.437,9.449363500665783,12.891689476382595
3628.2734,9.407745054909633,16.13942973125832
3629.1082,9.367125246676812,13.289856687483558
3629.945,9.333529749655055,15.80036959732822
3630.78,9.309004939448654,14.26514466055888
3631.6174,9.287979090987365,14.26920100298808
3632.453,9.259773178565393,16.469803356921226
3633.2883,9.215986758431212,11.913835717534736
3634.1262,9.158748301947238,14.56023205526888
3634.9622,9.102297110684052,17.143253872975627
3635.8005,9.063440163234995,16.92279532585741
3636.637,9.050921380201162,19.116701773367968
3637.4756,9.05913249756066,18.492631645554532
3638.3123,9.072878917722413,16.550734211708594
3639.1492,9.07764712069412,14.259192201874134
3639.9885,9.067464126977947,17.29727364968631
3640.826,9.045830114399834,16.77556223877286
3641.6653,9.02070362768695,16.476086716223595
3642.5032,8.999419651366516,17.112250997612215
3643.343,8.98531622903449,16.515409873150993
3644.1812,8.97743741696535,15.188412773092127
3645.0195,8.971878361421963,16.778947185991107
3645.86,8.965260582194555,17.90426681370766
3646.699,8.957483378398718,14.752571738535714
3647.5398,8.95082276716615,19.23001316276465
3648.379,8.946280985836381,17.850666480036423
3649.2202,8.940962102104786,18.930137909465934
3650.0596,8.929825060167103,14.871175000102655
3650.8994,8.909362851810938,16.3534280429887
3651.7412,8.879398165800675,20.445300146321145
3652.5813,8.842393485471845,17.38456533564497
3653.4236,8.802025618949298,13.723001237082396
3654.2642,8.764363738343569,11.992100220717614
3655.1067,8.73679808636664,21.1763921418921
3655.9475,8.72518101185435,18.142703293927166
3656.7886,8.729185254537391,15.545820387917292
3657.6318,8.742183732459191,20.120802904696234
3658.4734,8.755564215757833,16.36076703663289
3659.317,8.76499420383105,17.674104128513388
3660.1587,8.772926265264573,16.473646435182037
3661.003,8.785707276632275,18.59854693389493
3661.845,8.806508812590113,17.731012820099288
3662.6875,8.830601378040722,14.529690436188254
3663.532,8.847092156875915,17.088499547248404
3664.3748,8.846716654259737,20.072970926645976
3665.2197,8.8292196417655,17.231693921594676
3666.063,8.803556823305932,18.093365997322188
3666.9084,8.78117182555172,17.59378215110647
3667.752,8.76956360230946,19.39787307158355
3668.5977,8.770121812219378,19.00709514568364
3669.4417,8.780596171411398,23.768983712260237
3670.286,8.797195143883592,18.655296278007775
3671.132,8.815257742963972,14.71960163595658
3671.9768,8.829726003932462,17.740151057825617
3672.8235,8.836609110197394,17.0645359896489
3673.6685,8.833424837935823,19.707936674839857
3674.5156,8.819177103130876,14.226414732290143
3675.3608,8.79461124529262,19.308001890148475
3676.2063,8.762266281193185,18.41565544887181
3677.0542,8.725709273055454,22.141859974268534
3677.9,8.688277753532958,16.096570335196144
3678.748,8.651365382489956,20.08706305313473
3679.5945,8.615632841329507,17.56718823059649
3680.4429,8.581511374726533,17.18537925029113
3681.2896,8.550556064564267,16.124342060717574
3682.1365,8.524295285488419,19.127674953472862
3682.9856,8.503032156604833,20.302175016703234
3683.8328,8.48533002337393,23.83969713454284
3684.6824,8.469096448972932,15.861909960388399
3685.53,8.45459463474166,20.124607724424063
3686.38,8.44548470517894,17.107914160273314
3687.2278,8.44735490151451,17.505814154626528
3688.0762,8.463568905243333,23.2750962625415
3688.9265,8.49246364021532,22.35490100807142
3689.7751,8.527766176444327,21.803240677392484
3690.626,8.56270750487379,17.067931432777772
3691.475,8.59238718954923,19.682506261798075
3692.3264,8.614365587111207,21.429805468066885
3693.1758,8.626792731850667,18.31404505056704
3694.0254,8.628792480242327,17.005373737134967
3694.8772,8.621547244722478,18.941738226896746
3695.7273,8.608919830688219,24.560756584570537
3696.5793,8.595655797795795,21.91221053828536
3697.43,8.5850861488676,18.030086360826918
3698.2825,8.57764966426588,21.26050434229289
3699.1333,8.571432492618447,18.55884606775548
3699.9841,8.563265046179515,22.864086424537305
3700.8374,8.5501856805837,19.64152816983251
3701.6887,8.531135281568016,20.616359585518765
3702.5425,8.50776488948143,20.047633515816283
3703.3943,8.484276708754452,17.67177062414114
3704.2483,8.464770766977137,22.499718226570867
3705.1003,8.451381007949449,18.53117020996656
3705.9526,8.443215450084184,17.387050190975337
3706.8074,8.437191348217056,21.229442828536435
3707.66,8.428669833253089,19.01154724843129
3708.515,8.411780953521339,16.510377337835912
3709.3682,8.381311420234596,16.568158241095755
3710.2234,8.335690008963294,23.99314186794844
3711.0771,8.28031045266074,20.832119637507724
3711.9307,8.225979303475233,21.636551522981357
3712.7866,8.183831915922742,22.188432113431613
3713.6409,8.160040661680734,21.821536461465598
3714.4973,8.15368355958228,16.586376643440005
3715.3518,8.160508525963708,15.255248740101027
3716.2085,8.176494027964003,23.866843083282415
3717.0635,8.19822814465897,18.85561100315133
3717.9185,8.221710678826883,18.074455432484434
3718.776,8.242397000393135,20.26530571743037
3719.6313,8.256578041571236,17.177698724194837
3720.489,8.26225430499197,22.746951551571687
3721.345,8.258041976123039,17.08473790057915
3722.2031,8.243335749676486,25.81180662622065
3723.0593,8.220263996262798,21.44552189730128
3723.9158,8.194853012032606,21.452917110440264
3724.7747,8.175342286120333,20.524230292808603
3725.6316,8.167867347870716,17.469953501010362
3726.4905,8.172477359780354,18.90084914429866
3727.348,8.183489344276287,19.589941592614156
3728.2073,8.192911045026117,19.270867984990577
3729.065,8.1940066210739,19.79927954930033
3729.9229,8.183851918644303,17.535385855395376
3730.783,8.164642245657674,19.881921511323796
3731.6414,8.143630244815125,21.03766969292593
3732.5017,8.129133372269953,22.579266073367613
3733.3604,8.125267270347015,22.477696433852042
3734.2214,8.12922843444093,19.433954960029546
3735.0803,8.134395824822052,20.739647621674774
3735.9417,8.135266500204128,21.456909411612685
3736.8013,8.128996263391931,17.902934195584297
3737.661,8.113771367260668,19.695469000983326
3738.5227,8.088259967969094,21.040277731303572
3739.3828,8.05426123664128,17.99910792977507
3740.245,8.017431255125162,22.717245959297422
3741.1055,7.984515081167642,20.759714161932287
3741.9683,7.958015195481877,19.48679465906866
3742.829,7.936334367334512,25.190467250888176
3743.69,7.917160664671952,22.50987343954773
3744.5532,7.900937474108353,31.450913536520623
3745.4148,7.89040995908454,17.31403809831775
3746.2786,7.8878249056939795,22.472889223793754
3747.1404,7.893489971103377,24.665897813838992
3748.0044,7.905463468195661,22.906924132509886
3748.8667,7.919617603191923,21.583245544701004
3749.729,7.930761134967729,22.378907810846258
3750.5938,7.935159124759524,28.247222867274548
3751.4565,7.933263265350097,24.674165272603492
3752.3215,7.929587520109706,25.968356332706342
3753.1848,7.929082355848285,28.09356630185323
3754.0503,7.933650000512193,22.926490755700378
3754.9138,7.942032107053123,25.641053232105115
3755.7776,7.951948532699856,22.906328287140035
3756.6438,7.9611163407026675,19.820374694254625
3757.508,7.9668605157662835,24.835795845868354
3758.3745,7.966764368700207,21.782154755128406
3759.239,7.960172584203826,22.796191573791432
3760.106,7.948725072867959,22.026352955480125
3760.971,7.935151306453154,22.743578869494375
3761.8362,7.921666773873684,20.456361584220836
3762.7036,7.909913680666974,21.905822885174782
3763.5693,7.901204038447343,23.852311412348147
3764.437,7.895433253583389,20.56975624057959
3765.3032,7.889940178540792,21.24191373213639
3766.1714,7.8798174139654495,22.135991581138573
3767.0378,7.860751873273717,22.10026377982273
3767.9043,7.8318435954519465,23.014386342296607
3768.7732,7.796371433282585,22.337599566973342
3769.6401,7.760658196120248,23.583037575925662
3770.5095,7.731068312667523,20.682093572512947
3771.377,7.712497631111735,22.197689697785915
3772.2466,7.706132075262708,23.171412645527404
3773.1145,7.709146833658097,26.248541371786754
3773.9824,7.715862048510728,22.256394558539842
3774.8528,7.720812411733637,22.075110262254196
3775.721,7.72139573059234,23.10093393049017
3776.5918,7.718942796321068,24.720771419314005
3777.4604,7.718249941126416,20.896452030923953
3778.3315,7.726334559398787,22.874612792047
3779.201,7.749725302358294,22.50928740932871
3780.0703,7.790279441511359,21.39218452573224
3780.942,7.842062821786603,21.119145688826148
3781.8118,7.892352063803911,20.428053841998363
3782.6838,7.928889988063429,16.970821557982383
3783.554,7.945715446118075,24.31650698681089
3784.4265,7.9451473579558805,25.184391318714056
3785.297,7.9331139894550455,22.328619731939533
3786.168,7.91389958115784,19.818726619189828
3787.041,7.888368317729247,23.0255761030228
3787.912,7.856442389422281,20.889550415007488
3788.7856,7.819365314806918,19.08354293657991
3789.6572,7.78068332515116,24.601947684602067
3790.531,7.743541142924575,22.844666563268973
3791.403,7.70896655184396,20.90960628806136
3792.2754,7.674398239444659,19.397760025028965
3793.15,7.635538280321748,27.571206643828525
3794.0225,7.590183327007195,22.31875952929854
3794.8972,7.540640290644714,26.565597338282352
3795.7703,7.494195129242309,24.287543150715926
3796.6455,7.458142162577433,22.975684061557615
3797.519,7.4361726649867315,26.75775827684319
3798.3926,7.427225008155183,21.967047603762182
3799.2686,7.428943472006283,24.512760593789853
3800.1426,7.440341960639756,28.343535831784198
3801.0188,7.461551889979534,25.996336652175845
3801.8933,7.491251940042026,23.86690348986909
3802.77,7.525398182526271,25.27741893912228
3803.6448,7.557299886958221,23.397839362949664
3804.522,7.580735577226072,22.720548580743664
3805.3972,7.592554110549886,22.00036964864021
3806.2727,7.59487559890476,27.10721383692265
3807.1504,7.593798883666619,24.629037536408642
3808.0261,7.596488117668677,25.304443571825054
3808.9043,7.608486076210144,22.60107882492581
3809.7805,7.632482601554498,22.75318780804664
3810.659,7.668328321744336,22.3021039618695
3811.5356,7.712271664511064,20.885526096648064
3812.4126,7.757497600856343,21.963280020747856
3813.2917,7.795400393884039,20.657832279518576
3814.169,7.8182741018355415,22.296830771385867
3815.0483,7.8228112931232,19.696323267601798
3815.926,7.810862531718506,24.636923977827
3816.806,7.788016120951256,23.646727270494672
3817.684,7.760458289655543,24.86986578438519
3818.5623,7.731993361258817,22.368586461002835
3819.4429,7.7037140900459455,21.598007245854014
3820.3215,7.675382157510199,23.120894662475354
3821.2024,7.645807793716099,21.79639126234837
3822.0815,7.613488287553994,24.74904388852705
3822.963,7.5761176316670875,25.995068730208892
3823.8423,7.5316339199795,20.784042005388397
3824.722,7.478053216090337,25.621375062605736
3825.604,7.413890102240764,21.34143077948607
3826.4841,7.339272987675093,20.863229251099796
3827.3665,7.25576326439486,26.4848128354689
3828.2468,7.1682932870040865,23.84894841738144
3829.1296,7.082575845465117,29.784205608517937
3830.0105,7.004195886159913,30.43881828576224
3830.8916,6.934796667443735,32.11634484781956
3831.7751,6.872887704407753,28.46314188296549
3832.6565,6.817009325117991,26.634331297997857
3833.5403,6.767811975298625,28.94685454315925
3834.4224,6.729874320218655,36.211492036083996
3835.3064,6.708413857725619,33.668164401247495
3836.1887,6.706650607610087,27.89957588337495
3837.0713,6.723912996680671,29.768226072849263
3837.956,6.756885096800289,33.22669943102223
3838.839,6.801396855316291,31.675843644612403
3839.7244,6.854905660330933,29.202747571682753
3840.6077,6.916405403548107,42.253135178710366
3841.4932,6.986660553460264,25.263352043877006
3842.377,7.0653616486829725,27.802323990871184
3843.261,7.150619806039537,31.709167519818347
3844.1472,7.238295495569617,31.21445909532875
3845.0315,7.322689032279494,24.390186835671457
3845.9182,7.400007274562561,22.08851323334413
3846.803,7.468023274128368,23.867292260787256
3847.69,7.5273689958317185,25.173422470407377
3848.5752,7.5792105526384645,24.858289314679297
3849.4604,7.625441621768511,24.84874449142194
3850.3481,7.66798423821034,24.47085316032679
3851.234,7.708076190773369,21.884521396464194
3852.122,7.746164648743929,21.789292543490653
3853.0083,7.7800502185979115,22.022484675760587
3853.8967,7.8046742359892365,22.889399188752936
3854.7832,7.8110685422996795,21.854455478132067
3855.6702,7.787549123051133,21.528712751615394
3856.559,7.722583087519313,23.018065563136805
3857.4463,7.612926038500287,24.86202820798618
3858.336,7.4725610722384275,24.311507209300267
3859.2234,7.339235787732686,23.472232358394226
3860.1135,7.259893414123313,24.38639159050713
3861.0015,7.265468680548751,26.57668334826574
3861.8896,7.347123314026699,23.47933186072795
3862.7803,7.462969701770071,22.802208798439096
3863.6687,7.565457206905942,23.8192629298972
3864.5598,7.629626404664566,22.374651948053693
3865.4487,7.654802221037873,23.790578589437143
3866.34,7.652191791927609,25.67586563719998
3867.2297,7.630832792913648,22.288980862461713
3868.1213,7.594531572556106,26.82171714119757
3869.0112,7.545814512400561,21.92625136376534
3869.9014,7.488648700517217,24.360385310885132
3870.7937,7.42824706947241,23.141502350986677
3871.684,7.369185237697491,25.885155487597753
3872.577,7.3123751132115355,22.419594353068774
3873.4678,7.255735029958308,24.733645762437618
3874.361,7.194518061611995,24.67248717753438
3875.2524,7.125415053905204,27.201906347800115
3876.1438,7.048052447215011,26.242032126396335
3877.0376,6.965034364986188,28.47911856778977
3877.9297,6.879442361011611,27.52619482518114
3878.8237,6.790359427405299,25.66731027669424
3879.716,6.694689589576649,32.29860694870967
3880.6108,6.589202629593154,32.78489035588302
3881.5037,6.4754335501961116,34.27821245490494
3882.3965,6.357780491417785,33.93348859666908
3883.2917,6.241427458232331,36.469372260186766
3884.185,6.1306492184139465,32.4034230073214
3885.0808,6.025793909843952,36.911479534020984
3885.9746,5.926528826277868,38.34072724890401
3886.8706,5.8324992697033125,40.54305014158051
3887.765,5.747972691557669,44.58204890122403
3888.6592,5.681113820901121,39.95916015213519
3889.556,5.6422871287918435,44.12303184732197
3890.4507,5.6396332512312775,46.06866894732186
3891.348,5.674575007464983,47.879528718910436
3892.243,5.7410516227240365,46.547726941425914
3893.1406,5.829235011722182,42.87390668603276
3894.0361,5.928855994173284,33.3024288261773
3894.932,6.033614271803806,38.14517224087868
3895.83,6.139984928604116,35.842124120880506
3896.7263,6.244092279122004,39.6934337374248
3897.625,6.342621946512047,31.459338668145776
3898.5215,6.4325215429316716,27.83181601873068
3899.4207,6.515312481391057,33.96700156823466
3900.3176,6.595367195489797,34.675991057737725
3901.2148,6.67915334413943,30.400811411840216
3902.1145,6.771305161586476,30.31201959276746
3903.0122,6.871844764880327,26.91932404802756
3903.912,6.977998280763002,28.323289805006645
3904.8103,7.084747111123226,28.03170450340997
3905.7107,7.189573038031207,31.11172589701342
3906.6094,7.2919821991606035,25.946254570367465
3907.508,7.393752511758713,28.013571233939913
3908.409,7.495468071835613,24.53208269232737
3909.308,7.594051656635448,23.428493516054782
3910.2097,7.685474172101154,20.63803595069826
3911.1091,7.766025980015035,23.15620721803036
3912.011,7.836409386275045,20.95078721688457
3912.9111,7.899797392167349,20.157694239698202
3913.8113,7.960397265279621,20.65617796418807
3914.7136,8.019635945035844,25.230473690062322
3915.6143,8.073862549243467,23.03257308148685
3916.517,8.116470708085236,18.939546360039195
3917.4182,8.141245832479838,19.801256240211163
3918.3215,8.147522920120693,22.122910238543984
3919.223,8.141158704008983,20.379711327436596
3920.1245,8.131956687214721,20.07130125976361
3921.0286,8.128791650164088,20.96070501584739
3921.9307,8.136131780124535,22.126463693184498
3922.835,8.153665864188659,21.395326293516717
3923.7373,8.178299884986695,18.151174066949814
3924.642,8.206611168052026,20.083124128766457
3925.5452,8.23489565627556,17.819926333518758
3926.448,8.259095388110698,20.20692222952191
3927.3535,8.275121360357485,19.792175557642718
3928.257,8.280690386895936,20.531280839832903
3929.1628,8.27709109818008,19.900289078750124
3930.0667,8.267999440160626,18.197748395837323
3930.9731,8.25633623475555,21.23112458908545
3931.8774,8.24215864574303,19.687388507317817
3932.782,8.223212154768676,18.887067627935558
3933.6887,8.19779714853286,24.087028503815606
3934.5938,8.166857203147197,21.889360847260583
3935.501,8.132713751798729,24.07842342763455
3936.4062,8.097057864029187,21.136928413447144
3937.3142,8.058755209483907,21.250949948865514
3938.22,8.015438779661165,22.401194945039023
