wavl,flux,ivar
3566.9744,18.30701636053354,8.026357106063598
3567.795,18.262508738919262,8.083756345854761
3568.6177,18.210646515396537,7.0879093233694235
3569.4385,18.151019937254837,7.030120796740507
3570.2617,18.095526269222315,8.569580059859533
3571.083,18.057604717698332,7.117923821490826
3571.9065,18.042495666304294,8.488507714422273
3572.7283,18.04615465693566,9.035410358817686
3573.55,18.059311123895203,8.913920119469385
3574.374,18.073707588519483,8.349398778637923
3575.1963,18.08398824116054,7.142881625023598
3576.0208,18.08571163237849,7.393745530040625
3576.8435,18.07372934952966,8.674947465050927
3577.6682,18.044566381042628,7.509299595270404
3578.4915,17.999416192843313,8.477313204855252
3579.3145,17.942358357124853,7.489761825549034
3580.14,17.87613040250013,7.385722736577033
3580.9636,17.801691864712655,7.965663989149601
3581.7893,17.720653445601883,7.380463201540103
3582.6133,17.640629442660742,8.001919466794142
3583.4395,17.57286504239173,9.717225564961831
3584.264,17.527477893911094,8.41975844929724
3585.0884,17.50650602515239,8.606958852745423
3585.915,17.504442085270465,7.087840503826031
3586.74,17.513033189534994,8.7627825122551
3587.5671,17.526218134863,8.00460713616355
3588.3923,17.541270155905636,7.480211981024656
3589.22,17.557719739468975,8.13199897572853
3590.0457,17.575922684108225,7.0318459243758165
3590.8716,17.596772530505334,7.473555026154164
3591.6995,17.620186353215754,8.272281020764282
3592.526,17.642889349077684,8.161229788118863
3593.3542,17.65833514436267,7.986593645893216
3594.181,17.659739873258236,6.803534386271414
3595.0098,17.646378460354658,9.283863235288651
3595.8367,17.627511291748057,9.203156416607548
3596.6638,17.6185589854309,7.822786585141028
3597.4934,17.63075257686936,8.835028782323016
3598.3208,17.66168949373634,8.193219058811438
3599.1506,17.696164458819442,7.492306657904327
3599.9788,17.715408593580626,8.131080626547428
3600.8088,17.707841877133006,7.890432937682939
3601.6372,17.671882242051975,8.226787039904634
3602.4678,17.611883788237755,8.119906035571756
3603.2964,17.534234896323834,8.282422867552302
3604.1252,17.44607926339105,6.902088879501436
3604.9565,17.358296168936377,9.438249919460466
3605.786,17.286381138239168,9.73791040187425
3606.6172,17.243273537250985,9.407617438250547
3607.447,17.232720600609987,8.785588092406423
3608.2788,17.24551515814654,7.815869877871954
3609.109,17.265076687929234,7.130410954871101
3609.9392,17.277277902120073,9.853263973270664
3610.7717,17.27705776377558,8.964415055225333
3611.6023,17.268024432555812,8.111917720221545
3612.435,17.256118627210707,8.018600027022737
3613.266,17.242711427467096,8.348515463257451
3614.0994,17.222617007490715,10.298674980408679
3614.9307,17.19058621336948,7.588958352925632
3615.7625,17.150230091300806,8.079362521408113
3616.5962,17.116696229495783,10.543841300049024
3617.4282,17.108365404962235,8.087012309315547
3618.2625,17.13394288530878,8.638938374824047
3619.0947,17.18661537981305,7.834215740640613
3619.9292,17.248567920223113,7.7852449734673925
3620.762,17.299045225965834,7.718098799631312
3621.595,17.32303710061622,9.696539491390178
3622.4302,17.31488077576959,7.624165676246083
3623.2634,17.279554543024222,8.447030214909551
3624.0989,17.22995846466703,8.403196958048904
3624.9326,17.18182199669016,7.958795853003698
3625.7686,17.146436217567874,8.370156134382734
3626.6028,17.128167771618383,8.013099579486457
3627.437,17.125837804425046,8.448260499076106
3628.2734,17.137222311568205,8.895737647753693
3629.1082,17.15954962242289,8.812958819596583
3629.945,17.18623959487972,6.818754847172387
3630.78,17.204626470209263,7.996501445389517
3631.6174,17.201270163137252,9.502715643981247
3632.453,17.17057412623842,8.126231260974041
3633.2883,17.11900345300409,8.475183442647214
3634.1262,17.060168832129282,9.489411702346064
3634.9622,17.00728046207884,8.281755099045123
3635.8005,16.968140942582046,8.015547656594384
3636.637,16.94755847143096,8.598527434479113
3637.4756,16.947729863590162,7.989867286428474
3638.3123,16.966259118146365,11.554167202861262
3639.1492,16.993756847068553,8.38443874236094
3639.9885,17.016380160654368,8.565157786380073
3640.826,17.022159784461927,10.169673107972919
3641.6653,17.007454512330984,7.2606545207802595
3642.5032,16.978749533091793,9.91323737572294
3643.343,16.949064540291992,9.768220846192374
3644.1812,16.930490004131407,9.45034331494636
3645.0195,16.925676395077986,9.326283379188212
3645.86,16.926006617241683,8.799618754894498
3646.699,16.91820644606311,8.780717990752649
3647.5398,16.894997668081842,8.013160447235844
3648.379,16.860906603098027,7.970451914307008
3649.2202,16.828067513471993,8.53713425567758
3650.0596,16.807900983475992,8.376500314703874
3650.8994,16.804316086292367,8.980301372257847
3651.7412,16.813628767662916,8.955022573755867
3652.5813,16.82745280378113,9.110815713621555
3653.4236,16.836485681090736,10.720101619834798
3654.2642,16.833141805917727,9.593566683109724
3655.1067,16.81357546362196,7.949325448113001
3655.9475,16.779065059705697,7.724050954533507
3656.7886,16.736130444578635,8.777792655537162
3657.6318,16.694792181976293,10.080641319682623
3658.4734,16.66425995950366,9.814669326945237
3659.317,16.64681131424242,9.289663506322771
3660.1587,16.636246691496666,8.443363833221328
3661.003,16.621431115950205,8.638130415510673
3661.845,16.594373825260014,10.237169916530041
3662.6875,16.55579275175177,8.983328016306062
3663.532,16.514465730388416,9.53126642980131
3664.3748,16.480772461512014,9.653013789243477
3665.2197,16.458898860960673,9.51877307444406
3666.063,16.44510114708476,10.276452292471202
3666.9084,16.430390281527497,11.491172336237021
3667.752,16.40630912940281,8.809134598244041
3668.5977,16.369527492292743,8.188601843578194
3669.4417,16.325238632386217,9.091955633995147
3670.286,16.28566757573139,11.50848886208129
3671.132,16.264737226203433,10.23782936635175
3671.9768,16.27025150928028,10.86326424738324
3672.8235,16.29861416984761,11.227101901149386
3673.6685,16.336132403639702,9.92978594980974
3674.5156,16.366709616720126,9.603171946783224
3675.3608,16.380129863245752,9.159328201112434
3676.2063,16.37734954675257,9.250808410583117
3677.0542,16.367794103869958,10.367571413698366
3677.9,16.3622854628695,9.278366555801858
3678.748,16.36662332233642,10.623077038340218
3679.5945,16.380716003632184,8.4674911964458
3680.4429,16.401391220891426,10.261321963685146
3681.2896,16.424070007344945,9.321813369736581
3682.1365,16.442878462031715,9.353694512005882
3682.9856,16.45094040907058,10.265589997026085
3683.8328,16.443179077186173,9.715225412211048
3684.6824,16.419736175687802,10.15468646925211
3685.53,16.387233249955205,9.745705325520202
3686.38,16.355842740388677,11.86440435731823
3687.2278,16.334558598716132,11.273553551073727
3688.0762,16.325738609312197,9.178897390329634
3688.9265,16.32417034080258,10.894268469393397
3689.7751,16.320182005466716,11.396040940293101
3690.626,16.30526429584875,10.178412334363266
3691.475,16.2771994864205,8.593829237681774
3692.3264,16.24116767498204,9.974615491553728
3693.1758,16.206354562266736,10.744680266843984
3694.0254,16.178056966795115,10.301786263740476
3694.8772,16.152877343264496,10.530163168101165
3695.7273,16.120796761000744,10.120119372842797
3696.5793,16.07250024129454,8.073998951804878
3697.43,16.007063132270574,11.10658431711269
3698.2825,15.93229504675081,9.875828620696225
3699.1333,15.86146026570835,9.521343033388085
3699.9841,15.806388851137516,10.504689712614235
3700.8374,15.773550068468928,10.747701137877069
3701.6887,15.762153030025821,9.969706881075549
3702.5425,15.764820033384728,9.78406386966448
3703.3943,15.772107902393952,10.41636994989574
3704.2483,15.777239571892204,11.125721534940242
3705.1003,15.77847244941644,10.680755471511088
3705.9526,15.778485558102066,8.688217529080703
3706.8074,15.782042550485308,10.655377345008555
3707.66,15.793793661435423,9.854194362237447
3708.515,15.816951148378774,9.83383908517701
3709.3682,15.8519298175815,10.815650906556572
3710.2234,15.895502856795614,10.588622982392074
3711.0771,15.938993037233763,9.734230524311963
3711.9307,15.969145239700971,10.866193923544627
3712.7866,15.971706331105326,9.88814894265556
3713.6409,15.938608876513197,10.064540230383699
3714.4973,15.873934180072052,9.104882178152838
3715.3518,15.793603874750083,12.164676699594212
3716.2085,15.715416761363466,11.938950200332993
3717.0635,15.649787916629924,10.95045713902567
3717.9185,15.59469467470046,9.972163194259572
3718.776,15.542008746421264,10.01708471682947
3719.6313,15.487452247924619,9.877581467699565
3720.489,15.43439034808224,11.014892670903913
3721.345,15.39152425953706,9.552102991436469
3722.2031,15.365023496119392,12.471906065729813
3723.0593,15.35495827955466,11.713058792695898
3723.9158,15.355157059524663,11.619800201483029
3724.7747,15.35610937399701,12.927382922398888
3725.6316,15.347775404537254,11.64984128631871
3726.4905,15.323480800595444,11.819738816449771
3727.348,15.285006521454717,11.851567918441072
3728.2073,15.244288209698023,10.742876455528387
3729.065,15.218878754753158,11.319267210632301
3729.9229,15.22074722088074,11.055142101507288
3730.783,15.248037014388466,11.146370485187106
3731.6414,15.28468490035146,11.018931275699977
3732.5017,15.31032995701275,10.01620709144418
3733.3604,15.312825149410815,11.048643593896266
3734.2214,15.296161730012706,10.031112146411921
3735.0803,15.277133092083783,11.635737610332923
3735.9417,15.272958710265886,12.134220752619898
3736.8013,15.289221050933422,12.214233763862032
3737.661,15.316065217027205,10.465546590741518
3738.5227,15.33547660117119,11.704404709139745
3739.3828,15.333358791818284,10.508724043094661
3740.245,15.308478067559214,9.47007666425309
3741.1055,15.272247229216985,11.870545914526764
3741.9683,15.240431508291051,11.0248346602261
3742.829,15.22431263188504,10.187947170902774
3743.69,15.22485149333853,9.291392849287389
3744.5532,15.233846717816212,12.255659893136679
3745.4148,15.238836915966381,10.78243494341184
3746.2786,15.229349062811133,10.297737063796728
3747.1404,15.200834835063592,12.060159056512775
3748.0044,15.154888385875072,11.483092559240209
3748.8667,15.097967926928746,9.64891471982146
3749.729,15.038486804859708,11.582861303280087
3750.5938,14.984968642065361,9.820634287185717
3751.4565,14.944741093069908,11.147580646718977
3752.3215,14.921560261904672,12.867057941557562
3753.1848,14.915217459819877,13.179086797355021
3754.0503,14.92071389040754,12.080163548453154
3754.9138,14.929734428698048,13.139121067191207
3755.7776,14.93381612027448,12.059140159763924
3756.6438,14.92780196651955,11.666563855813541
3757.508,14.911966019679536,10.455417407794924
3758.3745,14.891257351344475,13.930950922553652
3759.239,14.872389388914756,11.462525178398545
3760.106,14.859565982535024,11.265552014164877
3760.971,14.852773894729015,12.45075074600294
3761.8362,14.848694091468722,11.201949450242353
3762.7036,14.843711319425,12.220570696386709
3763.5693,14.835926760368917,11.232500878546816
3764.437,14.825236861650104,11.172669496702316
3765.3032,14.812712431539113,10.54448659534847
3766.1714,14.799723043304459,11.257472979684012
3767.0378,14.78735357663978,13.24988772501839
3767.9043,14.775307862977064,11.500773542772176
3768.7732,14.761679264141426,12.378195425255129
3769.6401,14.744093436307436,12.014526650738048
3770.5095,14.721393079988346,13.321939351070965
3771.377,14.695709871186004,11.590712816768946
3772.2466,14.672289722679286,12.63050749237208
3773.1145,14.658060075428052,12.670955979785573
3773.9824,14.657903306302813,11.416416053306875
3774.8528,14.67227859025865,10.996308069916838
3775.721,14.697071129392786,11.57639105533677
3776.5918,14.72647986048879,10.164531817681384
3777.4604,14.754940372555632,12.743916213280343
3778.3315,14.777924511868315,11.834771123627487
3779.201,14.790469009638702,11.786420480808053
3780.0703,14.788078846352182,10.61955521901201
3780.942,14.768551216182413,13.055908511494806
3781.8118,14.733767796768422,11.579553411684643
3782.6838,14.688500762422265,11.140477757887318
3783.554,14.63840055587642,12.81942563764995
3784.4265,14.586772250955866,11.257614690465507
3785.297,14.535143702740793,13.175278694624453
3786.168,14.484354443901836,12.36934910402729
3787.041,14.437273054852218,10.909065001109065
3787.912,14.39866510364247,12.413715941207649
3788.7856,14.370790075611202,12.300703650576224
3789.6572,14.35041920756019,13.9406362766352
3790.531,14.328204024890674,12.173980121787794
3791.403,14.29334152107956,11.708024791793841
3792.2754,14.238699473433664,13.073145358984778
3793.15,14.16408758559196,11.880676162679118
3794.0225,14.076540295462356,14.277884281118542
3794.8972,13.985872445231387,12.998500295238445
3795.7703,13.902438596620842,11.464619684302995
3796.6455,13.8330020936677,13.130554138242081
3797.519,13.781616627502657,13.16602694955079
3798.3926,13.749731792754314,12.405963844378846
3799.2686,13.738468343781364,14.759894816807064
3800.1426,13.74913938948698,12.731108998657342
3801.0188,13.782802992052988,13.160259356107575
3801.8933,13.839742893482178,12.02861510408212
3802.77,13.91957264238895,14.558395582835104
3803.6448,14.018736980396616,13.81257478260635
3804.522,14.130411797819036,13.957850035249198
3805.3972,14.243050670894709,12.055756384186955
3806.2727,14.345571615130746,13.644688727655554
3807.1504,14.430613295811936,10.270260361602773
3808.0261,14.496141821412932,12.317412707771801
3808.9043,14.545225549408993,11.668030856899119
3809.7805,14.581319901677492,10.224036941366013
3810.659,14.607286065593986,11.951418112863202
3811.5356,14.624778212860576,12.34294938012109
3812.4126,14.634459173996612,11.147499125205913
3813.2917,14.63387890558004,12.2972634683872
3814.169,14.616943706905202,11.754007375750652
3815.0483,14.577435643600237,12.137505993443703
3815.926,14.515442816984143,12.736706926424123
3816.806,14.43948795855687,13.117691077613436
3817.684,14.363698872497238,12.007166832416427
3818.5623,14.299148088292538,13.954144663215121
3819.4429,14.249348914015178,13.442551799215599
3820.3215,14.211294903213867,12.831168673460517
3821.2024,14.178542418214926,12.784643352520254
3822.0815,14.145144210316147,12.266732704777644
3822.963,14.106122044449274,14.580063265593346
3823.8423,14.058334084744697,13.04904777712201
3824.722,13.999820690553932,12.988883807416627
3825.604,13.92936984010801,12.896058683454322
3826.4841,13.84607276159329,14.303316996855898
3827.3665,13.747501964543163,13.151589668010578
3828.2468,13.632344398074729,13.03940529462951
3829.1296,13.500780623273023,14.682097661285066
3830.0105,13.3585712905895,13.250777276084616
3830.8916,13.21437036609624,14.540187555269467
3831.7751,13.077510907471694,17.12034971940416
3832.6565,12.954790681739883,13.423299936235596
3833.5403,12.845819349989867,16.766376678928207
3834.4224,12.747996247147212,14.996282704295979
3835.3064,12.660687915137826,16.044747102168255
3836.1887,12.591993717011837,17.21552645755127
3837.0713,12.55591397479409,16.71870106565244
3837.956,12.565106727454669,17.61246867760542
3838.839,12.622042210083352,20.25869816864848
3839.7244,12.717639402129645,15.305390728718345
3840.6077,12.836582046705997,14.041685185310188
3841.4932,12.967445407424572,16.56011215021199
3842.377,13.104294495587531,17.788648847480555
3843.261,13.24603158572485,13.852152073011476
3844.1472,13.390779770325361,14.295521388354462
3845.0315,13.532296429477418,12.703927688272294
3845.9182,13.663399079080353,15.067122929354586
3846.803,13.77685790855597,12.749586322385953
3847.69,13.871657778530562,12.830278099650293
3848.5752,13.951881618248194,13.230293442516905
3849.4604,14.025221111247445,14.556656793215957
3850.3481,14.097547927590904,12.435935653513253
3851.234,14.169849893929205,12.687258832867382
3852.122,14.24085122559788,12.230291117024144
3853.0083,14.308618712624341,11.824097894429102
3853.8967,14.373530659762103,12.076920680312906
3854.7832,14.436267175590071,11.77303960190721
3855.6702,14.4971318474601,12.075848437715667
3856.559,14.554076119226282,11.700915300404947
3857.4463,14.602254851105709,11.160911573634099
3858.336,14.636311428996661,11.657191390283314
3859.2234,14.652910769405405,12.665466621435282
3860.1135,14.655014468821237,10.856586669078094
3861.0015,14.652248213894673,11.798545638994028
3861.8896,14.656550402892151,13.392945958030614
3862.7803,14.674405060476113,11.636569770615763
3863.6687,14.701481649392036,12.910421922743387
3864.5598,14.725227913695868,11.295654882475564
3865.4487,14.732308206361123,11.66944874792863
3866.34,14.715556651996785,11.909435263054123
3867.2297,14.674442353306478,10.902061140699514
3868.1213,14.611355192495836,12.380185567367851
3869.0112,14.52978528254629,10.987362629572228
3869.9014,14.433319349613054,12.273371181923324
3870.7937,14.32535119908313,11.613831939010947
3871.684,14.208082191175446,12.749255116613691
3872.577,14.079815651956343,12.59879794668135
3873.4678,13.938872215424174,11.794276160102088
3874.361,13.783190695251239,13.00103337224612
3875.2524,13.613784869903599,13.077199119680888
3876.1438,13.43203572882992,14.745187189493215
3877.0376,13.240724116475073,15.6534987053286
3877.9297,13.045224878117528,14.664716773738617
3878.8237,12.848377899971032,15.148461458394854
3879.716,12.651744668130458,14.804263415550391
3880.6108,12.452639909998084,15.145496156727848
3881.5037,12.249997342696865,16.669425799873963
3882.3965,12.042343395887933,17.455481821590183
3883.2917,11.828019850104976,19.61378336382705
3884.185,11.605615839408074,17.92960708430681
3885.0808,11.37131511668194,20.256966000413485
3885.9746,11.127215161444603,21.55095495024692
3886.8706,10.880467499011193,21.74427827136658
3887.765,10.647914468583505,22.424000075569055
3888.6592,10.449047050253483,25.686480154030964
3889.556,10.303640355702294,27.652769563639538
3890.4507,10.229357633414875,27.19640135045728
3891.348,10.236321273617584,26.186439660435916
3892.243,10.325145962137691,22.96130274309958
3893.1406,10.485978622665213,22.654330398553476
3894.0361,10.699487416210879,22.5175248322084
3894.932,10.945325741519147,23.714987857548667
3895.83,11.206419034835383,20.105106351180186
3896.7263,11.468772040979818,16.829856356257604
3897.625,11.725176822642265,17.51336490620343
3898.5215,11.968977925060303,18.565686827759986
3899.4207,12.199729293152355,16.29397113259668
3900.3176,12.418984584105672,17.24831119729002
3901.2148,12.633542381512724,14.493696594878509
3902.1145,12.84900811224059,15.319773682975615
3903.0122,13.063475870195978,14.353030869984535
3903.912,13.270022118646175,15.443250025271745
3904.8103,13.456811985732303,13.77747951909471
3905.7107,13.616882205288164,13.4662482731835
3906.6094,13.749056299691105,13.836746229382396
3907.508,13.860079914442467,13.896671077325346
3908.409,13.959745537304306,12.38604771364267
3909.308,14.056574540175243,13.236291912557093
3910.2097,14.157879397807148,11.817409653654776
3911.1091,14.267894748922723,13.531400899818037
3912.011,14.38891797953985,13.247046849801565
3912.9111,14.516799771158993,11.741790057795543
3913.8113,14.642477487836329,10.849593340460855
3914.7136,14.75559476735611,11.71497425202319
3915.6143,14.8504128538413,10.66214245433276
3916.517,14.930615491763373,11.704548787392973
3917.4182,15.004194574369226,10.6036564408959
3918.3215,15.078155299074192,11.290629982941603
3919.223,15.152851134278762,10.626897890700079
3920.1245,15.224071953260696,10.112222021040234
3921.0286,15.286832783503161,11.083001108866485
3921.9307,15.339137023114105,10.273251961873916
3922.835,15.384320021146323,11.240030994265068
3923.7373,15.428119864075631,10.117514736740855
3924.642,15.47598478321324,10.464034752366672
3925.5452,15.528989876821122,10.815756497321205
3926.448,15.58318286627341,10.941969524334151
3927.3535,15.630800392982547,10.084559989193856
3928.257,15.664091429652515,9.639113498169175
3929.1628,15.680930726068254,10.945788206226593
3930.0667,15.685283115948184,9.619888039126135
3930.9731,15.683525706930949,11.200118968612866
3931.8774,15.679030250354538,10.681782570172732
3932.782,15.670549965059758,9.78909473412953
3933.6887,15.654581965312799,9.884977485892266
