wavl,flux,ivar
3566.9744,1.0959135146008103,475.6832822868859
3567.795,1.0926546473855498,640.2258826551071
3568.6177,1.089429434869139,581.4689427325222
3569.4385,1.0865997629152577,420.6703557780401
3570.2617,1.084477874524136,520.4617138011782
3571.083,1.083285108878243,502.79649409978214
3571.9065,1.082980154347133,582.934815661722
3572.7283,1.0832306627042716,390.2078627458801
3573.55,1.083564407289526,518.0689090720714
3574.374,1.0836699262635232,485.63612468076894
3575.1963,1.0835130230536465,434.7937108388985
3576.0208,1.0831604740993341,584.8804448942581
3576.8435,1.0826209089995564,501.13551720810096
3577.6682,1.082015219309501,480.9035879498142
3578.4915,1.0819277680824533,625.9784859349508
3579.3145,1.0833893448788547,499.4402863734137
3580.14,1.0872894378663305,545.8384056396197
3580.9636,1.0934667076356372,383.7703233691159
3581.7893,1.10036788364809,419.24733602883543
3582.6133,1.105481263205992,387.727743111262
3583.4395,1.1066762093184137,431.40655352007155
3584.264,1.1032421558889898,494.01417358147626
3585.0884,1.096141483606516,486.36391077917915
3585.915,1.087249341507752,604.7465698601303
3586.74,1.078488661818332,393.82942192189995
3587.5671,1.071107784261279,490.0523129126651
3588.3923,1.0657839594890766,421.44631537308675
3589.22,1.0626464641901054,515.0157251281681
3590.0457,1.0614670593461495,518.5072372160867
3590.8716,1.0616184872665761,490.55288146127225
3591.6995,1.0622692388521398,442.9785433796987
3592.526,1.0626745867785408,487.3821848294308
3593.3542,1.0624883488453567,622.2249816754618
3594.181,1.0618754085472164,544.5225777303464
3595.0098,1.0613412996306042,587.7000469276396
3595.8367,1.0613520058965136,556.3450819532113
3596.6638,1.062003285355582,485.640424817562
3597.4934,1.063061379932881,402.00567014711714
3598.3208,1.0642541952918405,599.3019510438727
3599.1506,1.065490916785975,528.0692772809651
3599.9788,1.0667446140718222,650.6733396781508
3600.8088,1.067912584486446,666.0576973818181
3601.6372,1.0687807773857274,498.2009639521176
3602.4678,1.0690990624538523,506.01852438309754
3603.2964,1.0685788493520696,514.8058538591996
3604.1252,1.0670014431664236,447.8006660589203
3604.9565,1.0645262887866633,483.34355893600133
3605.786,1.0619967061380102,384.34578897629456
3606.6172,1.0606650799869073,492.5767509002951
3607.447,1.0614666946237965,496.520524602591
3608.2788,1.064291860001391,603.9522994216899
3609.109,1.0679071342630504,476.074683563571
3609.9392,1.0706198980057327,450.9414407362872
3610.7717,1.0711013721307028,618.4889967718864
3611.6023,1.0689321050864495,585.9176156876198
3612.435,1.0646065647724734,513.7394878041267
3613.266,1.0592268715193989,452.5865695476844
3614.0994,1.054066988850507,568.6574577747031
3614.9307,1.0503964289721524,465.85951415575653
3615.7625,1.0491117920698187,549.5688814722816
3616.5962,1.0504040554056728,489.36088532987486
3617.4282,1.0533928360675977,635.7175562569134
3618.2625,1.0563004608573394,473.18534861016013
3619.0947,1.057214636391997,460.3457237867096
3619.9292,1.0551740123365583,469.2746658193317
3620.762,1.0506914794212296,473.5029800254198
3621.595,1.0453631350291515,459.40369817040516
3622.4302,1.040919845121931,566.9628123895184
3623.2634,1.0383924208509017,604.5592859998465
3624.0989,1.0377078849883221,469.3932988631418
3624.9326,1.0380279723319092,543.7399311396011
3625.7686,1.0384067649742927,464.0266911536765
3626.6028,1.038385648375179,514.8067837191469
3627.437,1.03805761485868,625.6865287957035
3628.2734,1.0376272639681057,399.20978914357045
3629.1082,1.0370094038975777,567.8310721927592
3629.945,1.0358691148600983,545.158403649946
3630.78,1.0340251348310665,587.4645078619757
3631.6174,1.0316796723826398,665.6018012777753
3632.453,1.0293046593148172,471.846603899646
3633.2883,1.02724016363454,556.1124024785481
3634.1262,1.0255381184581158,659.2315157174404
3634.9622,1.0241342797453827,585.4534507176511
3635.8005,1.023071835719208,535.3853029049566
3636.637,1.022556608008142,574.2002036216919
3637.4756,1.022710221484147,392.4346089285599
3638.3123,1.0233827554271564,651.896787521713
3639.1492,1.0242310352867372,532.9423944560027
3639.9885,1.0250012451770953,516.6127150949362
3640.826,1.0256836707231858,569.8167365859268
3641.6653,1.0263427572460697,549.080545478011
3642.5032,1.0267241437825467,832.2806656759005
3643.343,1.0261305622868055,489.67401113694456
3644.1812,1.02382059407892,517.1197012224511
3645.0195,1.0196677864765515,514.560019620844
3645.86,1.014424671005539,562.2612754554124
3646.699,1.0092886178974678,616.9710922275909
3647.5398,1.004966204843176,662.5273038304751
3648.379,1.0014007026441927,517.7299525153752
3649.2202,0.998198832483122,518.4413475755584
3650.0596,0.9954426680802239,616.6672035061794
3650.8994,0.9937155143295565,609.065690882825
3651.7412,0.9934853335667646,561.6927062439461
3652.5813,0.9945035447386382,542.7062135637434
3653.4236,0.9959366485050795,449.1307306752285
3654.2642,0.9969737950016867,601.2260669043897
3655.1067,0.9973338229867922,461.19640825855197
3655.9475,0.9973512893446759,663.4444135554604
3656.7886,0.9977850933703343,560.1989831580789
3657.6318,0.9993608566040632,645.6998635305424
3658.4734,1.0021535085014435,694.9311149796373
3659.317,1.0053188933531132,658.8498128045923
3660.1587,1.0074517855976945,633.3841505203566
3661.003,1.0074641032638127,628.1583538129158
3661.845,1.0051451537317002,660.7662669534566
3662.6875,1.0011646189796626,758.8816867646026
3663.532,0.99671250299983,617.1489752517726
3664.3748,0.9931442881075652,651.465089207155
3665.2197,0.9914694350533172,533.751057812252
3666.063,0.9919267724197933,664.4764561144592
3666.9084,0.9937888796932809,513.6289993017224
3667.752,0.9957855515833404,419.3185384736611
3668.5977,0.9968720022048507,579.7735064284855
3669.4417,0.996667812899573,636.39060589672
3670.286,0.9954278351609903,656.6197750178599
3671.132,0.9937084919752798,563.8754353643459
3671.9768,0.9920871929879373,636.5356659991065
3672.8235,0.9908878852199853,603.4786271104434
3673.6685,0.9900208962665008,639.979077942197
3674.5156,0.9890278745742775,531.093932082917
3675.3608,0.9875105844946027,519.2550722751085
3676.2063,0.9855766976908401,557.2930161035968
3677.0542,0.9839010446940214,571.1808612567353
3677.9,0.9832754009287037,637.3867417090788
3678.748,0.9840108049477203,583.5712386609774
3679.5945,0.9857818722400051,598.9792432017701
3680.4429,0.9879276611143939,592.644351988182
3681.2896,0.9898111337846276,590.1171486715899
3682.1365,0.9910344761968404,680.7022984096806
3682.9856,0.9914695251664908,457.2172426176498
3683.8328,0.9913086553788666,471.74794196572157
3684.6824,0.9910349453077258,589.292741262767
3685.53,0.9911497871056992,455.3237324533575
3686.38,0.9917481949917011,478.92176723185486
3687.2278,0.9922767390206227,666.8392129304189
3688.0762,0.9917805381907773,729.2885596922026
3688.9265,0.9895427073352501,519.8019524246259
3689.7751,0.985712523681288,604.1451124602526
3690.626,0.9812846411770747,525.5127771355172
3691.475,0.977518849478324,628.8681380086002
3692.3264,0.9751147858855899,553.5936076162126
3693.1758,0.9740560945860529,672.6065075320718
3694.0254,0.97398210131431,447.8967745093669
3694.8772,0.9747374462053419,615.0188413611843
3695.7273,0.9764470332822668,511.49779564020275
3696.5793,0.9791905229816001,622.118090008768
3697.43,0.982593085731624,542.5354546706467
3698.2825,0.9857896617703724,550.3469056113144
3699.1333,0.9876895333401818,629.3003354480246
3699.9841,0.9875819845037103,533.5193252482701
3700.8374,0.9855672382846568,519.3324673727312
3701.6887,0.9825950329891242,613.4363434530184
3702.5425,0.9799188608556894,590.408037519739
3703.3943,0.9785193689654402,531.0667314640027
3704.2483,0.9787576720324567,592.9801432412564
3705.1003,0.9804530833856884,539.5249805295558
3705.9526,0.9830236841496856,610.2666760742483
3706.8074,0.985584773999308,479.19549140127356
3707.66,0.9870777957189958,686.5844566137666
3708.515,0.9866740160998682,463.36535641674834
3709.3682,0.9841986694129885,798.1012658781965
3710.2234,0.9803086666003583,561.1395262306529
3711.0771,0.9761888300817458,709.8650199605855
3711.9307,0.972843701468214,764.0973873721106
3712.7866,0.970667877508181,554.135147030661
3713.6409,0.9695293615328634,558.167567696361
3714.4973,0.9690702650272668,604.2602561908835
3715.3518,0.9689316774788824,669.4076828179674
3716.2085,0.9687556300363891,567.5182498787132
3717.0635,0.9682459599191723,580.3472546598649
3717.9185,0.9673200919595726,664.0791091565501
3718.776,0.9661870512804148,537.3816233749099
3719.6313,0.9652456613898359,647.4913562378741
3720.489,0.9648221389260079,653.8142807275037
3721.345,0.9649557984203289,579.764699270491
3722.2031,0.9653110335339898,516.7586172958812
3723.0593,0.9653345974485734,542.5308658365509
3723.9158,0.964582712515593,554.014683897225
3724.7747,0.9629566376315222,520.2617003618664
3725.6316,0.9607206321015332,575.7039836115678
3726.4905,0.9583028697572206,609.6370934477987
3727.348,0.9561666529566948,708.7983805853635
3728.2073,0.9546477433503884,642.0456124966155
3729.065,0.9538493143266192,695.7441105725939
3729.9229,0.9535536594368802,587.1455865812786
3730.783,0.953392492160313,500.38614203993257
3731.6414,0.9531704042165776,550.9635624403771
3732.5017,0.9530459189955851,665.2093905377967
3733.3604,0.9533186886312363,675.7252877051383
3734.2214,0.9539868801948159,669.0897585858951
3735.0803,0.9545524212475095,588.3267779480465
3735.9417,0.9543580614107127,546.3648817629437
3736.8013,0.9531333539352422,690.193507395899
3737.661,0.9512284623274139,725.2868534990723
3738.5227,0.9493369790487814,656.7270921026377
3739.3828,0.9480654387749777,660.3185927476445
3740.245,0.9476609519763703,682.8080640738343
3741.1055,0.9480529888546723,691.0217802181988
3741.9683,0.9489682501287184,616.8344426026878
3742.829,0.9500366641483797,682.6887455541854
3743.69,0.9509033781489333,615.9743664072457
3744.5532,0.9513199476264489,486.00123566985076
3745.4148,0.951219397134837,546.3002664557158
3746.2786,0.950744925370906,633.6061519947409
3747.1404,0.9502068585705725,559.492276909304
3748.0044,0.9499743511255375,577.2982852939908
3748.8667,0.9503212005734563,780.9309355250739
3749.729,0.9512226971944828,540.331023332081
3750.5938,0.9522573374084693,560.4467411235621
3751.4565,0.9527622111906563,737.6649725077159
3752.3215,0.9522709331082915,660.9588359068454
3753.1848,0.9508610753458642,518.4336019111952
3754.0503,0.9491228954525063,749.7781867886075
3754.9138,0.9478476927045582,678.8652270856034
3755.7776,0.9476517058474584,614.5754233186187
3756.6438,0.9487472296234317,624.2609196743342
3757.508,0.9507336342142185,870.4604132857925
3758.3745,0.9526388033575767,583.6826316863273
3759.239,0.9533284393696317,528.4318045729048
3760.106,0.952202416385733,691.1792264819746
3760.971,0.9495509852882673,564.3894830463125
3761.8362,0.9462854922667902,669.4398244111352
3762.7036,0.9433312436690381,633.623134011083
3763.5693,0.9412023035585788,591.757017053068
3764.437,0.9399121317680671,738.0647991288884
3765.3032,0.939234402141912,650.1180843246754
3766.1714,0.9389068552211203,625.2130795272095
3767.0378,0.9387216017604976,670.3286643561767
3767.9043,0.9384808287847287,669.8979554058163
3768.7732,0.9379821149285834,662.6463223721629
3769.6401,0.9371055076864502,636.0016632499121
3770.5095,0.9359048756264662,696.2251799286266
3771.377,0.9346056384466003,578.7491485891236
3772.2466,0.933419012792264,655.4049427667951
3773.1145,0.9323905183152874,726.0356473322784
3773.9824,0.9313565565817556,736.4219121138499
3774.8528,0.9301195318692772,585.1822822133669
3775.721,0.9287156727915707,580.4600861390362
3776.5918,0.9275317499413659,592.6576557147807
3777.4604,0.9271803340853569,545.2803938990538
3778.3315,0.9280882652725272,569.3378112250402
3779.201,0.9301793170329827,771.4767303902509
3780.0703,0.9329079849414847,634.8686628004971
3780.942,0.9355894792266711,631.7987742514973
3781.8118,0.9377107995358892,551.2183529507028
3782.6838,0.9390923507582266,676.7937108386654
3783.554,0.939763351589254,666.9612309385581
3784.4265,0.9398577292140251,578.2934118991963
3785.297,0.9395704139224146,629.4197836105858
3786.168,0.9391863246144675,634.3427716727034
3787.041,0.938997549978204,602.107483475392
3787.912,0.9391098454310726,586.048306046123
3788.7856,0.9393166916337099,634.4702877190402
3789.6572,0.9391837354078594,592.925373817357
3790.531,0.9382779762523821,632.5988846874994
3791.403,0.9363974398340189,664.4885218413971
3792.2754,0.9336421392107912,763.1709073352527
3793.15,0.9302629287591486,578.5719250205951
3794.0225,0.926392702497908,827.8890829003199
3794.8972,0.9218307555371049,682.9604976201358
3795.7703,0.9163617033920828,662.4300742622984
3796.6455,0.9101831812817412,646.1208399719552
3797.519,0.9042919531982375,608.9810806895653
3798.3926,0.9000943268606723,732.4577681300924
3799.2686,0.8987261957357923,687.6675973264548
3800.1426,0.9003984060202098,738.6396248908275
3801.0188,0.9042199710693882,719.0326755048237
3801.8933,0.9085690045703959,620.0861424534577
3802.77,0.9118912279725745,605.764432869001
3803.6448,0.9133669112881968,726.3713525484457
3804.522,0.9132559194113877,705.4734006201102
3805.3972,0.9125618608422053,942.1479870877503
3806.2727,0.9123993711698413,560.3833924013234
3807.1504,0.9134371906206974,622.337900065846
3808.0261,0.9156275153721732,862.9993310863551
3808.9043,0.9183349757748439,725.6732771160547
3809.7805,0.9207486244475915,721.1559514810822
3810.659,0.9224868543393576,609.65337924403
3811.5356,0.9237976844542113,728.7345248601537
3812.4126,0.9252923471445073,744.594468651104
3813.2917,0.9273510609617928,506.5818158155143
3814.169,0.9297244186944863,731.1530876717839
3815.0483,0.931680502769803,532.2551134360647
3815.926,0.9324790380253611,846.2677355664316
3816.806,0.9319007313993278,714.4250975537186
3817.684,0.9303336483685047,742.330994555419
3818.5623,0.9284473190766381,582.0573428734501
3819.4429,0.9267870510622966,635.221416091597
3820.3215,0.9255964897342136,572.052392934693
3821.2024,0.9247893419853022,767.9126900239246
3822.0815,0.9240464535113859,596.7820623703578
3822.963,0.9229101120051629,626.635235171015
3823.8423,0.9209349917236288,714.2849575460059
3824.722,0.9177604224392614,652.0332127031414
3825.604,0.9131510515310498,719.9340827726703
3826.4841,0.9071179117534631,721.8498418485096
3827.3665,0.8999401786662765,739.1458287764365
3828.2468,0.8923010654438966,754.1938566291716
3829.1296,0.8849756767689132,796.8258268154876
3830.0105,0.8786165486438787,699.2364352719666
3830.8916,0.873325781024417,777.1815565289708
3831.7751,0.8687370987319646,695.2039826407865
3832.6565,0.8643964230315796,803.1797067431644
3833.5403,0.8600877551226699,805.1729647544452
3834.4224,0.8560583832663423,832.2830064548627
3835.3064,0.8527509455613943,643.7319314612524
3836.1887,0.8506091643653881,731.5276058548366
3837.0713,0.849955229852005,707.7555482002824
3837.956,0.8511207675128045,690.0854252846779
3838.839,0.8544287548545543,799.9542453332086
3839.7244,0.859996389919564,689.4494498952397
3840.6077,0.8674169363694543,933.4058731290517
3841.4932,0.8758962209311226,548.5109663826487
3842.377,0.8844959724527667,775.9699299433801
3843.261,0.8926571784508855,861.6519200430787
3844.1472,0.9002563979754378,786.8584943572996
3845.0315,0.9073779237293149,561.3216215253287
3845.9182,0.9141534309141776,633.4393046989937
3846.803,0.9204201110958983,729.8546632625751
3847.69,0.9258753251207587,722.232373124118
3848.5752,0.9302575737200275,649.1032753532908
3849.4604,0.9337831833824168,753.8562242399237
3850.3481,0.9371136510029651,617.2482233028321
3851.234,0.9409045816577013,532.2456545095785
3852.122,0.9454029421040646,630.0794271307705
3853.0083,0.9503049846922037,570.1062299860057
3853.8967,0.9551265960668869,618.8919306807263
3854.7832,0.9593488201192926,566.4883778283729
3855.6702,0.9625039064173425,559.8914483669968
3856.559,0.9641434232269641,590.4399436858162
3857.4463,0.9640866214348457,521.2015058313268
3858.336,0.9626835994595303,631.2645547211127
3859.2234,0.9606965085345727,694.1625155829678
3860.1135,0.9588166275799435,639.6709314283023
3861.0015,0.957347307460855,605.3169349635134
3861.8896,0.9562227448363315,617.5789224647838
3862.7803,0.9552869722092078,720.0385467213154
3863.6687,0.9543964493227263,593.0135264762661
3864.5598,0.9533079876634916,676.1118790516026
3865.4487,0.9516874553550296,642.2620949511519
3866.34,0.9492787174491066,631.4004625786466
3867.2297,0.9461177334040662,672.4837185585371
3868.1213,0.9424116527338271,589.1426921064191
3869.0112,0.9383402651829047,652.3930245294581
3869.9014,0.9338582163116479,772.0119262484873
3870.7937,0.9287834257103907,682.670951297242
3871.684,0.9230245439174969,759.7905740581997
3872.577,0.9166608181276138,689.4015101331195
3873.4678,0.9100922410776972,728.0623449526493
3874.361,0.9037501969005602,703.2647585558726
3875.2524,0.897892564900094,697.0126306798627
3876.1438,0.89224651541259,801.2225768869665
3877.0376,0.8861496018566023,736.5794946887636
3877.9297,0.879027626047851,735.8207927162194
3878.8237,0.8707069363709805,778.0284278638403
3879.716,0.8615878664484925,815.4392061071413
3880.6108,0.8522023522580131,933.2197761033807
3881.5037,0.8429992912724884,943.5105591965578
3882.3965,0.8339793384943688,817.7693024505943
3883.2917,0.82479298644537,785.4084165495734
3884.185,0.8150711975388419,717.916051216901
3885.0808,0.8046080620445334,728.8251382236857
3885.9746,0.7937565715687456,937.2274091592546
3886.8706,0.7831419858476867,902.8782281094313
3887.765,0.7735850755837494,1014.8052772388814
3888.6592,0.7657300610298398,928.0900746287882
3889.556,0.7600994969802556,964.9903747140173
3890.4507,0.7572107977670929,1081.5608953045767
3891.348,0.7575306689350315,983.6929219082551
3892.243,0.761410451386288,942.2339474783207
3893.1406,0.7688568581785131,1021.6588617022351
3894.0361,0.7792581384196139,845.806333024348
3894.932,0.7915874726361612,863.5351069998503
3895.83,0.8047359608346454,814.0513443848913
3896.7263,0.8178105207529772,839.4115797705317
3897.625,0.8305154068622993,741.3188014241199
3898.5215,0.8427186148262152,853.5065067260224
3899.4207,0.8543898387977679,856.1186703780274
3900.3176,0.8651938661822384,635.5468110202412
3901.2148,0.8749234282444434,741.9063413319598
3902.1145,0.8837428703395079,671.9458469593576
3903.0122,0.8922056884661841,788.4239723208527
3903.912,0.9010368771521935,798.6918659643278
3904.8103,0.9105130355000594,781.2348564142842
3905.7107,0.9204948090362911,627.0604348424965
3906.6094,0.9304992914894159,598.2449998001881
3907.508,0.9401429225787712,651.7167748587094
3908.409,0.9491799431867434,572.7258959456601
3909.308,0.9573662993845273,671.4876329947201
3910.2097,0.964580061605624,571.8292102957796
3911.1091,0.9708465276932744,602.7505984841616
3912.011,0.9766844833439783,570.5696265310362
3912.9111,0.9828873022699749,606.3276338954721
3913.8113,0.9901610055576057,674.6919138027811
3914.7136,0.9985671413940224,590.0948570148379
3915.6143,1.007291581905939,559.1619074152362
3916.517,1.0151533423770132,495.8272280831947
3917.4182,1.0211353271411145,453.37524159997395
3918.3215,1.024988841468744,573.313162395671
3919.223,1.0271343348606525,505.0248488836302
3920.1245,1.0283760331997354,506.7737501238977
3921.0286,1.0294563466457924,604.5494707171237
3921.9307,1.0307805706451036,576.1454991778719
3922.835,1.0323360620160351,499.10797037266735
3923.7373,1.0337843102796385,556.6000554676519
3924.642,1.0347796100259579,467.75286549758886
3925.5452,1.0351975180061135,452.7775890460692
3926.448,1.0351520103079326,536.1708775720816
3927.3535,1.0348098734763935,578.5484524314286
3928.257,1.0343300227305439,580.565701805107
3929.1628,1.033955664207988,446.59937972831125
3930.0667,1.0340067564567446,524.5174119688849
3930.9731,1.0345563103800552,551.4336392020482
3931.8774,1.0350821308254026,594.1330280852573
3932.782,1.034607817311676,611.962481606881
3933.6887,1.0323770066847742,515.1642123272251
3934.5938,1.028544613697809,478.5987972605274
3935.501,1.024101085112972,549.3423067425346
3936.4062,1.0201450487385872,531.5308307444075
3937.3142,1.0169814207684935,502.32137279020986
