wavl,flux,ivar
3566.9744,1.7367554016450877,145.2879300152332
3567.795,1.7385812012507091,163.63727171320596
3568.6177,1.7403829282107004,160.68188309277255
3569.4385,1.7418975245785586,161.23346830209138
3570.2617,1.7428675784804375,164.93229645004746
3571.083,1.7432129681030095,156.7702496409448
3571.9065,1.74299438226818,174.71618267736758
3572.7283,1.7421741594139044,161.2911064766428
3573.55,1.74057345681472,153.01756249995293
3574.374,1.7381171106219329,144.24603065591717
3575.1963,1.735043971724277,127.19097415331653
3576.0208,1.7316874440468797,176.10543807957387
3576.8435,1.7282773401249514,188.91711181273385
3577.6682,1.725000703917868,149.5028868212731
3578.4915,1.7224513523591125,173.87504027757487
3579.3145,1.7216568158721866,182.35815253844893
3580.14,1.7235500654808018,169.29722467805723
3580.9636,1.7280624976637546,141.6536338134019
3581.7893,1.7336627622860976,149.74674969313443
3582.6133,1.7377434037927437,173.8743953011992
3583.4395,1.7380154799409802,128.91772556441362
3584.264,1.7337830846783984,167.97615637025993
3585.0884,1.7262533261670394,153.80224505217265
3585.915,1.7175518730519461,160.98052487252713
3586.74,1.7095639578529753,162.18615303169287
3587.5671,1.703242322420564,168.49350225379965
3588.3923,1.699003252713685,157.81979564826327
3589.22,1.6969360343871207,167.1531442804788
3590.0457,1.6967660839035883,175.13316359933216
3590.8716,1.6975467459353186,147.91736424556174
3591.6995,1.6979435575604525,165.2242644922583
3592.526,1.6970274448031748,164.8419480469561
3593.3542,1.6949034952113309,156.60837409405286
3594.181,1.6925482705230939,176.84982586507954
3595.0098,1.690975260507298,164.0337550721806
3595.8367,1.6905536019010712,166.14747904822576
3596.6638,1.6908348391177783,160.28120805467876
3597.4934,1.6909008033304531,166.22390566893066
3598.3208,1.6897966481559785,209.71393263917903
3599.1506,1.6868795998532913,158.9964195199792
3599.9788,1.682147114623007,185.83451037437302
3600.8088,1.6763603751466885,164.54300462902293
3601.6372,1.670912477978134,212.72082638612744
3602.4678,1.6670643007002266,172.57588965605655
3603.2964,1.6653171150855721,169.55347628278886
3604.1252,1.6651960558500636,165.33577345563117
3604.9565,1.665861150758973,154.82529621557137
3605.786,1.6668144930110524,151.487924178551
3606.6172,1.6681129650652948,225.45933742785235
3607.447,1.6698951372565802,170.69596538573066
3608.2788,1.6718249374455936,195.9836977719796
3609.109,1.672935121411735,158.2427344154771
3609.9392,1.6721194340374388,184.95032341500692
3610.7717,1.6689002458852158,179.20926603634862
3611.6023,1.6640711057947617,197.63120359913887
3612.435,1.6594111476395015,219.98430920095245
3613.266,1.656627442948396,183.52848802730597
3614.0994,1.656108135359415,190.996176568209
3614.9307,1.6568399119053527,163.77849389979497
3615.7625,1.6573750912979333,170.69150106663147
3616.5962,1.656874401654095,204.66788189912555
3617.4282,1.6552871874394834,198.63639728903763
3618.2625,1.6528303578759074,176.75285623509234
3619.0947,1.6496534749684346,174.0672023080714
3619.9292,1.6459261485437162,187.6477194462647
3620.762,1.642163284336112,175.40095195233638
3621.595,1.6391621509654914,186.92198241586036
3622.4302,1.6377600392729688,187.72207122638304
3623.2634,1.638444360949948,213.5028477393044
3624.0989,1.6409750567063583,198.80981213693804
3624.9326,1.6443055233048611,172.67186285573854
3625.7686,1.6470989557828182,173.6533821248889
3626.6028,1.6484855432623762,188.5133557120219
3627.437,1.6485669935384266,178.61714276606799
3628.2734,1.6480653744410412,207.09951621262536
3629.1082,1.6475355870919655,173.11119289245482
3629.945,1.64676026144168,221.76389148572002
3630.78,1.6448298064225189,190.5812338785554
3631.6174,1.6407915837973237,168.99790610321972
3632.453,1.6345416079852844,164.5885344940418
3633.2883,1.6271815064181538,188.89240759684486
3634.1262,1.6206346485423,204.12730770195697
3634.9622,1.61663122281714,198.8674744410864
3635.8005,1.615560235323565,207.55369224220783
3636.637,1.6163735749310695,198.59838570022612
3637.4756,1.6174042930694772,169.82667992114793
3638.3123,1.6175334892849915,202.03998662969366
3639.1492,1.616748859336648,178.19131149315928
3639.9885,1.6157807486644329,170.15100202315008
3640.826,1.615341516726422,191.71430550125547
3641.6653,1.6155598381739402,193.14168940465416
3642.5032,1.6159633426749422,186.18501877848962
3643.343,1.6158119769573227,211.3259445375606
3644.1812,1.6144468037332156,245.4792811052054
3645.0195,1.6114822486120581,202.751739360291
3645.86,1.6068979929895246,209.42816583048383
3646.699,1.6011742981205543,187.5457444350595
3647.5398,1.5951885940748107,246.68096380471596
3648.379,1.5900512057224945,184.13782081922787
3649.2202,1.5865919008435911,173.13715388022567
3650.0596,1.5850960302629609,181.5768887406306
3650.8994,1.5851767916713002,193.70068458739564
3651.7412,1.5860385492496176,205.2110155184125
3652.5813,1.5867722539884748,247.86792634757154
3653.4236,1.5866204113981244,177.33327603902862
3654.2642,1.5851421501268488,237.38954806023793
3655.1067,1.5823012465798094,216.76500056635282
3655.9475,1.5784545639589904,206.48924241995692
3656.7886,1.574176153171346,197.42093958687656
3657.6318,1.5701442545555253,198.74896170396198
3658.4734,1.567033612912267,188.16727028600243
3659.317,1.5651934154040872,212.1540733421193
3660.1587,1.5644632203245379,214.0086183736382
3661.003,1.5643069377476897,177.04898125018968
3661.845,1.5644274862277243,177.63676676495226
3662.6875,1.5652306731194092,187.13467634976456
3663.532,1.5676251061805808,184.49658395553678
3664.3748,1.5722188220454336,230.51802605851114
3665.2197,1.578700051147769,220.35405576204258
3666.063,1.5857676211621765,237.41301368499245
3666.9084,1.591842170506897,201.5093547120789
3667.752,1.5955959793597314,196.3188861600289
3668.5977,1.5963549331826983,193.4624616100227
3669.4417,1.5940586751277375,212.4271304898824
3670.286,1.5892368104932448,193.024050883743
3671.132,1.582837398152856,176.64572105529334
3671.9768,1.5760095788180215,216.3901539066118
3672.8235,1.5696750993985442,248.2802713113836
3673.6685,1.5643708724597614,208.38975971676328
3674.5156,1.5600984789660628,186.06283852451415
3675.3608,1.5566763935551389,216.20029420162606
3676.2063,1.55405604801579,205.7071865641189
3677.0542,1.5524947516041274,211.0971371731738
3677.9,1.5522692334341306,217.08372383304285
3678.748,1.5532970166571785,212.48479379634912
3679.5945,1.555127180127549,189.0905385822509
3680.4429,1.5572028052089635,201.87000291844635
3681.2896,1.5589435897033357,244.3437664399818
3682.1365,1.5596533150833392,203.30591487256686
3682.9856,1.55856635051365,181.42362293681808
3683.8328,1.5554086484789331,179.11092255420098
3684.6824,1.5509028634355542,229.27095419179443
3685.53,1.5465664008519981,181.5158527246797
3686.38,1.5435577318374616,204.4077193438461
3687.2278,1.5418641468966716,199.25265987227957
3688.0762,1.5405221411203192,213.46181788397678
3688.9265,1.5388629565820884,211.43261857567535
3689.7751,1.5373946431000276,263.71977819129876
3690.626,1.5373353000614824,239.87598065927907
3691.475,1.539273871975627,226.6916486516451
3692.3264,1.5423415571771488,202.3762250061206
3693.1758,1.5447840537795205,207.28284137038187
3694.0254,1.5454569964823974,187.85343966095994
3694.8772,1.5446668482758898,212.6759356836619
3695.7273,1.5437653634713024,168.46143539090085
3696.5793,1.543969213136902,197.9968081426349
3697.43,1.5455138466724332,251.6790585788857
3698.2825,1.5476094801608105,208.4685239200807
3699.1333,1.54896208989978,188.0466430823638
3699.9841,1.5485062338724298,191.82321288311712
3700.8374,1.5458945070038408,178.40929248569836
3701.6887,1.5416220743244857,224.96499900773478
3702.5425,1.5366108138927856,215.02216487234026
3703.3943,1.531779599930163,212.8320236899491
3704.2483,1.5276925155143908,257.8472293144114
3705.1003,1.5247174057432453,229.3376914292763
3705.9526,1.5230621906681974,219.2841340060643
3706.8074,1.5227188114556327,243.91848988505959
3707.66,1.5232708632025598,198.1599353654323
3708.515,1.5239467896563283,215.51653419854486
3709.3682,1.5239658853997395,227.1168360222619
3710.2234,1.5229269184940117,214.58037003101728
3711.0771,1.5209655862216862,223.1106475533487
3711.9307,1.5185916308957528,278.00576003664787
3712.7866,1.5163200131957464,236.0742697806465
3713.6409,1.5143701632921986,230.07138117000918
3714.4973,1.5125923067283695,177.06745146579604
3715.3518,1.5107297121720291,184.3616146818707
3716.2085,1.5085811264997173,218.02754532344073
3717.0635,1.506091027887344,205.87204861527482
3717.9185,1.503390946897876,213.1587047626145
3718.776,1.5009804472239554,196.6780254062207
3719.6313,1.4997508767058212,243.2465712647671
3720.489,1.5004839190270667,248.09866474295313
3721.345,1.5030976890917065,229.4542361653148
3722.2031,1.5062865241019283,236.62781751940346
3723.0593,1.5081366714532127,167.69719328078057
3723.9158,1.5075422546678605,218.6454824785482
3724.7747,1.5050396076938621,194.65960893800968
3725.6316,1.5023614679714332,251.07079373403997
3726.4905,1.5009982692817776,239.83807389685748
3727.348,1.501230772244815,216.20661823544143
3728.2073,1.5022357905502794,245.4395001006104
3729.065,1.5029517555407623,223.08089069368566
3729.9229,1.502863203780387,219.27765968665872
3730.783,1.5022027930497848,216.78784856645302
3731.6414,1.5016451158016382,229.60942703905727
3732.5017,1.5017596613692037,200.00258816101163
3733.3604,1.5026370044039057,211.0034502670798
3734.2214,1.5038722484397276,215.91165957847647
3735.0803,1.5047792056856901,209.56643816756088
3735.9417,1.504647251550491,223.36620718764755
3736.8013,1.5028889936111092,214.3675627588718
3737.661,1.499213926152583,216.2417147840681
3738.5227,1.4938200074239805,219.56598266047453
3739.3828,1.4875581776936257,222.5323120467018
3740.245,1.4816678972689852,244.2143058175188
3741.1055,1.4774445369889315,213.15872413316612
3741.9683,1.4756735662358778,235.06664968946805
3742.829,1.4764513425168009,264.47573339532994
3743.69,1.4792098271208507,202.70636122722485
3744.5532,1.4830698403091522,191.98974065505809
3745.4148,1.487151879047086,204.7718699163807
3746.2786,1.4908691867943533,222.57022753326982
3747.1404,1.493893146982276,238.25392030633233
3748.0044,1.4961200586340253,223.763566321272
3748.8667,1.4975076376122538,239.58180986813574
3749.729,1.4980814645047793,259.8098574156874
3750.5938,1.4979013943446804,240.5111176437082
3751.4565,1.4970276865599468,236.70709574584976
3752.3215,1.4955263602572846,218.70058573824846
3753.1848,1.4936390970707447,219.9682295201181
3754.0503,1.4919114724672005,195.81972175372485
3754.9138,1.491096898241475,213.7484154101831
3755.7776,1.4916966355948682,232.02285610630838
3756.6438,1.49357890839094,234.61645750495663
3757.508,1.4959265201253014,241.62386381656506
3758.3745,1.4976828631476025,224.74248385674798
3759.239,1.498101132653826,225.63572633827346
3760.106,1.49715275382282,222.92551736274814
3760.971,1.4954291868927232,216.86095087746597
3761.8362,1.4936064439075702,224.96798925915152
3762.7036,1.4919219961888641,215.73280187749106
3763.5693,1.4901204698198103,215.9122079994362
3764.437,1.487786912294617,215.38833155730498
3765.3032,1.4847027735429792,226.47618563663957
3766.1714,1.4808313247753215,249.5236703983217
3767.0378,1.476331459490512,213.45600046261
3767.9043,1.4716430814195667,198.96801472675423
3768.7732,1.467621323469521,245.8420258255741
3769.6401,1.465358912609016,223.4339590958275
3770.5095,1.4656526076616745,219.49331919589102
3771.377,1.4686407250892783,253.6999804290326
3772.2466,1.4736693675961463,232.44233384189343
3773.1145,1.479353018809598,220.72373782969757
3773.9824,1.4839800904604796,249.0628529484439
3774.8528,1.4860208529871357,203.72833471493283
3775.721,1.484711196581969,241.93919359685404
3776.5918,1.480404847104842,268.752927253299
3777.4604,1.4744444641401873,274.1899144269858
3778.3315,1.4685157878036337,189.79677316672655
3779.201,1.4641378188265861,275.9792653671963
3780.0703,1.4622454804609426,228.65988470434928
3780.942,1.463224682034742,226.74940355888472
3781.8118,1.4668854102750137,217.14904888711098
3782.6838,1.4724103266107265,191.95178935015892
3783.554,1.4783703202861422,209.21998227048218
3784.4265,1.4832297800403236,223.28575772394728
3785.297,1.485782400947934,207.12795672275942
3786.168,1.4855423367983798,208.7378641648939
3787.041,1.4826786257332945,217.08419834309893
3787.912,1.477941147454024,192.5782553837559
3788.7856,1.4724301540807296,232.43812998829495
3789.6572,1.4673729061798781,235.90428822640746
3790.531,1.4636129576874959,223.2687918455432
3791.403,1.4613885233746335,245.7375810920779
3792.2754,1.4602481263882943,236.32028943512006
3793.15,1.4593487250273043,253.29515788853544
3794.0225,1.4578405521887436,202.14154309117026
3794.8972,1.4551959975195203,208.37079971543443
3795.7703,1.451443962742002,243.2618962891046
3796.6455,1.4471134870876243,237.46345391158434
3797.519,1.4430178084122065,199.13484805479933
3798.3926,1.4397191716909234,244.42200874108408
3799.2686,1.437224626109172,245.21967648780142
3800.1426,1.435172147112548,227.85991684715268
3801.0188,1.4333981247870502,238.197650635251
3801.8933,1.4324268665151723,249.57376045375344
3802.77,1.4331926295117814,254.08726994571524
3803.6448,1.4362667272941725,242.86658904764448
3804.522,1.441301892745906,230.50653997557936
3805.3972,1.447116173997784,227.454254170663
3806.2727,1.4524503148401882,217.87727708969553
3807.1504,1.4565431821903303,237.6042223282691
3808.0261,1.4592511121506013,223.71922975037714
3808.9043,1.4608308469327869,212.73913907734922
3809.7805,1.4615617276718738,240.0563566523832
3810.659,1.4617235767426704,254.63531290120548
3811.5356,1.4617374801202598,230.05804114349147
3812.4126,1.4622137365460806,219.4743130283252
3813.2917,1.46368473713728,228.93345500222682
3814.169,1.4662252892785999,224.23117399379353
3815.0483,1.4693930583379582,205.79926699934794
3815.926,1.4724411807162878,214.39013852959232
3816.806,1.4746956372371682,207.25275046721526
3817.684,1.475669057347806,216.60533337060133
3818.5623,1.4750918198516796,208.70005296335407
3819.4429,1.472831315763601,222.8269630523571
3820.3215,1.4689610385804184,220.64998715208378
3821.2024,1.4638530270235999,228.92702859301465
3822.0815,1.4582855467037252,240.8853031415199
3822.963,1.4530633533680533,241.63072218131686
3823.8423,1.4485960037529633,248.69824014264827
3824.722,1.4445484793378676,220.97719495621635
3825.604,1.440118775066307,242.15573629272944
3826.4841,1.434566365966679,266.78704745757875
3827.3665,1.4274976743439676,249.8535937751774
3828.2468,1.4190436818614085,260.1170321041704
3829.1296,1.4095507321349583,256.27357526894997
3830.0105,1.3994865648131198,262.1307743133512
3830.8916,1.389136285320145,251.08806072164182
3831.7751,1.3787372253199164,265.5198901849813
3832.6565,1.3687472402440324,251.55885620556512
3833.5403,1.3597583321265767,291.9250679175891
3834.4224,1.3525991766886263,298.649120417515
3835.3064,1.3479642652546735,269.29988639029256
3836.1887,1.3464097753680884,283.7701943876402
3837.0713,1.3483045075489977,254.09228562797574
3837.956,1.3538892057838068,290.51098697959185
3838.839,1.3629741149370787,279.5486643632279
3839.7244,1.3747614036347016,241.27523906723565
3840.6077,1.3877884923643091,247.89667877182828
3841.4932,1.4007104139671174,254.41158597991048
3842.377,1.4126542426297959,243.29011386447723
3843.261,1.4234229895129114,248.39686863580883
3844.1472,1.4328024565287578,258.34092157523327
3845.0315,1.440005468875835,275.5948968654707
3845.9182,1.4441609665949748,155.5372183250925
3846.803,1.4452617064441087,250.47240154957012
3847.69,1.4449323832526977,268.6478257767571
3848.5752,1.4457659067750384,259.11981571430607
3849.4604,1.449821483188037,266.5708853728694
3850.3481,1.4575406135437434,261.93870768035947
3851.234,1.4676970199166115,211.76396132080174
3852.122,1.478445842036915,215.45731297810025
3853.0083,1.488158210935212,227.8089620499494
3853.8967,1.496186025310083,241.12427018746166
3854.7832,1.5026645755203816,234.29044199713994
3855.6702,1.5081904671404986,215.36440869911397
3856.559,1.5131571414969076,216.58856051205558
3857.4463,1.5173752836296293,197.806400792644
3858.336,1.5201697206297302,218.3569117318886
3859.2234,1.5206745219964235,221.78393559208646
3860.1135,1.518364217663893,206.0300556622903
3861.0015,1.5134390049372006,199.81322252347945
3861.8896,1.5068899424683102,207.81776335349218
3862.7803,1.5002108466224895,218.57295115503766
3863.6687,1.4948934296919625,228.78301311722512
3864.5598,1.4917286685403854,235.45374471867623
3865.4487,1.4905902846112238,234.53047161025933
3866.34,1.4904578904278165,208.97801921546565
3867.2297,1.489912800160194,253.84076980563955
3868.1213,1.4876862847720407,182.57592858894927
3869.0112,1.4830655836701478,196.80349107580847
3869.9014,1.475951156777978,240.19688969135314
3870.7937,1.466745044602773,216.48360747704936
3871.684,1.4562887075188602,245.5635907468462
3872.577,1.4454931279295282,231.1043445121113
3873.4678,1.4351756427858866,239.79017455039065
3874.361,1.4254611224287113,249.31736526483104
3875.2524,1.415882836505653,226.1102724428029
3876.1438,1.4056098731226652,243.10173186335447
3877.0376,1.3941534820896848,290.346453715454
3877.9297,1.3818136086357509,320.6528264482112
3878.8237,1.369201766401993,271.6728102129869
3879.716,1.3567603727205846,311.3243755816464
3880.6108,1.3441246631066772,252.88135532471063
3881.5037,1.3305673687993052,280.65998805337597
3882.3965,1.3154092516573292,294.1817415708141
3883.2917,1.2985580050533967,309.2999403173024
3884.185,1.2806897396232457,322.71110468878
3885.0808,1.262660506571431,315.7404134838352
3885.9746,1.2455237730849653,345.68973945251116
3886.8706,1.23002253527895,359.2086937640134
3887.765,1.2168881981984838,328.39282059549924
3888.6592,1.2066510236836083,339.0071537111226
3889.556,1.1998253368180216,316.3294648593893
3890.4507,1.1970055499584158,349.17708537960755
3891.348,1.198772524364087,354.1950622109537
3892.243,1.2055515175751892,332.10381383656306
3893.1406,1.217288430612514,389.46870780268495
3894.0361,1.23303580645899,293.7516977417384
3894.932,1.2512900138514187,325.61069920556974
3895.83,1.270440829495623,292.0315556253049
3896.7263,1.2891290451948971,282.99342563047304
3897.625,1.3067674236661009,277.3580394620917
3898.5215,1.3230525322296285,298.0108924402415
3899.4207,1.3381217057873604,272.29230090760564
3900.3176,1.352128176189835,282.98720190640967
3901.2148,1.365563243100242,230.66659550972534
3902.1145,1.3790543881467832,219.41977422368393
3903.0122,1.3930101393722305,288.8515676075001
3903.912,1.40757295483752,258.7755303107227
3904.8103,1.4223775085060169,228.29158302045994
3905.7107,1.4371384161114487,229.07897332079554
3906.6094,1.4517060283667707,226.55055226247651
3907.508,1.4662150344528213,216.7720805592669
3908.409,1.4805954262948127,234.75855812136246
3909.308,1.4941999437483142,206.7414497827073
3910.2097,1.5062878298329785,234.6886178553284
3911.1091,1.5163948347927267,177.9355177156037
3912.011,1.5249065780556579,215.9273893888807
3912.9111,1.5325678826938551,227.07425918140044
3913.8113,1.5400836860365208,183.91626117068375
3914.7136,1.5478018944678744,197.8011396222727
3915.6143,1.5557844664828695,183.44698233371878
3916.517,1.564110762296421,185.10614982433702
3917.4182,1.5727199015567341,194.10568246520884
3918.3215,1.581391600685573,192.1016935124503
3919.223,1.589526160561879,162.22599713178357
3920.1245,1.5964671503606467,205.37697841957046
3921.0286,1.6017831867464078,194.23661771330399
3921.9307,1.605477415479452,181.62818534486505
3922.835,1.6079699515304537,196.11625949517168
3923.7373,1.6096894780029432,189.29337508340862
3924.642,1.610874195913222,210.62516095521136
3925.5452,1.6115399748205308,206.18198878741475
3926.448,1.6116202486414468,189.61416343370973
3927.3535,1.610998035628387,206.47144482417076
3928.257,1.6095509620706088,192.23881625858593
3929.1628,1.6073168565679996,189.2923062802188
3930.0667,1.6047437854973652,185.212494652223
3930.9731,1.6025897560335478,180.10550660969741
3931.8774,1.6014941539052503,219.9686979570553
