wavl,flux,ivar
3566.9744,5.937783487000066,25.00683862745015
3567.795,5.940552750330959,21.87993413477598
3568.6177,5.926627396932874,22.62897306464511
3569.4385,5.892985857276952,28.851733556775017
3570.2617,5.844512732086889,20.414676945630944
3571.083,5.793799882640632,28.02156679221028
3571.9065,5.754789772989884,28.325061594265005
3572.7283,5.736973740993165,28.237895337291437
3573.55,5.741037857488661,22.579546742756744
3574.374,5.76057687196616,25.567740147893225
3575.1963,5.786210906926061,26.646806275803613
3576.0208,5.810132225883217,23.30586160214767
3576.8435,5.827036927667436,29.029381342188977
3577.6682,5.833314973801992,29.289905739618465
3578.4915,5.826007482377862,21.478226694936822
3579.3145,5.804756304974713,25.720921147055588
3580.14,5.774123854465943,21.589829926159307
3580.9636,5.7433152794257945,31.007837118386803
3581.7893,5.720995771085519,26.08908443903704
3582.6133,5.711363260022016,28.258079960067057
3583.4395,5.713940838916763,22.97412151951879
3584.264,5.727195472282187,32.673197670785626
3585.0884,5.750137467424969,27.65309380336399
3585.915,5.780135910691735,27.949996422283853
3586.74,5.809969464801279,28.90279721095243
3587.5671,5.829699205283253,31.270235161140477
3588.3923,5.831375540506367,22.046520294283543
3589.22,5.813919009363507,21.770032818560928
3590.0457,5.783490634579731,27.44338738575978
3590.8716,5.749592947661964,26.375540001754118
3591.6995,5.720411395200148,23.907915630633102
3592.526,5.7001398683317275,21.701199975724556
3593.3542,5.688534685068641,34.85488230210636
3594.181,5.683007613459265,27.721745284100876
3595.0098,5.680102540343429,28.360946167688738
3595.8367,5.676124680931956,30.960461589371604
3596.6638,5.66719302575245,26.2593422550109
3597.4934,5.650844525519993,29.869438842279532
3598.3208,5.629236456317112,26.58408008732796
3599.1506,5.60976510421741,33.19369195499156
3599.9788,5.601517731643835,35.464481303311146
3600.8088,5.608374556987181,29.702177419896913
3601.6372,5.625731551741084,31.956949784874457
3602.4678,5.643546249267521,22.76388236583561
3603.2964,5.652906418609795,19.601018540284073
3604.1252,5.651619554978081,24.18798482934247
3604.9565,5.6442516154117515,35.005670662510575
3605.786,5.638112601642767,20.535712752381688
3606.6172,5.6382135267130495,24.77972143021825
3607.447,5.645225237567567,26.334270587164998
3608.2788,5.656446084512861,19.832915132485585
3609.109,5.66759318260024,29.361450645616817
3609.9392,5.674481673615758,31.705741697921084
3610.7717,5.67453988402715,22.683104926014714
3611.6023,5.668350529520951,28.939497494547037
3612.435,5.659105464694848,38.53203561672332
3613.266,5.6495543638340395,29.561549635533314
3614.0994,5.639039165434709,24.71610911310243
3614.9307,5.624847690742299,26.93883101871687
3615.7625,5.606728292802146,27.064458411561183
3616.5962,5.590510655589943,33.12418846596046
3617.4282,5.586516530625586,33.870424772698264
3618.2625,5.6030191108773835,35.061267493543106
3619.0947,5.639668952153885,24.676108529924207
3619.9292,5.685902049478836,28.736738991244717
3620.762,5.724631161033947,26.19442082123268
3621.595,5.740816164977918,24.81621453711741
3622.4302,5.727474056127892,19.659594854079874
3623.2634,5.687865563872899,26.019477127294063
3624.0989,5.632352323676734,34.20379707565632
3624.9326,5.574165249360199,30.78068569966246
3625.7686,5.524200693431899,23.656173076530553
3626.6028,5.489764618295217,29.495127967373815
3627.437,5.47362223858345,24.421552457654258
3628.2734,5.4755477243682815,24.571337414903095
3629.1082,5.493168111495145,33.205038289633784
3629.945,5.522361047310187,27.031145245951947
3630.78,5.556998050008193,27.578246563560494
3631.6174,5.590501050117794,21.213763713423976
3632.453,5.617419697901059,24.158572518925425
3633.2883,5.635771650145551,26.934413634520084
3634.1262,5.646410309141664,27.741556415647587
3634.9622,5.65137852437235,25.90809848608313
3635.8005,5.652887248540998,30.921310315943828
3636.637,5.652854494704189,31.659881181624343
3637.4756,5.652651397162711,28.160881827883344
3638.3123,5.652552650522566,37.03533732086433
3639.1492,5.6518085376782725,27.087644522301744
3639.9885,5.649779784450595,27.164629121471737
3640.826,5.647215232376765,32.858312241900535
3641.6653,5.645978113949013,23.45435735758448
3642.5032,5.64701956606425,24.838440380352882
3643.343,5.648358702313837,22.51582129407998
3644.1812,5.645574552291727,23.742644532439478
3645.0195,5.634994488825976,25.884652816819752
3645.86,5.6167612712799455,25.284424465101466
3646.699,5.595218646057297,43.50884787891124
3647.5398,5.575761197014312,31.466038712104435
3648.379,5.562050210842202,28.46007401685954
3649.2202,5.555035412773382,26.6789501727453
3650.0596,5.554759877136921,25.40206606271119
3650.8994,5.561281635193538,26.63012851212215
3651.7412,5.5734153769592965,31.999811609196826
3652.5813,5.5863880016387615,28.39541414830505
3653.4236,5.592576072073885,21.735999165669355
3654.2642,5.585587851659781,22.628764241406166
3655.1067,5.564661989583361,23.26112034339841
3655.9475,5.535088538541207,27.3906168362657
3656.7886,5.504331561091453,26.405966558102847
3657.6318,5.478364428233511,32.37460553447596
3658.4734,5.460398200477349,34.88005497478297
3659.317,5.450708133693034,29.856105755075095
3660.1587,5.447647371440554,29.626992425881056
3661.003,5.448665456055649,24.865246592449694
3661.845,5.451836170759235,33.840896261135384
3662.6875,5.45641543426497,38.72079423605904
3663.532,5.462385731111339,38.64642846900867
3664.3748,5.470119919713116,29.516870561247867
3665.2197,5.480646145960613,32.07451321804294
3666.063,5.494928214799837,26.10775343550194
3666.9084,5.512378979760029,29.235777672400562
3667.752,5.529385182503521,36.51105948115392
3668.5977,5.540811282319008,32.36648719319364
3669.4417,5.543212111437898,31.606604785183453
3670.286,5.53798526479624,31.094102048332108
3671.132,5.530346590706262,26.261505441854563
3671.9768,5.524780438290475,28.789419203850635
3672.8235,5.520948012885564,40.49675249941316
3673.6685,5.514939263631053,33.993650613211855
3674.5156,5.504388422146944,30.647498841640616
3675.3608,5.491845203980303,29.746705320618133
3676.2063,5.481957048737939,35.828598143945264
3677.0542,5.476057980122692,35.67606752967691
3677.9,5.470190165083608,30.690529123030768
3678.748,5.458853494107995,27.277832099544856
3679.5945,5.4410247164544385,34.3423646001841
3680.4429,5.422079107020561,32.091171201954644
3681.2896,5.410524619141254,32.179392764030496
3682.1365,5.411379414144307,31.2131968295798
3682.9856,5.422038189890572,22.310410654571626
3683.8328,5.432892192231027,28.291989313524898
3684.6824,5.433103258645797,26.111350587526466
3685.53,5.417341427536444,27.871351287129688
3686.38,5.389407548759472,31.856016589909654
3687.2278,5.360346799067417,35.26958248054189
3688.0762,5.341062620603779,31.85156914273311
3688.9265,5.335486741169421,30.33856679360043
3689.7751,5.338542001623171,35.32544032738595
3690.626,5.340821708886322,32.718410163728194
3691.475,5.335837454958842,44.68324900357786
3692.3264,5.323953283303691,31.8755780508543
3693.1758,5.311228667356757,28.45308446995107
3694.0254,5.305162366157611,38.55442010891006
3694.8772,5.3108491036021785,27.54890232724412
3695.7273,5.328311517892977,33.73610655401362
3696.5793,5.352249789511841,25.786169571758943
3697.43,5.374080273535727,27.37962018020255
3698.2825,5.386111706158986,28.118292189629827
3699.1333,5.384502741122596,25.487511339751343
3699.9841,5.3706167013123745,24.863076083585458
3700.8374,5.349679943242646,35.008145650725766
3701.6887,5.328037874650121,28.072040723101598
3702.5425,5.309165948995817,29.87528588402889
3703.3943,5.292502047184571,34.35020827619282
3704.2483,5.275053307798945,33.11912637675611
3705.1003,5.255484804971954,30.837693057596404
3705.9526,5.235693075086777,38.0477790164228
3706.8074,5.219502167035461,31.142355133145784
3707.66,5.209872744092348,26.37579010910019
3708.515,5.207091041099936,41.61759742084771
3709.3682,5.209775421120899,28.107010084675917
3710.2234,5.216445539364163,30.724229519754356
3711.0771,5.225946096944885,34.031369180361935
3711.9307,5.236515347101313,32.084276370158044
3712.7866,5.245223586069444,32.92820484618977
3713.6409,5.249370411351994,27.445207587849342
3714.4973,5.2491335216282735,30.25352517629407
3715.3518,5.24812874637838,29.218071703944023
3716.2085,5.250835782293902,32.7201634501932
3717.0635,5.258776545877545,37.660362367718086
3717.9185,5.2688947256790595,23.89218657885985
3718.776,5.275326871707434,32.13774085571797
3719.6313,5.272941547446591,33.32822889465889
3720.489,5.260265409659745,25.88463150908605
3721.345,5.239881596307199,33.033104988245185
3722.2031,5.216321406966906,36.59017870689423
3723.0593,5.194204873741125,44.57750901292223
3723.9158,5.177054662079476,26.361150776674066
3724.7747,5.167528061811965,41.74103033268511
3725.6316,5.166741451975997,42.39399543630741
3726.4905,5.173130906306846,31.138442407367187
3727.348,5.182982603606968,35.11403898266033
3728.2073,5.192484201109064,42.224721812738466
3729.065,5.199047970928734,28.21331704102868
3729.9229,5.201395658887073,44.24860509325437
3730.783,5.1990324567871475,32.22315914197512
3731.6414,5.192172344528369,32.35822134588384
3732.5017,5.18101361237752,33.915970939641824
3733.3604,5.164577914849133,34.6580555136442
3734.2214,5.140593443167652,37.35716078325592
3735.0803,5.108797999327805,29.343095323997854
3735.9417,5.07395655422272,31.283268647116955
3736.8013,5.045834265989547,33.75764845903526
3737.661,5.032398939844885,32.50487436437339
3738.5227,5.033631792176595,33.353822585825704
3739.3828,5.04161008457758,25.986469976079505
3740.245,5.047843453894921,36.71722820853248
3741.1055,5.050358893282238,36.33570987147362
3741.9683,5.053857054124008,37.24579396333641
3742.829,5.06329145685567,40.14674722716255
3743.69,5.077939534297774,37.75417422853209
3744.5532,5.091317565934675,28.472402651766565
3745.4148,5.0962757351931325,31.9706807010702
3746.2786,5.090668219424508,33.88414782878636
3747.1404,5.078407188964657,43.75156111755608
3748.0044,5.065881549160144,31.514129775794242
3748.8667,5.057396175624326,24.746788004826172
3749.729,5.052832898543199,29.701490503615357
3750.5938,5.049559000146766,34.51116748209173
3751.4565,5.046302089786461,31.875962716030557
3752.3215,5.045311352185292,32.43562950951513
3753.1848,5.050561972898218,39.579298066095205
3754.0503,5.06351419751547,37.181473119909754
3754.9138,5.0806613678634385,29.26795265498312
3755.7776,5.095655853860498,38.41413198023948
3756.6438,5.1032892133789565,36.920111917581636
3757.508,5.10195142490791,33.49444302844383
3758.3745,5.093287110678641,31.4898797183607
3759.239,5.080241363227654,34.67058323550597
3760.106,5.065238165016685,39.61779774720139
3760.971,5.049814420414808,39.797968586592404
3761.8362,5.034731170553142,33.41565060773366
3762.7036,5.020630448074736,32.85715983645554
3763.5693,5.008016695561628,39.95343911780028
3764.437,4.9964475827314905,34.47079628894891
3765.3032,4.984601160590889,34.095560519110904
3766.1714,4.970788500444358,46.064421239049565
3767.0378,4.9542409957732,43.5814646626093
3767.9043,4.935703816986796,33.28965059609887
3768.7732,4.917558984125532,32.01285171116473
3769.6401,4.903056380971404,42.30019441897028
3770.5095,4.8942486173095565,48.50838157155059
3771.377,4.890714344661017,31.340820434309258
3772.2466,4.889316506783194,37.88084904210903
3773.1145,4.886163488803312,44.375706398455975
3773.9824,4.879395995091372,33.523828164612404
3774.8528,4.870966977746527,44.30323540575826
3775.721,4.865753704347339,37.87539485556717
3776.5918,4.868111748127938,36.605968569604244
3777.4604,4.8791539989027015,39.843538831772875
3778.3315,4.896914570515251,38.47227181628763
3779.201,4.918173090528613,40.60039035996511
3780.0703,4.9399177336698985,39.23312125877359
3780.942,4.958900191832712,37.272512441103444
3781.8118,4.971325186985193,33.791054578764815
3782.6838,4.9744301230861385,32.6276737220974
3783.554,4.9680016747102345,34.29676475991055
3784.4265,4.95474463008597,35.22100019906014
3785.297,4.939108174079354,33.39573550436764
3786.168,4.925362049480493,32.933725447399496
3787.041,4.916258861703966,40.824862772181234
3787.912,4.911840152420657,30.97543322187191
3788.7856,4.908878790515097,35.680191232541006
3789.6572,4.902714314342852,41.24831841018208
3790.531,4.890650099844493,30.904192688800823
3791.403,4.874202723555015,46.00383297091717
3792.2754,4.857049659356263,40.23228706176511
3793.15,4.840966583663391,36.382464263369165
3794.0225,4.824060970591611,41.75867978650918
3794.8972,4.802738398594236,39.549313548292886
3795.7703,4.775838667620012,39.96112141126565
3796.6455,4.7460051388723405,39.41159084246825
3797.519,4.718995341389665,38.21134097476832
3798.3926,4.7006452304997,41.84919370882036
3799.2686,4.694833171539185,40.08429253058135
3800.1426,4.702495021114165,50.42731214462279
3801.0188,4.722116975994137,39.75476667628216
3801.8933,4.750762064779973,42.92696576109498
3802.77,4.784905069781487,38.17279220110388
3803.6448,4.819870156814171,34.793508483931184
3804.522,4.850854549787094,35.13088996867884
3805.3972,4.873666534316093,34.794480811425785
3806.2727,4.886825324388551,42.15982809201081
3807.1504,4.891939057396515,29.190276379250207
3808.0261,4.893251048174297,36.71469727684037
3808.9043,4.895929138284114,39.09059578781635
3809.7805,4.9034875080045355,32.99965486693037
3810.659,4.916090218612543,36.7256334822031
3811.5356,4.930692348963451,40.112427190136636
3812.4126,4.943334851037592,32.7967494268149
3813.2917,4.9512906460749955,43.083900494838176
3814.169,4.9538777626360675,38.25261152243598
3815.0483,4.9518994743317,38.22251544267389
3815.926,4.946453023152605,33.72496464352288
3816.806,4.938265958274857,38.23573154036523
3817.684,4.9277523731391515,47.18463917615182
3818.5623,4.91512456423483,29.695285202558964
3819.4429,4.900608810538624,43.67123386500628
3820.3215,4.884604274532742,34.88888800648623
3821.2024,4.867250343335578,35.053538085911576
3822.0815,4.848731844134357,34.92005083941484
3822.963,4.829444198650181,40.846467726280146
3823.8423,4.810671828614745,39.18218803934226
3824.722,4.793483201250034,43.91341990558885
3825.604,4.777036341837742,36.909284303228354
3826.4841,4.757405280011239,44.70197025261278
3827.3665,4.728284256124382,35.412496552809976
3828.2468,4.6848011991399074,35.93984197914415
3829.1296,4.6264437781248935,44.39759857755055
3830.0105,4.558688625529184,43.83829096294336
3830.8916,4.489130432566038,50.77501187404684
3831.7751,4.423783284664848,44.45276630206454
3832.6565,4.365801742798793,39.274811014672096
3833.5403,4.315707356604501,52.42865084734007
3834.4224,4.274954273439648,58.75206493519103
3835.3064,4.245938056850775,43.427706920213225
3836.1887,4.231655881287159,38.77955829763087
3837.0713,4.233193032406279,49.36176215428188
3837.956,4.248725754087381,47.20769009475457
3838.839,4.274213022749343,42.19037644407926
3839.7244,4.306525100112495,51.07901314217923
3840.6077,4.345084731135281,51.210732050531206
3841.4932,4.391524492277903,55.594149370421434
3842.377,4.446010115028668,49.07185609057407
3843.261,4.506009868868525,41.19477740302398
3844.1472,4.56675094114107,33.330146039404184
3845.0315,4.622942510375806,40.51147264880046
3845.9182,4.671470239032076,37.27355346326268
3846.803,4.711062603316682,42.851298573283906
3847.69,4.743739494043192,37.171873181659905
3848.5752,4.774306031847627,33.83505715390819
3849.4604,4.809472847838368,41.4328215513335
3850.3481,4.854015747494086,33.49297385580818
3851.234,4.906590037042557,36.49340540080092
3852.122,4.960098811817288,31.61492822791314
3853.0083,5.004617213026878,33.681428552784844
3853.8967,5.033937285532906,31.088900894843956
3854.7832,5.048109472607076,32.775584587315066
3855.6702,5.0529659989283795,34.616154182624484
3856.559,5.055670667102494,32.26272982533155
3857.4463,5.060865517549813,31.591210655962783
3858.336,5.069622756913343,34.67184985329701
3859.2234,5.080870167558152,33.44513644873597
3860.1135,5.0934323895888305,32.75675891711533
3861.0015,5.106180258760193,31.05876266035857
3861.8896,5.117456646805676,31.4491122506897
3862.7803,5.124476351484385,33.39669555998699
3863.6687,5.124045314714452,35.846740870720396
3864.5598,5.1140794981582385,31.845141233896975
3865.4487,5.094568197274934,33.78389687415425
3866.34,5.067065099021542,44.31470817968684
3867.2297,5.033865314565601,28.813251527001395
3868.1213,4.996482333739921,36.32871651513157
3869.0112,4.956066466109849,31.35099377444932
3869.9014,4.913446634491934,37.153085379400494
3870.7937,4.869736452965345,32.5452327445464
3871.684,4.826470884435628,39.28886168492994
3872.577,4.784377826502586,37.499471822012154
3873.4678,4.743714450462894,39.15567782628681
3874.361,4.703224324395106,38.727059651575104
3875.2524,4.6612261475589,36.40035172876419
3876.1438,4.615524787485607,52.627250335265266
3877.0376,4.564027452136448,42.2325739994554
3877.9297,4.505243849404774,40.35660891465023
3878.8237,4.437736219332693,46.497691490315326
3879.716,4.36210638215058,33.15732568589381
3880.6108,4.280809824471982,43.96508393533706
3881.5037,4.199080443795869,48.35550720377088
3882.3965,4.121394561611514,51.571751412689515
3883.2917,4.049422876427674,71.81154049746293
3884.185,3.981441327636969,55.26685931602475
3885.0808,3.9121638954884985,58.33841997084708
3885.9746,3.8368351495932083,69.7133883705368
3886.8706,3.752843645934442,69.02844422630757
3887.765,3.663284416236839,73.87635756723941
3888.6592,3.5763486835934106,61.67005492712305
3889.556,3.5044216777169144,82.41779461145785
3890.4507,3.4609223560043922,81.55150967033364
3891.348,3.45414184167859,78.62324036110017
3892.243,3.4845866745404352,78.25990366863859
3893.1406,3.5456535197307626,84.81386932678268
3894.0361,3.627093378278336,77.1613029826319
3894.932,3.71994596208253,86.34340687529479
3895.83,3.817683301612781,58.695245877258785
3896.7263,3.9150152562726457,63.45000286227715
3897.625,4.009057271416884,56.61501115490038
3898.5215,4.0974721883353515,47.56620698473834
3899.4207,4.180426756720981,47.8562360084491
3900.3176,4.258149167665236,68.30317868457239
3901.2148,4.331705548833351,46.4675749187316
3902.1145,4.401905571186912,40.86701390773511
3903.0122,4.469046116076242,43.72178265998493
3903.912,4.533995674429408,43.665677122870164
3904.8103,4.596285918859066,44.827986119452866
3905.7107,4.654968075024009,41.24207159786426
3906.6094,4.708532589116448,34.102586113815484
3907.508,4.757419582121748,33.03900239528422
3908.409,4.804186809161444,40.870171246256156
3909.308,4.851934789183783,36.593415904326285
3910.2097,4.902923087554035,37.58755014131989
3911.1091,4.956235918319106,32.82677989542425
3912.011,5.008961125053649,38.71913654944234
3912.9111,5.056761821600211,33.23997520706433
3913.8113,5.096903049598286,33.19423007015795
3914.7136,5.129217348068991,34.83095616044542
3915.6143,5.155549221742505,32.48801426362664
3916.517,5.1785497127624165,30.691118132639687
3917.4182,5.199637881682784,31.765137387771002
3918.3215,5.218997048442886,35.00555780965303
3919.223,5.235853718611177,34.33550947491514
3920.1245,5.249834947641495,33.49769281174568
3921.0286,5.261568624077582,32.18089383841818
3921.9307,5.2726608975676434,33.333919389400336
3922.835,5.285156343818987,31.137504264374176
3923.7373,5.300292454483867,35.131771941830266
3924.642,5.3180916607283715,28.800761070849465
3925.5452,5.337007732623219,33.581140500735785
3926.448,5.354637834258554,27.5875567047515
3927.3535,5.368577557663152,27.447468743139606
3928.257,5.377453489409377,32.24228037721389
3929.1628,5.381584877745479,27.965784732112244
3930.0667,5.381653148115442,33.79808875449645
3930.9731,5.376844678591971,27.951167910035593
3931.8774,5.3643859205928965,30.67519028774984
3932.782,5.34176014253988,27.83137646938691
3933.6887,5.31006690270108,27.731056883758107
3934.5938,5.275389407730903,34.92405242175982
3935.501,5.245250433095803,40.74020593767048
3936.4062,5.2241302155518,33.26267047836781
3937.3142,5.210248902742061,31.527554648102537
3938.22,5.197735328836548,34.309542038695064
3939.128,5.180576414063977,29.549996272290787
3940.0342,5.156137621059518,35.18610927038664
