wavl,flux,ivar
3566.9744,18.400064920759895,3.4804092886642284
3567.795,18.350990745460116,3.586890398476821
3568.6177,18.27628697380526,3.6280611956819193
3569.4385,18.191871103248996,3.330027714920778
3570.2617,18.10962500465425,3.7609555073350704
3571.083,18.037322789929238,3.498990581532556
3571.9065,17.978456233935034,3.6546190561153127
3572.7283,17.9366745519963,3.6734595549431055
3573.55,17.915735647374188,4.2241709071591735
3574.374,17.917117834559644,4.221555336438479
3575.1963,17.9356216982244,3.779577221696302
3576.0208,17.959502462494015,4.1054817359781985
3576.8435,17.975973267633957,3.8414748514524657
3577.6682,17.977569303020502,3.212139923677113
3578.4915,17.962406986476278,3.257891147318149
3579.3145,17.930311493925487,4.405859150615155
3580.14,17.880870884800107,3.5168905379582234
3580.9636,17.818324323550325,3.5458024330433426
3581.7893,17.756172290149046,3.7473344378071998
3582.6133,17.716624871403337,3.6280554894839367
3583.4395,17.719154433442764,3.7731129160428925
3584.264,17.768818876461822,3.9383426561377526
3585.0884,17.85192760266148,4.0908849935555835
3585.915,17.94310049918072,3.7014992098211543
3586.74,18.016051604210038,3.4866437049787273
3587.5671,18.053900645203537,3.742205918183461
3588.3923,18.050708728294754,3.3312205739854717
3589.22,18.010479312927078,4.086174952911653
3590.0457,17.944075121631766,3.4104912414843698
3590.8716,17.865302942081865,3.7658207090530564
3591.6995,17.78774038823539,3.9176549488742083
3592.526,17.722069925321442,3.7778932150636426
3593.3542,17.672098781490103,3.959303487457001
3594.181,17.634409017341273,3.8881485761454484
3595.0098,17.599364762665086,4.141045032606939
3595.8367,17.55739157769356,3.976295067721789
3596.6638,17.50462224866053,3.8341540619022165
3597.4934,17.44601908624677,4.318498031663662
3598.3208,17.393080071712895,3.8610296876641805
3599.1506,17.355100230134124,4.089044642162233
3599.9788,17.332869597523406,4.349106198052885
3600.8088,17.317230033647782,4.272348873122094
3601.6372,17.297444105321148,3.814968569688295
3602.4678,17.27057170084427,4.48189057673621
3603.2964,17.244382210447334,4.233275470207798
3604.1252,17.23034985542917,3.8013024393709522
3604.9565,17.235454575768244,4.194530450290592
3605.786,17.2587862162212,4.075108006929416
3606.6172,17.294387894004917,4.053529932099862
3607.447,17.334846709586834,3.8455162448148505
3608.2788,17.373013985427583,3.9343353170652993
3609.109,17.40029813752725,4.472780146372558
3609.9392,17.40743161586473,4.613711866834201
3610.7717,17.38771085498245,3.78135341322063
3611.6023,17.342035473712162,3.4560304398915975
3612.435,17.279019768026718,4.350706186972697
3613.266,17.210599883518896,4.5784181519454
3614.0994,17.14419753478855,3.9206197465689514
3614.9307,17.081541950351465,3.9364651364563494
3615.7625,17.020794674439514,3.5509208351849124
3616.5962,16.96174309744133,4.160831035399556
3617.4282,16.907208983623754,4.13782370944015
3618.2625,16.859864998707135,4.577680392963441
3619.0947,16.820922111394232,4.2560776274815995
3619.9292,16.789293088325522,4.059940883878251
3620.762,16.764068905868676,4.324473358937272
3621.595,16.74499130345643,4.108054464255775
3622.4302,16.731507603768204,4.707989100236187
3623.2634,16.71990409162589,4.569262240579072
3624.0989,16.701800784957697,4.2592851527524145
3624.9326,16.668191925492533,4.231199893347446
3625.7686,16.616531795848783,4.482955389594167
3626.6028,16.55587580944463,4.494305420019449
3627.437,16.50156979161105,4.339688900434782
3628.2734,16.46438454527703,4.084023966606677
3629.1082,16.442350109274045,4.723884660376203
3629.945,16.421476802515535,4.04259937939396
3630.78,16.385580834712027,3.644688047134039
3631.6174,16.325729745057302,4.369666448587388
3632.453,16.245969267032475,4.313652919250394
3633.2883,16.159940845397923,4.549846609984292
3634.1262,16.082813518849594,4.724621887731779
3634.9622,16.022573425279752,4.690379367351711
3635.8005,15.974833505573823,4.684255927550553
3636.637,15.929254492237906,5.726593276224883
3637.4756,15.878156662980219,5.000820623187245
3638.3123,15.823254897869372,4.219774255255559
3639.1492,15.771941208584318,5.34979685461298
3639.9885,15.729900682615822,5.49551166420787
3640.826,15.696347103043982,4.835322366993027
3641.6653,15.665376562033934,5.014752346342001
3642.5032,15.632778828810038,4.662859546663129
3643.343,15.598606798318135,5.149632434678554
3644.1812,15.564791605753626,5.48531061209241
3645.0195,15.529690565004497,4.710610733172025
3645.86,15.487462017218494,5.056397253217746
3646.699,15.433207646048045,5.161090868710817
3647.5398,15.368659042901227,5.011707675381509
3648.379,15.30536407365467,5.02629726474255
3649.2202,15.258670334032836,5.758456622240404
3650.0596,15.238814986072251,5.746681142075912
3650.8994,15.24237072478778,5.3116537354426505
3651.7412,15.253906382447065,4.730495768259498
3652.5813,15.255351186959029,5.258480319100515
3653.4236,15.23715081236904,5.583932050023833
3654.2642,15.202974653523757,4.892690212175192
3655.1067,15.165196053626172,4.839928898153142
3655.9475,15.136043281974297,5.435940231001465
3656.7886,15.1195345150525,5.431164003988524
3657.6318,15.11107576547593,5.299997068787177
3658.4734,15.10276545128312,4.806567901227297
3659.317,15.08967892999828,5.221560713440569
3660.1587,15.072776122734759,5.602377911601991
3661.003,15.056539557400942,5.4211010396936805
3661.845,15.044730929192204,6.076589358661167
3662.6875,15.037174719661742,5.074889941949068
3663.532,15.030954942854018,4.57138387806604
3664.3748,15.023527294166609,5.228766494242537
3665.2197,15.014138271742002,5.67487259143295
3666.063,15.003050680836678,5.009164672291361
3666.9084,14.990490373998126,6.425135763861687
3667.752,14.977435676310142,5.2927073539812755
3668.5977,14.96612839795359,5.288444538777672
3669.4417,14.959880720771801,5.1425395096173565
3670.286,14.961517906981273,5.361212578940219
3671.132,14.971815089996209,4.856331332852015
3671.9768,14.987770606165716,5.285211363929022
3672.8235,15.002450463842425,5.549797631819846
3673.6685,15.007246947815451,5.216592881922329
3674.5156,14.996847755213828,5.567968503469243
3675.3608,14.972697094742395,5.437474206704209
3676.2063,14.94099236012113,5.9927230145453505
3677.0542,14.906269856089157,5.32047403915941
3677.9,14.867203158603614,5.548380367644741
3678.748,14.818292785578507,5.474477670540292
3679.5945,14.757777892987026,6.007037695576267
3680.4429,14.690968237350939,6.130839241733099
3681.2896,14.628562355442119,5.73004556139505
3682.1365,14.57909346866085,5.984230924113477
3682.9856,14.545475746375274,5.496003685386903
3683.8328,14.526501314613364,5.923555912988483
3684.6824,14.520200170207827,5.509025844831172
3685.53,14.525885721924361,5.608914012938951
3686.38,14.542415764312723,5.549328209377823
3687.2278,14.566341141057801,5.139548406920737
3688.0762,14.592874338318024,5.141002045186277
3688.9265,14.617926278266374,6.189594939584401
3689.7751,14.638810730349427,5.483157447575117
3690.626,14.653572614819515,5.038232429806783
3691.475,14.659635775802448,5.230951320743053
3692.3264,14.654559978188189,5.465608135387018
3693.1758,14.637486775994223,5.231378191874582
3694.0254,14.609996757092564,5.367065308156474
3694.8772,14.575101148052886,6.1237750855127535
3695.7273,14.535502253997224,6.106976547157627
3696.5793,14.492385713831792,5.738113089642796
3697.43,14.448305290152415,5.062279941411128
3698.2825,14.40883793497749,5.894043217414628
3699.1333,14.381331297481942,6.138195555036265
3699.9841,14.368390501689435,6.213926662051347
3700.8374,14.364139593921267,5.626679059423176
3701.6887,14.356682009675383,5.42076069794061
3702.5425,14.33558197694038,5.7369630857711025
3703.3943,14.298509985544953,5.98971716923216
3704.2483,14.25098559246179,6.012302270459908
3705.1003,14.201536585135692,5.347464951699944
3705.9526,14.15491763794509,5.8392712699208404
3706.8074,14.110855538648694,6.44057120232801
3707.66,14.067437909607001,5.924308638967062
3708.515,14.024120680902998,6.109423562995301
3709.3682,13.983720381995292,7.213348118054515
3710.2234,13.949803274565927,5.9599983832445576
3711.0771,13.924735571366142,5.800603002903323
3711.9307,13.907152018592557,5.95870468881369
3712.7866,13.891479919376916,7.084722225740882
3713.6409,13.86987288174074,6.217576722774561
3714.4973,13.83668814010183,5.910701727452392
3715.3518,13.793802451052498,6.647187310835345
3716.2085,13.750082435640191,6.973954287253671
3717.0635,13.716489916334789,6.573702722939528
3717.9185,13.69902337504714,6.760717292304866
3718.776,13.697428964428212,6.224822011936206
3719.6313,13.707725118391327,6.290032019837098
3720.489,13.724885175149605,6.734612125767841
3721.345,13.743154049620202,6.4182552774216415
3722.2031,13.756207216706503,5.8036566593218355
3723.0593,13.758156696011103,6.420285216783705
3723.9158,13.745783415207196,6.297886666161932
3724.7747,13.719463545986478,6.423115858888259
3725.6316,13.683447111111677,6.365875124009301
3726.4905,13.644229912760787,6.327270369552006
3727.348,13.608691891782657,6.449105898469815
3728.2073,13.580121287128085,6.431959503087066
3729.065,13.556655012278963,6.838525222384805
3729.9229,13.532488433265105,5.887210621793392
3730.783,13.502657503617147,6.489748696694863
3731.6414,13.466766832206826,6.940572850536195
3732.5017,13.428147721259881,7.055681630018585
3733.3604,13.391691588718544,6.786430957432107
3734.2214,13.361097422058931,6.032795957214682
3735.0803,13.338424500717192,6.640920138566217
3735.9417,13.322265965765977,6.887108000418248
3736.8013,13.307970348601714,6.705551484744842
3737.661,13.290162178353967,7.025437495327157
3738.5227,13.267622653359822,7.086850705405704
3739.3828,13.245701793336417,7.4432214051039125
3740.245,13.233088381698478,7.636415054643644
3741.1055,13.236375352746547,6.644430657700278
3741.9683,13.255424570678013,6.044946796821084
3742.829,13.282372674101067,7.282751683618402
3743.69,13.304891231713802,6.273781454475101
3744.5532,13.311919943502666,6.453805285348655
3745.4148,13.29925064199443,7.501086203319576
3746.2786,13.270917136712562,6.87328480107969
3747.1404,13.235628044618121,6.2749718552144
3748.0044,13.201312881467969,6.805695565000066
3748.8667,13.17347736609261,6.235371960607229
3749.729,13.155054695656876,7.278947996132682
3750.5938,13.146937299148481,7.03891560000312
3751.4565,13.146981017677335,7.117388361598113
3752.3215,13.149390142159497,6.466786755051437
3753.1848,13.146533744039907,6.892981858418288
3754.0503,13.132432158334698,7.021275115634758
3754.9138,13.106023210856595,6.787732083290562
3755.7776,13.071766760295546,8.059570877635442
3756.6438,13.037494495244943,8.204402796067821
3757.508,13.010584510201546,7.4056285618788
3758.3745,12.993589892088313,7.082724612346974
3759.239,12.983552356696082,6.8960151316716205
3760.106,12.973596319776414,7.210319066044886
3760.971,12.956939316499337,6.628819404331171
3761.8362,12.930378390341735,7.0967966891887855
3762.7036,12.896288737433972,6.728591985469067
3763.5693,12.862039775756125,6.808280716737072
3764.437,12.835616974992252,7.258745582611767
3765.3032,12.821533533539306,7.042598935058925
3766.1714,12.818257852096124,6.592043365322052
3767.0378,12.81967524565092,7.184059696028576
3767.9043,12.81788598593933,7.384988195968987
3768.7732,12.805852951518371,7.411891246218562
3769.6401,12.779708963911448,7.795768748568788
3770.5095,12.740068486981324,7.121565406216398
3771.377,12.692514693030086,7.651605524111283
3772.2466,12.644637549282132,6.816711358906442
3773.1145,12.60370923417146,6.76449741806165
3773.9824,12.573725996875472,7.846671957260214
3774.8528,12.555067518750134,7.871616127633835
3775.721,12.545087947771494,6.716882665931209
3776.5918,12.53956135451293,6.980586937962147
3777.4604,12.53542436117558,8.306531715168735
3778.3315,12.53196232283459,7.923432986603933
3779.201,12.529891179319895,8.24099693205768
3780.0703,12.529317789489244,7.868571367927004
3780.942,12.529272372760783,7.784025074660795
3781.8118,12.528959106787042,7.765556064336571
3782.6838,12.528831457034427,7.3337361308270745
3783.554,12.529931120175675,7.397547455573728
3784.4265,12.532094596523848,7.73608246810512
3785.297,12.532960246348031,7.796550963339425
3786.168,12.529110568367289,7.97883505776981
3787.041,12.518246222095549,7.545570270834853
3787.912,12.500345523553184,7.848491166856216
3788.7856,12.476408714220895,8.036292077529069
3789.6572,12.447588485722134,7.477868413118286
3790.531,12.415075111184375,7.46848396184552
3791.403,12.381301683105281,8.677146926792632
3792.2754,12.348361602183868,8.446508481583061
3793.15,12.316225233201473,8.130554819823763
3794.0225,12.282842221156391,7.395205768103718
3794.8972,12.245785170679795,8.332041479770211
3795.7703,12.204896075343653,7.8649154931893035
3796.6455,12.16174379556012,8.607560403241596
3797.519,12.119511992338623,7.709361843102714
3798.3926,12.081838681300002,8.101884074478127
3799.2686,12.052669986402812,10.066739614851345
3800.1426,12.035252758350781,8.340969426167064
3801.0188,12.029962357201569,8.724064287399056
3801.8933,12.03394926341338,7.954602315165063
3802.77,12.042409157143322,8.820554176739211
3803.6448,12.051260463244509,8.187493398765385
3804.522,12.058986689751428,8.449471516206973
3805.3972,12.065765167366802,8.49587463930097
3806.2727,12.071557226698602,8.59341819213471
3807.1504,12.075041728188173,7.895765402640431
3808.0261,12.07452826179702,8.51562954063447
3808.9043,12.069294596454322,7.577622706541527
3809.7805,12.059534871262953,8.028938541143093
3810.659,12.045181141781555,8.342565986839595
3811.5356,12.025986865177247,8.435411920580357
3812.4126,12.002928196171382,8.124436590657819
3813.2917,11.979604708336447,8.252760407551605
3814.169,11.96123550696229,8.167795489130429
3815.0483,11.951170181885217,8.705215447824635
3815.926,11.948936344936111,8.01420125206958
3816.806,11.95028866929683,7.547972931682549
3817.684,11.949278602449214,8.257405785139678
3818.5623,11.940597062365256,7.695110109045142
3819.4429,11.921481816891228,8.40366557909537
3820.3215,11.89297431687002,7.378405400870204
3821.2024,11.858948601185796,8.697735973510406
3822.0815,11.82452950836341,8.970021191865598
3822.963,11.79323314651338,8.66955946326996
3823.8423,11.766088907001,9.313366025007173
3824.722,11.740773111845689,8.55346303642313
3825.604,11.712745499088122,8.866182264825621
3826.4841,11.677752974623576,9.000847250873024
3827.3665,11.634214475361947,8.902704438317942
3828.2468,11.585349411002376,8.728681367372308
3829.1296,11.537032352782159,9.79604925645687
3830.0105,11.495592296068263,8.338412725923211
3830.8916,11.46449071608731,8.736459855710118
3831.7751,11.444096674987806,9.925147028799621
3832.6565,11.432255788910961,8.821709536696847
3833.5403,11.42491132363991,8.467287699949985
3834.4224,11.417648114399812,9.54543896203702
3835.3064,11.407112963803595,9.057775092673321
3836.1887,11.392631256956875,9.753655301484436
3837.0713,11.376356977377785,8.591488631011046
3837.956,11.361882713845478,9.195299072425144
3838.839,11.351981275742233,9.06648141620473
3839.7244,11.346962363365773,9.491995136353967
3840.6077,11.34535293495273,9.758414417074537
3841.4932,11.345357544735506,10.337426455397818
3842.377,11.345757674611756,8.661441876290006
3843.261,11.345418975700712,9.66476370983005
3844.1472,11.342678279989805,8.620310032783582
3845.0315,11.336099513605488,9.23315341351318
3845.9182,11.325941370103665,8.51727114045432
3846.803,11.314479723220964,10.729498602819064
3847.69,11.304049348286108,8.606252919040768
3848.5752,11.29557965775482,9.665037790877268
3849.4604,11.288767753697531,9.641701024936621
3850.3481,11.28338868836866,9.653818470180916
3851.234,11.279317792089065,9.544543054836584
3852.122,11.27539736422606,10.107498429309485
3853.0083,11.269559472448497,8.760838309121159
3853.8967,11.260441533023846,9.221756247815884
3854.7832,11.248967846490675,10.35831005932779
3855.6702,11.237664850060858,10.076315504353119
3856.559,11.228807874341534,9.817285687911223
3857.4463,11.22292110695334,8.94497663653127
3858.336,11.218392109856048,9.950086544053192
3859.2234,11.212303939105675,9.28505784841096
3860.1135,11.201528702260525,9.35033586827819
3861.0015,11.18430374167927,9.384443512361884
3861.8896,11.161131374673502,9.31354619947921
3862.7803,11.13477817960934,9.7794494242091
3863.6687,11.1090183806186,9.116957414089974
3864.5598,11.085973169146458,10.551830260275185
3865.4487,11.065484532692444,10.057919620592424
3866.34,11.0453937021909,8.998483604493693
3867.2297,11.023836358994185,9.607236451333296
3868.1213,11.000144838152027,9.76152342934425
3869.0112,10.975330203753122,10.35778388980467
3869.9014,10.951222876507705,10.165849592767698
3870.7937,10.929947361661293,11.120714413779098
3871.684,10.913082459601215,9.5930341595045
3872.577,10.900153764617814,10.632083309693748
3873.4678,10.888454465584598,9.84640892759044
3874.361,10.873791428385351,9.78766758940858
3875.2524,10.852996311251726,10.013517267359896
3876.1438,10.825463991859486,10.453750280947252
3877.0376,10.79295301303314,10.036258663500714
3877.9297,10.757875149773797,10.412138587298724
3878.8237,10.72078443448331,10.155126568697447
3879.716,10.680863044148182,10.460258734550376
3880.6108,10.637098107127407,9.996509124154995
3881.5037,10.590893566539904,9.335226093671924
3882.3965,10.545342473358687,10.504754396860651
3883.2917,10.503597544734435,10.805962061964792
3884.185,10.467165411159742,10.498754532256198
3885.0808,10.434611027073299,11.365728019407443
3885.9746,10.403197988896135,10.192449458556979
3886.8706,10.369763460035042,11.962187670996862
3887.765,10.332760361334794,11.836157162606382
3888.6592,10.292578751370794,10.940393516337982
3889.556,10.251444709089645,11.133260619393697
3890.4507,10.212630012417169,11.23268463447018
3891.348,10.178793368674054,11.012310113987056
3892.243,10.152865340971829,11.557427929356297
3893.1406,10.138007530647196,11.836754036255625
3894.0361,10.13769007399042,12.289066455314181
3894.932,10.153526265386008,11.311620386219015
3895.83,10.183848722519246,11.67039831304971
3896.7263,10.22341248470708,10.754558198537778
3897.625,10.266019804848517,11.116552116209103
3898.5215,10.306277412913518,11.93924394712796
3899.4207,10.341761966342968,10.783873808973324
3900.3176,10.372092655583423,13.374272678110927
3901.2148,10.398738404993262,10.704431093371058
3902.1145,10.423694048484558,10.977647682203278
3903.0122,10.448736803465803,11.154457812563207
3903.912,10.475883777563794,12.19092471036369
3904.8103,10.507221112427107,11.361084660148114
3905.7107,10.544843448162055,10.893887790809236
3906.6094,10.588249411703943,11.48033752146789
3907.508,10.633048798152005,10.945380219766344
3908.409,10.672107228123336,11.455936512180804
3909.308,10.699870790307465,10.920179214482715
3910.2097,10.716498163058233,10.915593145064332
3911.1091,10.725876743285326,10.999483535653852
3912.011,10.731320521527666,9.962468137328113
3912.9111,10.732949720751883,10.356251709041826
3913.8113,10.729487404021521,11.386213908705706
3914.7136,10.720591551262672,9.896040379636569
3915.6143,10.70721015842824,9.525107401522892
3916.517,10.6903387687554,11.100567519826713
3917.4182,10.670889373541154,10.061532395276902
3918.3215,10.650066422061428,10.777501235247463
3919.223,10.63024998579288,9.908272361006125
3920.1245,10.614252593881238,10.304941588126672
3921.0286,10.604133594346628,10.944960230647093
3921.9307,10.599866064349989,10.232840394756467
3922.835,10.599203512176246,10.985695723455281
3923.7373,10.599552532737247,11.979658770211813
3924.642,10.599973155362395,10.518324531826872
3925.5452,10.601535131929836,10.415176221586783
3926.448,10.605709610998726,9.90100712105282
3927.3535,10.612351104838162,10.693999568016695
3928.257,10.618770872683465,12.035379964766237
3929.1628,10.620749156175929,10.65250617950409
3930.0667,10.614538003580916,11.051087570381005
3930.9731,10.598721560715358,11.60404898991187
3931.8774,10.574718527000535,11.00051360590147
3932.782,10.545220900298006,10.305401668133367
3933.6887,10.51257951458496,10.646691230684995
3934.5938,10.478353997460042,11.16112323715236
3935.501,10.443307690816136,11.065070114149542
