wavl,flux,ivar
3566.9744,13.510777368111947,4.546314997929306
3567.795,13.481478687344913,5.810791158001225
3568.6177,13.443603296503476,5.782226967033815
3569.4385,13.400982946822895,4.841415078808632
3570.2617,13.35579887305419,5.38926966465691
3571.083,13.312822898979096,5.1708842020217345
3571.9065,13.279144387927962,5.889777660660176
3572.7283,13.261156904553754,7.502719954405722
3573.55,13.258447907273942,5.0306840333775416
3574.374,13.261810558764724,4.874396719597528
3575.1963,13.256869862575002,5.423385155684643
3576.0208,13.23257311918889,4.81277297455911
3576.8435,13.189000625422073,6.45630213458457
3577.6682,13.137263516971055,5.444973549124455
3578.4915,13.092052924182816,5.4597462983621785
3579.3145,13.060996575791222,6.012209153537498
3580.14,13.041897333441913,6.633310627858441
3580.9636,13.028565353236775,5.6929380253472806
3581.7893,13.01854473624381,5.948724375729588
3582.6133,13.016213430273364,5.555611268520036
3583.4395,13.02879280591035,6.686484512830857
3584.264,13.06008300710726,5.292930704765085
3585.0884,13.10638258132967,5.088261850960504
3585.915,13.15586558311882,5.505737836514464
3586.74,13.190823371605882,5.042279772126299
3587.5671,13.194481266457593,5.422864288274395
3588.3923,13.158172175097572,5.425315770524065
3589.22,13.086306896353125,5.825829416051529
3590.0457,12.99573133064734,4.731100384715278
3590.8716,12.906989589716076,7.985906182070041
3591.6995,12.835681016350529,6.069236270865612
3592.526,12.787503259028355,5.216602985817143
3593.3542,12.758312865115341,5.558182792191286
3594.181,12.740285661328036,5.610477159178078
3595.0098,12.726832570986044,6.436305894562102
3595.8367,12.715736658272188,5.852112600205637
3596.6638,12.708548700268661,4.9352726748343985
3597.4934,12.708543083283676,5.498973676518615
3598.3208,12.717627069675494,6.3390600827848775
3599.1506,12.732841809592562,5.181018259021538
3599.9788,12.743469016098425,5.235162863388748
3600.8088,12.733319265078197,4.691093318462149
3601.6372,12.690901955559191,4.907627740939125
3602.4678,12.622515857122782,5.28947089697184
3603.2964,12.556498488777558,6.2638236443869
3604.1252,12.52775200440829,6.117590368568521
3604.9565,12.555469383397677,5.344343719210322
3605.786,12.629995218806927,6.440720509968627
3606.6172,12.721621442458849,5.345611031885115
3607.447,12.799542859767836,5.1800471184123955
3608.2788,12.847576724694743,6.764521513703022
3609.109,12.863545916276008,7.0098154749854675
3609.9392,12.852285245499308,5.885187638542595
3610.7717,12.819534761496366,4.806569252423484
3611.6023,12.77291880316419,6.769502003196284
3612.435,12.722455321577307,5.705542501888521
3613.266,12.678050512162342,5.922422668586755
3614.0994,12.642949585871204,5.294823104338027
3614.9307,12.61260036348349,5.424264201471889
3615.7625,12.578418878865389,6.590558105392499
3616.5962,12.535570672730486,5.07210204005951
3617.4282,12.488220173595854,6.209706364582322
3618.2625,12.447599035703883,6.274460118794096
3619.0947,12.425834032775601,6.020692645850675
3619.9292,12.427380083303508,6.496640784082341
3620.762,12.446040528110931,6.356738870157649
3621.595,12.46807530606438,7.112892804952849
3622.4302,12.479488379853196,5.228526482804431
3623.2634,12.472152009487896,5.874252217728594
3624.0989,12.445352824597316,6.860341885254695
3624.9326,12.403253414478757,5.962283408339123
3625.7686,12.35148922271686,5.930183282321394
3626.6028,12.296948034997813,5.669259703900672
3627.437,12.24660530587248,5.6603533611418895
3628.2734,12.20638874697015,6.036041996752262
3629.1082,12.179965892766782,5.800010447015034
3629.945,12.168253309119379,6.586409433127569
3630.78,12.17092551815151,7.934822107209571
3631.6174,12.186629651792826,6.317997303178575
3632.453,12.213179979472006,6.185030869086579
3633.2883,12.248823950229331,5.8527311342122434
3634.1262,12.293107164873605,6.4095805146051275
3634.9622,12.345149043722458,7.290074593182085
3635.8005,12.401795300788278,6.025860379448919
3636.637,12.455341051974145,5.259188018698329
3637.4756,12.49664060392618,5.750563147640489
3638.3123,12.517966658449353,5.384619582961473
3639.1492,12.5167517541138,5.7340523785595146
3639.9885,12.495772965328877,5.623903532235092
3640.826,12.461920290669898,5.090347499051679
3641.6653,12.422114116845101,6.247670181128114
3642.5032,12.379860680609049,6.271475335037681
3643.343,12.333728013311175,5.785108161255311
3644.1812,12.282070302876438,5.03795789743794
3645.0195,12.227951433415758,5.0145511638850655
3645.86,12.18059216581842,5.535523486476118
3646.699,12.150475030900957,6.3190381991811
3647.5398,12.141760824899249,6.268126925802758
3648.379,12.150169803361198,5.934759432448351
3649.2202,12.165584503193767,6.246300123567719
3650.0596,12.177210069866367,6.049635333134271
3650.8994,12.178337682698219,6.216893051587438
3651.7412,12.168261331455495,7.345094290169514
3652.5813,12.1514807561335,6.15652994984795
3653.4236,12.134052641561068,7.031902949947806
3654.2642,12.119913864705799,5.3938164687651255
3655.1067,12.108537516518538,6.704366510274202
3655.9475,12.096176457585536,5.69241400401978
3656.7886,12.078700516714443,6.712968227077424
3657.6318,12.054278317868397,6.365253705239623
3658.4734,12.024350118861042,5.741788868143091
3659.317,11.992545988077579,6.894163853133672
3660.1587,11.964057777597505,6.408417714805511
3661.003,11.943574028889994,6.3068102022963775
3661.845,11.933437313669126,6.030794619683138
3662.6875,11.931114364773874,7.01972567811309
3663.532,11.929879109881178,5.9419434391756525
3664.3748,11.922712487126676,5.736248477637881
3665.2197,11.907202975021987,6.649599615279624
3666.063,11.88717720941149,7.032172487420307
3666.9084,11.869010069038547,6.826954930093888
3667.752,11.8568323256672,6.187296878192675
3668.5977,11.849747519419692,6.073070505139056
3669.4417,11.843431734366053,6.671460358022797
3670.286,11.833280142598174,6.361680237861312
3671.132,11.817274004566064,6.661998668340092
3671.9768,11.797098995764829,7.284801271698046
3672.8235,11.776533808687418,5.608375352285547
3673.6685,11.758480169348447,6.387416001495018
3674.5156,11.741609537885942,6.142918033443844
3675.3608,11.720819696591883,6.611807761882109
3676.2063,11.691058441516669,6.528420440368124
3677.0542,11.652711159613665,7.393063531239456
3677.9,11.614186393687197,6.588882516812207
3678.748,11.587884246832939,7.187807960548441
3679.5945,11.583791632858667,6.842646974791579
3680.4429,11.60282315117038,6.708364061495123
3681.2896,11.63593146353773,6.579259071869347
3682.1365,11.668958352657949,6.39401780399842
3682.9856,11.689288399632696,6.0267414340938705
3683.8328,11.690555467759285,6.915544741801915
3684.6824,11.674035166882783,6.032713255811427
3685.53,11.646266898496295,8.26030686309959
3686.38,11.614070022822455,7.351345741286837
3687.2278,11.580795841934803,6.404446360431781
3688.0762,11.54559383703031,6.793753628249089
3688.9265,11.50750630919042,6.205534908724694
3689.7751,11.469127333796543,8.67659330952994
3690.626,11.43546270786515,7.218086601823222
3691.475,11.41123633406641,7.646026505538403
3692.3264,11.397738235828696,6.198281530990594
3693.1758,11.392870838643434,6.647658739162632
3694.0254,11.392051331066254,6.108586413790897
3694.8772,11.390316956013873,6.30636695556422
3695.7273,11.384455823328022,7.621044550829309
3696.5793,11.374312278287622,6.390033830816494
3697.43,11.362564680140954,7.406740983098817
3698.2825,11.352882564525672,6.74450011934257
3699.1333,11.348098000954641,7.391551181099667
3699.9841,11.348696695648517,7.114271335775748
3700.8374,11.352600988392433,7.341493774550692
3701.6887,11.356024886301157,6.687918222629042
3702.5425,11.355459989808177,7.082849037890718
3703.3943,11.34950512977003,6.268621967598694
3704.2483,11.339394645831522,6.797156490902763
3705.1003,11.327945298522247,7.767955943395476
3705.9526,11.317273041800586,7.210275937057932
3706.8074,11.307234091872225,7.406283326687196
3707.66,11.295633326502477,6.729334352727076
3708.515,11.279786118677391,7.39719203065297
3709.3682,11.258669403863202,7.415326661214308
3710.2234,11.233218904859779,7.223934143447074
3711.0771,11.205901256533094,6.588233547558136
3711.9307,11.179063004257566,6.435545736260921
3712.7866,11.154103427706143,8.752247951740628
3713.6409,11.13177982747526,7.7770842473646855
3714.4973,11.112641482936558,7.58975757243948
3715.3518,11.098005247668029,7.463716712346316
3716.2085,11.088858002813382,7.775413716965456
3717.0635,11.08466833503623,7.48422022776926
3717.9185,11.082870493953093,8.884583890045153
3718.776,11.080308381562885,6.5651785744735855
3719.6313,11.074531875560048,7.605197743869357
3720.489,11.063429015226307,8.748677910916044
3721.345,11.04467574051553,6.75590951916223
3722.2031,11.016588398829281,8.797631888391221
3723.0593,10.980894671360202,6.489757575044271
3723.9158,10.94332117043829,7.924281598794384
3724.7747,10.911828465437656,7.046892030195545
3725.6316,10.892853927703667,7.957209585886378
3726.4905,10.887064474747186,7.365017574956541
3727.348,10.888655971779796,7.403840660880596
3728.2073,10.887917982904323,7.333441753349376
3729.065,10.876460995187085,7.363262854101116
3729.9229,10.851510966019791,7.894261775936793
3730.783,10.816889819589997,8.592813544519766
3731.6414,10.781459418684536,7.90428673486437
3732.5017,10.755168362472673,8.129922223086272
3733.3604,10.745726764760528,8.472151909492265
3734.2214,10.75478059291972,7.821108000165769
3735.0803,10.776396091425058,7.864470020233707
3735.9417,10.798793792977364,6.950568629483702
3736.8013,10.808780548669219,7.1094984651630595
3737.661,10.79820381664305,8.290269643938297
3738.5227,10.768134872548806,6.922372947238931
3739.3828,10.729358995746182,8.651895061885202
3740.245,10.696421429308193,9.360031672460718
3741.1055,10.67979611057655,7.78677320874528
3741.9683,10.679613661533358,7.9408804316972645
3742.829,10.686968495532042,8.487489712352547
3743.69,10.690429134734329,7.605859108917822
3744.5532,10.682874266250794,7.979869454157173
3745.4148,10.66375811247757,8.284893124009583
3746.2786,10.636266485894568,8.475266163746097
3747.1404,10.60436971288643,8.689086956135236
3748.0044,10.572043216603266,10.607089643902858
3748.8667,10.544943748845927,8.22807449024829
3749.729,10.528460688946764,8.873200032872553
3750.5938,10.524010751967932,10.021154596072797
3751.4565,10.526913324467564,8.084526343263597
3752.3215,10.529168321307724,8.13019381862278
3753.1848,10.524865969259766,10.367268568975527
3754.0503,10.513278461464344,7.202924854034128
3754.9138,10.497870712100395,9.730918112806636
3755.7776,10.482760211797146,8.138675186198087
3756.6438,10.470059241190553,8.97699335757769
3757.508,10.459403244774906,7.33282403201323
3758.3745,10.449033307053453,9.103339797077224
3759.239,10.437496064910913,10.230436099730115
3760.106,10.423545068655448,8.641780428802015
3760.971,10.405786854771042,10.55427174294717
3761.8362,10.383269366293336,7.816481958510398
3762.7036,10.357979940679472,8.695594521933632
3763.5693,10.335963978717201,8.834920070204015
3764.437,10.323768986599765,8.421578470845224
3765.3032,10.32356159297562,7.44229385106943
3766.1714,10.330693578844523,8.449242960418722
3767.0378,10.336502293167413,8.076380614529636
3767.9043,10.333327709904237,9.02498128173049
3768.7732,10.317619410850872,8.521328282428508
3769.6401,10.29063435345331,8.542898717242798
3770.5095,10.25724858384417,7.9214467619879425
3771.377,10.225240448884444,9.432422905687941
3772.2466,10.202773412955924,9.436083724064126
3773.1145,10.195787596044335,9.47544298627106
3773.9824,10.204384618991766,8.726586091546809
3774.8528,10.222369401106016,8.696603856453661
3775.721,10.24013276868122,9.102277412424256
3776.5918,10.250241076018233,8.016304860918783
3777.4604,10.250302249822937,9.103281344486366
3778.3315,10.24195066647528,8.82703806458007
3779.201,10.227308934270276,9.301329783495818
3780.0703,10.207035600078145,9.398630715164218
3780.942,10.181385055862737,8.598909218119918
3781.8118,10.152560289877384,8.006645058143487
3782.6838,10.12495573473967,8.84349025660959
3783.554,10.103874751145499,9.501096665231428
3784.4265,10.091857172226083,9.002241464054629
3785.297,10.087008826635186,12.05324963213112
3786.168,10.084156140958118,7.309823821364961
3787.041,10.078976808935838,9.986279750587183
3787.912,10.07062509929754,9.032381442112664
3788.7856,10.060232462271058,8.951698472795826
3789.6572,10.047809881455583,7.676757023510061
3790.531,10.031131247205172,9.083586643934087
3791.403,10.00831373659098,10.499327564344279
3792.2754,9.97996807384182,8.071211965684327
3793.15,9.948850569320742,9.524311601961227
3794.0225,9.917718096307103,10.769738233287455
3794.8972,9.887421196072655,8.531533500613893
3795.7703,9.858526017165463,9.017042775491882
3796.6455,9.832624854444463,9.758315837783083
3797.519,9.813100850084975,8.86124414051199
3798.3926,9.802926671579552,10.075270119966774
3799.2686,9.802505169572376,9.039301217642238
3800.1426,9.808282929206069,9.588741512915208
3801.0188,9.813847095134507,11.000047730790142
3801.8933,9.813624040704724,9.469210628709146
3802.77,9.806973899645294,9.676310017134135
3803.6448,9.798642747088882,10.846484782316363
3804.522,9.794595554553796,9.208032010414067
3805.3972,9.797463390349005,9.443440546083398
3806.2727,9.80532716186834,8.452382591682348
3807.1504,9.813704184461265,9.210580593326625
3808.0261,9.817533399744912,10.203932019356666
3808.9043,9.812796717613885,9.896335439443606
3809.7805,9.798397167250076,8.110059075175142
3810.659,9.777547878210433,9.158681898887721
3811.5356,9.756709365330922,8.266118973737788
3812.4126,9.741100052177512,12.194820408109061
3813.2917,9.73107470907939,9.029823955955258
3814.169,9.722277840233142,10.89570816845609
3815.0483,9.709502694822325,9.423468571988035
3815.926,9.691206735582645,10.233246080405033
3816.806,9.670161689032113,9.3283316333975
3817.684,9.651075672085915,10.278179190481719
3818.5623,9.63704053146396,9.311867175744098
3819.4429,9.628381911102942,9.94671798615075
3820.3215,9.62312941407902,10.961525201161223
3821.2024,9.617883359291417,10.220839112275483
3822.0815,9.609163275502317,10.68860586285041
3822.963,9.594457661686778,10.15671633251477
3823.8423,9.572880300592299,9.032413080561232
3824.722,9.544648879627427,10.40096722623029
3825.604,9.510903133032008,10.568487817113192
3826.4841,9.474082086595429,9.684723776671653
3827.3665,9.436670918240468,10.612968013155912
3828.2468,9.400166266327796,11.93418762036935
3829.1296,9.36309027044097,9.696882405418938
3830.0105,9.322397364232424,10.456080701182332
3830.8916,9.275041397843362,10.786132339957849
3831.7751,9.220299415703096,9.292112505880844
3832.6565,9.161259492864327,11.093367906752434
3833.5403,9.103357591883192,12.359206658673557
3834.4224,9.053477905088915,12.796567955367529
3835.3064,9.016120517712848,11.661561441045697
3836.1887,8.992779452978175,11.492280880154878
3837.0713,8.9825644006531,11.336287123706798
3837.956,8.985099710590937,12.899400110790328
3838.839,9.00162806596381,13.148173543526525
3839.7244,9.034025032842461,9.484258336753985
3840.6077,9.082037542813007,10.981701594070007
3841.4932,9.141886936133236,11.341335859080932
3842.377,9.20528463424844,10.013337188724213
3843.261,9.26252047210439,10.263715582991424
3844.1472,9.305724446156209,11.016222586449665
3845.0315,9.332045827826532,10.999201081773874
3845.9182,9.345729688731039,9.843358855107526
3846.803,9.356058661976386,9.971233314842692
3847.69,9.373198016514102,12.023863642348253
3848.5752,9.40240748181637,9.840978193356198
3849.4604,9.441558753185529,10.92409283261974
3850.3481,9.483396434945865,9.620593501380844
3851.234,9.520450791576675,9.306453872192664
3852.122,9.549839288939731,9.726683423946673
3853.0083,9.572547490227246,10.652874510642263
3853.8967,9.59065928660928,10.20650794360844
3854.7832,9.6036067115622,9.941040003135708
3855.6702,9.608329743372362,11.276083597881307
3856.559,9.602177123080454,9.309477514856832
3857.4463,9.586549822759869,9.77455324242006
3858.336,9.567255142061777,9.207494608171027
3859.2234,9.551655610373984,11.48791523903026
3860.1135,9.544546028966167,9.29469351872068
3861.0015,9.547101042115933,9.43125395066281
3861.8896,9.557739731325285,9.66296771986934
3862.7803,9.572947007431727,10.330416996556114
3863.6687,9.586267825555293,8.664484094043246
3864.5598,9.588548597818075,10.856815100353503
3865.4487,9.570883844838436,11.387956291714188
3866.34,9.529488892983341,9.660490127034775
3867.2297,9.468614227412306,11.975256093665445
3868.1213,9.397577839074694,10.536093005663123
3869.0112,9.326307054023166,11.857673876520327
3869.9014,9.260196233067548,11.209390706538372
3870.7937,9.20021837130185,10.558905466299269
3871.684,9.145634257441195,11.079483514036644
3872.577,9.095220639281168,10.505416325439302
3873.4678,9.04862576893286,11.100895434463373
3874.361,9.004214468394117,12.015010377627172
3875.2524,8.959072815480324,11.88747344176471
3876.1438,8.90889044315301,11.059528029973727
3877.0376,8.850293959396344,12.583768060289088
3877.9297,8.783176092226142,12.78544706704848
3878.8237,8.709564137842863,11.065107706336363
3879.716,8.63265215685832,11.667301287164516
3880.6108,8.553381665850186,11.289074808207353
3881.5037,8.471157496208576,13.98406560502948
3882.3965,8.383628673329634,14.90128034193219
3883.2917,8.289128156459661,13.380575945575591
3884.185,8.189046241692276,14.42167129430186
3885.0808,8.086175444725086,15.09226841082287
3885.9746,7.98523432740072,14.953530366853553
3886.8706,7.889759103638019,14.95337987536041
3887.765,7.804572250188804,15.752972653836927
3888.6592,7.735914587126398,14.827607942286775
3889.556,7.692025293582318,16.39460977943823
3890.4507,7.680061577012398,17.437296629344598
3891.348,7.701289533000242,15.729914348094242
3892.243,7.749999484015122,15.745344400054865
3893.1406,7.817023428538488,17.725494675523674
3894.0361,7.893973318838658,15.665659754813724
3894.932,7.977651405996269,15.389023314002781
3895.83,8.068615588083189,15.030937912552822
3896.7263,8.166520298744476,14.043398792338968
3897.625,8.268657014585525,15.380217067270044
3898.5215,8.368620171332669,13.481920267339342
3899.4207,8.461561679038548,13.3873525281763
3900.3176,8.54469053060435,12.176317349529244
3901.2148,8.61913692988508,12.447391055995627
3902.1145,8.687274212655076,11.570769563020667
3903.0122,8.750380883339137,12.992625544646069
3903.912,8.80889298090229,11.402706604282086
3904.8103,8.861980744213342,12.05212494378235
3905.7107,8.910486428060455,11.372731115349158
3906.6094,8.957421331018086,11.583794549670097
3907.508,9.008004094776469,10.530262443903386
3908.409,9.066686448554783,10.133770372477418
3909.308,9.133890853512893,12.921056480970371
3910.2097,9.206098555694174,9.887879447924908
3911.1091,9.276150916371613,10.367686304401893
3912.011,9.337515632253032,9.959161267621239
3912.9111,9.385757738237771,9.630124141009325
3913.8113,9.421286017297863,9.562607524645156
3914.7136,9.448575804404674,10.503662298374218
3915.6143,9.473412765478797,9.879426051614157
3916.517,9.499474462359961,10.180803708230235
3917.4182,9.52554581130163,9.826707794546234
3918.3215,9.547114754503705,9.140948024454568
3919.223,9.559636346634406,10.518131379495177
3920.1245,9.562050426120896,11.006566449725991
3921.0286,9.557006138195723,11.388949769612003
3921.9307,9.549316910709102,10.338707895304646
3922.835,9.544000426703288,10.160104413469137
3923.7373,9.545210847787594,10.862349180431472
3924.642,9.555050818727084,9.444026395407047
3925.5452,9.572181773115398,9.887088207700284
3926.448,9.591945229669744,9.734122707789016
3927.3535,9.609020362330156,9.278778985254755
3928.257,9.62086059010577,10.264305894242966
3929.1628,9.62909255370398,10.932838859304344
3930.0667,9.636425679356545,9.973211223297433
3930.9731,9.642599096335122,9.450921045593539
3931.8774,9.642657126891418,11.18514492299811
3932.782,9.629791207148454,9.867470333704231
3933.6887,9.600079014650655,10.051815908163338
3934.5938,9.555929449214933,9.601247422866036
3935.501,9.504404162809456,9.480810320853635
3936.4062,9.45341146592365,10.494774144371814
3937.3142,9.406549139518594,11.09007412232338
3938.22,9.362980380321968,10.170898322622902
