wavl,flux,ivar
3566.9744,20.78758516688657,8.908922057308013
3567.795,20.771139079800268,9.589236708537868
3568.6177,20.7551181567047,9.6325856639002
3569.4385,20.733421251150425,9.153821938802203
3570.2617,20.703905949812327,8.178648938810378
3571.083,20.670636266065195,8.79331470485677
3571.9065,20.640866732450924,9.17821127659136
3572.7283,20.620560279957694,9.735045618916706
3573.55,20.610274736896535,9.281469433055891
3574.374,20.605805896683933,9.922941119986818
3575.1963,20.601171632560874,9.110889551429599
3576.0208,20.591525731229883,10.11646205129171
3576.8435,20.575012726957528,9.47619291273143
3577.6682,20.553228848506546,8.998085675610886
3578.4915,20.53099688322555,9.135159789649583
3579.3145,20.513772734421284,9.134638265548764
3580.14,20.504151726207763,9.236530659800016
3580.9636,20.499260563276387,9.565147667788302
3581.7893,20.491091793993707,9.204292084150225
3582.6133,20.47050460194192,9.050319103188876
3583.4395,20.431826726251494,9.937307781554454
3584.264,20.37617616215457,9.532180084457705
3585.0884,20.310333105289235,9.779663947089798
3585.915,20.243736976027662,9.752250646776597
3586.74,20.185620650092623,9.911883609240014
3587.5671,20.14132720499017,9.837198109887975
3588.3923,20.111638760628843,10.000081700530684
3589.22,20.091385531715183,10.338043867255594
3590.0457,20.071896510800574,9.833682185013371
3590.8716,20.044994442895394,10.040308179157645
3591.6995,20.007941831658666,9.69742412713765
3592.526,19.965048546108342,10.045313259525305
3593.3542,19.923071596403062,10.377375660394017
3594.181,19.885411046895932,10.10001971559598
3595.0098,19.84855089981571,10.040130930561872
3595.8367,19.80671018251096,9.621296268955295
3596.6638,19.75838011816593,9.853132402523377
3597.4934,19.71012784772502,10.33133733020264
3598.3208,19.673484756655014,10.233242569759515
3599.1506,19.65644877273848,9.745465354880006
3599.9788,19.65881521372011,10.677608104876638
3600.8088,19.67248102032303,9.54130665235146
3601.6372,19.686843844169967,11.205557490370644
3602.4678,19.694252290806702,9.851145967643806
3603.2964,19.692039839262787,10.119129505670484
3604.1252,19.682105959050716,11.015228205264357
3604.9565,19.668983328056946,9.699712143074095
3605.786,19.657602749072833,10.266453103460636
3606.6172,19.65059847528955,10.683596729678532
3607.447,19.647324276954404,10.073971611197566
3608.2788,19.64440953560733,10.045818635964674
3609.109,19.63725299289096,10.136242806995973
3609.9392,19.62084763412401,10.17388223773085
3610.7717,19.590467120567908,10.45852075899231
3611.6023,19.54392975122668,10.129692181867151
3612.435,19.483718606239837,10.592116408843221
3613.266,19.418566952904854,11.026220424172479
3614.0994,19.35882757257341,10.840703636315585
3614.9307,19.311644045138735,11.33738542452311
3615.7625,19.276521977180728,11.060929404743106
3616.5962,19.247891990147927,11.005300831141462
3617.4282,19.220007720089498,10.440386065203727
3618.2625,19.189818022559326,10.580401074403543
3619.0947,19.15721401114174,11.382705578883874
3619.9292,19.12239621349098,10.847491309560336
3620.762,19.085655061873013,10.532972486990756
3621.595,19.0476817560672,10.749702558783758
3622.4302,19.01046785907872,11.03964571484605
3623.2634,18.97644142111492,10.753988724430831
3624.0989,18.94592028406128,10.476566743032864
3624.9326,18.917452622202624,10.662063537432477
3625.7686,18.88923284345035,10.968307740907466
3626.6028,18.86219588978365,10.52419306954934
3627.437,18.840177744741318,10.43590242276149
3628.2734,18.82800873378726,12.179045462612889
3629.1082,18.82797942833685,11.413543997519927
3629.945,18.83706062626801,10.496719327802822
3630.78,18.84715169330571,10.931856628455135
3631.6174,18.848342369018983,11.624436228378435
3632.453,18.833115080874148,10.74701019037968
3633.2883,18.79937840721577,10.998928829471831
3634.1262,18.75033346474077,12.495281420571018
3634.9622,18.692990164200726,11.602790316577137
3635.8005,18.63482692714568,11.206264669973706
3636.637,18.583120138821155,11.810444364530177
3637.4756,18.542098317784497,11.215239370566698
3638.3123,18.512169076829753,10.929444202570005
3639.1492,18.488794029089195,12.827647865402488
3639.9885,18.465031630358773,12.172427998096316
3640.826,18.43533119412877,11.449178617368567
3641.6653,18.397914906419597,11.128922271481601
3642.5032,18.35575382704945,11.649190034022457
3643.343,18.314061753289874,11.606795863792655
3644.1812,18.27781051668614,12.389674325869114
3645.0195,18.248431583326,12.218311506640863
3645.86,18.223511901501592,11.461827142503534
3646.699,18.198720560973715,12.269329664647078
3647.5398,18.17039323730939,11.650659132458108
3648.379,18.138170056578982,11.78879010222037
3649.2202,18.10445123653046,12.045659670353503
3650.0596,18.072855798928963,12.384317203284137
3650.8994,18.044980339685317,11.640328320126919
3651.7412,18.019479428175114,12.203158672748698
3652.5813,17.99319344247951,12.175530593318562
3653.4236,17.96333153991799,11.997003993887304
3654.2642,17.93039083488391,12.988805898686559
3655.1067,17.898144722537157,12.974682725797134
3655.9475,17.872065089704545,13.246825484299471
3656.7886,17.855344475268744,12.327389316847427
3657.6318,17.84705317962161,13.311144484543457
3658.4734,17.84292082085062,12.34686983153289
3659.317,17.8380077022072,12.723980556936787
3660.1587,17.829237190377636,12.556396645157612
3661.003,17.815744132561267,12.265259284892643
3661.845,17.79790140039133,12.419601084161611
3662.6875,17.775893330442546,13.405812279324852
3663.532,17.7499411962181,12.441615997005567
3664.3748,17.72154769238299,13.523232449529997
3665.2197,17.69354997691369,12.353786487270709
3666.063,17.66956275645417,12.396156003976039
3666.9084,17.65166947839437,12.823375918544972
3667.752,17.63963993942239,12.708988586029605
3668.5977,17.630702691710116,13.69303811585246
3669.4417,17.62097175379901,12.700873356533078
3670.286,17.6066843178105,12.234562830766698
3671.132,17.5851636649535,12.907104234241089
3671.9768,17.555275491281034,13.000673007885684
3672.8235,17.517167302181033,12.805084207455224
3673.6685,17.473003672345893,12.66417159550073
3674.5156,17.42626017912149,13.239550935539564
3675.3608,17.3814972580254,13.60098115356234
3676.2063,17.341836853674113,13.863394609350795
3677.0542,17.308039726504834,14.354313846259942
3677.9,17.27868374469961,13.414999432225834
3678.748,17.250750364778895,13.91149295662426
3679.5945,17.222141003464223,13.667029072919771
3680.4429,17.192590038905855,12.594691127079251
3681.2896,17.164190284415152,14.496304091700905
3682.1365,17.139364839404962,12.911547963015726
3682.9856,17.119235637698498,13.563127912047888
3683.8328,17.103050193812454,13.877205137293897
3684.6824,17.08868373102887,13.817578052038545
3685.53,17.074554761535623,13.241280314615556
3686.38,17.060522086139965,14.203046991036345
3687.2278,17.048195683715647,13.368392792223164
3688.0762,17.039445920784075,14.65045156997844
3688.9265,17.034696425302155,14.007979769551085
3689.7751,17.031600107435064,13.510736111350543
3690.626,17.025517675659568,13.636570756298656
3691.475,17.012395696162677,13.51254473443858
3692.3264,16.99183426505149,13.579724615213948
3693.1758,16.968053880524316,13.922421879324563
3694.0254,16.946852156768877,14.57174425290053
3694.8772,16.932099048744483,14.541531436024062
3695.7273,16.924259218632425,13.546412499011911
3696.5793,16.92107698746161,13.653642675702567
3697.43,16.91904411738651,13.56975607533289
3698.2825,16.913763540118172,13.57628113458378
3699.1333,16.90050596966466,14.308748369131575
3699.9841,16.875731915260566,13.530606757065238
3700.8374,16.839059523825288,14.356692177341289
3701.6887,16.794522545683574,13.979058795904932
3702.5425,16.748379547331645,13.998497816499762
3703.3943,16.70669653536613,14.154243011558739
3704.2483,16.671373486604313,14.907567025600926
3705.1003,16.640180023498957,14.218756259836661
3705.9526,16.608302949298565,14.481941960847585
3706.8074,16.572053247029913,14.776912277060223
3707.66,16.531451558649913,13.902047009693936
3708.515,16.489620316701696,14.016824298314042
3709.3682,16.452100336483355,14.784714177697534
3710.2234,16.42383889767181,15.48973963921728
3711.0771,16.407398737900547,15.733256171744891
3711.9307,16.40098159303448,14.779065968214695
3712.7866,16.39932766675373,14.753374216129407
3713.6409,16.396608787835714,15.256160690896053
3714.4973,16.389701008048146,14.528001309779459
3715.3518,16.379439210754438,15.41067475380641
3716.2085,16.368709337944868,14.905042352443234
3717.0635,16.359544909059302,15.560339681401539
3717.9185,16.35107130810057,13.746171117645835
3718.776,16.34004147317918,14.67461762596436
3719.6313,16.3230257877605,13.671992769585321
3720.489,16.298144137627318,15.968841800024013
3721.345,16.266040366972383,15.105306426463047
3722.2031,16.228937609317676,13.831607777086688
3723.0593,16.19037133640317,15.867014786009038
3723.9158,16.153656896596285,15.456960135005907
3724.7747,16.121110770891956,14.493257806064442
3725.6316,16.093575263922496,15.343489642286137
3726.4905,16.0700612713502,15.173897494957965
3727.348,16.04885139884664,15.08295134493331
3728.2073,16.02734627697125,15.176327030757992
3729.065,16.00288233885719,15.337496783257375
3729.9229,15.973851335942767,15.248412348344862
3730.783,15.94118885210738,16.925669705909268
3731.6414,15.908064014285832,16.470605490199183
3732.5017,15.877079462598598,16.35333886743934
3733.3604,15.84926049859527,15.207290526789963
3734.2214,15.824040659492455,15.776456231653155
3735.0803,15.801052811138709,16.385288530518086
3735.9417,15.77992964849983,15.816840077683352
3736.8013,15.760403841168284,15.915642170985306
3737.661,15.741909812333239,15.700980820383318
3738.5227,15.72409466859939,16.12905273913869
3739.3828,15.706901541262628,16.681248815841556
3740.245,15.689747005110169,16.249083177865014
3741.1055,15.671670891467869,15.971619597620206
3741.9683,15.651800108967608,16.50445475182923
3742.829,15.630887249694132,16.44141347286424
3743.69,15.611063055419155,15.970742907341405
3744.5532,15.594365171203199,16.80580040661566
3745.4148,15.580818950612658,17.9792360683512
3746.2786,15.567929724124077,16.363129853956696
3747.1404,15.553221453508195,15.709394939991103
3748.0044,15.53654216681291,16.8954003494506
3748.8667,15.52025941998231,16.91297919128289
3749.729,15.506084852091556,16.23395443375752
3750.5938,15.492668028090284,16.892918245420525
3751.4565,15.476668643487342,16.25551551267467
3752.3215,15.45607624711216,16.179730224121972
3753.1848,15.432706327039165,16.953749408706837
3754.0503,15.410150743538347,16.735739430147998
3754.9138,15.390564442966326,16.35419373956194
3755.7776,15.37262920921279,16.675515648812382
3756.6438,15.353306837273657,16.639962947203173
3757.508,15.330701147187888,17.858629763918504
3758.3745,15.305083376247362,17.369939199611547
3759.239,15.278721949392153,18.759867199335808
3760.106,15.25367453949003,17.264579991289974
3760.971,15.230635394464231,16.28682256737406
3761.8362,15.208106193303944,17.55468055400189
3762.7036,15.18409662311275,17.198316997731098
3763.5693,15.158529707794955,17.262253319897468
3764.437,15.133453037500653,18.292169005932237
3765.3032,15.111327701635298,17.683467714653325
3766.1714,15.091858712380294,17.24771931586149
3767.0378,15.07188611203091,18.494808190064735
3767.9043,15.047424679849797,17.372092975061978
3768.7732,15.016514498384337,17.47451197373706
3769.6401,14.98058174896757,17.29551879738027
3770.5095,14.94315475795406,17.03220510143864
3771.377,14.90934313861761,18.331643040699387
3772.2466,14.884022182819283,17.775076587733878
3773.1145,14.870927751415525,18.16511770937834
3773.9824,14.870252049752722,18.022844807583787
3774.8528,14.877909544642927,16.914882200619733
3775.721,14.886902183201329,17.763841538283387
3776.5918,14.891155677292632,17.53947426402193
3777.4604,14.888495032273246,16.890618799097346
3778.3315,14.880614991106658,18.229008756315313
3779.201,14.870233043934233,19.050021162497888
3780.0703,14.858430394826435,17.844852117534685
3780.942,14.844742037898158,17.461214988364496
3781.8118,14.829145591252853,18.673627800076446
3782.6838,14.812933872284766,18.94912112969561
3783.554,14.798018906865885,19.24142423263645
3784.4265,14.78466102627391,18.173443469667987
3785.297,14.770757853582964,18.87908303978022
3786.168,14.752630294794788,18.32279487362089
3787.041,14.72747293303124,17.19883750385883
3787.912,14.695506400453302,18.637858870584434
3788.7856,14.659526172062934,19.105704461072023
3789.6572,14.6237261408409,19.073580809200166
3790.531,14.590953152439626,18.651162978910584
3791.403,14.562384177485782,18.91825053460328
3792.2754,14.537239936928076,18.451936978017088
3793.15,14.513699793014391,18.707571396211204
3794.0225,14.489542047199038,19.21771429318705
3794.8972,14.462340005142465,19.91217004464018
3795.7703,14.431021665294024,18.969581317383575
3796.6455,14.396464514255266,18.90083491632947
3797.519,14.361981330479896,18.904344911729744
3798.3926,14.331274574860284,18.891800542538245
3799.2686,14.306893108196132,19.259145636849247
3800.1426,14.289658081872009,19.073634197589858
3801.0188,14.278480388840732,19.407399612524603
3801.8933,14.271164936467887,19.872733395636363
3802.77,14.26474900035651,21.178188579429012
3803.6448,14.256677509047764,19.28230086989624
3804.522,14.245836314655005,20.947070641812978
3805.3972,14.233130733280216,19.228486994630547
3806.2727,14.220437234519794,19.957854462154295
3807.1504,14.209148785656588,19.825990965302868
3808.0261,14.199206432168697,19.30016867248375
3808.9043,14.189123697465995,19.228887941128058
3809.7805,14.177525084556192,19.889954000698562
3810.659,14.164326157027947,20.00949582754334
3811.5356,14.15114818924911,20.72021472963709
3812.4126,14.139864684134738,19.53559010044192
3813.2917,14.131193197897819,19.82065470714079
3814.169,14.124394729963806,18.80166003367847
3815.0483,14.118082950427544,19.336132760875394
3815.926,14.111329554879235,20.26520110466476
3816.806,14.103441469979227,19.718102029236416
3817.684,14.093251011127213,19.282976985025844
3818.5623,14.07865464328433,19.204902595999208
3819.4429,14.057412494081987,19.044353858934347
3820.3215,14.02888341710687,19.76423113910362
3821.2024,13.994768760005782,19.9541466145629
3822.0815,13.959470246367307,20.639086834995343
3822.963,13.927887587783362,20.447846011742516
3823.8423,13.903627635829348,21.09356328596616
3824.722,13.886667936471722,21.116072545767263
3825.604,13.873502064457824,20.935257433387918
3826.4841,13.85895161301798,20.809425690485337
3827.3665,13.838845100659649,19.54488247450672
3828.2468,13.81262593683612,20.830188860078
3829.1296,13.78299352585897,21.402054990716
3830.0105,13.754234816315968,20.31857156113588
3830.8916,13.729276151627676,19.916026651151466
3831.7751,13.709033922295081,20.570476128561943
3832.6565,13.693226986080212,21.117275565877097
3833.5403,13.68102960096992,19.961360815016786
3834.4224,13.671660809586317,21.974803438660377
3835.3064,13.663773476779795,21.923442507689074
3836.1887,13.655498272177182,22.244907614234535
3837.0713,13.64495902323631,20.963327799525363
3837.956,13.631381628147683,20.93586464416374
3838.839,13.615792137734168,22.374219643517872
3839.7244,13.60030048588869,21.22520444385253
3840.6077,13.587092052712205,20.624804387664458
3841.4932,13.57707318556536,21.035707448619508
3842.377,13.569825786588185,21.965435834801884
3843.261,13.563852269121151,19.876476408323835
3844.1472,13.55728265822892,20.975610848800304
3845.0315,13.548383631821624,21.67391715916286
3845.9182,13.535746960184335,21.940586093142926
3846.803,13.518791421046275,22.012550083196977
3847.69,13.497777726490126,21.673246638626186
3848.5752,13.474005176923638,21.801445066484778
3849.4604,13.448988218994845,23.524772276971937
3850.3481,13.424191688928218,21.837501975760205
3851.234,13.401372469386539,21.609771377335615
3852.122,13.382090249037033,21.743779189803167
3853.0083,13.36721271700406,22.537815905688888
3853.8967,13.35556454091622,22.83154228800067
3854.7832,13.34507417092845,21.31151998144652
3855.6702,13.336136269558892,22.21896344450166
3856.559,13.33672936029566,21.004745519682018
3857.4463,13.365051959498924,22.479770348962088
3858.336,13.444679515710632,23.95847491106223
3859.2234,13.58718806028392,22.734453676564424
3860.1135,13.772565543710735,21.80342496751943
3861.0015,13.939610008726303,22.135860790620555
3861.8896,14.01461030944426,9.576863407840104
3862.7803,13.955394149812815,24.13053202306888
3863.6687,13.782220274521075,23.29217999574343
3864.5598,13.560787545444498,22.101858003880547
3865.4487,13.360481499598558,22.13446481107194
3866.34,13.216120345131806,22.410749374439668
3867.2297,13.12905736046615,24.50084995386836
3868.1213,13.082184087797543,24.17477770097836
3869.0112,13.058612190764944,22.970533530295036
3869.9014,13.047098026558075,23.07174512415158
3870.7937,13.040997910267299,24.362176697410586
3871.684,13.035339907066387,22.90444593572626
3872.577,13.025967170604575,23.310594784825252
3873.4678,13.010590200809421,23.158219445897643
3874.361,12.989344311854508,23.837575511872984
3875.2524,12.964781894609349,22.88467508463134
3876.1438,12.94025301534049,23.998658906309117
3877.0376,12.918260012497443,24.506042242766696
3877.9297,12.899154987918878,26.252220363526234
3878.8237,12.88062060679757,23.428459334808068
3879.716,12.859460811806557,24.22276450411958
3880.6108,12.833263013914724,23.886610287910344
3881.5037,12.801957051582027,24.109392851004507
3882.3965,12.767295104513728,24.520399231795757
3883.2917,12.732194916001493,24.711479187748594
3884.185,12.700069629274122,25.2201283016753
3885.0808,12.673071005575379,25.986781566148004
3885.9746,12.651545070272142,24.962439462112105
3886.8706,12.633119347790167,25.253316856094905
3887.765,12.614236286024182,25.043670571626436
3888.6592,12.592204164961327,25.472528879875327
3889.556,12.567358162338135,24.317397552633558
3890.4507,12.54341013189594,25.619552055783778
3891.348,12.524992286294829,26.16239160187127
3892.243,12.515477871442219,24.30596559503991
3893.1406,12.515323467118362,26.23159449679885
3894.0361,12.522575801791742,25.582841622731035
3894.932,12.533896346193698,24.794948350207893
3895.83,12.545694867492266,25.249643017683148
3896.7263,12.555013835709325,24.821463410581035
3897.625,12.560601533664839,24.08898916911998
3898.5215,12.562993962733135,24.926788150639567
3899.4207,12.563903265351803,24.837957117002514
3900.3176,12.564862317327583,24.161740020927134
3901.2148,12.566312179231334,24.488101673728874
3902.1145,12.56754345549832,24.060665617613942
3903.0122,12.567468528810254,25.189483873298606
3903.912,12.565738239614197,24.943572924455268
3904.8103,12.563332870888868,25.409884215171743
3905.7107,12.561919489453654,26.463345202092082
3906.6094,12.56232377677908,24.56034046462404
3907.508,12.563349261304797,26.634436175909084
3908.409,12.56220994635172,24.79292193476943
3909.308,12.556335928421488,25.367346298502866
3910.2097,12.545126391888953,26.050250634969295
3911.1091,12.530496405842383,25.7241056170899
3912.011,12.51553816243603,25.152704079341113
3912.9111,12.503161857092241,26.53270494929132
3913.8113,12.494918202964028,25.801588586426494
3914.7136,12.491051714992393,24.71360658696332
3915.6143,12.490702626304,25.8782220384268
3916.517,12.492075271041859,25.991683159893498
3917.4182,12.492897918998418,25.664875679306746
3918.3215,12.491058015390195,25.921918090766493
3919.223,12.485112046172103,25.28921043791068
3920.1245,12.474604717485787,25.0444642133233
3921.0286,12.460355891262239,25.647295519388944
3921.9307,12.444453820532067,25.921440701400485
3922.835,12.428807530521835,25.690995320188073
3923.7373,12.413768259785147,25.640902121570086
3924.642,12.397465382974989,26.353225686595458
3925.5452,12.377800717766235,26.678241704809754
3926.448,12.354484171791734,24.97128095257604
3927.3535,12.329654915309732,27.06792497993908
3928.257,12.306564925705485,27.05163225724599
3929.1628,12.286988125354824,25.45230665361197
3930.0667,12.270703268196078,26.519676083161038
3930.9731,12.255808793525759,25.530023434786006
3931.8774,12.240632069467235,25.113691385788485
3932.782,12.224783773950632,26.65369685460482
