wavl,flux,ivar
3566.9744,4.248388378783052,5.085216792317054
3567.795,4.282017052693368,3.2860483327865624
3568.6177,4.3170578122212495,3.4279671676002383
3569.4385,4.341520938645375,4.674248749030518
3570.2617,4.347116497137291,4.085028603313374
3571.083,4.333895286689575,3.892648515024929
3571.9065,4.311419815778322,5.911232015648777
3572.7283,4.2935456396548,3.1399428646254446
3573.55,4.289383300731003,6.803211628159238
3574.374,4.298362965424577,4.759381829434342
3575.1963,4.312628995587168,5.428859638904571
3576.0208,4.324465873700344,3.1489521212302205
3576.8435,4.331083065510452,4.076337034609713
3577.6682,4.333904277489205,4.629115816371529
3578.4915,4.334197617148604,3.8653045063548754
3579.3145,4.330383385786703,4.715051039091052
3580.14,4.318861554447423,3.489429897804977
3580.9636,4.297150767597953,3.8589662776773306
3581.7893,4.265833092780936,3.4662005533460265
3582.6133,4.2289228630297995,5.3973169424468965
3583.4395,4.191995684082345,2.856213759672028
3584.264,4.161452532801447,6.17532176590174
3585.0884,4.142853797086256,3.1166219949368164
3585.915,4.14026282647445,4.866439366351724
3586.74,4.155007748363494,4.242474893952739
3587.5671,4.184544943061308,5.578097530547666
3588.3923,4.2215368327905995,4.813531257776891
3589.22,4.255172763984487,4.3830345488218345
3590.0457,4.273633225193949,3.985436260798667
3590.8716,4.269593879217644,3.4636557115338507
3591.6995,4.243540106080633,3.3396213255232174
3592.526,4.203548925997457,4.414738097251829
3593.3542,4.159985026266584,5.016129239635858
3594.181,4.121178843815764,4.448959393514618
3595.0098,4.091315533061161,6.757932373673165
3595.8367,4.072064268377035,7.451035983446504
3596.6638,4.062682555095951,3.820697831681588
3597.4934,4.060830722267568,4.98156244502154
3598.3208,4.063992323081321,5.135570262712979
3599.1506,4.070692741625234,6.70043793788113
3599.9788,4.079343093760967,3.24548001397669
3600.8088,4.086613424681929,5.121341992197633
3601.6372,4.088901511365106,4.585861406273202
3602.4678,4.087086011549819,5.672426485420431
3603.2964,4.088476015529495,9.013542162205612
3604.1252,4.1021555654340185,4.930675477624158
3604.9565,4.131469199941475,3.338759006475361
3605.786,4.170273803335851,5.525643892952966
3606.6172,4.207050879203511,5.330339583289353
3607.447,4.23108925923225,3.2137219437576214
3608.2788,4.237836147936535,3.017385875978321
3609.109,4.229094355515907,3.5799673798400486
3609.9392,4.21002550722864,4.06833782999094
3610.7717,4.184641490450402,5.024922910856482
3611.6023,4.154006894666472,4.140701620578911
3612.435,4.117767793929441,5.521730979173654
3613.266,4.078774746606156,3.8530170360815537
3614.0994,4.044068408979268,4.3714089172947626
3614.9307,4.022597236743246,5.759256182746686
3615.7625,4.019219024890906,3.9971821771656932
3616.5962,4.031504295882285,5.299268258012277
3617.4282,4.0503361690834305,2.8463940496769817
3618.2625,4.065059965345547,3.945986123765946
3619.0947,4.06902547409659,4.507250723901436
3619.9292,4.062780386898689,3.565719425952104
3620.762,4.052357452482482,4.0128133209342405
3621.595,4.044275896345905,5.6058882231756275
3622.4302,4.040797314062816,5.188291122077998
3623.2634,4.038716440225911,4.14541138545228
3624.0989,4.032378146845911,6.957304389133635
3624.9326,4.0185347785126755,6.608125408137899
3625.7686,3.9987951117060327,6.010181692794028
3626.6028,3.9784010918946056,8.273809897914196
3627.437,3.961971150333117,10.972985942411485
3628.2734,3.95093718927722,5.5122717254449505
3629.1082,3.944449725583661,4.872271947538976
3629.945,3.9419220419787955,8.709892633123738
3630.78,3.943997783580126,4.970812700451494
3631.6174,3.95027233543229,19.00006696520243
3632.453,3.9567109143778585,4.22991469139909
3633.2883,3.9564100371518456,5.821695552340625
3634.1262,3.943770250213139,2.2435216276340015
3634.9622,3.9192031603401603,4.2104523522835136
3635.8005,3.8891174803689337,8.654115851941173
3636.637,3.8612876053248035,4.182555041689835
3637.4756,3.8384820625346308,4.2910361393696785
3638.3123,3.8185032284724105,8.511241312315448
3639.1492,3.7989819671433867,3.524004727534628
3639.9885,3.7821828618474953,3.78142261659927
3640.826,3.7736480413862123,4.29137635180423
3641.6653,3.7763059619702366,6.586972227044594
3642.5032,3.7873667749631115,4.192235341545144
3643.343,3.8005244115508074,5.8665623140009275
3644.1812,3.810400465649728,5.121125765470808
3645.0195,3.8153916130979955,4.060047114100103
3645.86,3.8173126558257477,3.561294053588528
3646.699,3.8197839074576425,5.951277537163367
3647.5398,3.826549962549994,3.3545139506132844
3648.379,3.840086738682068,9.29241368089058
3649.2202,3.860819140151952,6.813945967041032
3650.0596,3.8862194447978347,4.59451085991502
3650.8994,3.911245415308847,3.63947388843338
3651.7412,3.9295795509735885,5.566747796505146
3652.5813,3.9359480756323038,4.816458743153131
3653.4236,3.928271087967848,5.4277540549723025
3654.2642,3.9081516480411924,4.637010950897953
3655.1067,3.880012516001681,4.923164482481675
3655.9475,3.849677041604352,5.393515740926495
3656.7886,3.8219385973931783,6.0128022642055345
3657.6318,3.7995361226976776,8.059321808298206
3658.4734,3.7834731977843687,6.247042267627681
3659.317,3.7732684210527783,5.851239140977643
3660.1587,3.7670305222020386,3.9418397844979065
3661.003,3.7611735343132042,5.753028852963514
3661.845,3.7524122967451508,3.7867356856303536
3662.6875,3.7403290709458568,5.513889887849605
3663.532,3.7274008244703163,13.617748132196247
3664.3748,3.7157137712782125,6.507701136972184
3665.2197,3.704115206585957,5.767327687752333
3666.063,3.6898900757578743,4.893017499511667
3666.9084,3.6719928102703516,8.599686916290604
3667.752,3.6523887883822446,6.5893064148551685
3668.5977,3.6334550288290544,5.683429320315632
3669.4417,3.615796342667323,9.009550589619783
3670.286,3.5979527722959572,4.754234152919861
3671.132,3.578881332918041,4.641785199883324
3671.9768,3.560279300764381,6.197286541937427
3672.8235,3.546280271530542,5.049018050626522
3673.6685,3.5414185478411713,7.095316469555515
3674.5156,3.5476587184770763,5.785405983076917
3675.3608,3.5628795657407824,4.744730187133459
3676.2063,3.581221950920247,6.4366452883445575
3677.0542,3.595206236772971,4.2422713705411415
3677.9,3.599116695685842,6.078529005880156
3678.748,3.592330438935032,6.916569694890439
3679.5945,3.579366869161415,4.691989173350983
3680.4429,3.5662953540033575,6.6518252829604005
3681.2896,3.556565664863394,9.243466480483846
3682.1365,3.5496048298104657,5.833016710844893
3682.9856,3.5435759439059242,5.641772249276462
3683.8328,3.53897032800187,4.886515425601814
3684.6824,3.5395317489217297,7.802859821302818
3685.53,3.5496364448267825,7.856639364106313
3686.38,3.5698995803914135,9.575773082719056
3687.2278,3.5944446895342264,8.794589155653732
3688.0762,3.613200990331219,4.828024775946971
3688.9265,3.6170382947319064,8.278949371336122
3689.7751,3.6026202676344843,6.418002105528107
3690.626,3.573637588371521,5.9603584202028745
3691.475,3.538996362402852,11.121879559955344
3692.3264,3.508879298612254,3.81798356617361
3693.1758,3.4917690940212407,6.50805216942158
3694.0254,3.491292080893261,5.85557836218039
3694.8772,3.5055814073729565,7.4807962075315695
3695.7273,3.5280640788760795,5.2446107210996615
3696.5793,3.550513574248815,5.45908656372805
3697.43,3.5660097055654045,7.836313592956589
3698.2825,3.5715081559464594,5.533688451460115
3699.1333,3.568074356975262,5.1023384029584085
3699.9841,3.559760031164939,6.011822974464861
3700.8374,3.551363330677653,5.930970695429321
3701.6887,3.546493498793497,4.391044016819433
3702.5425,3.546213053439015,7.4437347347248295
3703.3943,3.5488890063197127,7.136511180169346
3704.2483,3.550860192952194,5.6529653788065835
3705.1003,3.5480603791423273,5.640718234931717
3705.9526,3.5381888852155834,3.62534027931767
3706.8074,3.5218868288978444,7.193088647729049
3707.66,3.502054263838672,6.839969852679043
3708.515,3.481077353296965,6.71564049781007
3709.3682,3.4595670932747136,5.792170356546585
3710.2234,3.436660068339845,5.635990523290291
3711.0771,3.4122733333487214,6.753440610830891
3711.9307,3.387409387319566,11.56965479869256
3712.7866,3.3630241623729322,7.5832927931593135
3713.6409,3.339288661510616,7.545560193709757
3714.4973,3.316243651703089,4.823571607706609
3715.3518,3.296131494851596,2.9283615417227167
3716.2085,3.282655747706287,6.435838910456448
3717.0635,3.278411814575037,8.193602498120788
3717.9185,3.2825339352492495,5.600710349191604
3718.776,3.2922072696317644,7.175271822396564
3719.6313,3.3052344702376253,8.452331788398252
3720.489,3.320620074315687,13.353379185652534
3721.345,3.3365989353370593,6.303104811017721
3722.2031,3.3506125688704502,4.909470279951533
3723.0593,3.3612973223266374,7.611798298222434
3723.9158,3.3702184367589716,12.939083465918259
3724.7747,3.379976423921866,7.940493407829454
3725.6316,3.3914720810237955,4.0979931340197755
3726.4905,3.404104572779522,6.978850551887264
3727.348,3.4175808536805996,9.874760515232484
3728.2073,3.432463584653575,6.404092233010553
3729.065,3.4479722624850346,5.127934684438189
3729.9229,3.4611415307144333,7.6257960180019415
3730.783,3.4685462164132597,6.229530197280596
3731.6414,3.468894996667916,6.342991254545033
3732.5017,3.4633834218745134,5.545807713541867
3733.3604,3.453560551225602,5.368168159531287
3734.2214,3.4393774241843964,4.820789020553569
3735.0803,3.419667975106026,4.962932143833886
3735.9417,3.3936820836696806,7.2458748806165545
3736.8013,3.3630912351800806,6.3956163131768955
3737.661,3.3318596160799956,13.13789198359288
3738.5227,3.3056071349092293,5.903249527361277
3739.3828,3.290358396638958,5.627106551073515
3740.245,3.2898906371603105,8.806370615351565
3741.1055,3.30346672135169,5.12094929489707
3741.9683,3.3253332790034005,7.73984204173045
3742.829,3.3474346216604136,9.155120267530197
3743.69,3.3641390764702845,6.387351325245853
3744.5532,3.3742666649343027,9.39716346242252
3745.4148,3.379820701000854,8.076383485162228
3746.2786,3.383482436965558,8.130628086783988
3747.1404,3.386648610872594,7.5080898553999456
3748.0044,3.388910280886647,7.525369568339223
3748.8667,3.3882308338438043,7.412350478794568
3749.729,3.382454257128915,5.027330301527492
3750.5938,3.37185458503803,7.953817331487968
3751.4565,3.3607597781621137,6.98508287833746
3752.3215,3.355085687993827,5.313004691392812
3753.1848,3.3572876210881093,5.883088608498546
3754.0503,3.3629531467159848,6.490534759329332
3754.9138,3.363355194865944,5.016073715659552
3755.7776,3.3524260783133735,9.555779974227065
3756.6438,3.331659129286196,8.96938416454616
3757.508,3.3087976484907555,9.82539746306939
3758.3745,3.2908381620599134,5.087467615163788
3759.239,3.279138956592339,5.75105059492225
3760.106,3.269849050176515,4.538885620625505
3760.971,3.2594044804770306,6.8676574536223045
3761.8362,3.2484833419303576,6.286528472470101
3762.7036,3.2413625025285726,6.75718984880765
3763.5693,3.2415399537372114,13.937490195775155
3764.437,3.2480240405210354,7.708244333407058
3765.3032,3.255982295332784,5.814296212251884
3766.1714,3.2608269921745774,4.938691009977765
3767.0378,3.2611417751488716,10.368553951006685
3767.9043,3.2578131533029007,11.369099287209103
3768.7732,3.2511985518151834,4.836309798103968
3769.6401,3.2409155866090846,7.556592353020221
3770.5095,3.228264091162926,10.210969904909758
3771.377,3.217746870798539,10.035187660041364
3772.2466,3.2140675165827854,7.354063073653556
3773.1145,3.2177058065184325,9.26092719649831
3773.9824,3.223359448940047,5.99381338823045
3774.8528,3.223517881363504,5.949844914662055
3775.721,3.2139020281141475,6.517702889152622
3776.5918,3.1960372229495646,6.915442650199403
3777.4604,3.175604357866935,9.860529988767018
3778.3315,3.1584135021804185,6.835593673935495
3779.201,3.1487200516862384,7.757182706583159
3780.0703,3.14923753241525,8.433099606665657
3780.942,3.1619705848810336,6.803982471959936
3781.8118,3.1870038941294645,7.159131377627356
3782.6838,3.22063380675013,14.768250614840886
3783.554,3.254322555957947,6.273182405604363
3784.4265,3.2780301983147746,8.904562987874446
3785.297,3.2847915073294915,8.081162730406577
3786.168,3.275062828757009,8.515322160881322
3787.041,3.2556861454156416,9.889847105317568
3787.912,3.235202836815265,6.591038871927633
3788.7856,3.2184893217790327,5.523206237488601
3789.6572,3.2059973090142866,5.710479080015338
3790.531,3.1958741875576986,8.923188170795822
3791.403,3.1867950357024197,6.009128418889017
3792.2754,3.178423782852089,6.672674824950186
3793.15,3.170859582371301,7.349704606599349
3794.0225,3.163931882562581,11.913248281070734
3794.8972,3.156573827725231,7.168615509812366
3795.7703,3.1471571383293298,6.517541027195792
3796.6455,3.1348202150449493,8.127005516587943
3797.519,3.1215826263008117,6.466831741658595
3798.3926,3.112235197901248,10.159231005773263
3799.2686,3.1114133367185524,6.2752848611699354
3800.1426,3.119452841509652,8.917908750704468
3801.0188,3.1310868136183156,8.526205184025487
3801.8933,3.1385741312981827,4.679902942710004
3802.77,3.136926805753694,7.431877038688891
3803.6448,3.126322741368915,5.534171015884638
3804.522,3.1104099244869747,7.504026874675366
3805.3972,3.093277208167127,5.801004481374559
3806.2727,3.077695045111922,7.322070995224718
3807.1504,3.065765247188141,9.120282171436509
3808.0261,3.059499009771616,6.966615209077904
3808.9043,3.059882095900195,9.702825900301239
3809.7805,3.065865574431832,5.846048220392913
3810.659,3.0745858001986326,8.693505412674707
3811.5356,3.0830188298090144,8.227229950008887
3812.4126,3.089686063808014,9.595055904972671
3813.2917,3.0944897943488234,12.575028377651218
3814.169,3.097250282698949,7.04167899965892
3815.0483,3.0968721368348224,7.758989109420826
3815.926,3.0922530012913856,8.150657365599566
3816.806,3.084014463809899,7.3238312879001475
3817.684,3.074692741996886,8.849037081306722
3818.5623,3.066414996023986,8.515451207510663
3819.4429,3.0587078177326856,11.353055345099298
3820.3215,3.0489939603605833,6.629370288005127
3821.2024,3.035344215744321,6.9479617382624035
3822.0815,3.0190244714600816,8.128580449697274
3822.963,3.0035673307400392,9.497017528520239
3823.8423,2.9920841600218484,7.649061104326476
3824.722,2.9849546533479527,7.969781175629649
3825.604,2.9805919925674225,8.321846055136332
3826.4841,2.977273464670032,8.249894127373922
3827.3665,2.973611785018152,9.669319411065468
3828.2468,2.9675356943300413,7.925558747849936
3829.1296,2.9555307638214607,9.359959980312336
3830.0105,2.934259616769139,8.284017307478559
3830.8916,2.9030563723010303,9.62305702374343
3831.7751,2.8653035350759137,10.154229090319754
3832.6565,2.8276800431906457,13.33031736586215
3833.5403,2.796917770481559,9.81261070397743
3834.4224,2.7781729578935113,14.299736178688182
3835.3064,2.7729946223897475,9.883688030300567
3836.1887,2.7791698556839295,10.917553164047874
3837.0713,2.791613898567938,10.194445817732293
3837.956,2.804911581160539,7.955667301514396
3838.839,2.8157163904983737,12.25810206398598
3839.7244,2.8240807666327905,8.649382718130763
3840.6077,2.832567932055681,6.6918417369630365
3841.4932,2.844502687575166,8.569102631989903
3842.377,2.8615085498712993,9.562886746901652
3843.261,2.8822271115021874,8.887176495971973
3844.1472,2.902890578925951,9.722533852262012
3845.0315,2.9199836854571384,8.77763537644493
3845.9182,2.933608166723418,10.789419480966805
3846.803,2.9475065059122714,9.90467536157902
3847.69,2.966150054877664,10.074893405331304
3848.5752,2.9902451814873547,7.758264173923268
3849.4604,3.015768336206687,6.99554598934792
3850.3481,3.036876548738947,9.844876063770018
3851.234,3.050088675356713,7.5842191468754985
3852.122,3.056418915403178,7.409543674864841
3853.0083,3.0593627735481244,7.583205246099814
3853.8967,3.0621056071638844,7.320880032245105
3854.7832,3.0656905315549707,8.17061183780751
3855.6702,3.0689693736570214,8.973868562065432
3856.559,3.069530148993681,5.931490853249263
3857.4463,3.0654321754417424,7.648826437566135
3858.336,3.0570498649612374,10.323668568236767
3859.2234,3.047591863597332,9.337423069944071
3860.1135,3.0410836980653446,7.661360032071635
3861.0015,3.039794909972612,6.125741528306419
3861.8896,3.042881461042919,8.56974990525332
3862.7803,3.047296082335614,7.645437357128131
3863.6687,3.049331264354621,12.133270193213924
3864.5598,3.0461642470964407,8.749226391697375
3865.4487,3.0369805437634922,6.1037358710182055
3866.34,3.023135152036434,10.907845956987982
3867.2297,3.00701130742196,8.357557506236317
3868.1213,2.9897168409085477,9.498732790900767
3869.0112,2.970580751329785,6.734081117198874
3869.9014,2.94847140151788,6.9251852822819755
3870.7937,2.924032334406904,11.016361201848602
3871.684,2.899989325376054,10.47664296481589
3872.577,2.8786465364519684,8.674482954812163
3873.4678,2.8605352015373953,7.937389925406889
3874.361,2.8444406835753178,12.140300458769223
3875.2524,2.829375409906089,8.035590616561603
3876.1438,2.8147005740964963,7.285262461970701
3877.0376,2.7990885583768046,12.111773610398462
3877.9297,2.77998405848202,10.778972227171801
3878.8237,2.7547767803929664,5.547453361512664
3879.716,2.7235354134813865,12.9401426438358
3880.6108,2.6892255489835004,18.853710881793774
3881.5037,2.656183938281374,10.254621097300106
3882.3965,2.6265797934984043,12.193626105017875
3883.2917,2.5994862942656876,13.732100269056627
3884.185,2.57267622047211,10.34463493657873
3885.0808,2.544957749452239,9.301800084286318
3885.9746,2.5180150542625412,9.844951993329092
3886.8706,2.494434479330536,15.981245105560522
3887.765,2.4755958162439113,17.05615805874504
3888.6592,2.4604766575762653,12.338043969092297
3889.556,2.447839748041592,10.690434480445315
3890.4507,2.439128809951026,13.366831626353598
3891.348,2.4387470416254016,10.404590196426371
3892.243,2.4512397903207126,11.300500329694385
3893.1406,2.4773493542993648,15.125982657864801
3894.0361,2.5122298738373203,15.776658309070024
3894.932,2.5481414740442236,9.996483194619866
3895.83,2.5782628756877815,9.12959692941458
3896.7263,2.5991424083649117,8.284831955686006
3897.625,2.6113991554606453,8.433921096261654
3898.5215,2.618252680967557,9.42593831929173
3899.4207,2.62470909188441,10.302759595271196
3900.3176,2.6361134744153003,13.094881431371741
3901.2148,2.6564054435887465,7.226374831936026
3902.1145,2.686321851163112,10.159138031583877
3903.0122,2.7227444596283217,8.411203266542303
3903.912,2.7609493310965507,10.19526642546709
3904.8103,2.7966931294985797,12.697823395519647
3905.7107,2.8286899189734123,9.422610446850639
3906.6094,2.857883741273949,8.60147382214094
3907.508,2.8860542380001752,8.879347433862712
3908.409,2.913320204706086,7.127663587804032
3909.308,2.9370887139126607,7.032214551696185
3910.2097,2.9539692703383538,9.554109706875042
3911.1091,2.962108454971139,9.188064368237871
3912.011,2.96302965617513,6.789998680208845
3912.9111,2.960566431232261,7.919448662653888
3913.8113,2.958813599196188,7.087578011411988
3914.7136,2.9606628570477533,7.046877489487868
3915.6143,2.9676298357490425,7.29387385153378
3916.517,2.9802146255868562,8.75502471613647
3917.4182,2.9976336946333455,8.790406517614015
3918.3215,3.017586754993945,11.216034804718468
3919.223,3.0362734496448573,5.979300293906498
3920.1245,3.050316477276202,6.598907797206513
3921.0286,3.0585019952246184,11.250423509499878
3921.9307,3.0622546088127063,7.652821742257958
3922.835,3.0643041112510923,7.369461491354101
3923.7373,3.0665009535663206,8.085783223180199
3924.642,3.068878081980055,5.394001816641471
3925.5452,3.070226579453799,7.530703826670789
3926.448,3.069589513685931,6.076862026193973
3927.3535,3.06734502097239,7.957561212235387
3928.257,3.065322676382094,6.920545859661759
3929.1628,3.0657936740835905,7.229112130480223
3930.0667,3.0699143985133257,8.842128234141887
3930.9731,3.076458533534904,7.43816984776425
3931.8774,3.0817934696175397,7.809000116631365
3932.782,3.0817897225479953,7.074558068043936
3933.6887,3.074237348295766,9.005639642379355
3934.5938,3.0602506075525038,9.819989144273395
3935.501,3.043174261044081,10.251201500695544
3936.4062,3.026531433406564,8.404183955626657
3937.3142,3.0122051655067947,9.314033647757057
3938.22,3.0009293919253563,10.05089236749996
3939.128,2.9929106554434117,9.002785852231113
