wavl,flux,ivar
3566.9744,3.9044705354499127,4.603882955625194
3567.795,3.8787842283952227,8.250878076376628
3568.6177,3.849617082219432,4.808845111411312
3569.4385,3.8229721215850914,16.01358408292326
3570.2617,3.8014110683323175,10.239233196376166
3571.083,3.783989290527532,6.919146670252045
3571.9065,3.766244762183065,4.877345061744928
3572.7283,3.7428772855832495,7.879432880936075
3573.55,3.71104913518294,3.987102522818798
3574.374,3.672577897967857,7.255424916085991
3575.1963,3.632792203773122,6.434775376352757
3576.0208,3.596184646385383,4.927224851718092
3576.8435,3.565226344333902,4.8130145202256625
3577.6682,3.540999821652326,4.879718129371995
3578.4915,3.524980650381529,10.751335806613833
3579.3145,3.516877648738907,6.022934889874018
3580.14,3.5124009841920274,5.677353872467565
3580.9636,3.5048504902334754,6.695890426920226
3581.7893,3.490740858649707,7.621709230378765
3582.6133,3.474425328764295,8.539648498480085
3583.4395,3.466280286854314,8.523834710990942
3584.264,3.4760957473021006,13.70726867891456
3585.0884,3.5060649669897836,8.552247662393498
3585.915,3.5491101294012637,5.229114019918697
3586.74,3.59226138619386,8.080137288915475
3587.5671,3.6237143428401866,9.65452303765224
3588.3923,3.6364300798960127,6.366973184424345
3589.22,3.629215285525757,4.969718448569839
3590.0457,3.605041570998341,4.506231735121991
3590.8716,3.5697514495580607,6.366271492848127
3591.6995,3.531106909528849,6.725718361207604
3592.526,3.4974065829805765,6.972784556130762
3593.3542,3.4742048959117264,7.226806006761572
3594.181,3.4630092817531466,8.631867942951892
3595.0098,3.462205378237897,4.819342879066319
3595.8367,3.4706665972367388,7.039748920439055
3596.6638,3.489229049522627,7.0446392431978015
3597.4934,3.5183171416728816,9.581883721852147
3598.3208,3.553656353111961,4.781679630331694
3599.1506,3.5862117870972803,11.458888116014863
3599.9788,3.6057893029617403,7.180901351809354
3600.8088,3.6076018874476117,6.975115676249098
3601.6372,3.595024526348317,5.527112957837785
3602.4678,3.577923509614755,3.7354973160756617
3603.2964,3.56774162961312,5.618843083484893
3604.1252,3.5715847681291666,13.624147877607914
3604.9565,3.5888842280710587,5.451993949013898
3605.786,3.611473707468065,7.25333630219394
3606.6172,3.6280775869903703,7.159455811569048
3607.447,3.6297976983825757,5.230706384760224
3608.2788,3.61510906282948,3.9578517431375553
3609.109,3.591296193437144,4.704187440202983
3609.9392,3.5704957087003715,6.010318844191848
3610.7717,3.5619329304040317,8.818105743627816
3611.6023,3.5655232284856164,11.040243472280066
3612.435,3.5725802017751844,6.117277444916938
3613.266,3.573547091215594,4.716809807029811
3614.0994,3.565725165583137,4.486499776910225
3614.9307,3.554164669388775,16.269247619442524
3615.7625,3.545496962396582,6.54751607013141
3616.5962,3.5414950924142485,6.358130872738767
3617.4282,3.538372446161866,5.560477346923834
3618.2625,3.531790592933721,7.241411487167525
3619.0947,3.5220246024656436,5.641027548823058
3619.9292,3.513886413498349,7.821760945522048
3620.762,3.5123401378422914,9.675289770729265
3621.595,3.5177280260456962,6.4042066406447296
3622.4302,3.5251357096545592,9.911484513937936
3623.2634,3.527969239750897,11.637414784673837
3624.0989,3.523057019623387,8.392326018505637
3624.9326,3.5126396081442732,5.3840460838474575
3625.7686,3.501642726846461,5.440118065255034
3626.6028,3.493238374105532,10.799293166101524
3627.437,3.486653217682158,4.766551837021033
3628.2734,3.4792587247000326,4.469960331048107
3629.1082,3.4696312252010886,7.699766017719658
3629.945,3.457659894721093,15.888719799276625
3630.78,3.4422853079525755,10.868428857607189
3631.6174,3.4199524819337164,11.86449010727002
3632.453,3.3874859116986253,9.019626038574442
3633.2883,3.345902693941671,5.853469739889062
3634.1262,3.301780807629215,11.13644434528415
3634.9622,3.264490908415265,7.516854336563751
3635.8005,3.2404402606806464,5.523224030656629
3636.637,3.231041404440882,6.54938018516243
3637.4756,3.2331194653675146,6.382523443215268
3638.3123,3.2420276189303365,6.993977334360809
3639.1492,3.2539083153670427,12.721967148518806
3639.9885,3.266118045549186,6.287970982848626
3640.826,3.2761652403959163,10.30131523362912
3641.6653,3.281215025454088,4.532658795645357
3642.5032,3.2785343233385777,7.389472816543839
3643.343,3.26722645813284,4.2589593171068945
3644.1812,3.2497106318615794,7.027009951408503
3645.0195,3.2313027641953687,12.87714716668767
3645.86,3.217784785328907,10.864923720512362
3646.699,3.2120368805283417,7.717656857120048
3647.5398,3.212089336688539,7.1632124322869455
3648.379,3.213072675530708,6.179102927021157
3649.2202,3.2111691067332373,9.216976992140479
3650.0596,3.206102417386594,16.18905501665349
3650.8994,3.2000618221981183,7.523245427167588
3651.7412,3.1949535621119716,5.959164564652603
3652.5813,3.1907798903329154,9.57226882149791
3653.4236,3.1856021609570195,13.070171406934953
3654.2642,3.1765686695467306,7.934790095585665
3655.1067,3.161831446057372,5.905087636837658
3655.9475,3.143855322750909,10.072125966768713
3656.7886,3.130542634307999,6.8274740030612096
3657.6318,3.131415105530413,35.83971447720106
3658.4734,3.149950040781107,10.934933444529978
3659.317,3.1794940435892975,6.39081799173705
3660.1587,3.2072353385063703,7.251134980597939
3661.003,3.2237863751591607,5.552781996790735
3661.845,3.2282866921409887,7.910146925930638
3662.6875,3.225890062827762,7.709777359837251
3663.532,3.2202964032316617,7.09354143348723
3664.3748,3.2104150775286358,6.080053486986096
3665.2197,3.193723228996922,5.49996074988042
3666.063,3.171775694807669,9.6921427196962
3666.9084,3.1503374845724514,9.41777661670765
3667.752,3.1349685985770916,14.722500358715005
3668.5977,3.1262205745485225,14.235945045739058
3669.4417,3.1202552512838952,9.347774691963814
3670.286,3.1128771765261583,11.341891581807742
3671.132,3.103267267015995,9.079656110205704
3671.9768,3.0937263617817488,11.735785563249078
3672.8235,3.085980274105999,12.469620530025406
3673.6685,3.078547375763014,8.982722045351522
3674.5156,3.0674716359628977,6.899404537717932
3675.3608,3.04974343675559,11.464474213292213
3676.2063,3.0253965771281948,10.404581561554382
3677.0542,2.997432219535238,13.57710443458751
3677.9,2.9707501996912113,9.471905157842807
3678.748,2.9502938055143115,6.851236388153827
3679.5945,2.9402995370353926,15.780340068109354
3680.4429,2.942410348798304,10.69944787097505
3681.2896,2.9548604684430617,10.195938107081922
3682.1365,2.9731506952455518,14.193851214671188
3682.9856,2.9922204091380293,20.21595916244566
3683.8328,3.0081209618797846,14.313993909220429
3684.6824,3.018880309549446,9.6413449578135
3685.53,3.0240585830028675,8.922416592299976
3686.38,3.0248144005546487,5.538677469883656
3687.2278,3.0232860918462316,8.720704280361844
3688.0762,3.0213278629780427,10.759831722726469
3688.9265,3.0189832452083505,13.499898871072727
3689.7751,3.0141946478959776,14.11410900990116
3690.626,3.0045295164976653,12.671043735136983
3691.475,2.99015789631397,17.08053018659079
3692.3264,2.975015097168059,13.470720170017067
3693.1758,2.965097123356998,22.063320551417018
3694.0254,2.9642543661508842,7.623488233036804
3694.8772,2.9716324622242674,14.647440478238032
3695.7273,2.982226736693833,6.582064053815815
3696.5793,2.9904797011531126,12.371305047329232
3697.43,2.993286283857319,5.805871814925896
3698.2825,2.9902565775606202,12.664623778067005
3699.1333,2.9815599417781287,12.428515287463727
3699.9841,2.966796266536327,6.04283809397338
3700.8374,2.9464319877786647,12.024177037500836
3701.6887,2.923856555303445,8.132772552321935
3702.5425,2.9042322751093375,7.868918755879155
3703.3943,2.8919403440664797,18.542638511697113
3704.2483,2.8880947024909798,10.851447240741662
3705.1003,2.8910822748973075,8.891490499074953
3705.9526,2.8981819054258504,7.544150781064027
3706.8074,2.9072527889409536,8.650323624457824
3707.66,2.917311056849424,12.708265033751628
3708.515,2.928037830716465,9.344126201735346
3709.3682,2.9377551450317565,21.49296013726445
3710.2234,2.942412358808734,12.579898596877808
3711.0771,2.9369660357355216,9.913490597919854
3711.9307,2.9193306283254357,12.013417005293093
3712.7866,2.892965270753009,17.342046503610383
3713.6409,2.865757182799412,10.416596186226025
3714.4973,2.844676273281716,12.810327228060745
3715.3518,2.8317460023345427,43.13909113281417
3716.2085,2.82303484224574,10.333291677289903
3717.0635,2.812678999101588,9.259683951470445
3717.9185,2.798315190677851,11.392227383001254
3718.776,2.7841240347232303,16.749737021863048
3719.6313,2.7781009275074706,12.8402573302165
3720.489,2.7849516684529716,11.301250470238863
3721.345,2.80154348167014,7.892284906551751
3722.2031,2.8188265818846716,7.373841089611796
3723.0593,2.827572656314181,17.035192476467547
3723.9158,2.8235211113138434,8.237710211399474
3724.7747,2.8084717610287964,6.128782711892754
3725.6316,2.7889621728380924,10.620743160582741
3726.4905,2.772603602945307,10.205701407976857
3727.348,2.764568012174542,8.0575298577629
3728.2073,2.765530166290732,6.903791992931783
3729.065,2.7731716876269696,11.909310727973674
3729.9229,2.7850125355647415,10.596177471788378
3730.783,2.7995727577845426,19.345304450055696
3731.6414,2.8148121092389062,23.80547646343816
3732.5017,2.827043154108029,14.203171339312814
3733.3604,2.832226973796216,9.325723297145965
3734.2214,2.829392309802722,10.97049868031482
3735.0803,2.8215667847532533,8.701275966982713
3735.9417,2.812833285673194,12.419199613854756
3736.8013,2.8047195538110676,9.51867097078506
3737.661,2.7957013723113833,10.508145297513025
3738.5227,2.7845217609416597,9.879989134135522
3739.3828,2.773283304663296,13.385319200034079
3740.245,2.766369331831424,11.437375340416004
3741.1055,2.7664403917387737,10.198334466535508
3741.9683,2.7712146047075255,13.354652772310956
3742.829,2.774971177520553,9.607627139240382
3743.69,2.7738105345800843,7.874874010134524
3744.5532,2.7697250373915288,17.469181043873576
3745.4148,2.7695086613418733,10.089484580150032
3746.2786,2.778962907979004,11.506869449938625
3747.1404,2.797682711609103,14.334068783298399
3748.0044,2.8192127627447827,7.9886077396027755
3748.8667,2.8352481666955844,12.143588490136432
3749.729,2.8405435903437466,15.812946060028082
3750.5938,2.8340581426105853,13.139049066761107
3751.4565,2.8178416092179868,9.201426337497892
3752.3215,2.7954931787108404,7.550480619126176
3753.1848,2.7718447729215163,9.756324695713156
3754.0503,2.751878833957483,13.032863238229229
3754.9138,2.7396055499313827,4.8590939645271565
3755.7776,2.7362272941617953,14.951387365313234
3756.6438,2.7398878205943507,19.074674939522456
3757.508,2.7464009519898065,8.347436182277393
3758.3745,2.7512988587219707,14.254328807010994
3759.239,2.752018709782362,10.485284633812054
3760.106,2.7491939119316093,12.769520682350258
3760.971,2.746025300472045,15.066737098762355
3761.8362,2.7463117499082537,8.657300973545082
3762.7036,2.7523954909643322,14.702321532927337
3763.5693,2.7637421567340588,7.522371359634694
3764.437,2.7772177459316034,9.688615640018384
3765.3032,2.7889634657339992,10.265544812117488
3766.1714,2.7972932129047594,14.350794424233603
3767.0378,2.8033747988491666,11.670050529291563
3767.9043,2.809095489900969,10.744023312465849
3768.7732,2.813700050079896,11.43135228514333
3769.6401,2.813100268404501,10.770981204740963
3770.5095,2.8031371208995797,10.227547629625464
3771.377,2.783673923561654,9.092305567823669
3772.2466,2.758951468861236,15.161160585424073
3773.1145,2.7344920467286133,18.441942859882214
3773.9824,2.7133259959060663,13.229131558937098
3774.8528,2.69617078663356,17.213958296517568
3775.721,2.6839810699574773,8.868298841077776
3776.5918,2.678995502430093,12.616325518815238
3777.4604,2.6835736695317594,18.989380997180497
3778.3315,2.6974781193261066,11.54649012868393
3779.201,2.7166248556627215,7.8890713020644405
3780.0703,2.7348489093457617,10.24114398904588
3780.942,2.747037276484335,12.3536434983918
3781.8118,2.751109652575958,15.645054737910117
3782.6838,2.7474629470524556,23.204630339080765
3783.554,2.736915821965479,12.395655501088031
3784.4265,2.7201979666738723,10.584992604819647
3785.297,2.6993750248993176,9.622256843650128
3786.168,2.677748602097316,21.96698585748471
3787.041,2.6578544136113926,10.573029212505013
3787.912,2.639609693781285,8.920264243756899
3788.7856,2.6208480922552138,15.58633624815096
3789.6572,2.600795445337765,8.26756082927097
3790.531,2.5816754914215503,9.85684071677337
3791.403,2.567617752542774,12.21508877785218
3792.2754,2.5606080833572222,13.18672657870428
3793.15,2.5582757892401964,14.761979443419385
3794.0225,2.555407339436762,12.201447430703302
3794.8972,2.548212609199761,11.184379062606101
3795.7703,2.5373966779594324,15.720481567820201
3796.6455,2.5269685876713632,20.39865522091803
3797.519,2.5206447546937154,10.066171694377156
3798.3926,2.5188714448807135,14.369357420228258
3799.2686,2.518928280734642,7.064746957565077
3800.1426,2.5166299297731953,17.73815158121433
3801.0188,2.5079828161523983,11.484900950933087
3801.8933,2.4907714072476117,16.658633218725022
3802.77,2.466645977078499,11.491554310971114
3803.6448,2.4435111628406125,13.888160315859658
3804.522,2.4336466151332385,15.380224467261062
3805.3972,2.447216449947568,884.2142526848817
3806.2727,2.4843086298038717,8.197102395080647
3807.1504,2.5337792503555345,14.844758667320097
3808.0261,2.5792612143811895,12.313781983304613
3808.9043,2.6085607049171835,12.234375298457804
3809.7805,2.6171594888589857,14.131374407811252
3810.659,2.607906255040497,12.343439377416127
3811.5356,2.587840428307173,16.58381357565536
3812.4126,2.565405091519752,10.993604004658051
3813.2917,2.54829761779933,13.995878375521382
3814.169,2.5416749358442363,11.185833816464358
3815.0483,2.546495199986292,9.538433797552765
3815.926,2.5596341376657503,9.744003887074102
3816.806,2.5756367248643075,10.408097713931037
3817.684,2.588666661781748,15.079642082536665
3818.5623,2.593817916038683,14.975914526643132
3819.4429,2.587196296571098,20.9450362875381
3820.3215,2.566902958384322,9.649927910942685
3821.2024,2.534614873867727,9.728101524410963
3822.0815,2.4968120030860184,20.2254463921685
3822.963,2.462224688549167,12.417114755239485
3823.8423,2.437707547603089,14.712897742873716
3824.722,2.423612255482159,15.988474954263523
3825.604,2.4143880542920377,10.617698336135827
3826.4841,2.4033421348105493,12.569347789456101
3827.3665,2.387818659524321,13.752228167167267
3828.2468,2.3709046246189076,15.033431772123162
3829.1296,2.358009037977005,14.080655732138688
3830.0105,2.3524976074763635,13.941723787066447
3830.8916,2.353066160060056,16.49345486519784
3831.7751,2.355110192667558,39.48797532246232
3832.6565,2.3540121908256735,9.772088805691872
3833.5403,2.3479854579545223,17.252539600526305
3834.4224,2.3385127124819394,19.779314675797764
3835.3064,2.3283076658726976,25.14105987544874
3836.1887,2.319059507469394,19.020661447461684
3837.0713,2.3106993086077203,17.581467443082182
3837.956,2.3031565823455087,12.058547639888252
3838.839,2.2984093645325308,15.851496177636717
3839.7244,2.300160863569196,15.001649875541375
3840.6077,2.3110140315815286,16.8139750940994
3841.4932,2.329587773893078,15.455630664116287
3842.377,2.350434441565545,9.556637518703813
3843.261,2.3677204095611195,11.341386765102001
3844.1472,2.378825038674349,9.864707046994024
3845.0315,2.3851964200423454,31.810476759518444
3845.9182,2.390374020326445,12.773091444648172
3846.803,2.397148530484626,12.56306427084555
3847.69,2.4067649952689063,19.08417353419421
3848.5752,2.4195170595658864,11.068920926099501
3849.4604,2.4354315550526127,20.555259278430174
3850.3481,2.453658118258389,13.314721853758876
3851.234,2.4717140058680336,10.290927804923786
3852.122,2.486762268323661,29.697162312414186
3853.0083,2.497353555524543,9.941540248788215
3853.8967,2.504727490927659,16.909744283785265
3854.7832,2.511137400943176,15.031745140665848
3855.6702,2.5171387234198574,11.84122226498712
3856.559,2.5201545154143745,15.321319988296718
3857.4463,2.5164435764321023,12.960865206556578
3858.336,2.504847745742433,12.850476242687789
3859.2234,2.488747741465544,14.165279821079036
3860.1135,2.47394879494286,22.368223642064876
3861.0015,2.465139524744142,11.15040070307549
3861.8896,2.463131840012709,16.630507996147767
3862.7803,2.465334501913026,12.849390760381189
3863.6687,2.4677898122679296,9.773802466148108
3864.5598,2.4675724609672427,17.161047538040584
3865.4487,2.464201449946856,10.719405927716792
3866.34,2.4594606208846677,12.617973861911352
3867.2297,2.4557141625203154,17.10103198206387
3868.1213,2.4537506538554377,11.780980014035336
3869.0112,2.4520160970930434,9.669115153123188
3869.9014,2.447448930063003,8.798218582078924
3870.7937,2.4370024242030146,17.716885564175993
3871.684,2.419112372346425,12.475502284961754
3872.577,2.3947292861674523,22.72619283866965
3873.4678,2.3684592238408695,10.50690103912338
3874.361,2.3469452867059073,19.22230665363405
3875.2524,2.335334647890545,15.46983644569003
3876.1438,2.3325275537643426,9.643632472683823
3877.0376,2.3310244345388944,12.850921333286163
3877.9297,2.322079456622997,12.682639716820107
3878.8237,2.302498382150292,23.888767570074076
3879.716,2.2770305273166214,11.649905974314587
3880.6108,2.2534801294721407,11.227849373075989
3881.5037,2.236127219477717,23.19995644021993
3882.3965,2.22247845593569,27.649735443973228
3883.2917,2.2067001805569664,15.697858449312328
3884.185,2.1848936832340353,19.488339478751854
3885.0808,2.1567169380582842,21.124033996027215
3885.9746,2.1238422175132587,21.637579243824796
3886.8706,2.087168677398893,8.157762390851879
3887.765,2.047641389748835,28.71135643889275
3888.6592,2.0073957368632755,17.652456613836502
3889.556,1.9704740588075906,20.441910326936828
3890.4507,1.9416996345042772,36.588517153811104
3891.348,1.924134215175575,20.987472254842714
3892.243,1.9188639976130053,17.46978051052957
3893.1406,1.925379850974421,38.471743061137246
3894.0361,1.9426871575092697,13.185253780827239
3894.932,1.96948384015583,55.523832651768444
3895.83,2.0037929108732473,24.86349336078788
3896.7263,2.042822282694349,22.54116609688201
3897.625,2.0844689285013227,19.814364393308065
3898.5215,2.126787646563495,19.67282061042218
3899.4207,2.167803238957022,11.323285529923755
3900.3176,2.2038446381744192,24.085754138891186
3901.2148,2.231477104960957,9.181086792314307
3902.1145,2.2494816461800617,21.59212511184106
3903.0122,2.259960787801817,18.09800758355272
3903.912,2.2669975648410325,19.52727260645267
3904.8103,2.273545086067182,14.06038442573335
3905.7107,2.2803909857251976,9.910766589087677
3906.6094,2.287482026102371,17.302121084474614
3907.508,2.296017340319801,19.905350299023745
3908.409,2.3083579185005245,16.150059722665624
3909.308,2.325826107739707,10.536574520769776
3910.2097,2.347311688610618,15.247190277242733
3911.1091,2.3696568561131928,20.062519175345507
3912.011,2.3902614467629917,18.657356223120683
3912.9111,2.40821012429436,24.273912932106843
3913.8113,2.4243840233807425,24.3625726439381
3914.7136,2.4398713541671135,11.228035145729253
3915.6143,2.45464087324895,12.617472137245358
3916.517,2.467762775226281,13.39619402856253
3917.4182,2.4779814448621997,20.911993257509103
3918.3215,2.48433188318801,13.27476712911197
3919.223,2.485548355381632,15.061678468354458
3920.1245,2.4800289559267403,19.36659763007942
3921.0286,2.4669794329847523,18.282072492473773
3921.9307,2.448683295391782,10.247206745534188
3922.835,2.431003626128196,11.357954330282297
3923.7373,2.4213065717779303,18.326528616617882
3924.642,2.4237935966837014,10.923564487549868
3925.5452,2.436600445670332,8.039804773562441
3926.448,2.4530008305100743,15.397274583467935
3927.3535,2.466263302966809,11.322497019045162
3928.257,2.473826960880006,12.780103310959353
3929.1628,2.4778583723697545,13.414542850166264
3930.0667,2.4817546676445073,12.10925911273037
3930.9731,2.4869000896127607,7.801352500738402
3931.8774,2.49197775957748,9.402492026162383
3932.782,2.49471313804211,17.656423028222502
3933.6887,2.4935711402260257,10.083838721126545
3934.5938,2.488529144948282,15.300491568861197
3935.501,2.4808223509992353,10.344434522449891
