wavl,flux,ivar
3566.9744,2.8618489101906515,92.20526532966527
3567.795,2.859856353842118,95.90290768407161
3568.6177,2.85425817891036,101.05047483466504
3569.4385,2.846499560487227,103.85849277249324
3570.2617,2.83865004311743,113.39120364159234
3571.083,2.8327952417037223,95.18159014600185
3571.9065,2.8301511641606445,101.09979568654411
3572.7283,2.8307293324667455,98.633452726532
3573.55,2.8333402027265406,107.3017095737058
3574.374,2.8362054999791004,100.0827667086123
3575.1963,2.837725505966504,108.33052004149786
3576.0208,2.83712157885645,105.35785029104777
3576.8435,2.8344856076375238,88.64111406568506
3577.6682,2.8304226865458357,96.92912559918815
3578.4915,2.8256970278543077,100.84637059978175
3579.3145,2.820932259874305,102.48623112524231
3580.14,2.8164472305083397,101.98328965217001
3580.9636,2.8122156107388254,106.95234695731871
3581.7893,2.8079908081010925,104.46819874646884
3582.6133,2.803877630986469,92.80070685321415
3583.4395,2.8005540491924688,102.79117492915898
3584.264,2.798957009754812,111.2928430262473
3585.0884,2.7993622459897063,100.60504042798775
3585.915,2.8008568944109644,104.30832206663862
3586.74,2.801554864712468,94.46683397311098
3587.5671,2.7994840445683176,104.93576044091597
3588.3923,2.7935403451330902,101.79116444795038
3589.22,2.7839539737058008,98.14967441101282
3590.0457,2.7722878682687617,96.79908145495575
3590.8716,2.7605990913357386,96.33655121505986
3591.6995,2.750705217721334,101.46092585391963
3592.526,2.7437418568580068,104.32800313783898
3593.3542,2.73991336809725,96.8373958655449
3594.181,2.7386541052913578,105.79224879343988
3595.0098,2.738728862859444,100.56458492924453
3595.8367,2.7387618414714425,107.92638275198135
3596.6638,2.7379634187816215,95.1272902221609
3597.4934,2.7364808630814315,100.478518643683
3598.3208,2.7349183486878235,115.44156243931043
3599.1506,2.7333838203220413,109.61144689453808
3599.9788,2.731215426086441,105.42255751964588
3600.8088,2.7276486016699137,102.56324863866695
3601.6372,2.7227639951482816,106.14251954257298
3602.4678,2.7175354895468105,106.8208347511836
3603.2964,2.7132710241832187,99.16532472409247
3604.1252,2.7109268718204644,99.20279989865601
3604.9565,2.7110310658871497,112.97996983295891
3605.786,2.71371129851704,103.38890463407702
3606.6172,2.718645823190575,106.49886515822553
3607.447,2.72487871159264,126.84142514095714
3608.2788,2.7308272367947066,92.21695809402458
3609.109,2.7343925016210493,103.69940243078976
3609.9392,2.7336911728959774,92.27946005138433
3610.7717,2.727921599958634,108.76453549400115
3611.6023,2.7180350499342096,101.59635835012402
3612.435,2.706236045700425,103.0291770884372
3613.266,2.695019088220837,99.63822906284061
3614.0994,2.6859623456633317,124.88797587588813
3614.9307,2.6796724849317233,102.33703217065943
3615.7625,2.6759888821859574,100.81047524343296
3616.5962,2.67447315065828,111.6108894726543
3617.4282,2.6743886647962505,108.53364891943663
3618.2625,2.674495898848809,113.42322971205132
3619.0947,2.6731966181647175,103.53113821782843
3619.9292,2.669173931908893,102.74888098977098
3620.762,2.6622407881322916,109.00738169402658
3621.595,2.6536549596886676,106.69744732174505
3622.4302,2.6457360415149447,114.10004817324864
3623.2634,2.6409077819239206,105.97822710971202
3624.0989,2.640456746846489,120.06947657231255
3624.9326,2.6440045007736477,113.60206221202621
3625.7686,2.649658767732527,114.1667858204874
3626.6028,2.6547561537428637,108.36179213089805
3627.437,2.657000431560361,106.3052214384709
3628.2734,2.6553918275873727,101.96203601963357
3629.1082,2.650776416089377,101.2670528422909
3629.945,2.6454252714235063,109.33947708493747
3630.78,2.641740600185551,104.17509085542376
3631.6174,2.6405781870869083,111.95872671562626
3632.453,2.6406906797950422,113.14894768843446
3633.2883,2.639662372056607,128.8593288212303
3634.1262,2.6357780846960543,102.11353460108283
3634.9622,2.6294091627021343,95.92820241116887
3635.8005,2.622790277795934,129.9748722858532
3636.637,2.618620993491238,129.90593291728362
3637.4756,2.6181173626842322,109.6149301001471
3638.3123,2.6201394289185016,123.33790157129889
3639.1492,2.62179657074002,118.00996261683731
3639.9885,2.6202766294054167,101.80019805410024
3640.826,2.6147130151613327,112.41390626439707
3641.6653,2.6067799452890155,119.17132801656683
3642.5032,2.599779791824854,129.61035078452989
3643.343,2.596626763617861,118.44065995346297
3644.1812,2.59835291518527,118.43961220325235
3645.0195,2.6036962455592194,114.58601598133923
3645.86,2.6100035693335424,108.38544940815196
3646.699,2.6145106521687667,115.03541255912742
3647.5398,2.6154610261731244,109.26477822848734
3648.379,2.612310197500844,120.41888036223682
3649.2202,2.6054465980047428,113.25403267169396
3650.0596,2.5959770598511382,118.30657443538489
3650.8994,2.5855783354076776,101.09591280896308
3651.7412,2.5763694463568085,119.92897872719759
3652.5813,2.5702730104719342,118.80361279377829
3653.4236,2.5679421582865625,116.18549166179895
3654.2642,2.568353388920993,122.33303764237934
3655.1067,2.569208912701608,98.12443838872682
3655.9475,2.5682904586402566,114.11038421684174
3656.7886,2.5648769301504815,129.25232335378416
3657.6318,2.5601484054088557,132.68697396414782
3658.4734,2.5563102318590265,108.79068937215108
3659.317,2.5550010564907613,117.91225279343405
3660.1587,2.5564466148045675,124.42554401166066
3661.003,2.559677121755059,103.63467682356004
3661.845,2.5633780999650484,115.89194783946013
3662.6875,2.566628811948068,111.58637502082483
3663.532,2.568998008046246,123.49032891568577
3664.3748,2.5703487443753104,121.85525488766297
3665.2197,2.570710478547674,113.23294362968174
3666.063,2.570176176840865,116.34168583315548
3666.9084,2.5687837918804584,109.45366851207478
3667.752,2.5664309231101456,111.13930581476382
3668.5977,2.563003264138074,107.99466514153777
3669.4417,2.558770490350917,109.82466779365488
3670.286,2.5544452069738317,126.19489921031334
3671.132,2.550800089003092,126.43607710461251
3671.9768,2.5481210571724304,100.47053773105145
3672.8235,2.546064032921065,125.40013277328403
3673.6685,2.5442234339114216,131.43589730368748
3674.5156,2.5427088167042173,110.86243794178421
3675.3608,2.542254959580898,110.2841004999958
3676.2063,2.5435938671729743,122.54358587607236
3677.0542,2.546680295044638,127.50286198375535
3677.9,2.5503478442642997,113.30047777750502
3678.748,2.552894391424205,106.29001084298886
3679.5945,2.5530073103989612,116.94870389261956
3680.4429,2.550515580551628,104.60999347484625
3681.2896,2.546332425964629,114.22784711307636
3682.1365,2.5417020702438116,134.88300227375606
3682.9856,2.53739273513178,119.48356740516454
3683.8328,2.5333906097734995,130.95928608159582
3684.6824,2.529071748714865,112.95925585843942
3685.53,2.5238176335588625,102.64991244633472
3686.38,2.51740816103777,131.2800633221799
3687.2278,2.5104294040417616,112.67055382245726
3688.0762,2.5041513139094427,115.06296972338569
3688.9265,2.500105570139576,117.84237717742207
3689.7751,2.4992502617209036,125.87671148387811
3690.626,2.501281820513755,121.74954005516707
3691.475,2.5047491482285893,114.56366887871758
3692.3264,2.5078518929506153,122.46275417924973
3693.1758,2.509195446061174,121.12192750860758
3694.0254,2.50817298130338,127.08265876530074
3694.8772,2.50488129645167,122.06985083258692
3695.7273,2.5000559046991664,125.21683405250646
3696.5793,2.49480760465426,119.29063206466411
3697.43,2.490251381597464,129.67328174675652
3698.2825,2.48696737175807,136.11839844894823
3699.1333,2.4849704418326963,124.6507432116311
3699.9841,2.483912396200483,145.11528138413746
3700.8374,2.4833236832840435,138.7551048806139
3701.6887,2.482634449795042,133.5532347657173
3702.5425,2.4812807402434656,128.74670489703468
3703.3943,2.479070885407826,121.90967449377453
3704.2483,2.476372411900854,136.42027575635427
3705.1003,2.4738763866760705,119.95620655826626
3705.9526,2.4719838948002217,136.04734616739086
3706.8074,2.4704964140602956,119.2656548732975
3707.66,2.4687747979574706,127.66020092007435
3708.515,2.4661052752302384,119.5076472020555
3709.3682,2.462015717376179,139.67522342825578
3710.2234,2.456308343105538,137.31320275078772
3711.0771,2.449235994561477,120.35149460315566
3711.9307,2.4415811173591497,135.08925630539255
3712.7866,2.4345427603624543,148.93355037447162
3713.6409,2.429243001337169,138.55165830439788
3714.4973,2.4259854604443567,129.08412689975728
3715.3518,2.424244883298833,134.3052033205598
3716.2085,2.4230861579999954,135.28659523357885
3717.0635,2.421795790840416,144.8876833974711
3717.9185,2.420135033121308,142.22918403809223
3718.776,2.4183558913888192,127.76890780180146
3719.6313,2.4171415108915353,127.28498892734054
3720.489,2.417301996721376,133.50550058382163
3721.345,2.4191979817976614,140.1489151694263
3722.2031,2.422238844259356,123.12000413760997
3723.0593,2.4250706084381717,133.2731865540471
3723.9158,2.426521298828184,128.10137474969144
3724.7747,2.4263028217417903,152.38189658204547
3725.6316,2.4249505302038203,132.8623324831389
3726.4905,2.4231936954021487,119.06096349106457
3727.348,2.421476867622642,132.03675819780435
3728.2073,2.419810865362109,135.65630525014313
3729.065,2.417869992687206,142.15706395537933
3729.9229,2.4151588846514906,130.77344473873546
3730.783,2.4113510431326843,143.16036071898284
3731.6414,2.4065847836073666,136.27035775551403
3732.5017,2.4013078602869133,137.6070706285946
3733.3604,2.3960088348982733,127.22598383682016
3734.2214,2.3909253913834725,132.30487024430778
3735.0803,2.386256986929441,126.2337919639358
3735.9417,2.3822839898625516,132.19465921373117
3736.8013,2.3795058937474782,145.44248770230254
3737.661,2.3783528817401054,140.0470007503836
3738.5227,2.3789252492957664,128.56297239991997
3739.3828,2.380820480316923,146.40780300590723
3740.245,2.383247814836458,152.5253643636401
3741.1055,2.385302061765717,140.03265534764876
3741.9683,2.386348177189246,137.4364302811551
3742.829,2.3862048399685825,134.65411537296103
3743.69,2.385105278992488,136.34086138499976
3744.5532,2.3833308996935023,173.71093648091593
3745.4148,2.3808607440082197,135.31749299593892
3746.2786,2.377318646567427,129.25470596217593
3747.1404,2.372478685604738,123.0209763001395
3748.0044,2.3667275039008215,144.31025871248906
3748.8667,2.3612033021647356,156.61194953756757
3749.729,2.357192089845865,152.25903602769887
3750.5938,2.3555158411932497,142.33440330511482
3751.4565,2.356140815503699,129.458813989645
3752.3215,2.3581450918070934,153.63570185045808
3753.1848,2.360095740751011,137.48430108892185
3754.0503,2.360739519679046,126.13683447358605
3754.9138,2.359573778436016,146.56673066174076
3755.7776,2.356956606247313,148.93857052459455
3756.6438,2.35368076843884,153.94702078766827
3757.508,2.350511799173824,136.45923775994197
3758.3745,2.347888764377912,143.2849844896526
3759.239,2.3459995675871412,142.7669512150982
3760.106,2.34482599562411,150.99341158908234
3760.971,2.344257938735118,129.6810557142191
3761.8362,2.3441579948435023,138.9169393739071
3762.7036,2.3444563865010593,136.84245516622656
3763.5693,2.345102165115719,130.68383498555517
3764.437,2.3458785549281913,144.05201295716503
3765.3032,2.3462383640838333,133.0753554039661
3766.1714,2.3454289034738838,138.34230106324605
3767.0378,2.342894799785571,152.85345048709394
3767.9043,2.3386902619589174,149.98331342223005
3768.7732,2.3336175777802066,137.97313027611466
3769.6401,2.3290462231383304,140.94819174284478
3770.5095,2.326258161350904,165.8803103693126
3771.377,2.3258979097840613,147.3426013744794
3772.2466,2.327654292780829,140.0588049419289
3773.1145,2.330558224537077,144.26050775068606
3773.9824,2.3335446793771313,144.4215076038441
3774.8528,2.335827436585051,139.43755931612114
3775.721,2.33697821695733,155.93686194115313
3776.5918,2.3369046242266145,135.06695320306207
3777.4604,2.3356515168250263,153.1086757403448
3778.3315,2.3331627590328705,145.21891202201377
3779.201,2.3292586686464922,146.19677038412433
3780.0703,2.3239187760206454,139.89944119912496
3780.942,2.317687635036841,146.30538449429568
3781.8118,2.311749228123439,139.7959872022187
3782.6838,2.307297581373539,141.07293664432305
3783.554,2.3048997564554052,133.34159372076107
3784.4265,2.304072468588573,144.75267189225997
3785.297,2.303720416949968,152.5095970498273
3786.168,2.3029698722644016,153.20017924628323
3787.041,2.3017550163228933,158.32950480719387
3787.912,2.300611902827508,149.13889510391158
3788.7856,2.299913143851243,144.02255291283865
3789.6572,2.299368414787855,152.4905209484725
3790.531,2.2981540788962658,146.55733977731043
3791.403,2.2955140642592986,147.34110548427824
3792.2754,2.291251011495109,144.67467092222967
3793.15,2.285846951582685,145.60036596344355
3794.0225,2.2802586754258507,168.9436561053689
3794.8972,2.2753765033462012,160.41233939283103
3795.7703,2.2717295202269625,164.0155785735551
3796.6455,2.2692762749055726,149.54466860267254
3797.519,2.267637589202108,140.94035274881875
3798.3926,2.2663585081808626,155.89966790374325
3799.2686,2.2651503826396673,160.96592940952593
3800.1426,2.263922925155151,157.75574109189685
3801.0188,2.262665784608393,152.80727497019043
3801.8933,2.261386588841923,142.27028877934592
3802.77,2.260055137617734,154.6811774168976
3803.6448,2.258638610117063,141.12822221490956
3804.522,2.2571602736463032,154.55380511507693
3805.3972,2.255830094277727,162.94694873340538
3806.2727,2.2549558397466,161.7246768060088
3807.1504,2.2546813514691237,146.2580833310771
3808.0261,2.25474383524115,155.1033432072691
3808.9043,2.2545322503635568,145.9115284817711
3809.7805,2.2534152541016184,150.3142672686058
3810.659,2.2510930414036516,168.11463114146295
3811.5356,2.2478850125382,151.74370863324825
3812.4126,2.2447373409643694,161.21082355809304
3813.2917,2.242829947471017,148.6590266735833
3814.169,2.242768358076935,186.48177323177256
3815.0483,2.2439780744275657,149.25406272175834
3815.926,2.2450507824607238,153.0728888895062
3816.806,2.2447994213995033,158.2466848085402
3817.684,2.2430177247740946,147.01574674601096
3818.5623,2.240347095551883,159.94971882172652
3819.4429,2.2375734445522513,167.7058310587373
3820.3215,2.235128478140907,143.98127639508903
3821.2024,2.233008280116922,155.97254999348115
3822.0815,2.2310971986380776,165.31643773110477
3822.963,2.2293572124614216,153.03669807125053
3823.8423,2.2278564458028054,169.2949679919872
3824.722,2.2265929570278016,168.33683756783785
3825.604,2.2254291835602342,153.43741978917808
3826.4841,2.2241676297486443,163.7203378131455
3827.3665,2.222670042361367,162.50278934650507
3828.2468,2.220999108179496,158.21089190232473
3829.1296,2.2194357229580497,166.01775301483008
3830.0105,2.2183967906289417,161.18252068034676
3830.8916,2.2180819102172307,167.41771347109244
3831.7751,2.2181558458665633,158.6286638928715
3832.6565,2.2177826630338857,153.18500753710327
3833.5403,2.2161259415631447,151.70778510536712
3834.4224,2.2128985476844334,167.1847098998992
3835.3064,2.208438942281956,163.7033346841826
3836.1887,2.203503151975079,156.1697928327194
3837.0713,2.199001196142658,183.10719750832263
3837.956,2.1959864633796333,148.1189678515258
3838.839,2.1954385595999195,190.04572242895648
3839.7244,2.1976536666172817,163.0814436378252
3840.6077,2.20184511761239,151.07166701994387
3841.4932,2.20655358529498,146.4110963239368
3842.377,2.2105218463488714,162.32048360560762
3843.261,2.2133855502954156,185.1951668958571
3844.1472,2.215453225644095,151.41881588620066
3845.0315,2.217082242451625,182.57377038808352
3845.9182,2.218249856014748,150.83633345277207
3846.803,2.2184496770642,159.16951152481104
3847.69,2.2169494611855405,163.27437812868374
3848.5752,2.2132023384953117,183.22237460992184
3849.4604,2.207207526735133,162.44831484812187
3850.3481,2.1996357766034755,157.73606225023667
3851.234,2.1918021499084226,173.44708773812226
3852.122,2.185253767557047,162.43368259919757
3853.0083,2.1814403840763257,172.38515152321312
3853.8967,2.180956059880974,157.7027214714074
3854.7832,2.1831403482767606,157.18044577087346
3855.6702,2.1862653792890154,160.4136012773745
3856.559,2.1884502188461052,175.97416434794974
3857.4463,2.1885914460473446,164.33578050365512
3858.336,2.1866704157794157,157.91531552639321
3859.2234,2.1833365671180096,149.30684994222418
3860.1135,2.1792941692099026,155.29953761026974
3861.0015,2.1751380796136632,156.08928502884524
3861.8896,2.1713896712703735,167.67639402774333
3862.7803,2.1686034310965954,172.9164272101805
3863.6687,2.167162857601628,169.82297215872381
3864.5598,2.166896785877334,161.86283285596758
3865.4487,2.1670199814703115,163.93658132459538
3866.34,2.166436548397705,174.1045239676314
3867.2297,2.1642965841791666,174.11138738841814
3868.1213,2.160401670254706,166.45198098963417
3869.0112,2.1552632388565316,179.90554558287096
3869.9014,2.149674113317885,178.3679314539284
3870.7937,2.144284713243214,160.87892757486796
3871.684,2.1395530979320876,179.3208576225001
3872.577,2.135928011983663,165.7629816065546
3873.4678,2.1340648221949374,172.39154886802746
3874.361,2.1343779732252925,176.56464969292523
3875.2524,2.136487841797873,169.9667175039158
3876.1438,2.1390887517088557,159.9760813332119
3877.0376,2.1405185494092502,175.00406544373237
3877.9297,2.1396080672098474,172.41833140940432
3878.8237,2.136262527053931,183.4751783624554
3879.716,2.1313818837978693,171.57408513554554
3880.6108,2.1261857598060825,167.72004250890365
3881.5037,2.121659003427401,157.6380076050415
3882.3965,2.1182814210303644,186.54943977200844
3883.2917,2.1162536347474195,175.2415207843035
3884.185,2.1155942916298627,164.4059341765382
3885.0808,2.1159256308964847,175.06365738568306
3885.9746,2.116377616189168,168.74274493478492
3886.8706,2.11593057364414,180.96101324839128
3887.765,2.114071303819485,164.69320396663107
3888.6592,2.1111774790575453,178.35787258070764
3889.556,2.1082362895659714,186.95341835167093
3890.4507,2.1061549418495225,152.1292196899735
3891.348,2.105166996811048,161.26817874882724
3892.243,2.1049610591511163,181.81775809518098
3893.1406,2.105220249467987,168.18869151559446
3894.0361,2.1060241897521297,178.9246196223657
3894.932,2.1076530004872662,175.82197660553473
3895.83,2.110071635150993,185.57434518674427
3896.7263,2.1127154355205255,170.78570804875142
3897.625,2.114977664460713,161.07368885722178
3898.5215,2.116815772008466,167.12319725100045
3899.4207,2.1189352099537664,175.0547052314397
3900.3176,2.122134516173796,173.603015550348
3901.2148,2.1265289044067326,183.89854823621098
3902.1145,2.1312758666897524,143.55168094160783
3903.0122,2.135058246284777,191.78161813877648
3903.912,2.1370260486324093,153.6094792020745
3904.8103,2.137241271308735,172.97063924939113
3905.7107,2.136475362156977,162.79966477984289
3906.6094,2.135426533442004,163.71877030413484
3907.508,2.1340597702427413,172.3291444762525
3908.409,2.131647185786754,176.18653093075199
3909.308,2.1275232803444983,161.4922862425911
3910.2097,2.121848789335332,171.9763545298956
3911.1091,2.1158778218663823,189.7174777185774
3912.011,2.111271972061187,165.10899187543305
3912.9111,2.1093270638978843,175.24294122903714
3913.8113,2.1103249955842855,185.7845691536733
3914.7136,2.1135620344520545,178.46470456222212
3915.6143,2.1176596153524043,169.50624388836113
3916.517,2.1211360234208803,172.58536571462204
3917.4182,2.122843273010317,162.6776791811969
3918.3215,2.122323168443723,192.6688298181284
3919.223,2.1198389101131023,164.57921376084857
3920.1245,2.1162596976998933,175.09348700319782
3921.0286,2.1128592773646524,172.33615663615976
3921.9307,2.1110345196825566,174.63805451669214
3922.835,2.1117445030795103,171.03203374785176
3923.7373,2.1149613967723067,170.6682450749731
3924.642,2.1194517982803416,198.31155351082836
3925.5452,2.1231647520111605,165.04376474424853
3926.448,2.1242760440149637,178.6904613967208
3927.3535,2.122063130356137,170.66205560878797
3928.257,2.1171806060701526,166.46787831723495
3929.1628,2.110996109881149,182.6463974537355
3930.0667,2.1046368997040887,169.38763530187722
3930.9731,2.098263197136468,177.0563091962778
3931.8774,2.0914732430840974,155.92604866019587
3932.782,2.084048102942676,174.2982285758557
3933.6887,2.0765805468475405,190.9327792479908
