wavl,flux,ivar
3566.9744,4.991289525735932,35.806944182473146
3567.795,4.990749931430417,33.35914090568866
3568.6177,4.987501032566141,29.695874778575284
3569.4385,4.979768587051559,30.63130116866455
3570.2617,4.96802819479579,43.750150036966375
3571.083,4.954284888622174,30.719445323553728
3571.9065,4.940374806876169,34.563171256709275
3572.7283,4.927563241824447,31.96566344771914
3573.55,4.916347297529483,34.71310902279737
3574.374,4.906632141981521,32.222566114525634
3575.1963,4.897843005452842,29.188037979282687
3576.0208,4.8888660646581785,39.58008118656922
3576.8435,4.878343438086558,33.00780814315464
3577.6682,4.8650067231074345,29.57747772565635
3578.4915,4.849150337736409,35.74861101981577
3579.3145,4.833529072599178,34.497677028366695
3580.14,4.822569005783854,34.56271600181572
3580.9636,4.81960998534018,31.843527019435495
3581.7893,4.824058872492485,36.156632064991626
3582.6133,4.83140660027442,35.09695962029261
3583.4395,4.8360287174850365,33.37712597972574
3584.264,4.834502397102346,37.83645370502354
3585.0884,4.827158713513423,34.7561267016402
3585.915,4.816790203631801,36.51986920384254
3586.74,4.806435235122687,38.54949999656317
3587.5671,4.797763285807423,29.99178642066729
3588.3923,4.791260439555221,34.59232504153936
3589.22,4.786586352753009,36.92049235798046
3590.0457,4.78291160162458,41.010036560356994
3590.8716,4.778882065368535,38.911611515829705
3591.6995,4.773158461910722,37.977238297877896
3592.526,4.765352607161468,35.82018143767364
3593.3542,4.756435038686052,34.73888115738507
3594.181,4.748231939436853,37.916377611662995
3595.0098,4.741873112240405,40.200885293146584
3595.8367,4.736971029093107,37.089299446515255
3596.6638,4.731837803617355,41.161029989437694
3597.4934,4.724737992661885,37.040289041653324
3598.3208,4.715020749941957,36.095148094076904
3599.1506,4.703372301836343,35.089029751336724
3599.9788,4.691776817604627,39.187530807990086
3600.8088,4.68242870292625,38.450566799262226
3601.6372,4.676616548158361,35.49052147214796
3602.4678,4.673773898153817,36.226228325040374
3603.2964,4.67225177945676,31.643259837125722
3604.1252,4.670918834966255,39.57813148190746
3604.9565,4.670154819253463,38.40998607217661
3605.786,4.671159378386378,36.950219155158756
3606.6172,4.674485826313727,38.52946931842983
3607.447,4.679258015755414,36.74844498434666
3608.2788,4.683506025599956,41.30168995534029
3609.109,4.6848208585134286,40.61416859807264
3609.9392,4.681119551135716,39.20758996662117
3610.7717,4.671284867190419,38.885280575713836
3611.6023,4.655857390557724,35.6747211069793
3612.435,4.636805042970123,44.06770346142263
3613.266,4.617118100184199,41.884141649652186
3614.0994,4.599673937267283,37.02352041367452
3614.9307,4.587003741738165,41.334599272361416
3615.7625,4.580367513382887,45.54250530460168
3616.5962,4.579153244169079,44.81967943141147
3617.4282,4.580501896856132,40.44838920518209
3618.2625,4.580412543032088,37.728953761256484
3619.0947,4.576098407927425,38.00644571577333
3619.9292,4.567889904767185,38.56381459978656
3620.762,4.559069087321712,44.52777818520052
3621.595,4.553167961736236,45.55738503319196
3622.4302,4.551040836062269,42.101358189889694
3623.2634,4.549922577785122,43.13092582265117
3624.0989,4.545442127803762,37.31351860153336
3624.9326,4.535167990704418,39.45297206094095
3625.7686,4.520678909268634,39.60622676626253
3626.6028,4.5069028207403825,54.164797007612236
3627.437,4.4987045984890255,41.1571779524664
3628.2734,4.497861722797357,46.45918055273703
3629.1082,4.502089358272315,40.92970866898019
3629.945,4.506615326303332,45.33386122321159
3630.78,4.506863500978278,42.41263038173511
3631.6174,4.500658874263803,39.83184331328971
3632.453,4.488952059553416,38.471556238579424
3633.2883,4.4748759962298355,42.930011097904014
3634.1262,4.461855094992298,40.8759750809572
3634.9622,4.451889081892309,41.63767198531366
3635.8005,4.444596995079717,44.36278815039675
3636.637,4.438245581428174,39.99492340779113
3637.4756,4.431332901602894,36.73841738486196
3638.3123,4.424184181264315,36.79246653809893
3639.1492,4.41888593706926,40.512447539932914
3639.9885,4.417908615498814,55.751803258238255
3640.826,4.422143354410622,38.93496040272188
3641.6653,4.429888892318868,43.49276611394728
3642.5032,4.437453327128883,41.72924292567474
3643.343,4.441131227926411,38.2484919740844
3644.1812,4.439038176068543,42.52715791449845
3645.0195,4.431979069715029,44.562456841891596
3645.86,4.422648001005612,45.53076364858956
3646.699,4.41396384031635,48.82131903887953
3647.5398,4.407221267058325,43.92990459882164
3648.379,4.401641849676852,41.29574788030673
3649.2202,4.395066216800791,42.45941630213254
3650.0596,4.385611847849874,38.300599276797
3650.8994,4.372657664027569,43.92633297316463
3651.7412,4.356911030666626,39.95332652835206
3652.5813,4.339865202367134,45.751893445392675
3653.4236,4.3229962784750064,42.93867407137618
3654.2642,4.307869756280002,43.461306020585404
3655.1067,4.295633424659064,51.43919350664394
3655.9475,4.286798572763204,43.463929763100076
3656.7886,4.28072235961508,42.48175855318638
3657.6318,4.276052137423813,45.17460978132841
3658.4734,4.271602030220617,48.063731958970735
3659.317,4.267051652670828,42.20726906027429
3660.1587,4.263128075170355,45.7436962339476
3661.003,4.26079754425879,47.62333269523792
3661.845,4.2601833234964275,54.003941526488525
3662.6875,4.259930825594198,39.76690987442457
3663.532,4.257922963783822,42.57316876710474
3664.3748,4.252780175113334,42.120936447126944
3665.2197,4.244728392934171,47.15015012142758
3666.063,4.23525384508901,50.373640172831934
3666.9084,4.225754399507251,47.96826399239912
3667.752,4.216844663773858,48.19327953270404
3668.5977,4.208173052729779,51.1534260492132
3669.4417,4.199204624655192,47.98372952517286
3670.286,4.189848530870384,47.824195014568716
3671.132,4.180990940367197,47.113625428079295
3671.9768,4.174270031041903,53.49834488858852
3672.8235,4.170982502267929,51.41386099495115
3673.6685,4.171238026832587,52.305476174382235
3674.5156,4.173744033382177,46.77075890363979
3675.3608,4.176417609993602,50.70222503591849
3676.2063,4.177272996849463,53.40025255042387
3677.0542,4.17504333426212,44.06758357519873
3677.9,4.169501435633934,46.09188637023398
3678.748,4.1613017946950945,49.150223068309614
3679.5945,4.151721422052766,50.01776219960735
3680.4429,4.142031387527451,46.68795738212288
3681.2896,4.133199315115968,42.850659644942105
3682.1365,4.125560666577618,46.08379472686214
3682.9856,4.11912966078012,56.822279274789516
3683.8328,4.114006623183771,45.43412531928722
3684.6824,4.1102096276049975,47.691836188881155
3685.53,4.1072049256956085,56.7723210509627
3686.38,4.103616928941819,46.63256140847434
3687.2278,4.098265768498648,55.26441416678693
3688.0762,4.091510385494007,50.97586273028649
3688.9265,4.085370752233866,54.94075988403067
3689.7751,4.081857836687838,54.12337168292122
3690.626,4.081117599325495,53.401590590839284
3691.475,4.081500729579928,45.91248136450205
3692.3264,4.08100089190273,59.373839912049284
3693.1758,4.078376963802254,54.76182157969124
3694.0254,4.07309121261235,54.080983593181784
3694.8772,4.064947802837252,49.5562337595726
3695.7273,4.054462623548079,44.64592803677159
3696.5793,4.043292408536378,50.19165481523052
3697.43,4.034214679919166,51.79933863781351
3698.2825,4.029662962299155,50.382408791790645
3699.1333,4.030224544279815,58.182024681826874
3699.9841,4.0340505422253345,51.08746214224702
3700.8374,4.038174038139086,50.17076867996432
3701.6887,4.040396664930167,50.08367347780328
3702.5425,4.040156112709113,47.59249849341363
3703.3943,4.037607783924942,58.61951686038343
3704.2483,4.032435797475948,53.46698284355422
3705.1003,4.023873495007759,43.76006095194344
3705.9526,4.01155297325942,55.07427183638312
3706.8074,3.996105956349052,54.038136260452625
3707.66,3.979051043505365,54.35503152314873
3708.515,3.9620250692112644,56.67784691712501
3709.3682,3.947105935294027,57.15867052915908
3710.2234,3.9364792938158524,59.27320725246129
3711.0771,3.9318747712738817,61.56181536817341
3711.9307,3.933123763565555,54.86742047283449
3712.7866,3.9378455549411715,53.861924639408926
3713.6409,3.942424187359274,52.268105733397654
3714.4973,3.94386888325301,45.759596224027746
3715.3518,3.9410172759328725,54.58997285228621
3716.2085,3.93460191048109,48.10905541400139
3717.0635,3.9263475072324554,51.47994638468349
3717.9185,3.917699399268648,51.914846156238355
3718.776,3.909245247692038,54.0979346670672
3719.6313,3.9010405898789835,55.77483741613788
3720.489,3.8930606785401243,52.966749046430955
3721.345,3.8856499512351976,53.967391875866745
3722.2031,3.8792018527924776,62.38424276809122
3723.0593,3.874041909668215,54.16002606851125
3723.9158,3.87032044181206,57.45999542611217
3724.7747,3.868145020794135,59.632352529725274
3725.6316,3.8673350680236402,62.17175410527588
3726.4905,3.8669497857313635,55.49063281180207
3727.348,3.865317674384583,55.12274176186112
3728.2073,3.8608094842946854,48.64691614447274
3729.065,3.8530165489296766,59.579216421453445
3729.9229,3.8432834924596517,58.98108670457715
3730.783,3.8341779445562967,63.78838770394051
3731.6414,3.8281028139832123,62.109651444472505
3732.5017,3.8258142790605203,51.066683908400684
3733.3604,3.8263513431690868,59.32597970623747
3734.2214,3.8279925595604993,57.3416876645294
3735.0803,3.829353879672643,58.50427220380529
3735.9417,3.829706847815949,54.71704332809049
3736.8013,3.8286320567763723,63.56547026947649
3737.661,3.825827455826273,57.750013037016444
3738.5227,3.8212863400402366,49.455132456232704
3739.3828,3.8155585628492332,52.22445901149296
3740.245,3.809465692028826,56.29988337370637
3741.1055,3.803654355929718,56.547354271185014
3741.9683,3.7980703570817766,53.27678255893166
3742.829,3.7920745933200584,57.142374972956375
3743.69,3.7846421592810207,62.184739341708365
3744.5532,3.7747795211661552,53.81397208913541
3745.4148,3.762102807551833,59.5480951096817
3746.2786,3.747131391737533,60.86780834597494
3747.1404,3.7315487199421065,57.606197438203004
3748.0044,3.717267671576134,65.5577434626822
3748.8667,3.7057773720991998,60.153824199997715
3749.729,3.6974131828816885,58.47894841592162
3750.5938,3.6915663612478884,60.276072392142325
3751.4565,3.687086672092321,58.435320398955696
3752.3215,3.6826840877168388,68.99949896308381
3753.1848,3.6776973239019006,66.77709278614014
3754.0503,3.672553037689754,62.7482441982582
3754.9138,3.6686664672957683,67.34515060004904
3755.7776,3.6673221668116067,62.14473677001012
3756.6438,3.668664276490332,63.25100530167202
3757.508,3.6714845431927507,63.81421243786614
3758.3745,3.6740148019103387,60.930325620399444
3759.239,3.6748545891826807,57.02653036334216
3760.106,3.6735240980997226,62.67776945643436
3760.971,3.6704537923008913,57.7524528387964
3761.8362,3.66661632715289,58.06635553466098
3762.7036,3.662970904105811,65.65467866194854
3763.5693,3.660000189879942,65.98881330830108
3764.437,3.6575819152808204,63.392246917395084
3765.3032,3.655437437389412,62.15433096893007
3766.1714,3.6535196832500754,60.34571136642331
3767.0378,3.6520504743962703,64.54971865198621
3767.9043,3.651092655287905,64.19979902420164
3768.7732,3.6502082122142796,66.46821164732609
3769.6401,3.648548201029992,64.79055690217771
3770.5095,3.6453385089540546,63.89810948801166
3771.377,3.640432963623383,62.589277547861585
3772.2466,3.6343657959226756,62.99069362002941
3773.1145,3.6281403819172193,68.03562066356372
3773.9824,3.6226447752673874,66.47151100596787
3774.8528,3.61820520296948,61.55305958948786
3775.721,3.614403319678417,58.55270206577078
3776.5918,3.6102884146593683,63.862476081626085
3777.4604,3.605139849358906,65.41061657386453
3778.3315,3.5988523667426495,67.48107912785471
3779.201,3.5919658286143314,67.2730390022591
3780.0703,3.5851235638973846,64.64473381315759
3780.942,3.578786349423835,61.99637841337172
3781.8118,3.5733026925283813,62.46263483141697
3782.6838,3.568937343474316,61.93913892097576
3783.554,3.565813357458221,69.29208500892754
3784.4265,3.5634290156701267,68.39032912129922
3785.297,3.5606073716190845,62.76482248038602
3786.168,3.556001523002512,63.910645275156995
3787.041,3.5489968557888814,66.72169715322072
3787.912,3.5402657501673347,64.46307724385112
3788.7856,3.5312575190620183,64.44432020865052
3789.6572,3.5233641672318465,65.46327184423467
3790.531,3.516929366450244,59.98553362345048
3791.403,3.5113395414798965,74.08371169523208
3792.2754,3.505540884109498,63.34109471281085
3793.15,3.498823177477457,65.49727059591741
3794.0225,3.4912317192206848,70.57601560054944
3794.8972,3.483321453469063,66.98479027085091
3795.7703,3.475888103214122,67.98165650922593
3796.6455,3.469529930042459,62.72866532990785
3797.519,3.4647953171322254,72.04909215345964
3798.3926,3.4622530773324365,71.79915172086473
3799.2686,3.4624609275207776,66.00117041285924
3800.1426,3.4653662892202495,69.48172358734065
3801.0188,3.4695918963687475,70.5862897009805
3801.8933,3.4722921703676985,65.21487569032628
3802.77,3.4703257728813246,72.2121316577381
3803.6448,3.4622863728876214,65.96694434043376
3804.522,3.449957737993459,65.91882951483592
3805.3972,3.4379127300958148,69.35856652563405
3806.2727,3.4307604511100895,74.43086479242194
3807.1504,3.4306329702918426,80.01679776959665
3808.0261,3.4363729864349284,82.42590569396565
3808.9043,3.4447893916607506,61.990137778095054
3809.7805,3.4522939763917657,65.35223888588533
3810.659,3.456118051036829,63.74013070363403
3811.5356,3.4548738562913384,59.63760397760622
3812.4126,3.449264947939141,64.44971359227894
3813.2917,3.442031047395337,79.98939577333827
3814.169,3.436685642987686,75.96453964280636
3815.0483,3.4352923548719483,69.37715813957927
3815.926,3.437277756161991,69.85365748367296
3816.806,3.4399113448980714,64.34510667335272
3817.684,3.4400227070952254,68.1269997696138
3818.5623,3.435700204341822,66.69356074031295
3819.4429,3.4269586406738304,80.32015503244168
3820.3215,3.4154931845469876,76.22649490113842
3821.2024,3.4034686136608228,78.82185358322195
3822.0815,3.3925955551531186,66.41099656960792
3822.963,3.383319308265683,63.18651866012157
3823.8423,3.3751115389756667,75.16913840609705
3824.722,3.366977749566192,72.99182831121571
3825.604,3.3583516568652625,74.72313172214785
3826.4841,3.349577700174937,77.54685485356745
3827.3665,3.34134892990313,72.2808616552284
3828.2468,3.3338552848357956,86.43256054507577
3829.1296,3.3259504324829665,73.65300633033571
3830.0105,3.315730155331851,70.85101788622676
3830.8916,3.301664635501879,75.32876690793013
3831.7751,3.283724243896248,71.64925999984446
3832.6565,3.2637161551585723,70.53721442151429
3833.5403,3.244187358170764,81.72825060811101
3834.4224,3.22773484143855,87.84010963942268
3835.3064,3.2159185046170204,80.58020836854726
3836.1887,3.209401875829388,79.29511482656167
3837.0713,3.2080239703268125,83.62923919915292
3837.956,3.211138591947449,85.84508823409428
3838.839,3.2175563230790742,72.96919313929281
3839.7244,3.2256707623082805,72.79218412490896
3840.6077,3.2338078727996775,82.87422597697173
3841.4932,3.241159116730427,85.62428831292691
3842.377,3.248243020308272,71.87085705687139
3843.261,3.2567151271567916,79.57522528503817
3844.1472,3.267965006679037,80.39624756037662
3845.0315,3.2815206271399733,71.68581871905641
3845.9182,3.2950093255136923,67.76270519551176
3846.803,3.305391502939904,77.64812463642174
3847.69,3.3111550313115994,74.44512135197706
3848.5752,3.3128631499306738,67.25152178574137
3849.4604,3.3123399346787052,77.46019171070778
3850.3481,3.311182620527307,76.89068836605114
3851.234,3.3101924987959457,78.39521883119235
3852.122,3.3097302472366734,74.17731392571832
3853.0083,3.3101637588000234,74.23896599999357
3853.8967,3.3116290714967835,73.30989437388605
3854.7832,3.313519151481421,72.7811289987874
3855.6702,3.3146635440006516,73.77235467467996
3856.559,3.3142371939976725,74.11932474000442
3857.4463,3.312496733706951,74.98286166668797
3858.336,3.3104774000059276,84.64359439527048
3859.2234,3.3090203871746082,77.51074841338378
3860.1135,3.3079894115214357,77.65719923355388
3861.0015,3.3063782476752115,80.11344932688777
3861.8896,3.303051911363155,80.39550869469072
3862.7803,3.2976154892272835,73.0254470286258
3863.6687,3.2908549667607496,79.07999300058175
3864.5598,3.2842113722876487,74.8277125786748
3865.4487,3.2789021694907268,87.65826792188317
3866.34,3.2748662452007307,87.10156091926551
3867.2297,3.270764427270356,84.31930997134378
3868.1213,3.264777532123449,80.34474968427111
3869.0112,3.2559165650023623,80.80042241179731
3869.9014,3.244511815540267,82.78722155111942
3870.7937,3.2317996449780324,79.63171641360431
3871.684,3.219171220752192,73.96093468719727
3872.577,3.207386217782984,80.66825443681455
3873.4678,3.196670107276539,88.39959374838321
3874.361,3.1865519880934214,75.7143645714853
3875.2524,3.1762478020509657,86.94635682164991
3876.1438,3.164751880409223,89.68405060050351
3877.0376,3.1511309548170128,92.37484025155783
3877.9297,3.134777038971557,85.63220513630904
3878.8237,3.1153357571551132,92.73501487731124
3879.716,3.0931919402857524,85.66164882262805
3880.6108,3.069101672897253,92.8760176400801
3881.5037,3.044133246972893,84.13133795745716
3882.3965,3.0188110157909067,84.95874858137296
3883.2917,2.9933292594510217,97.51519091669303
3884.185,2.9682278160467463,89.39294289232139
3885.0808,2.944167547517318,98.79332513575996
3885.9746,2.922117753243444,94.27700953694529
3886.8706,2.9025233752017607,95.85721613111502
3887.765,2.8857597572122553,94.90574668567608
3888.6592,2.872218588441646,108.64103048873037
3889.556,2.862710204085498,107.7671224171064
3890.4507,2.858261899273724,100.98250091717368
3891.348,2.8593721566052688,105.91735626418513
3892.243,2.8656760096051004,95.9513884130282
3893.1406,2.8761515430456446,108.28464890661184
3894.0361,2.889592668747279,103.23009761201517
3894.932,2.9051920836844265,105.39447959917362
3895.83,2.922346379393238,98.95751945363486
3896.7263,2.940163553801687,92.91682310080776
3897.625,2.9577610851969953,86.57534633844674
3898.5215,2.974271783989836,93.88778186764021
3899.4207,2.989367483569313,90.46371828218588
3900.3176,3.002693311723906,101.77216647783253
3901.2148,3.0140485491395674,89.31413707625687
3902.1145,3.0236412335456806,85.82155014961477
3903.0122,3.032547951484136,86.76610938958072
3903.912,3.0426899127205767,92.25773948315826
3904.8103,3.0556204854320272,93.41410537188673
3905.7107,3.071572735560202,87.46603848626698
3906.6094,3.088831858787377,92.2139491271003
3907.508,3.1046114045540523,86.84249842431696
3908.409,3.1163115851750076,79.58431726737578
3909.308,3.122788472444386,95.27893850508075
3910.2097,3.125081140423859,78.44624280999192
3911.1091,3.1256879754887,81.22109430416178
3912.011,3.127267460996167,80.82206067272902
3912.9111,3.131393413562826,84.7840290147096
3913.8113,3.138197724906771,85.75942708657853
3914.7136,3.146739344640008,91.24977786925851
3915.6143,3.155516451743354,71.44855007895279
3916.517,3.1631366279104327,87.02523119991652
3917.4182,3.1686379990474243,77.66136929018596
3918.3215,3.1719610332557466,83.83918924223735
3919.223,3.173870190142384,72.07812059280975
3920.1245,3.175500116517348,95.18129398246117
3921.0286,3.177515590989533,84.6131165634941
3921.9307,3.179679212028368,85.17898255178652
3922.835,3.1812782555205446,84.38618459797138
3923.7373,3.1818289012758862,80.98775952760919
3924.642,3.181306539641994,83.76988031363065
3925.5452,3.179701844661642,71.58870057397523
3926.448,3.176753003941918,85.82109579731049
3927.3535,3.1723445927172294,72.03086933679054
3928.257,3.1670489793237158,78.46270002789049
3929.1628,3.1616937767496505,92.67192467139074
3930.0667,3.156445585706378,81.52378799386183
3930.9731,3.1503128158069247,85.46925561461461
3931.8774,3.1422422824986542,82.38715974971636
3932.782,3.1325202167106623,83.50734245628514
3933.6887,3.123193969183106,89.67522191903197
3934.5938,3.116736814816852,107.1695804483326
3935.501,3.1139020678067433,85.78880875117477
3936.4062,3.11304459437759,87.09209330677723
3937.3142,3.111162682510519,89.41787665013129
3938.22,3.1058870279011583,89.31565348663345
3939.128,3.0966707653971026,82.29752788201475
3940.0342,3.084794670968586,85.42239378915168
