wavl,flux,ivar
3566.9744,0.5084324770718475,541.6803921071954
3567.795,0.5034433442159817,967.1381646429141
3568.6177,0.49989972476858624,452.78575057114733
3569.4385,0.4988714508183102,656.0871899608055
3570.2617,0.49991499726680355,441.9858774617961
3571.083,0.5015523899805544,606.6219950906521
3571.9065,0.5023384250116403,447.70011693066147
3572.7283,0.5016723374245949,328.3482798207009
3573.55,0.4998748211807142,609.4961078380686
3574.374,0.4976392811303977,1344.9942738504703
3575.1963,0.4955072021631702,566.1482216008407
3576.0208,0.4936067943293372,611.0868237870848
3576.8435,0.491749361450894,673.7470806106018
3577.6682,0.4895964549741883,642.29632802985
3578.4915,0.4870144267707441,731.6401490365889
3579.3145,0.4843631568098626,510.01483139847755
3580.14,0.48253861018438743,559.0760285517358
3580.9636,0.48255667615756986,1120.2871295688383
3581.7893,0.4848199326406659,731.4676251093373
3582.6133,0.4886784307882151,778.030870144175
3583.4395,0.49276095931203495,1050.5578761527686
3584.264,0.4957928504976403,442.16049668973227
3585.0884,0.4973326958631287,576.6840047373738
3585.915,0.49760407339186313,660.794378339308
3586.74,0.49690135972405963,444.14780586343346
3587.5671,0.49532690493559955,458.7997100238736
3588.3923,0.49309173153686053,440.10172864389006
3589.22,0.49070895648518675,923.7219777543171
3590.0457,0.4887086913057966,381.1599077278534
3590.8716,0.4870905546352559,523.9974643781304
3591.6995,0.4853691796166333,284.78025740014573
3592.526,0.48317767315919424,593.2169099313859
3593.3542,0.4807273228834309,523.447395147808
3594.181,0.4787013360669992,562.4781213604275
3595.0098,0.47770443822561864,790.415633106308
3595.8367,0.4779790459611146,610.580300151291
3596.6638,0.47943301488780726,571.5791541882492
3597.4934,0.4818209696692548,760.5076777184885
3598.3208,0.4847916743228147,606.7740267338284
3599.1506,0.4879463142797226,439.42970802712364
3599.9788,0.4907278518649006,612.1457899282366
3600.8088,0.4924329942735355,512.9490780479547
3601.6372,0.4923564611678519,634.1363129335442
3602.4678,0.490300370938579,317.9867187202175
3603.2964,0.4869406262808145,517.8592590403233
3604.1252,0.48354679677927387,1737.7583969109812
3604.9565,0.48128857120134844,460.95723655832796
3605.786,0.48070729714084626,822.990443818976
3606.6172,0.4816096860890508,460.056489037407
3607.447,0.48329776291939475,630.1248549543946
3608.2788,0.4848751409944317,339.8484063700923
3609.109,0.4856227897085748,535.458807785787
3609.9392,0.48540334268734425,327.2735445426133
3610.7717,0.4846992741879302,352.88541565123955
3611.6023,0.4842301607664042,367.85660272296167
3612.435,0.4843969974622349,1214.0356381427898
3613.266,0.48503927347577075,432.38770204534336
3614.0994,0.48562596557834153,226.56865970651756
3614.9307,0.4856276310452165,745.8583839983703
3615.7625,0.48477140134873653,458.0154120061515
3616.5962,0.4830600074924293,726.9674693529084
3617.4282,0.48072736091577173,520.8352173450567
3618.2625,0.4781306925271696,964.0304169817875
3619.0947,0.47568085513485486,623.3510211151138
3619.9292,0.4736905297710489,843.4406581048597
3620.762,0.47241066761558176,571.6407621091704
3621.595,0.47204063476043906,570.3008815515043
3622.4302,0.47266811552504917,1287.4068948898523
3623.2634,0.47400060220345885,535.6414258241724
3624.0989,0.4752274917978536,572.5558012184986
3624.9326,0.4752827105567014,747.3703652948428
3625.7686,0.4735400724641429,470.78167780891033
3626.6028,0.47043329486858443,403.8965061485291
3627.437,0.4674201985439089,473.9727171109295
3628.2734,0.466180951667426,828.773329202944
3629.1082,0.467497155729808,619.6558402499955
3629.945,0.4706571188169788,742.3487925181636
3630.78,0.4739133133655463,624.8054591701962
3631.6174,0.47566799797499204,535.065940841125
3632.453,0.47527374421508056,483.91718150431706
3633.2883,0.47309055557642504,723.414759105504
3634.1262,0.46992286122304766,562.2788964337744
3634.9622,0.46659800650831185,539.7032810083293
3635.8005,0.4637607952131675,605.6562740575763
3636.637,0.4619371208685617,695.5100050830343
3637.4756,0.46140978529370275,1192.9267805813315
3638.3123,0.4621245495590276,619.0775174533429
3639.1492,0.4636656419959177,393.52314223153866
3639.9885,0.4654574919746152,794.5780399323384
3640.826,0.46703063779093834,583.4367726239202
3641.6653,0.46828187167853874,732.5230288094873
3642.5032,0.4694720356491893,903.7754146248302
3643.343,0.4710031269120712,685.3589789436678
3644.1812,0.4730048201387212,356.8328584777716
3645.0195,0.4751679692165333,576.7016823610787
3645.86,0.4769580254552024,448.25948179425455
3646.699,0.4780198787013883,1189.9820519307914
3647.5398,0.47841400827996095,633.5722817472966
3648.379,0.47849020251505386,685.8407491805207
3649.2202,0.47867786223562075,535.4144210385543
3650.0596,0.4792834523338091,529.4368689132971
3650.8994,0.48029343906378413,827.6749156921738
3651.7412,0.48125216253079695,836.8421990466477
3652.5813,0.4814250161879834,517.9417449407283
3653.4236,0.48024629334430985,461.8418844680398
3654.2642,0.4776469904234125,461.2772605587835
3655.1067,0.4739565789958424,594.2134731440037
3655.9475,0.469651415652863,1014.030486495684
3656.7886,0.46517053342862513,544.6717098730272
3657.6318,0.46101973959690395,812.7357987367494
3658.4734,0.45781022952558037,613.8062893409499
3659.317,0.45595174866363236,593.8139673442251
3660.1587,0.45540230881005384,553.9676833034044
3661.003,0.455622916219055,638.8428884431532
3661.845,0.45595866079766934,450.2344102377616
3662.6875,0.4560879972240112,499.3354007309414
3663.532,0.45618142696156866,663.2179974750104
3664.3748,0.45669360720886204,501.16188480275207
3665.2197,0.45799959588221584,682.5986409675081
3666.063,0.4601153619426028,697.4979349284724
3666.9084,0.4627100435514875,920.1505427573375
3667.752,0.46528673285808436,579.9476107226942
3668.5977,0.4674802761800866,718.6292311983532
3669.4417,0.4691207687530494,525.529384935754
3670.286,0.4702650068690837,700.2206216209412
3671.132,0.4711501437856566,888.0733434520998
3671.9768,0.4720801889952904,623.4725870167714
3672.8235,0.4731670258702349,810.4952297537077
3673.6685,0.47409539172668536,561.6451722401201
3674.5156,0.4742797460899815,562.6285162996626
3675.3608,0.4732903044158166,524.3773759588247
3676.2063,0.4711795172396672,581.2897885409225
3677.0542,0.46841455386692465,575.5443266015486
3677.9,0.4656018082061284,609.6008852664703
3678.748,0.46314049526405265,629.2340360820367
3679.5945,0.4611724335920964,479.6241494583533
3680.4429,0.45962834850779244,720.0567216332987
3681.2896,0.4584153701741633,1097.59333812177
3682.1365,0.45742548266413374,578.8774119683103
3682.9856,0.4564765613809761,597.1738140041525
3683.8328,0.45533444045624766,457.0474561781359
3684.6824,0.453890033299255,503.0282482611181
3685.53,0.45237672562346665,522.0951447700144
3686.38,0.45125381921947266,941.0751775924999
3687.2278,0.45070121473276115,615.9460710673396
3688.0762,0.4496811346148669,915.4449347830298
3688.9265,0.4449784491136323,646.001981107394
3689.7751,0.4310665679479371,683.1370362307695
3690.626,0.4016877188163726,655.8246962155921
3691.475,0.3541904268178597,517.5528139758937
3692.3264,0.29354190487145243,1260.5096858164375
3693.1758,0.23449308797061907,103082.83969495681
3694.0254,0.19580321843940227,2876.580149456787
3694.8772,0.19158025021996927,87375.9203585118
3695.7273,0.22328133299290143,1388.7283441333288
3696.5793,0.2791672736521547,919.2952859804204
3697.43,0.3408420651957686,738.3767413975698
3698.2825,0.3931431196391195,642.8499355573572
3699.1333,0.42866284439753466,660.2496807893616
3699.9841,0.44818849512454156,609.456137343137
3700.8374,0.4564986068387085,830.9857185789323
3701.6887,0.4587118627186244,738.5920318505409
3702.5425,0.45844694177147816,624.6748726079243
3703.3943,0.45745086394366097,541.4713004498817
3704.2483,0.4561858509451498,453.9545987847826
3705.1003,0.45455530923197784,560.7818223580193
3705.9526,0.4524179424854124,568.1244069030514
3706.8074,0.44988856022382556,744.8527534351482
3707.66,0.4474115600664975,853.1348611344773
3708.515,0.44547951206983877,534.8219788443632
3709.3682,0.4442815778975101,572.2565938542292
3710.2234,0.4434770655323716,964.9464620649458
3711.0771,0.4425591112503647,602.1016449368873
3711.9307,0.44150930916712233,575.7710391307141
3712.7866,0.4411660116403942,620.2171652185364
3713.6409,0.44289928099831877,1423.0598175446971
3714.4973,0.4478883198596418,609.117148674373
3715.3518,0.4564900500691577,736.4325102232715
3716.2085,0.46797874819833174,566.4137476222037
3717.0635,0.48001827598123775,534.1198519513467
3717.9185,0.4887981684681997,455.6413906414023
3718.776,0.49019263663926654,17815.59204446926
3719.6313,0.482374614589474,529.3909353113377
3720.489,0.4677554138218324,555.9416597370787
3721.345,0.45208945832644176,592.2053018578304
3722.2031,0.44072577824571524,528.462137475846
3723.0593,0.4358830533652001,829.7001050802502
3723.9158,0.43635779697102295,651.2946335533904
3724.7747,0.43957462145092024,1008.9557932827889
3725.6316,0.44322111227632816,736.8857497721104
3726.4905,0.4458992299370444,831.5533278354502
3727.348,0.44706162332421834,552.0910143620447
3728.2073,0.44695712444958047,723.9840497505824
3729.065,0.4463579325105266,521.2502202536357
3729.9229,0.4460674205153842,682.2283083460057
3730.783,0.44646188489721084,699.8666661941858
3731.6414,0.4473482197726906,749.2921550266495
3732.5017,0.448131449078436,731.2309474250665
3733.3604,0.4480952185870136,699.1976278242714
3734.2214,0.4467412869228119,627.4553625673261
3735.0803,0.4441040319732392,613.6154151020198
3735.9417,0.4408147441797825,722.0788292950101
3736.8013,0.43788535647551724,574.3117168668264
3737.661,0.4361617430823746,594.0127350777017
3738.5227,0.435968324628597,536.0984498355086
3739.3828,0.43705995166182104,700.5008857209045
3740.245,0.43884494961931986,809.3522663342146
3741.1055,0.4406185176747875,533.7598399044559
3741.9683,0.44176588584356935,511.7155731287276
3742.829,0.44190788626980376,770.9058699516575
3743.69,0.4410882352920375,524.2875008849866
3744.5532,0.43972518759694634,1490.4412140154034
3745.4148,0.43832447072212394,979.9064525788283
3746.2786,0.4371191809361492,631.2540026374215
3747.1404,0.4360758694960984,770.0778998908556
3748.0044,0.4351531364444124,347.84126970734917
3748.8667,0.43450456858225056,887.4075941848524
3749.729,0.4343090747084348,905.2168525959615
3750.5938,0.43451663653781075,482.63190806078114
3751.4565,0.4348196783270909,627.9350340030472
3752.3215,0.4349096678445427,830.9571057578493
3753.1848,0.4347570073251004,844.5378717221397
3754.0503,0.4347018548952964,893.1993993520415
3754.9138,0.43527810383343774,848.381256480756
3755.7776,0.43683112707298066,887.0078986018765
3756.6438,0.43915371508570133,880.4831675730386
3757.508,0.4414033355698875,531.9120051818724
3758.3745,0.4425182366663604,660.056572584461
3759.239,0.4417295662280416,818.5417048711078
3760.106,0.4388853662109578,527.8446303843207
3760.971,0.4344479522306782,673.5709809324777
3761.8362,0.4292948584601462,597.1131149454509
3762.7036,0.4245546552683456,586.6648924747027
3763.5693,0.42135101193051827,743.9607866374523
3764.437,0.4203158028275494,866.5850242208688
3765.3032,0.4213664522843121,676.1541073569404
3766.1714,0.42381705750835397,686.7665535822387
3767.0378,0.4268146174990228,658.9988154359814
3767.9043,0.4298202409245788,1043.9737717285097
3768.7732,0.4328072615618621,879.4735824269293
3769.6401,0.4360774838606845,631.3872606037884
3770.5095,0.43980946024250983,926.4604900325486
3771.377,0.4434594062791152,819.8553139695805
3772.2466,0.4458364547262538,538.9431956104829
3773.1145,0.4457774507306077,480.1100729992569
3773.9824,0.4430620432314273,615.0647260333767
3774.8528,0.4385602606115647,737.5172685892949
3775.721,0.43367084315373033,1237.3470218775724
3776.5918,0.42946289854591807,753.7242951275219
3777.4604,0.4265108536508513,921.3647662860258
3778.3315,0.4250504038741402,455.4498535623753
3779.201,0.4252566748336002,789.3552696168676
3780.0703,0.42704586837431885,815.2924687183812
3780.942,0.4298042877118009,943.5464147586299
3781.8118,0.43242883835918877,475.97619202953655
3782.6838,0.43393245192031055,668.6620807457844
3783.554,0.43399985436509153,590.4416903372557
3784.4265,0.4331036388486532,1001.7872951674918
3785.297,0.4320408391402154,1519.5385592954037
3786.168,0.43132646673874747,709.4556889042449
3787.041,0.4309132281335784,827.9611564964356
3787.912,0.4303503799324884,602.8577526717258
3788.7856,0.4291895277521029,799.7771035280439
3789.6572,0.4273501178691353,913.1287576374319
3790.531,0.4251702104011597,679.3173130811865
3791.403,0.4232389355034376,904.8457961360871
3792.2754,0.42203087746940937,877.107917603972
3793.15,0.42161393068554054,702.7298597520189
3794.0225,0.42151207332467033,841.0696459272567
3794.8972,0.42087593202800366,699.0997020567281
3795.7703,0.41896193959936073,994.5140962628541
3796.6455,0.41562024138758347,646.6953942911616
3797.519,0.41153142624652594,710.6704441874202
3798.3926,0.40788201452746836,556.3862816750093
3799.2686,0.4057699404903908,1253.6123892305811
3800.1426,0.4056580560381662,865.2811135619536
3801.0188,0.40721906865738283,821.9126086458582
3801.8933,0.4097266424151763,949.5523922959612
3802.77,0.4126338059183764,1227.24055130342
3803.6448,0.4157990790868596,753.6137070131439
3804.522,0.4193152177936524,700.0027786169292
3805.3972,0.422997222997807,1230.3627475411213
3806.2727,0.426269682073164,659.4607661775613
3807.1504,0.42843886338992443,640.8541510373581
3808.0261,0.42912639332986235,738.6561309940328
3808.9043,0.42841350050594146,436.2743548993701
3809.7805,0.42659289600651734,763.1409973650182
3810.659,0.42395526384579635,884.3596541857421
3811.5356,0.42088598067496047,544.5491881417086
3812.4126,0.4179791007209738,526.5858621162121
3813.2917,0.41596702735874513,1079.827989412325
3814.169,0.4153593009535855,948.9769736839819
3815.0483,0.4160875034470875,606.8953029428019
3815.926,0.4175720718722881,744.0340731690843
3816.806,0.41911894248426407,939.9573911824856
3817.684,0.4202382475229333,916.8194447136066
3818.5623,0.4206990475028268,1229.6114701296005
3819.4429,0.42040244591434,802.5314797204434
3820.3215,0.41941634030452124,750.829622394997
3821.2024,0.4181009472126483,858.3493610898223
3822.0815,0.41706102454291216,735.2241585522291
3822.963,0.4167615477741447,833.4493024051063
3823.8423,0.41716490752373536,847.1431090085506
3824.722,0.41771736393034414,784.5663293989772
3825.604,0.4177602153483711,749.6265033028144
3826.4841,0.41702244751404965,855.7993868594125
3827.3665,0.41580620012107566,888.2430580757715
3828.2468,0.41473186568261444,861.1469565690237
3829.1296,0.41421241471403114,834.5294928339704
3830.0105,0.4141108426200128,731.8057630758395
3830.8916,0.41379317879605493,958.5191188909021
3831.7751,0.4125444034582359,797.550579132144
3832.6565,0.40999757893798056,808.1596269792694
3833.5403,0.40621120279462875,850.2914945174898
3834.4224,0.40155341715236126,1078.6933266192605
3835.3064,0.39650533030383994,949.0886360095359
3836.1887,0.3917976605881926,959.8170705601074
3837.0713,0.38838393995395604,767.4340230204433
3837.956,0.38722658430563994,1426.9015321300096
3838.839,0.3888126829549297,797.6970675734912
3839.7244,0.3928481343815335,928.9121945272193
3840.6077,0.39837219521872447,1000.1486681134994
3841.4932,0.4042780424038761,712.4691084113158
3842.377,0.4096430716074854,911.6486846614628
3843.261,0.41398862441682566,975.0699664225625
3844.1472,0.41717961024200184,1065.8299253663504
3845.0315,0.41928601687559625,596.4455114703229
3845.9182,0.4205156367966624,660.6052215117287
3846.803,0.42106353117368667,511.03498249528747
3847.69,0.4210537724478205,714.9822581611281
3848.5752,0.4205324250270388,627.297723243812
3849.4604,0.41957053828729546,583.370165428021
3850.3481,0.41835671177007844,710.8630981858439
3851.234,0.4172368870771698,550.8965243180514
3852.122,0.4166658932366756,681.3520294167171
3853.0083,0.4171417512144378,749.1769427779501
3853.8967,0.4189879587538135,859.4580735168128
3854.7832,0.42201920146437616,927.3575158491066
3855.6702,0.42538614111087353,889.237006233083
3856.559,0.42781756807024146,604.8221214503376
3857.4463,0.42825537492385196,594.1004905476796
3858.336,0.4264676558025492,759.5282825300274
3859.2234,0.4231539984402753,556.3021933287663
3860.1135,0.4194769820966128,714.3224262559189
3861.0015,0.41644132498925196,1081.5596633228688
3861.8896,0.41432519558916414,934.7625280538289
3862.7803,0.4127150719837502,810.0979180030757
3863.6687,0.4109778419142432,690.4532503875961
3864.5598,0.4087739960461749,619.0113119626964
3865.4487,0.4062883607770471,1067.0117047053045
3866.34,0.4039513440025604,763.9132757252034
3867.2297,0.4021303864359494,1450.2164308550664
3868.1213,0.4009502873030573,607.7790417319412
3869.0112,0.40044771924762335,704.3800300334867
3869.9014,0.40065737774531013,813.2457296936655
3870.7937,0.40146711944103425,886.8339028490645
3871.684,0.4023716641380967,750.4970122029032
3872.577,0.402637536016386,960.071437899522
3873.4678,0.40189589825021305,582.3790117782708
3874.361,0.4006022497393863,846.635273954408
3875.2524,0.3997603536020528,821.0847231148618
3876.1438,0.4000621820770994,621.525896707768
3877.0376,0.4013362327767283,1718.5548791256801
3877.9297,0.4027424294921481,789.0764194090707
3878.8237,0.4034794620522965,1250.275324136015
3879.716,0.40325545314608985,856.6020915775237
3880.6108,0.4022754049025526,1101.926275610668
3881.5037,0.40093374387463054,692.4985623821112
3882.3965,0.39956265470739016,818.4392519075
3883.2917,0.39840826882916613,756.635572251768
3884.185,0.3976834554306926,1174.421587795345
3885.0808,0.3974772955467679,993.3688566433842
3885.9746,0.3976227381288283,744.7089539138733
3886.8706,0.3977173399482126,711.1579058338854
3887.765,0.3974112494798875,902.5450712031795
3888.6592,0.39670201899707486,1110.878317523685
3889.556,0.3959321016060562,877.1682470528634
3890.4507,0.3955226186484299,810.2343353546092
3891.348,0.39567688508030574,618.5520985469506
3892.243,0.396302040202447,816.8497972519361
3893.1406,0.3971348521543327,945.1671331416779
3894.0361,0.3979404211432327,754.6908028477193
3894.932,0.3986776345793153,1136.82516419659
3895.83,0.39947349933383286,1063.784039106172
3896.7263,0.40043191344074663,1107.0548814045453
3897.625,0.40145899615376207,727.2093306889253
3898.5215,0.4022528995748961,645.6635318608868
3899.4207,0.40254426728777853,754.7472727833172
3900.3176,0.4023322252892262,625.948328525515
3901.2148,0.40197919439101676,955.1230284025987
3902.1145,0.4020816129062382,750.3582161889187
3903.0122,0.4031752017371516,732.8094765469212
3903.912,0.4053858997685785,579.4098781809734
3904.8103,0.4082170318022137,980.5018513347808
3905.7107,0.41078066287717174,677.4772367308589
3906.6094,0.41226524731277403,647.6599946733535
3907.508,0.41237543871976634,777.4721255650261
3908.409,0.41128572957462634,1161.4791254651016
3909.308,0.40939064530399094,631.5108915688164
3910.2097,0.4071417180483489,512.9302740628086
3911.1091,0.4051272258686261,680.7537522284997
3912.011,0.40400129314723104,869.9605789757527
3912.9111,0.404234661499264,819.8706730155703
3913.8113,0.40576782202564493,1035.3963222874731
3914.7136,0.4080181581640535,846.3704141630207
3915.6143,0.4101979852198754,649.6795119922747
3916.517,0.41172840356784723,790.527113936542
3917.4182,0.4123189560364613,754.9246607314459
3918.3215,0.4118850468730146,902.0817874796332
3919.223,0.4104743899067458,675.1824505343551
3920.1245,0.4083355435757558,764.9511430390693
3921.0286,0.40595767410088646,1195.332010042052
3921.9307,0.40394010127034496,1002.7580353948507
3922.835,0.4026517602165166,968.3374540656937
3923.7373,0.40203833230710295,881.8789953523628
3924.642,0.4016403535712406,580.00911450457
3925.5452,0.4009215562052672,790.381844991074
3926.448,0.3996454748059661,637.8718969831136
3927.3535,0.3980396098710189,677.2061929027706
3928.257,0.39660040123993534,944.7831298124438
3929.1628,0.3956154058753407,1853.7579834294352
3930.0667,0.3949164213650966,771.0661506493956
3930.9731,0.3940578420993325,1319.3586205607862
3931.8774,0.39280992865926573,954.2842503114276
