wavl,flux,ivar
3566.9744,9.464863665465893,35.06275949294936
3567.795,9.454847347870162,40.035065744420216
3568.6177,9.447628612974217,38.26766082499858
3569.4385,9.44202704158559,42.14631484558348
3570.2617,9.435874885511653,36.30795870066324
3571.083,9.426973023529142,35.99599982702882
3571.9065,9.414356630327736,40.09085949617935
3572.7283,9.399045145354837,35.49371531919764
3573.55,9.383287026938508,34.025262481906
3574.374,9.369926343034157,35.616051998518635
3575.1963,9.36206297671768,37.27445671121717
3576.0208,9.361925554327355,33.36295432150975
3576.8435,9.369393249256182,39.32303316792147
3577.6682,9.381051841966773,38.47544982039401
3578.4915,9.391314820427496,35.879627726519686
3579.3145,9.395498617406847,35.20214881823393
3580.14,9.392242357701965,41.61291196739909
3580.9636,9.383996922841435,35.707270017166515
3581.7893,9.375052776808877,41.88813259853183
3582.6133,9.368212982936376,44.293386182270645
3583.4395,9.361664252232002,35.90118736437161
3584.264,9.349365064277428,38.886459464289295
3585.0884,9.32536346650081,34.06683108663761
3585.915,9.288984150716942,41.00511873268458
3586.74,9.24639650992485,40.661114554314445
3587.5671,9.206152586616868,35.89999582214165
3588.3923,9.174919686563312,36.0463964684213
3589.22,9.154599103403582,40.19267687174406
3590.0457,9.143803934850888,40.39176687082171
3590.8716,9.139137027386633,41.076154298021734
3591.6995,9.136820395371034,38.2805991873168
3592.526,9.133831175968098,41.37662366595284
3593.3542,9.128762048887054,40.49596747123289
3594.181,9.121789145158065,39.76355585132691
3595.0098,9.113388321618656,38.6586931295572
3595.8367,9.10329114230762,41.43780987388508
3596.6638,9.090618068800605,37.820421679527655
3597.4934,9.07578438137858,34.062666673027174
3598.3208,9.062377278995584,41.00142596239582
3599.1506,9.056282452690231,42.79272123581752
3599.9788,9.062742359875788,44.16207159743744
3600.8088,9.082900140546403,40.750953984473895
3601.6372,9.112852946175316,39.79660258127939
3602.4678,9.145800156851868,40.19322941829047
3603.2964,9.173919200879675,40.519623698525486
3604.1252,9.190462693724527,37.7416112170875
3604.9565,9.190745036577342,36.907605956904
3605.786,9.174151452903198,34.12046739548365
3606.6172,9.145174492651362,39.983281103861856
3607.447,9.11207949748855,38.73596184781532
3608.2788,9.08261742662477,43.19823840298779
3609.109,9.061143459981102,42.41885066700227
3609.9392,9.047771624407579,38.49963080475997
3610.7717,9.040535586078391,41.13186529941751
3611.6023,9.036980175536018,41.84163552520229
3612.435,9.034320845093884,42.99264775926859
3613.266,9.029770741667154,41.917068876609804
3614.0994,9.021733112993251,41.25695593535234
3614.9307,9.011127207277314,38.36688944118732
3615.7625,9.000714710355117,42.994963801527575
3616.5962,8.993054556973865,41.72900212698633
3617.4282,8.988713955278339,42.7858779725305
3618.2625,8.986000334839906,36.86911448234078
3619.0947,8.982255635239854,41.01992673466141
3619.9292,8.975311002783435,41.12436004512804
3620.762,8.964811117372836,41.483334611674955
3621.595,8.952626945168069,41.84363978650701
3622.4302,8.94211383558251,40.10858829742056
3623.2634,8.935978624593126,49.57686981672055
3624.0989,8.933746536167755,41.674410687002826
3624.9326,8.931541034396316,44.60196538541699
3625.7686,8.924535583509012,42.0810601613113
3626.6028,8.91062131689126,40.37188604440923
3627.437,8.891834084971023,44.47544153988086
3628.2734,8.872510912672542,43.0952653668658
3629.1082,8.856105949147553,41.56225154406207
3629.945,8.843045780738922,38.70349059198309
3630.78,8.832018165211363,40.9189338235594
3631.6174,8.821935664076138,41.9009685797873
3632.453,8.813176699922899,42.874206181294745
3633.2883,8.806543080020836,38.267127727209335
3634.1262,8.802194384874523,45.28054178276867
3634.9622,8.799648778047821,40.793807349136486
3635.8005,8.798412410136523,41.037536781750106
3636.637,8.798057993436373,41.55448711621696
3637.4756,8.797342553058032,46.03508660059162
3638.3123,8.793930012995352,42.256375714291174
3639.1492,8.78561971522304,42.617356886142616
3639.9885,8.772071723339613,42.254948414060294
3640.826,8.755395287220406,42.71877622425825
3641.6653,8.738545142385911,44.60441391512388
3642.5032,8.723900316616271,42.3955527267497
3643.343,8.712355848292704,42.24961572380296
3644.1812,8.703804234231312,44.55403960761641
3645.0195,8.697137064078346,44.960756858715634
3645.86,8.690277953882724,44.69906675295928
3646.699,8.680641248888916,42.04957610926364
3647.5398,8.666224191514708,39.632815228916996
3648.379,8.64691733023648,45.05100878332521
3649.2202,8.624183771240467,43.302147631546525
3650.0596,8.60033446344734,42.713930806556974
3650.8994,8.577229380568834,47.76563784959734
3651.7412,8.556356481228711,46.51688545412187
3652.5813,8.539109749219394,45.44705223598616
3653.4236,8.526440371501195,42.09272009039056
3654.2642,8.518992640468548,42.102749643024005
3655.1067,8.516900573433958,41.79552008716962
3655.9475,8.519927449700072,43.80301869145228
3656.7886,8.527035813841321,43.8075985216726
3657.6318,8.535936137360084,44.90105749832386
3658.4734,8.543115463362122,46.08800958156333
3659.317,8.545044768419704,44.25683119047889
3660.1587,8.539493527669377,43.90101503820912
3661.003,8.52636066142829,45.09668515222629
3661.845,8.507666684561322,38.926446558571214
3662.6875,8.486449853484912,47.14155864185633
3663.532,8.465719673363523,46.64044149706085
3664.3748,8.447724073185174,46.78763028698283
3665.2197,8.433613994655488,42.96295532819299
3666.063,8.42432407336761,44.165162782882845
3666.9084,8.420440589292737,44.23218833763853
3667.752,8.421369005165511,44.797596720059545
3668.5977,8.424136360181484,44.3431304144177
3669.4417,8.424004628834505,48.582737273990375
3670.286,8.417090084277634,45.27479652714067
3671.132,8.402823262224885,45.1983981773968
3671.9768,8.384242174665179,42.90214577617113
3672.8235,8.365353414105877,48.692224918478395
3673.6685,8.348391059067296,46.15856953211694
3674.5156,8.332242459331065,44.71338953914185
3675.3608,8.314041876302003,49.93396731890746
3676.2063,8.291486713671375,45.43036008604673
3677.0542,8.264755745551785,45.054950901367555
3677.9,8.236633468603772,49.89518325366887
3678.748,8.210288029069272,52.07171662313813
3679.5945,8.187974056814253,48.115780778968556
3680.4429,8.169832037221017,46.516575996691614
3681.2896,8.155021256408556,50.12196171843038
3682.1365,8.142653691719506,51.87226465432833
3682.9856,8.132440986396817,50.204513487658964
3683.8328,8.124348344827578,49.72183917702538
3684.6824,8.118159174768431,52.73391985462494
3685.53,8.114123843440941,49.15492401069972
3686.38,8.11318841977347,58.40084321048171
3687.2278,8.116116990388978,49.34523069338762
3688.0762,8.12188334998523,51.8159425272482
3688.9265,8.127532134806478,45.656280031729366
3689.7751,8.130015023606694,49.142126128031045
3690.626,8.128328269167408,50.411046088164504
3691.475,8.123679407706113,50.88971055282679
3692.3264,8.117960539753618,50.35182335165411
3693.1758,8.112449052796007,50.67108426578218
3694.0254,8.107630104723356,46.97706047645402
3694.8772,8.103794073630604,48.7551635418494
3695.7273,8.10109015673973,46.55670322737247
3696.5793,8.09901555109691,49.54386361932172
3697.43,8.096517527358754,47.25472339663361
3698.2825,8.092767559889229,51.21520639086862
3699.1333,8.087724960015258,50.23149149618502
3699.9841,8.081460064995072,46.70389901906385
3700.8374,8.073276883613941,50.06809531067197
3701.6887,8.062168860578685,49.38797369657266
3702.5425,8.048028783774035,49.76290304450082
3703.3943,8.032346349737493,55.99380129146903
3704.2483,8.016719875547079,54.618328003015534
3705.1003,8.001928345396884,51.71560948880116
3705.9526,7.988133968076749,52.68863784164902
3706.8074,7.976263276055632,52.420875304740406
3707.66,7.967971128951257,58.40099715366269
3708.515,7.963844880592658,48.65627865809271
3709.3682,7.962656231932814,51.46446831593826
3710.2234,7.962258176742645,47.53948828678922
3711.0771,7.9611435450966574,53.20637673097546
3711.9307,7.958589858450131,50.830825733746
3712.7866,7.953675248683344,51.68785735049871
3713.6409,7.9449788294396635,52.14267461243616
3714.4973,7.9316112649611465,50.09916139363287
3715.3518,7.914975452133966,53.13677802502784
3716.2085,7.898734564317296,49.97534792285754
3717.0635,7.887236189375102,48.06769868363352
3717.9185,7.882662081232354,53.048881336624284
3718.776,7.884026995062267,52.35228735435252
3719.6313,7.8881809181004074,53.34757855354858
3720.489,7.8919952697608124,54.910475668433754
3721.345,7.893764865504479,57.82531341332693
3722.2031,7.89320057209972,51.38039260386098
3723.0593,7.8904131578542716,54.978781019502705
3723.9158,7.88515920751886,51.81802637292263
3724.7747,7.876932188311661,54.50313760288368
3725.6316,7.865639361944161,52.17024970372748
3726.4905,7.851686697324499,51.20829791937467
3727.348,7.835866699438418,52.18543339868739
3728.2073,7.818798172575171,53.8799583372276
3729.065,7.801182778939634,50.93217627236866
3729.9229,7.783644924231853,50.781063670483405
3730.783,7.766608379485761,50.91745871864089
3731.6414,7.750008649054041,55.26122348718482
3732.5017,7.732988986159812,55.18660870698547
3733.3604,7.714685295536373,54.47604120904415
3734.2214,7.69450838255314,51.90721018111968
3735.0803,7.672818493647454,52.999750818723065
3735.9417,7.65066855661323,52.53583503421054
3736.8013,7.630487927447389,55.53983869316627
3737.661,7.615562787250626,55.96314902675125
3738.5227,7.608911285106246,66.67159824122449
3739.3828,7.6111564323890155,58.87234489665179
3740.245,7.619363751783606,58.986749306083304
3741.1055,7.628394701960754,53.934728239646795
3741.9683,7.633837503080715,54.63340129916135
3742.829,7.633794437831269,57.758660464035714
3743.69,7.62887118865079,60.42517131781901
3744.5532,7.620659079180675,58.155825433493504
3745.4148,7.61047079849872,55.430755212751045
3746.2786,7.598677561825762,53.0865982768924
3747.1404,7.585371644845249,57.808643477253504
3748.0044,7.571099055463276,58.588517208947756
3748.8667,7.557653664997633,58.9275371543028
3749.729,7.547416021637987,60.28780121756957
3750.5938,7.542328285008784,60.61867934478114
3751.4565,7.54302363661136,53.929048465035
3752.3215,7.5488349245650275,54.84554743268909
3753.1848,7.558536855786967,58.772877900922516
3754.0503,7.570916234284839,55.98920589296627
3754.9138,7.584362674810259,54.359117157913154
3755.7776,7.596528065149932,53.88642728598287
3756.6438,7.604109303236735,56.87445381394322
3757.508,7.603512057925499,57.41186279883642
3758.3745,7.592396088879318,53.64507155703791
3759.239,7.571292022534813,54.52680920683415
3760.106,7.543944163594112,59.609636378833684
3760.971,7.516404729608257,57.86077630362344
3761.8362,7.493911413856303,60.05970742823555
3762.7036,7.478665701850246,60.359554443690485
3763.5693,7.468986224761542,56.32401889735851
3764.437,7.460122039647842,57.91202012545772
3765.3032,7.446858215614817,56.55606796447051
3766.1714,7.425977959800057,60.46164205697181
3767.0378,7.398160587596483,57.61624013123468
3767.9043,7.367432890386428,60.691379589703175
3768.7732,7.339157205509401,59.10626110871115
3769.6401,7.317627010771639,63.96329400077825
3770.5095,7.303935349471074,62.56663885176383
3771.377,7.296591454155438,64.91825683050259
3772.2466,7.292873185294575,59.22514588731011
3773.1145,7.290898019675287,60.02415514797318
3773.9824,7.290514065295888,60.967454881314474
3774.8528,7.292955774744293,63.91229174912404
3775.721,7.299513192583692,66.97925319719077
3776.5918,7.3104411464119625,59.05840680887448
3777.4604,7.324547939091557,59.410432087580105
3778.3315,7.340044343099045,58.7039469847626
3779.201,7.355122614092688,58.42438284188394
3780.0703,7.368646493303063,57.3959027660655
3780.942,7.3799186334672875,64.71504250261923
3781.8118,7.388270099512833,58.59650807944948
3782.6838,7.3931018998096825,57.45350783934976
3783.554,7.39389172357043,58.08814977747996
3784.4265,7.390467720806018,63.71000806984994
3785.297,7.383081109976181,59.162755685735696
3786.168,7.372301345259942,57.28587693452184
3787.041,7.358658359423021,64.17357920083609
3787.912,7.3421599142214795,65.43695148343613
3788.7856,7.321681802045457,59.9975764622222
3789.6572,7.295797918820209,59.87384169007342
3790.531,7.263484115985068,61.318500640597314
3791.403,7.225385633209658,59.193358731426855
3792.2754,7.183057226122923,63.0008103650757
3793.15,7.138054266359115,63.3037075360938
3794.0225,7.091364041347109,63.265924743765254
3794.8972,7.042812855152631,70.70742571105603
3795.7703,6.993295778904738,65.05304747464054
3796.6455,6.945417370852683,61.84398606990392
3797.519,6.904543226423643,70.57330853369518
3798.3926,6.876411850031758,70.47941350400826
3799.2686,6.865145904803788,68.58306814010881
3800.1426,6.871696313048152,71.3614439976742
3801.0188,6.893843735715617,70.27371780174767
3801.8933,6.927514731166689,67.42399261298591
3802.77,6.968782390516491,69.59227741838416
3803.6448,7.014411841139109,64.53250460159524
3804.522,7.0628061278637135,67.12233595878389
3805.3972,7.112374299587606,60.58261763309938
3806.2727,7.161277762227448,66.0225600436955
3807.1504,7.206668600420214,62.33018968686565
3808.0261,7.245337266165743,63.28891821068017
3808.9043,7.276063108013366,59.757185995482295
3809.7805,7.299801418799781,62.580965402544834
3810.659,7.319684069853917,59.050215196299426
3811.5356,7.338732650912368,63.061734431891786
3812.4126,7.358413112940445,58.80634327654776
3813.2917,7.377779541536955,59.52112988807185
3814.169,7.39399243424745,59.71100529939006
3815.0483,7.4041200110708845,56.00499277306942
3815.926,7.406205345385981,62.12933256515593
3816.806,7.39975899837631,60.63059434677957
3817.684,7.385074060565707,61.07774318826116
3818.5623,7.362540847191769,56.08410048793963
3819.4429,7.332769696920071,58.44278628715686
3820.3215,7.297483645125163,62.107063547666
3821.2024,7.2587897574164595,64.64285620902767
3822.0815,7.21862763620472,65.66697479497917
3822.963,7.177120751160317,60.276677826476146
3823.8423,7.133693478017948,65.0096159485354
3824.722,7.087577529998998,62.292831239429624
3825.604,7.038404197270627,78.49405053236896
3826.4841,6.985642945498504,64.4053392305868
3827.3665,6.926954031580155,71.39324378776602
3828.2468,6.860033098955849,65.20164890247727
3829.1296,6.783343498172092,74.76862741559907
3830.0105,6.698592670892347,70.8020001599803
3830.8916,6.608925075791747,76.48372610096472
3831.7751,6.518173031705729,73.1802403639659
3832.6565,6.430974693023901,79.6108277633668
3833.5403,6.3513596651203725,86.35964276855464
3834.4224,6.284636417321955,89.23881028919526
3835.3064,6.235312637119244,93.33574540753332
3836.1887,6.207254541070803,87.79763534633123
3837.0713,6.202346286259149,91.57687285942814
3837.956,6.221092067990792,88.27073467323538
3838.839,6.262515271882982,79.84434023957797
3839.7244,6.32440952226119,84.04137535814027
3840.6077,6.402193107554109,73.05451675483005
3841.4932,6.490246430729334,74.61580259760005
3842.377,6.581903856420965,69.78606796400365
3843.261,6.672550184032204,67.76440619324032
3844.1472,6.759887905400782,67.68871072308706
3845.0315,6.842717425760427,71.81395606764485
3845.9182,6.921021550885868,65.82800046213893
3846.803,6.993567948736059,63.55014090141516
3847.69,7.059784692970488,63.184819854389666
3848.5752,7.1192506030935245,65.85925327103733
3849.4604,7.172971095601087,62.772124178718514
3850.3481,7.22220183607598,63.72286008016333
3851.234,7.267210950883718,59.86603305462736
3852.122,7.3080342098419635,59.41437760819437
3853.0083,7.344158013374908,58.54400260861282
3853.8967,7.3756685435145375,61.87356665245098
3854.7832,7.402323115744951,60.04468244990614
3855.6702,7.423893078103093,58.99580332974092
3856.559,7.440244767053039,58.24823130839766
3857.4463,7.451817471085213,57.35956244491454
3858.336,7.459564140990556,62.497253346666625
3859.2234,7.463857920565764,60.90642810169539
3860.1135,7.464238281856924,57.81446918198597
3861.0015,7.459904935171887,60.07656908730195
3861.8896,7.45057033687222,60.135296913456635
3862.7803,7.436600609682425,59.46636597952701
3863.6687,7.418892737082111,58.89575896279633
3864.5598,7.3983663856753745,56.96001364796884
3865.4487,7.376133279693106,58.057687188440546
3866.34,7.352531175084478,58.23476170118195
3867.2297,7.326932690679601,61.767376420320325
3868.1213,7.297308838677509,55.9866642123334
3869.0112,7.261645329689597,58.355056748606174
3869.9014,7.2187564106605535,64.39360680971929
3870.7937,7.168858820141555,65.04819238008483
3871.684,7.1134530136885585,59.60906355684787
3872.577,7.053680121082739,68.54409763741481
3873.4678,6.990920555230143,68.70152448756481
3874.361,6.925329720115466,68.50862585510048
3875.2524,6.856772301008133,69.80696248284634
3876.1438,6.783868316680573,69.68363613920108
3877.0376,6.7052415811676385,69.29830242865631
3877.9297,6.621110848531252,79.36752654919269
3878.8237,6.5319962664278055,76.40323677444465
3879.716,6.43921030250764,78.96423845621665
3880.6108,6.342504750006766,81.50068912282873
3881.5037,6.241661752501484,82.01962066567225
3882.3965,6.13530496096969,89.40932588134058
3883.2917,6.021908147104947,87.21786000266373
3884.185,5.901142412635326,94.21885796632569
3885.0808,5.7723285606746435,94.4825272108524
3885.9746,5.637600860907399,112.35398382267773
3886.8706,5.500555348917363,102.46084520089084
3887.765,5.3698049202396065,126.96111030541584
3888.6592,5.25714458359949,117.6557342499974
3889.556,5.176898959290892,130.9418902701188
3890.4507,5.142509847368912,131.91661236154488
3891.348,5.160276425368159,138.63167541427842
3892.243,5.226598212403595,126.15654560875308
3893.1406,5.329398255827162,116.0498797481827
3894.0361,5.451954840777841,113.05190835614862
3894.932,5.580657089398733,102.79378734573093
3895.83,5.70764477982507,92.17949354068152
3896.7263,5.829610044412837,93.21804628270839
3897.625,5.94757993176517,91.26942234797454
3898.5215,6.061947410437223,92.91895700484325
3899.4207,6.173434788884866,84.82013397342044
3900.3176,6.280540270630131,83.27822946450509
3901.2148,6.382538787815478,80.24160864047906
3902.1145,6.479355285840451,77.01523365326871
3903.0122,6.571039565563393,79.22051978731014
3903.912,6.658805112514656,74.7270404249056
3904.8103,6.74287554822011,70.83134126363588
3905.7107,6.824207300531119,70.8145152773734
3906.6094,6.903364742283892,65.12717344318249
3907.508,6.981471437477808,69.57688660907542
3908.409,7.05884261128449,64.2499235671999
3909.308,7.134001851926892,66.28958205303412
3910.2097,7.205714333078666,62.2692789349697
3911.1091,7.272940187984037,62.357959369007226
3912.011,7.336547715177401,63.46731597196454
3912.9111,7.396864599379904,61.17836602793808
3913.8113,7.453621804892885,58.38123879898626
3914.7136,7.505660517474441,53.978433302866335
3915.6143,7.551723655094144,53.90349300447824
3916.517,7.592146775331116,54.59566663284147
3917.4182,7.627943985063521,56.26408942945365
3918.3215,7.6606027302732125,57.9398834032467
3919.223,7.690541441228975,56.273996583606284
3920.1245,7.717433868065606,51.984507082248754
3921.0286,7.7404696882317365,54.281944690701565
3921.9307,7.758979000734548,53.80557938116312
3922.835,7.773181837061832,51.897304807580284
3923.7373,7.783619193429903,54.222869370136834
3924.642,7.790905609395021,55.15901768489939
3925.5452,7.795279131223896,54.10464378610617
3926.448,7.796909067544879,55.55961552314631
3927.3535,7.795845128532262,56.35904910583663
3928.257,7.791341582027317,55.12220631804174
3929.1628,7.780581849292926,53.903604344971924
3930.0667,7.757928792098602,53.263046925355845
3930.9731,7.715315617441619,54.25512607888215
3931.8774,7.646413540697605,55.04292504222513
3932.782,7.5527671326810335,56.64906163783284
3933.6887,7.450212126243767,54.936471474617115
3934.5938,7.367574762627577,58.52809052946814
3935.501,7.3309168689292745,105.65052465394068
3936.4062,7.347194681807667,56.820335408161526
3937.3142,7.398792931992749,57.93901857640063
3938.22,7.455898879087515,55.53072930032406
3939.128,7.495397347925168,55.83358998649943
3940.0342,7.508768523041034,59.77662493723671
3940.9407,7.499396608728273,56.10970564082675
3941.8494,7.474290739680818,58.4080793468083
3942.756,7.439372525681385,58.1761258539064
