wavl,flux,ivar
3566.9744,2.811720139054299,98.2322676638887
3567.795,2.7976229035506828,119.72744721437569
3568.6177,2.7853262286636253,94.31251588673236
3569.4385,2.7781865556611343,90.76261900150325
3570.2617,2.776813627804269,83.59949319768836
3571.083,2.7787699385439475,88.88691559958146
3571.9065,2.780525234867919,93.20327105485283
3572.7283,2.7799730774801756,114.4204795966364
3573.55,2.7773491724063755,117.62583564813784
3574.374,2.774156814978408,89.74262203172745
3575.1963,2.7715588956346213,114.91693251102777
3576.0208,2.769512091706317,94.58571817675434
3576.8435,2.767315131389015,74.593985961371
3577.6682,2.7647487543303484,108.06313066522321
3578.4915,2.7628220977265685,108.09354742715986
3579.3145,2.763220589636321,113.15690993542923
3580.14,2.76699402879925,82.18211723423019
3580.9636,2.7735098295309655,88.07498345939993
3581.7893,2.780750971663706,96.27549277079605
3582.6133,2.7864509380690987,91.16917083595598
3583.4395,2.7894097046146222,113.72027929479299
3584.264,2.789716495571609,101.8368249526493
3585.0884,2.788173351220433,105.64583994314141
3585.915,2.785362077824241,91.08998824979702
3586.74,2.781356588550291,96.17005636866682
3587.5671,2.776059237964618,97.73777024478493
3588.3923,2.769774635269649,97.69034425956931
3589.22,2.7631410164420744,91.21707538238229
3590.0457,2.756974477864558,110.62096896918943
3590.8716,2.7519965098156534,109.2276633446385
3591.6995,2.748901501742911,91.54505826618231
3592.526,2.748157745519628,126.40201452886569
3593.3542,2.7494656540660776,98.56790493310069
3594.181,2.751387432978718,106.81705325690425
3595.0098,2.751642991373805,101.08386901975825
3595.8367,2.748194850960168,107.26430251832109
3596.6638,2.7406364829338785,103.71618568485674
3597.4934,2.730824667256383,95.0883450431243
3598.3208,2.722122317405394,134.55676063865494
3599.1506,2.717034982287002,92.61265640417372
3599.9788,2.715562975393563,94.72005319374819
3600.8088,2.7153779599806414,90.2971116471842
3601.6372,2.7140739507438445,110.89918892321094
3602.4678,2.7110787119658473,111.7196159328948
3603.2964,2.707579989307282,109.78679859576576
3604.1252,2.704805567248734,99.55171155512366
3604.9565,2.702796801072003,115.38851410156931
3605.786,2.7007554229269135,88.61420000266399
3606.6172,2.6982139112989,109.42805369306969
3607.447,2.695632371638585,99.38728401033138
3608.2788,2.693775147246541,85.46709054173331
3609.109,2.69292701269802,119.62330242346364
3609.9392,2.6927209136976584,111.40733748486502
3610.7717,2.692524469399471,103.13912186692033
3611.6023,2.6916573876467376,95.28022321797546
3612.435,2.689356520689651,101.30287167288516
3613.266,2.6849414697997953,112.2356643703903
3614.0994,2.678201948505492,88.42772688126065
3614.9307,2.6697766723192733,103.8571639170763
3615.7625,2.6607261984852086,111.67770772550918
3616.5962,2.6518599135480407,110.40058321137276
3617.4282,2.643407055978195,120.95620870706962
3618.2625,2.6352632033914114,106.71574606768282
3619.0947,2.627793982213318,132.08846391979756
3619.9292,2.6218406207154423,104.55585847481217
3620.762,2.618440247970137,118.65658495163339
3621.595,2.618123728310284,126.3898842440668
3622.4302,2.6204627243709595,108.20974347759712
3623.2634,2.6237306587769753,92.6511576239622
3624.0989,2.6253319601326974,107.02473921730407
3624.9326,2.6231173681767848,93.92831395985904
3625.7686,2.6170364640016746,106.41221628759946
3626.6028,2.6096266112207047,99.99753339331765
3627.437,2.604352115316998,126.74651365772512
3628.2734,2.6030371881696324,112.7694953505346
3629.1082,2.604374100131883,93.15795613646074
3629.945,2.604819999046611,95.34544392781925
3630.78,2.6011085452210687,117.68349590984428
3631.6174,2.592247917449376,118.90354959192453
3632.453,2.5798161148697027,134.54567883045675
3633.2883,2.5664838135940595,126.81661583649404
3634.1262,2.5544623052938906,119.53828428158685
3634.9622,2.5449337589912773,126.22196879909309
3635.8005,2.538248711701727,151.3639523967728
3636.637,2.5348679389027167,106.44272982761368
3637.4756,2.535368336767278,110.36317988409448
3638.3123,2.53984023459815,104.27124798721496
3639.1492,2.5470793234685676,118.2070865913805
3639.9885,2.5545213208127544,103.07596910466653
3640.826,2.559077004117143,120.53448139034302
3641.6653,2.5587083965630972,119.14772488325096
3642.5032,2.5534207601795558,112.66277693985691
3643.343,2.5452177403262173,132.82490923231663
3644.1812,2.5370317727675293,112.03186983659744
3645.0195,2.531155935063539,110.19086357512813
3645.86,2.528427381757228,114.16544067431822
3646.699,2.528245649314805,112.83765031925525
3647.5398,2.5291564811828846,119.68656781258477
3648.379,2.529593756311143,127.92245836605255
3649.2202,2.5284243662879073,120.65189401243325
3650.0596,2.5252646256627154,126.29931994426616
3650.8994,2.5205183460215324,131.44360940141883
3651.7412,2.515119111955798,120.46760340579537
3652.5813,2.5100348295622656,115.97065097947844
3653.4236,2.5056011407427974,155.43201804213388
3654.2642,2.501362525174442,132.18919611791821
3655.1067,2.4963061117861858,130.82755760276774
3655.9475,2.4896734674610004,133.24136910773376
3656.7886,2.4815452059872687,113.24654222468385
3657.6318,2.4730172353672266,138.69250104748818
3658.4734,2.465795352049604,129.76286821627576
3659.317,2.4612153359279034,120.90612944594008
3660.1587,2.459622662712114,101.45789562823444
3661.003,2.4600932023546194,128.50451016503177
3661.845,2.460933504303636,100.57371533064247
3662.6875,2.4605974713361807,127.23846155749582
3663.532,2.4585225923507417,122.80670935743352
3664.3748,2.455358144114926,138.11892865567557
3665.2197,2.452341295332943,154.87466222802283
3666.063,2.4504101432931544,133.74760228824454
3666.9084,2.449491265537128,158.46536345572804
3667.752,2.4484661666835676,156.5069072659553
3668.5977,2.4457193050617247,107.07677206675346
3669.4417,2.4402155490150474,139.9728461981419
3670.286,2.432359571097043,108.2506307204424
3671.132,2.4239232016671144,140.59003100864257
3671.9768,2.416884899466766,112.62653228430497
3672.8235,2.4119220539527553,118.86963726288789
3673.6685,2.4082615467646966,137.57743421185666
3674.5156,2.4046747918947995,136.0161373935137
3675.3608,2.400859749435124,121.11335613778138
3676.2063,2.3976737811361057,128.0650280850551
3677.0542,2.396307444579715,160.89527369216907
3677.9,2.3971380360875685,131.09022221133824
3678.748,2.3992900105992274,132.52012555989944
3679.5945,2.401217065587777,141.8781138905187
3680.4429,2.401727481846047,117.40518685969873
3681.2896,2.400497963393208,115.47020717364215
3682.1365,2.397775694593327,141.9472334186102
3682.9856,2.3936231711571847,147.16346760694873
3683.8328,2.387626359446251,121.779604062902
3684.6824,2.379316095866318,108.79809414807283
3685.53,2.3692146751221443,127.58780063724436
3686.38,2.3590623113304927,121.33678172787539
3687.2278,2.3513799585739843,146.05324393296405
3688.0762,2.348111472059894,139.52547919498653
3688.9265,2.3497985883239436,133.9663922603202
3689.7751,2.355295316872414,143.12035837654253
3690.626,2.362281963566869,143.53484192680622
3691.475,2.3680642156880762,112.72303176665481
3692.3264,2.3706661425730227,149.49472186811278
3693.1758,2.3694996857460366,138.26660221849187
3694.0254,2.365533011457901,141.41134477367515
3694.8772,2.3605512457953424,159.56764064910362
3695.7273,2.3561217814062037,154.91102314138743
3696.5793,2.352816404934811,145.35670633637255
3697.43,2.350488256860811,118.86205216429954
3698.2825,2.3489686772943723,145.13971615241246
3699.1333,2.348471383675238,135.57998226815153
3699.9841,2.3491021131361887,134.37327088044285
3700.8374,2.350213594943461,139.26448491664908
3701.6887,2.35043715806927,135.78136795663076
3702.5425,2.348465846796793,147.88950516280215
3703.3943,2.3436875650159625,137.9828634862083
3704.2483,2.3360938360792574,133.3601059983241
3705.1003,2.326125132173168,133.7059575554428
3705.9526,2.3147236689415505,136.94541104299844
3706.8074,2.303674316523232,125.61073343728795
3707.66,2.2953030268824564,141.3490618946115
3708.515,2.2911431134964073,141.78384896639517
3709.3682,2.291231849596968,113.15509874592176
3710.2234,2.2942363643641874,160.2254668423915
3711.0771,2.298345665516139,142.35034721214828
3711.9307,2.301889748760186,139.17579090621504
3712.7866,2.30345233719948,173.93315220404355
3713.6409,2.302038584315468,115.43115928025499
3714.4973,2.297559322311511,138.23350810717426
3715.3518,2.2911396566872035,145.00744973283688
3716.2085,2.2846232881292745,143.51584692758675
3717.0635,2.2796540117804853,149.03832263436362
3717.9185,2.2766203869587214,142.79282481073233
3718.776,2.274539029197282,136.35705077621878
3719.6313,2.271856606066484,154.16688142253207
3720.489,2.2676206838417374,146.4474399041032
3721.345,2.2622237679083375,147.73280295378487
3722.2031,2.256961642769387,163.96708055655017
3723.0593,2.253069650798512,144.70795098852557
3723.9158,2.2508059597551435,130.86900012595206
3724.7747,2.249502798128962,147.89374465981106
3725.6316,2.2482665258108114,158.78943873236176
3726.4905,2.2467216044163276,162.8540827281534
3727.348,2.245190440939913,147.64790325683597
3728.2073,2.2440483970100344,170.30378852481337
3729.065,2.2429502786697824,160.76756966335424
3729.9229,2.2407276561011265,161.86870739154182
3730.783,2.236217173309304,168.31456241775243
3731.6414,2.229302745354025,167.56757636715227
3732.5017,2.2211002201314085,163.23186382639497
3733.3604,2.213404348655457,129.01809543915215
3734.2214,2.207515878469292,143.39373170948673
3735.0803,2.2036101851277374,146.37031774528145
3735.9417,2.200581864828357,180.78113238340532
3736.8013,2.196909599062843,139.59366405726422
3737.661,2.1917467184559483,121.69606530772188
3738.5227,2.185633725375303,174.95863847501508
3739.3828,2.180234602248222,162.24862415772935
3740.245,2.1771832459169214,185.18784507488695
3741.1055,2.1772566310720176,138.82647313852925
3741.9683,2.1801104863575396,130.27953073189576
3742.829,2.18449649473315,155.2061097158478
3743.69,2.1885856959047683,161.5450938648161
3744.5532,2.190436534776023,141.49673574238503
3745.4148,2.1888211663152664,172.95966213527444
3746.2786,2.1839311016304714,147.32495599499464
3747.1404,2.17720705136558,137.17495697327317
3748.0044,2.170258277715608,167.06671868271465
3748.8667,2.164106034860787,156.18209133136497
3749.729,2.159024070600672,159.38745670815544
3750.5938,2.1550517582424025,162.02586283339346
3751.4565,2.1522724041858736,131.41603878910925
3752.3215,2.150561695624426,184.39645576803312
3753.1848,2.149415773690562,151.8642217260488
3754.0503,2.1480626943354415,151.6138676648721
3754.9138,2.145973016071127,185.6394447304281
3755.7776,2.143165387728133,172.7817504029415
3756.6438,2.1398801359740585,202.68875545144954
3757.508,2.135580452559857,251.54979103366017
3758.3745,2.1275511221061367,139.8689817629299
3759.239,2.1098539802486473,190.54680439424607
3760.106,2.0730683249509085,193.48247869475267
3760.971,2.0082373593145872,134.9130650839818
3761.8362,1.9149595735966667,138.06841767273892
3762.7036,1.810656079246734,171.98467040238458
3763.5693,1.7301416422250646,138.52245659050914
3764.437,1.7062205586373649,185.9589283431013
3765.3032,1.7479963229863507,171.16524400346688
3766.1714,1.833872529005315,157.48299923450017
3767.0378,1.9271830555580645,179.30564038940693
3767.9043,2.0002349773430708,182.8947387514533
3768.7732,2.044291934987896,182.27900982537835
3769.6401,2.0644976969918045,157.22618685047559
3770.5095,2.0705470645460915,163.4700702089412
3771.377,2.069934254772959,170.07491687789243
3772.2466,2.067050062829007,179.1835917839468
3773.1145,2.064352789119659,203.56159114038886
3773.9824,2.063456156592834,210.22912853390628
3774.8528,2.0653829563711827,152.385449415447
3775.721,2.0702347193824044,196.50370550989112
3776.5918,2.0771435590913487,163.60428943572
3777.4604,2.0845975786118873,164.9275229995203
3778.3315,2.0912697389538186,164.94909179397175
3779.201,2.0964181377953137,142.74022250507102
3780.0703,2.1001694539432254,154.07576569728863
3780.942,2.103205387842722,194.79377257772933
3781.8118,2.1061604297952,159.59350832398363
3782.6838,2.109070009208199,214.80971219791172
3783.554,2.111153301449644,170.9115079546893
3784.4265,2.1112972506069974,200.43297530135507
3785.297,2.1087099421417013,143.12814708100115
3786.168,2.1032600185471724,157.3013393047622
3787.041,2.0952248242730063,199.62139221454447
3787.912,2.085069190709768,159.034284071608
3788.7856,2.0733700964460087,180.49411250091242
3789.6572,2.0611797719346288,185.36028062579766
3790.531,2.0494847536076235,181.48127454160908
3791.403,2.038778689684552,153.13384246316684
3792.2754,2.028660961895721,158.00217495226636
3793.15,2.018444509125824,195.7154157940558
3794.0225,2.0079846099733683,219.76916149141292
3794.8972,1.9978444644568958,208.7013548422751
3795.7703,1.9891404753503066,180.27752500318908
3796.6455,1.9826552070670849,215.4099323378569
3797.519,1.9785398367875675,181.42625044543723
3798.3926,1.9763728916444225,197.41890742041062
3799.2686,1.9756089176647684,201.31433765050923
3800.1426,1.975608805272618,207.24171869802322
3801.0188,1.9755269085289116,161.68492805673498
3801.8933,1.9747315428840924,166.70894107345217
3802.77,1.9736194644470306,207.35925207217483
3803.6448,1.9739093425657044,248.18816052547822
3804.522,1.9778568332046595,176.2589272318878
3805.3972,1.9868832181808587,219.47331495004252
3806.2727,2.0005993495563157,183.0722390631669
3807.1504,2.016681096281785,201.28846824586705
3808.0261,2.0316383240899225,216.29211475264773
3808.9043,2.042669235302513,188.63651313239816
3809.7805,2.048684801926097,198.3225716654815
3810.659,2.0506427659951023,199.1761439990285
3811.5356,2.050418757913317,187.86286729355166
3812.4126,2.049558689219451,195.38917053764314
3813.2917,2.048483899178386,182.37865693844034
3814.169,2.046606959490521,178.8662596039946
3815.0483,2.0430836751277845,154.63040397108028
3815.926,2.0377337772331714,178.108874319885
3816.806,2.0313167797536837,217.43065558180447
3817.684,2.025163341933829,186.00205969359544
3818.5623,2.0201911486908584,207.1576291515865
3819.4429,2.0163101572100603,183.40857778658162
3820.3215,2.01249667123188,193.8949998052847
3821.2024,2.007335099309664,162.26905959790855
3822.0815,1.999844411610497,203.5330596162533
3822.963,1.9898538409808155,173.60897394335126
3823.8423,1.9781705589702046,209.42675141300498
3824.722,1.9659881786435864,186.14008674907103
3825.604,1.9542686652396974,187.65820870613305
3826.4841,1.9432925218430153,209.35473024392036
3827.3665,1.9323471408908541,197.98228048739372
3828.2468,1.9202830901356063,221.12390877635266
3829.1296,1.9058907245682475,192.45614578516168
3830.0105,1.8887528861536882,194.96466474270716
3830.8916,1.8693511183746292,208.21191131771957
3831.7751,1.8491111285575246,207.670827494723
3832.6565,1.8302096238447554,224.67128947636354
3833.5403,1.8146316894964163,224.0259815686911
3834.4224,1.8038564759660887,237.08874024388066
3835.3064,1.7980681540720638,278.2345894983485
3836.1887,1.7964307823580241,219.43009405211174
3837.0713,1.79765450191159,238.89699458096302
3837.956,1.8007543193564386,286.4355070055456
3838.839,1.8052178022733663,236.23720528525786
3839.7244,1.810950843524837,167.16778873933043
3840.6077,1.8181662154927636,226.414008397982
3841.4932,1.8274810927168148,247.31515908188896
3842.377,1.8394206195963152,229.73096555019754
3843.261,1.8539528224121617,225.1264166258449
3844.1472,1.870256878714524,192.07860350947553
3845.0315,1.8871366541961525,232.77931694841777
3845.9182,1.9040856045440475,164.11060579470023
3846.803,1.9211734581461783,219.3132793986707
3847.69,1.938784122994855,209.27733863326816
3848.5752,1.9564910778431226,189.79881542415467
3849.4604,1.9731314396600101,153.6832175999148
3850.3481,1.9873387615013383,183.23370245721085
3851.234,1.9983451032561965,176.2794049504983
3852.122,2.0066048944473533,192.09376774368457
3853.0083,2.0132043017880172,174.83093316877637
3853.8967,2.019350048192999,194.040804747625
3854.7832,2.025740233126052,167.32904493941683
3855.6702,2.0325092700165883,180.20730620164048
3856.559,2.039208770038023,200.6346938832208
3857.4463,2.044924732116407,178.99972719632737
3858.336,2.0486652061097543,178.1478458606564
3859.2234,2.0496948360448553,171.38983876589245
3860.1135,2.0479612055455094,191.3014752079347
3861.0015,2.0441225399369687,181.39255806517633
3861.8896,2.0392257010410826,163.39704570809843
3862.7803,2.0342590376374607,175.99921675817671
3863.6687,2.0298309203594322,209.98921315007337
3864.5598,2.025863725166278,173.9448556935322
3865.4487,2.0216850614853166,184.18318019676602
3866.34,2.0162474995564827,187.74932319278713
3867.2297,2.0088148969116006,179.83164022488037
3868.1213,1.9993267042460336,216.6221856456455
3869.0112,1.9884065241483053,226.80419720470044
3869.9014,1.9765862271392756,210.9953545310058
3870.7937,1.963790721757681,250.65516124174505
3871.684,1.9495153650230561,228.40259829479794
3872.577,1.9332950014900925,207.82217611897678
3873.4678,1.9156837749643378,211.60138431064317
3874.361,1.8979181013457316,198.6348890155942
3875.2524,1.8812956009026212,194.30389607420852
3876.1438,1.8656758593322558,219.6693936261188
3877.0376,1.8492834959142816,245.24020251685465
3877.9297,1.8299036849917851,236.99341698147413
3878.8237,1.8063346918191128,192.0240296881774
3879.716,1.7796405753698366,274.76647057358633
3880.6108,1.75203635298177,249.93347018832833
3881.5037,1.7256499906056728,266.5455238397698
3882.3965,1.7008242447884978,288.8502932308627
3883.2917,1.6763573688855606,256.5829343059329
3884.185,1.6507144108756746,250.04748523577075
3885.0808,1.6227571446068985,270.2164603376573
3885.9746,1.5929798940587503,281.94178267317375
3886.8706,1.56307192207029,318.47302841790327
3887.765,1.536017991031013,343.50163266423027
3888.6592,1.5148486957328664,329.4854592386243
3889.556,1.5019266673291476,411.10915971998173
3890.4507,1.4981855320018997,340.0931589074672
3891.348,1.5026682931822533,286.9605606722537
3892.243,1.5132228758712543,285.9225973665646
3893.1406,1.5278499209158902,326.6241583167952
3894.0361,1.5455558284347786,287.25938265323964
3894.932,1.5666295005776185,268.90936220978426
3895.83,1.5915845561429853,316.9880530029206
3896.7263,1.6198667022405318,307.681597742247
3897.625,1.6500451968178529,278.85221077972926
3898.5215,1.6799058593226308,269.133813599204
3899.4207,1.7078858073673522,254.29167531294868
3900.3176,1.7328799453622363,255.6645583817379
3901.2148,1.7548341050072145,194.34209530453805
3902.1145,1.774430936901107,217.73550074019147
3903.0122,1.7928233677087853,196.49602465477716
3903.912,1.8115122755536608,240.6969532416245
3904.8103,1.8313534894423416,218.44324187091013
3905.7107,1.8524440991191533,248.16329292286247
3906.6094,1.8737869066143427,198.5386450659585
3907.508,1.8940829388157538,211.03207263018447
3908.409,1.9123618045426405,209.15826995584453
3909.308,1.9284857348571678,216.64930473842702
3910.2097,1.9434333126833596,175.23386735290237
3911.1091,1.9582413396877663,220.31869502114012
3912.011,1.9733951990198304,177.58931452772686
3912.9111,1.9882601971149798,225.93540081857205
3913.8113,2.0019212396135897,264.22736878043065
3914.7136,2.0139232925853903,210.18063605111504
3915.6143,2.024571341599552,205.75618271289522
3916.517,2.0349017355034094,190.12513441634684
3917.4182,2.046008228801747,195.93936144682897
3918.3215,2.0587344025057592,190.35420463446493
3919.223,2.0730618352174606,182.1645080564026
3920.1245,2.0881629162922084,149.72576226404504
3921.0286,2.102598317490318,168.35618356536185
3921.9307,2.114818015200709,173.61264746020305
3922.835,2.124002238381314,146.87735054299884
3923.7373,2.130119974006114,174.17696054902825
3924.642,2.1338759175142936,147.3618306349449
3925.5452,2.13598800339255,166.85226030579412
3926.448,2.1367324411937254,157.70861629131062
3927.3535,2.1359245545483256,172.96983106602738
3928.257,2.133508535240863,170.4921539570042
3929.1628,2.130047937680532,187.1119654012135
3930.0667,2.126595131227182,181.88169495452385
3930.9731,2.1239076213628825,174.4460658101693
3931.8774,2.121951668901385,153.5552649835212
3932.782,2.119977503778631,165.13409564187313
3933.6887,2.1171263397231237,160.69175908539918
