wavl,flux,ivar
3566.9744,4.27287085131576,10.433489511219745
3567.795,4.272722293842697,7.154717439831157
3568.6177,4.254911461090583,10.509484386193266
3569.4385,4.222803662943295,11.809151984813774
3570.2617,4.186327436653409,8.596292918118602
3571.083,4.157352944494029,12.494198489829923
3571.9065,4.14352809733239,12.326046550113247
3572.7283,4.146215746356142,12.89556515809104
3573.55,4.16119059040095,10.986159631406377
3574.374,4.182175710848148,10.094281805453587
3575.1963,4.204041098729901,14.75708691404945
3576.0208,4.224764958649947,10.224730053454724
3576.8435,4.244074105191475,9.317490485236338
3577.6682,4.261691821221443,7.846929651505608
3578.4915,4.27555427882639,5.979714149674909
3579.3145,4.281732788440429,14.037868531856706
3580.14,4.274750300972081,10.9372146967196
3580.9636,4.2493773798242325,6.0390893921637705
3581.7893,4.203023040525602,7.195507566430023
3582.6133,4.138228296948947,9.44051200618966
3583.4395,4.0629329492413016,9.686294138207293
3584.264,3.9921099114669434,8.733695257120416
3585.0884,3.9442204817195554,9.43359768629717
3585.915,3.933822920235163,9.109919196157087
3586.74,3.961636437750113,12.033220998796203
3587.5671,4.012700677648066,8.336710826561378
3588.3923,4.065732000015707,7.077092799620383
3589.22,4.1065174730306495,11.707797669428782
3590.0457,4.131496466335686,9.751941571012217
3590.8716,4.14423568748101,11.21371463183805
3591.6995,4.1492477212815135,9.501610660520127
3592.526,4.150368495225367,8.423067673982029
3593.3542,4.15151540724538,11.23225196488613
3594.181,4.155852794684929,14.752051426753486
3595.0098,4.16333958844896,10.312351585154126
3595.8367,4.169833725647171,9.928934634252125
3596.6638,4.170210234454664,10.028325096349237
3597.4934,4.162718802191351,10.617718648615702
3598.3208,4.1508143138367855,17.84990478935703
3599.1506,4.140344673144586,8.170126456354442
3599.9788,4.135304706691095,9.096782963330135
3600.8088,4.135250958925138,12.273979967415734
3601.6372,4.136565785285407,12.832750150907572
3602.4678,4.135532661947507,9.268535835033235
3603.2964,4.130642123470536,8.931435306857551
3604.1252,4.122590577984369,11.407338695523336
3604.9565,4.112471075739536,10.30519650320334
3605.786,4.099802200684839,7.454353295976181
3606.6172,4.08169617285641,6.916901726048221
3607.447,4.0552187441796415,9.57420841488446
3608.2788,4.020846077885951,8.875654238207236
3609.109,3.9846207186271494,20.1746509963301
3609.9392,3.9548112361960333,21.49816569565707
3610.7717,3.937326125923927,8.345337720809084
3611.6023,3.9335729776722776,14.717894691848723
3612.435,3.941734973854712,18.684732545960372
3613.266,3.9589748847014694,11.676974292385587
3614.0994,3.9819460378619147,11.506288889778213
3614.9307,4.006035320622775,12.743402150465608
3615.7625,4.0260869313364775,11.710747292648033
3616.5962,4.037624643084286,11.158358419878939
3617.4282,4.0388284351648975,8.253980830452385
3618.2625,4.032240838768408,12.260343787522197
3619.0947,4.024463394641475,12.317495759769027
3619.9292,4.0228564737407035,9.471616019349536
3620.762,4.0307163006676,11.378696293657928
3621.595,4.044413986118379,9.362163235323296
3622.4302,4.055593151348324,9.606730136932287
3623.2634,4.05697324834729,11.38137309192192
3624.0989,4.047652836997172,9.090345392884592
3624.9326,4.033456084152476,8.644620317654425
3625.7686,4.022429076892767,11.93531822658361
3626.6028,4.019800125819749,14.313588310569157
3627.437,4.025881268781906,13.021250126188168
3628.2734,4.037968253037609,16.678102250119288
3629.1082,4.0524510243376834,18.384804861271995
3629.945,4.065606568109158,12.433264390809237
3630.78,4.073449778970612,7.3524421614842455
3631.6174,4.073417325623883,7.981712973511426
3632.453,4.06636791064951,14.458723699096039
3633.2883,4.057085726285007,10.454444654725593
3634.1262,4.05225393666997,12.687232829507316
3634.9622,4.057463971257886,11.719516560638054
3635.8005,4.074729058902382,8.011317904407806
3636.637,4.101120302016621,16.028135172318567
3637.4756,4.129207522596332,10.766467203134528
3638.3123,4.148688924844624,20.70560528657529
3639.1492,4.151062707303751,7.563803829619073
3639.9885,4.133658279558549,7.17151388612743
3640.826,4.10151649638759,10.938846954610039
3641.6653,4.064520530483615,9.745799582032427
3642.5032,4.03333957368947,11.53885909640887
3643.343,4.015301156082122,8.14161723492485
3644.1812,4.013168348827972,7.415885882878309
3645.0195,4.024296414740789,18.34753645605592
3645.86,4.0410722056946975,10.969457196452451
3646.699,4.053029642274536,9.726894095778421
3647.5398,4.052281208650963,8.507248193984573
3648.379,4.038302443653441,8.982246562258892
3649.2202,4.017889188458469,9.727686953413409
3650.0596,4.000115095475507,8.862217963920633
3650.8994,3.9904984269299977,16.032790231501366
3651.7412,3.989733712317489,12.298266071411016
3652.5813,3.9953642233079623,12.129301600723908
3653.4236,4.003576727365903,13.01568148153318
3654.2642,4.009805277012816,11.054775414003233
3655.1067,4.0098336273568,7.526884877280499
3655.9475,4.001848607845412,7.734647079081167
3656.7886,3.9882362821032435,8.53319122755369
3657.6318,3.9749550758058603,9.308013943815823
3658.4734,3.968503439581714,18.951836537635124
3659.317,3.9719099951256673,8.580230833020089
3660.1587,3.983015705078995,13.370884143746933
3661.003,3.9961678131608305,8.596471364591233
3661.845,4.006080521362376,14.208031290843628
3662.6875,4.011398870668137,8.217351569881881
3663.532,4.014692617566017,6.992174815407305
3664.3748,4.019820772512767,10.452544766984913
3665.2197,4.028934635078972,7.399961336836969
3666.063,4.040820074469061,12.139731836954072
3666.9084,4.051457475778553,9.53363585055566
3667.752,4.055842517609051,11.901529554798024
3668.5977,4.05072855008172,9.913779741813345
3669.4417,4.036141186462083,14.281029547034333
3670.286,4.015058965218626,8.651124893734577
3671.132,3.991983095371701,11.81175840535422
3671.9768,3.9715880345502215,12.554945339702545
3672.8235,3.957004424322946,11.65232780526554
3673.6685,3.9491935253705415,12.139717295547692
3674.5156,3.9469440601616506,9.65082093146999
3675.3608,3.94806827764369,13.79043227504248
3676.2063,3.9498091295030626,15.10874956235255
3677.0542,3.948615330211658,11.766192256855355
3677.9,3.9409692984285245,12.797290007183745
3678.748,3.9259832592189436,9.334799049812071
3679.5945,3.9075966660573,8.538964915435393
3680.4429,3.8926890107418544,18.02490022582091
3681.2896,3.8866714744984634,10.562915231890926
3682.1365,3.8897803318627417,7.248368967958258
3682.9856,3.897956527092792,11.888594598968837
3683.8328,3.906263008023293,14.094288283930332
3684.6824,3.911847860376551,16.645028138975505
3685.53,3.9140255768150696,11.167796266680021
3686.38,3.913142870999336,9.383532553414613
3687.2278,3.9096575199276304,9.565255142047736
3688.0762,3.90383889647934,12.772110511407869
3688.9265,3.8952065294809057,8.086541291838934
3689.7751,3.8819642434905903,9.294480380103122
3690.626,3.861354289465771,10.286634095656101
3691.475,3.8320735186677433,15.063677317429798
3692.3264,3.7962878710172223,11.391418955543092
3693.1758,3.7607745456128674,16.033568029605373
3694.0254,3.734249304777994,10.734393706461555
3694.8772,3.723739150070785,8.733515602263621
3695.7273,3.730727202884175,9.525943247463188
3696.5793,3.7497154093191902,11.850783247652483
3697.43,3.770595380742091,9.843796327355061
3698.2825,3.78398413582698,12.016088094324324
3699.1333,3.785784974040958,11.931894748611754
3699.9841,3.778812854807134,14.167764486634187
3700.8374,3.7697034446409967,12.254154791264483
3701.6887,3.763982400759076,11.915412740938745
3702.5425,3.762534039878565,13.831036389734015
3703.3943,3.762482515712652,14.135109128644949
3704.2483,3.7607474447140765,11.696034657838561
3705.1003,3.7567509176564964,10.33664635717889
3705.9526,3.751712018625125,12.837167916656883
3706.8074,3.745941001586894,13.226168534441955
3707.66,3.7376023878085625,12.424117420338899
3708.515,3.724547265643212,10.12113455233094
3709.3682,3.707942797228269,11.163873129433004
3710.2234,3.6931110053132135,14.306082718577045
3711.0771,3.686476909366759,17.28227593212562
3711.9307,3.690118102559888,10.61242073678022
3712.7866,3.699720793317717,9.67164179970351
3713.6409,3.7077288301423543,12.17668707519025
3714.4973,3.7094477818074125,9.201561888076439
3715.3518,3.70609006194127,9.870459039869383
3716.2085,3.7025218500511845,14.550380029973285
3717.0635,3.7022512000757017,23.96010182328309
3717.9185,3.7044577771204885,7.753317965926087
3718.776,3.705318695283901,14.159858105864691
3719.6313,3.7015370336398674,12.201918346663593
3720.489,3.6930557501862484,13.21270640468317
3721.345,3.6833893161258793,10.324126815757362
3722.2031,3.6773702475378474,14.902465976829841
3723.0593,3.6779829087991986,11.848576686982268
3723.9158,3.6840358848934356,11.662089621203581
3724.7747,3.6909250890655287,13.830322485076186
3725.6316,3.6937361854742186,15.769725234928469
3726.4905,3.6905957593494687,15.458553305412302
3727.348,3.6833306202928346,11.853905945879173
3728.2073,3.6751328590620433,9.551225320281205
3729.065,3.6674654870915604,15.906013214551384
3729.9229,3.658688746839148,10.633837614106785
3730.783,3.6456502247238154,12.33754348180391
3731.6414,3.626744178752348,14.278798361884228
3732.5017,3.6039696501871448,11.470696759005099
3733.3604,3.5834245372134843,13.859331267273777
3734.2214,3.572644660207056,12.479092636096338
3735.0803,3.576883092743725,15.504109900274342
3735.9417,3.5953791247715117,11.214727019972822
3736.8013,3.620562779912345,11.560921326939884
3737.661,3.6411624354334795,12.181356968535683
3738.5227,3.64707851347182,9.944256232853615
3739.3828,3.633752397275062,10.45060923436707
3740.245,3.6039286636816903,15.023852016378
3741.1055,3.5666419708115713,14.676937987649975
3741.9683,3.5333410478144587,14.923099343404479
3742.829,3.5142094988523898,14.990971015727737
3743.69,3.5138281425147158,17.50412339049322
3744.5532,3.5301985675392746,17.100197821918496
3745.4148,3.5560758923961133,14.955584085250855
3746.2786,3.582781865245924,14.075161734992633
3747.1404,3.6030562982222554,13.616892594167885
3748.0044,3.6131554855923524,13.392468893853275
3748.8667,3.6127818387188415,10.24020771006738
3749.729,3.6047266950273373,11.514788103817544
3750.5938,3.593467096485227,12.448651368561695
3751.4565,3.5834936274133975,13.653605127096744
3752.3215,3.5771750657679666,13.566956056294899
3753.1848,3.5737256108012794,14.835072945432273
3754.0503,3.5694163794650304,12.682727650077513
3754.9138,3.559651975893173,9.92407026196415
3755.7776,3.5414874854726315,14.369301586928353
3756.6438,3.515265038728462,16.756573071169154
3757.508,3.484834874304803,11.969935959858448
3758.3745,3.4555161641812235,13.429739560714893
3759.239,3.432341141007647,12.21248248854619
3760.106,3.4174883620629504,11.99832095352752
3760.971,3.4098629038964,11.039251213246173
3761.8362,3.4057238355411585,14.363026998820013
3762.7036,3.4012202390639725,16.26677483716314
3763.5693,3.3949091340103847,12.294545075018123
3764.437,3.3887090040948076,12.61282655880796
3765.3032,3.386576596917351,14.136994345767746
3766.1714,3.3914778348913206,16.38846095653812
3767.0378,3.403117807431344,17.869809445128727
3767.9043,3.417977088095918,16.432187916554618
3768.7732,3.4311819814381717,14.275797789536714
3769.6401,3.4387432176235064,11.35000182172724
3770.5095,3.439584357731433,16.02996713133485
3771.377,3.4358066940871046,14.090844595143226
3772.2466,3.4311263248701387,11.777738235625664
3773.1145,3.4280500160941134,16.742216663854126
3773.9824,3.4260299277417876,9.269637526284415
3774.8528,3.4225445880017507,13.958797900126852
3775.721,3.416074895385826,13.553380517500063
3776.5918,3.4079621151537327,14.874517078661878
3777.4604,3.4015640144711696,20.2831987345645
3778.3315,3.3991867528836557,19.239919606661918
3779.201,3.400011024862638,14.890133820347549
3780.0703,3.4003941747108533,12.433197816833996
3780.942,3.3963346817834843,21.505505993048484
3781.8118,3.3860050597472786,11.600649473752135
3782.6838,3.3704894037667827,17.37988114258475
3783.554,3.35293257921359,11.992011814899655
3784.4265,3.3365376539229854,13.833435738700304
3785.297,3.3237244566488298,17.489927433168425
3786.168,3.315767135701095,14.657868006962367
3787.041,3.313462418041101,13.99026676612858
3787.912,3.3170820189939643,13.691375930674374
3788.7856,3.3255295048927676,12.650729126370667
3789.6572,3.3357785225989796,13.212097612637091
3790.531,3.3441914593633664,12.342923809543295
3791.403,3.348607791256872,18.723197902605648
3792.2754,3.3495937033987664,11.605799157357787
3793.15,3.3492247769247023,18.841704702926563
3794.0225,3.3490001602666095,16.35472406826324
3794.8972,3.348829232919631,16.00821538170411
3795.7703,3.347786545992719,16.41343805307129
3796.6455,3.345328091181154,12.634406626908056
3797.519,3.341477186602251,11.07312749067052
3798.3926,3.3359458407169056,15.154690076398268
3799.2686,3.3278445033819506,13.562836883876525
3800.1426,3.317075371431495,13.484381538263289
3801.0188,3.3058495524125218,13.552284775347614
3801.8933,3.298542185886879,13.132985786398448
3802.77,3.2987893280999105,14.923730302459282
3803.6448,3.3068002220167765,13.63319169229407
3804.522,3.3190095133724946,13.951192112461886
3805.3972,3.32978456174924,16.89356640496371
3806.2727,3.333757146589198,29.49870983788056
3807.1504,3.327153374734603,13.527807491493311
3808.0261,3.3089577802516863,10.325287499389468
3808.9043,3.2812330796435782,11.757836825897
3809.7805,3.248997679477441,13.925551470721771
3810.659,3.218561299749668,13.417352845092536
3811.5356,3.196519837597657,18.27381292853589
3812.4126,3.1872255216298537,25.440609982259662
3813.2917,3.1911189748739415,15.697436578728892
3814.169,3.2043316009679095,15.485108056462265
3815.0483,3.220959696587282,14.920938880692812
3815.926,3.235782625661867,12.92915404153745
3816.806,3.2460571504822693,13.486759978833103
3817.684,3.2510463257296878,19.133368767009763
3818.5623,3.251121157791651,12.81637429224201
3819.4429,3.2467663906340394,16.92889075243202
3820.3215,3.2384571956060086,11.676958283757104
3821.2024,3.226755269079588,17.140880145560573
3822.0815,3.2124300001157944,16.45249855469444
3822.963,3.1960907547621997,15.771318884682039
3823.8423,3.178808936258021,16.02312949006195
3824.722,3.1625862874779505,16.910408469064993
3825.604,3.1502019227309423,16.76035656350919
3826.4841,3.1433470294975487,18.584552921551204
3827.3665,3.140486137487571,17.471701168154222
3828.2468,3.137612497828007,14.975691798858684
3829.1296,3.1315751376008474,21.835332335032007
3830.0105,3.1234691687178477,17.102717494876877
3830.8916,3.1183664738773555,14.826007433181948
3831.7751,3.1215667885882246,16.569436358513727
3832.6565,3.1342818437295827,15.497714103217886
3833.5403,3.1526824588064057,19.594338558454673
3834.4224,3.170527889408367,12.785614162090704
3835.3064,3.183492806695156,15.151895494447968
3836.1887,3.190632626356742,20.703338813295797
3837.0713,3.193049405720963,20.73509378043829
3837.956,3.1914079331013254,12.877428363160254
3838.839,3.1857276895216193,13.863618028212828
3839.7244,3.177144412010693,10.824661083001049
3840.6077,3.1690194424985023,14.360531240462064
3841.4932,3.164991731741254,17.224330836881908
3842.377,3.1659794062123456,20.110139608726364
3843.261,3.169100022251876,14.074785299066201
3844.1472,3.1699663098177995,12.751497679545396
3845.0315,3.1657197738800633,12.509340148637037
3845.9182,3.1560162581878775,22.071312520589057
3846.803,3.1421461545852805,13.85369529928029
3847.69,3.126168437544889,15.254199044125727
3848.5752,3.1115907797560243,18.584495526368507
3849.4604,3.1030904429717214,15.215642052878085
3850.3481,3.1046201492510024,17.8256701574788
3851.234,3.116288805489238,16.7127579285487
3852.122,3.1331343157569798,16.574840491636188
3853.0083,3.1471564009354296,14.575818102792267
3853.8967,3.1521057287707723,15.642262997304492
3854.7832,3.1468042351136254,15.648077475231059
3855.6702,3.135168090785497,17.684938050264517
3856.559,3.122892272900185,15.267159844191214
3857.4463,3.1139571332122764,21.60423034900729
3858.336,3.1089598024169214,17.675830735142856
3859.2234,3.1062395615632545,19.177702703236204
3860.1135,3.1038483252056714,13.331239138077002
3861.0015,3.1011209497404217,15.90748337319457
3861.8896,3.098681427670471,18.878169508937383
3862.7803,3.097484994117744,17.11871934401143
3863.6687,3.097792108730932,16.861225038435904
3864.5598,3.098662617909522,17.81134204186372
3865.4487,3.098078260503908,15.688939605343627
3866.34,3.0938667559327984,14.646548605290404
3867.2297,3.0854725074718856,18.895946257352836
3868.1213,3.0750676343529264,16.031952527155006
3869.0112,3.066334989993495,14.90432758179036
3869.9014,3.0608306986441023,22.82622556833377
3870.7937,3.055895870441188,19.65059664248191
3871.684,3.046761726010978,14.233280891975971
3872.577,3.0311881812404216,18.737136935677544
3873.4678,3.0121350698205056,14.32891277661165
3874.361,2.99493371891888,15.94679468389645
3875.2524,2.982499721054671,15.944739574171145
3876.1438,2.9722383843038265,19.338357884688815
3877.0376,2.95802898435323,13.158933750515287
3877.9297,2.935069368794641,17.682294426271504
3878.8237,2.903525994266291,17.92376318358876
3879.716,2.8692494197869123,19.928286317343833
3880.6108,2.840045488018803,15.71311703456385
3881.5037,2.821728776541107,23.10493563305566
3882.3965,2.8147696943061904,16.726673973569124
3883.2917,2.8148617102281044,28.13518010046216
3884.185,2.815508270783497,21.232254891380162
3885.0808,2.811250153722682,19.049962308310587
3885.9746,2.799877362396684,25.235743747195176
3886.8706,2.7826751292701366,14.78931100355668
3887.765,2.7633123017430803,23.699302866618957
3888.6592,2.7455690947342237,25.13477059885719
3889.556,2.731978318775345,20.513982789696083
3890.4507,2.723891264699039,19.92425087681547
3891.348,2.7221924637677457,25.49277608498876
3892.243,2.7280149090650365,27.370807375757742
3893.1406,2.742164164966742,20.069155661279922
3894.0361,2.763761313248207,24.660694804901695
3894.932,2.7897168714582308,23.45800572982566
3895.83,2.815252309009337,26.369271783524272
3896.7263,2.835755682498201,16.214913818515374
3897.625,2.8497501319446004,23.41321303842932
3898.5215,2.859658671903675,17.988087880669724
3899.4207,2.8706244333671838,19.65904405925133
3900.3176,2.8869007684948045,18.093957692561666
3901.2148,2.9092362788731645,15.501993363782699
3902.1145,2.9344179931893537,16.742099922355813
3903.0122,2.957009407681618,18.533974648997763
3903.912,2.9724770144393595,17.976349314784446
3904.8103,2.978609521440737,19.47416539577568
3905.7107,2.976126423048605,15.573689750550349
3906.6094,2.9679847576097678,20.436464439963245
3907.508,2.9583418763788023,15.251881272553618
3908.409,2.951191723576138,18.83381198375601
3909.308,2.9492335864462356,17.92224443449325
3910.2097,2.953434140933188,13.628608466106694
3911.1091,2.9634804809713002,19.149490056497847
3912.011,2.9781663169558144,16.845037784787813
3912.9111,2.9949719346796764,17.560127100535205
3913.8113,3.0103657257991285,14.873094875627142
3914.7136,3.0210165293296694,15.171790369634781
3915.6143,3.0257187416969056,20.70886911630611
3916.517,3.0264999415169527,17.129954370243347
3917.4182,3.027269733500609,14.516232564285524
3918.3215,3.0311832061736466,16.03690217409039
3919.223,3.03876608319471,16.446986775270084
3920.1245,3.048505976364649,14.546203556823256
3921.0286,3.058763018335703,17.926820277593276
3921.9307,3.068677046122868,15.299512312568103
3922.835,3.0775583369553132,19.30346503173107
3923.7373,3.0835985118977756,16.97329889551383
3924.642,3.0843046748888354,15.892364284399335
3925.5452,3.077965008144001,15.399092859332114
3926.448,3.0649548971288976,17.728175023352804
3927.3535,3.047633851334644,14.266672764201662
3928.257,3.0297054896760134,15.409803146854044
3929.1628,3.0147615358622417,19.36145497976279
3930.0667,3.005160666293362,17.731790856683425
3930.9731,3.000528176569576,17.08591610395987
3931.8774,2.998141517088965,18.509536216557848
3932.782,2.9949662896741645,21.97430926585027
3933.6887,2.990089927701655,14.492950764207917
3934.5938,2.985072488298072,21.27616376256028
3935.501,2.9819068225255667,17.9378149758137
