wavl,flux,ivar
3566.9744,1.063306819828169,214.432097890102
3567.795,1.0538235777919784,157.0669420917917
3568.6177,1.0444923752159718,227.13004818451438
3569.4385,1.0360206184457967,151.04296093279902
3570.2617,1.028227103882689,152.27059952067822
3571.083,1.021214321597483,158.01506891532551
3571.9065,1.0155671392207903,193.9292290220609
3572.7283,1.0118173553503393,219.51994606173358
3573.55,1.0094435355627123,187.0720241303143
3574.374,1.0070726197461712,181.93330473750177
3575.1963,1.0038849478287146,258.7950529688688
3576.0208,1.0008232361840486,108.66425043885341
3576.8435,1.00017736575117,272.33326247595454
3577.6682,1.0035678861182955,87.09733429369811
3578.4915,1.0104239217772815,139.63035932184567
3579.3145,1.018475839285467,139.3237334590395
3580.14,1.0255684686704778,214.64437887528058
3580.9636,1.0308565539704158,222.87617589704215
3581.7893,1.0347990067936998,147.4588793826944
3582.6133,1.0381784087270425,230.19274433858362
3583.4395,1.0415037914338294,161.189142637309
3584.264,1.0447321883146474,154.7901609771429
3585.0884,1.0474121378819057,130.28442827042423
3585.915,1.0489211935892018,278.9232440533569
3586.74,1.0487823347410672,184.78147804497985
3587.5671,1.0468288459670283,164.5257023898695
3588.3923,1.0430821084635513,303.7539557447195
3589.22,1.0375995398869813,92.43129400995443
3590.0457,1.03081737808922,229.04141530675
3590.8716,1.0238846705235063,320.1049040460207
3591.6995,1.018612627495218,355.31957798108266
3592.526,1.0166224494104414,212.80789437688827
3593.3542,1.0182227984631007,252.2309680173281
3594.181,1.0220067538835136,164.21088156555672
3595.0098,1.0252778272636844,325.41005492204255
3595.8367,1.0250266937912549,271.43387600562244
3596.6638,1.0193376037261548,114.28134041483317
3597.4934,1.0084583274919723,371.2297544842615
3598.3208,0.9950436954759306,155.97916015317344
3599.1506,0.9826065252883545,167.14751714443585
3599.9788,0.973877110278668,177.0952383799744
3600.8088,0.9695059331071234,228.72664030409186
3601.6372,0.9685435154352146,262.7983793671312
3602.4678,0.9694500378091512,300.1807306786044
3603.2964,0.9711301118876335,236.59720279271212
3604.1252,0.9734789460243198,294.76013887421465
3604.9565,0.9772927318848178,194.5444191307788
3605.786,0.9833556417457257,265.80729478412974
3606.6172,0.9913545965770959,252.44173346753306
3607.447,0.999386258791457,157.91674071600525
3608.2788,1.0048891836624056,395.7592794383561
3609.109,1.0058213380822651,334.66256557452016
3609.9392,1.0016362348040075,173.832209624564
3610.7717,0.9935468981033403,201.97072898452032
3611.6023,0.9845095060862832,184.68474309537078
3612.435,0.9781893449291557,208.74615692199401
3613.266,0.9773361019938739,226.53671661234603
3614.0994,0.9820272728574853,182.8334779899938
3614.9307,0.9896107203414324,204.63571248740078
3615.7625,0.9966269981182252,137.52307279965498
3616.5962,1.001073971028539,314.42519425962354
3617.4282,1.0032742298517932,168.82084451783192
3618.2625,1.0049366344320823,123.69771141738877
3619.0947,1.0073750322827617,208.6466074322176
3619.9292,1.010567238975901,305.0891617568891
3620.762,1.0134239244814691,135.36729802563033
3621.595,1.0148795999970195,172.95670662452164
3622.4302,1.0144950145822085,168.06651553025424
3623.2634,1.0121478197686884,223.67557131808752
3624.0989,1.007416241935154,173.98061702241867
3624.9326,0.9999164814632081,362.4650587179264
3625.7686,0.9903815138940006,149.3935583252395
3626.6028,0.9813995916907894,162.00717475833574
3627.437,0.9761553757091741,172.2771936212587
3628.2734,0.9763518198115393,390.10837210862906
3629.1082,0.9807995427128202,162.63507268857228
3629.945,0.9859007627861994,196.43031004701356
3630.78,0.9873963173806822,206.41683675067787
3631.6174,0.9823169880935654,184.93787743798424
3632.453,0.9702325600848501,388.5197466006181
3633.2883,0.9535305828995994,145.93359660395936
3634.1262,0.9366085553696277,189.20559567204344
3634.9622,0.9242228127352301,871.7386551691077
3635.8005,0.9190722314865246,190.26499817419682
3636.637,0.9208746270521881,149.45812928389952
3637.4756,0.9268164369606205,186.73346796036444
3638.3123,0.9334261333629482,246.19586672913687
3639.1492,0.9385719829834738,278.5674856974051
3639.9885,0.9421238814605098,325.26178498340244
3640.826,0.9451007445725209,178.99607216191336
3641.6653,0.948153329438517,230.55428404917345
3642.5032,0.9504984220409091,205.67755806009507
3643.343,0.9502925869050185,190.71128623099614
3644.1812,0.9460255497157343,136.02481385222413
3645.0195,0.9380074761572165,165.96802516109003
3645.86,0.9286626384796757,211.4967965229086
3646.699,0.9212472671087161,263.59411825443
3647.5398,0.9176258529355581,244.82625230490956
3648.379,0.9174875586335864,223.35412097942287
3649.2202,0.9193506079839355,236.60210776694967
3650.0596,0.92227156444682,221.9252032472807
3650.8994,0.9263124243107773,171.69460321349618
3651.7412,0.9315015259340708,156.40689529219372
3652.5813,0.9367932810353563,218.15535105311392
3653.4236,0.9404779962370828,182.9183790562199
3654.2642,0.9413606346257268,324.5052276068123
3655.1067,0.9395284838726539,299.0767775906051
3655.9475,0.9357755520695656,632.5682530815263
3656.7886,0.9305454806018782,159.7581210180255
3657.6318,0.9236349378314744,485.7889359012331
3658.4734,0.9149559121429612,187.48102163247282
3659.317,0.9052126785722232,333.21742405107426
3660.1587,0.8960182496748854,359.82990294213516
3661.003,0.8889037517005011,168.79517614811624
3661.845,0.8846256458757864,294.10854863838716
3662.6875,0.882808102170762,1073.0260311732177
3663.532,0.8824648915284774,289.209644825279
3664.3748,0.8826180312293712,192.88414642278897
3665.2197,0.882636187111117,289.52779741082264
3666.063,0.8820298017933196,310.9646298583973
3666.9084,0.8800713089151709,216.45925300039403
3667.752,0.8759863836418328,330.5366672489522
3668.5977,0.8696822272617729,314.58531966072667
3669.4417,0.8623352180843737,267.8501097306943
3670.286,0.8558816103578076,368.008437458305
3671.132,0.8521593327914736,238.85530260895632
3671.9768,0.8523620016958086,180.704410083546
3672.8235,0.8569572732060114,265.8695413922261
3673.6685,0.8656857645004031,263.33146319498803
3674.5156,0.877457473473075,354.14236126712353
3675.3608,0.8900507761128208,463.32903725447534
3676.2063,0.9006050005847636,143.99434494010154
3677.0542,0.9064229178194132,148.61813647661396
3677.9,0.9061348221099419,313.20924598647224
3678.748,0.9005250025003936,364.36813713563225
3679.5945,0.8922623643919073,268.0436862375626
3680.4429,0.8845790993418715,285.72419161304884
3681.2896,0.8797370958739859,212.2091354698147
3682.1365,0.8777677335965162,329.80450838809554
3682.9856,0.8766135127360757,213.64685027520818
3683.8328,0.8734878441723667,204.7732570217408
3684.6824,0.86676603780577,196.37709854347585
3685.53,0.8572897851987854,348.1905172004442
3686.38,0.8478627843845151,388.1709987533686
3687.2278,0.8416676138394915,771.6405079336935
3688.0762,0.8403549126096977,253.92548440522975
3688.9265,0.84365824281159,247.3533720266967
3689.7751,0.850095602472685,237.09236770137096
3690.626,0.8580507382763187,410.9195596044247
3691.475,0.866112159696709,216.62861947097363
3692.3264,0.8731712437655546,235.30033799218907
3693.1758,0.8782638868218606,417.7448857401732
3694.0254,0.8809372718894838,245.19773139781458
3694.8772,0.8815318690143179,216.57064896435838
3695.7273,0.8812316907295328,369.5200097283228
3696.5793,0.8814445315207906,347.6599170754644
3697.43,0.8828529331226925,162.5667728887754
3698.2825,0.8850049698982443,194.04749983863428
3699.1333,0.8867560123865522,234.97432600216757
3699.9841,0.8870623179991821,306.6742404643329
3700.8374,0.8852836870864049,324.0587628247541
3701.6887,0.881146522845854,193.18012646039122
3702.5425,0.8747695016940257,199.94810608141367
3703.3943,0.8670081923530429,330.60695586735886
3704.2483,0.859303657478062,296.85208108701994
3705.1003,0.8533280085848542,307.93280614388175
3705.9526,0.8502898129625293,277.2305307197235
3706.8074,0.8506352844824789,284.3804493486857
3707.66,0.8537672911490842,277.4552514970726
3708.515,0.8581395326781841,373.70811784657513
3709.3682,0.8619011047841043,175.10827866151385
3710.2234,0.863962935119422,245.34591037434083
3711.0771,0.8643502625109146,190.2214416287967
3711.9307,0.8636447667660098,243.34850801632558
3712.7866,0.8620571362803414,276.76392428751177
3713.6409,0.8592665242925963,159.90106037055978
3714.4973,0.8550883377937012,278.6059306488777
3715.3518,0.8502986947099492,502.1130198024197
3716.2085,0.8465272380603392,368.27092787903524
3717.0635,0.8453759121166864,4478.708042002225
3717.9185,0.8472068229364154,305.6747939843541
3718.776,0.8508809297816734,191.25186698022065
3719.6313,0.854593534184527,145.90680558855894
3720.489,0.8572329034278707,318.9609935648172
3721.345,0.8587600695951374,260.00702961693054
3722.2031,0.8595897643571304,419.32461888213504
3723.0593,0.8597992527815932,195.24849003586039
3723.9158,0.8591976336405062,260.99432821330697
3724.7747,0.8578293371035293,424.5293893893154
3725.6316,0.8560766781710837,321.78018669610873
3726.4905,0.8542068352277955,210.7799861609733
3727.348,0.8521887934951852,440.8169714973891
3728.2073,0.8499483951382995,298.2017718134796
3729.065,0.8476133884650229,381.6218269897855
3729.9229,0.8452266159163101,176.7533793254434
3730.783,0.8424899175041832,285.46556232943846
3731.6414,0.8390486130821214,199.07512108275398
3732.5017,0.8350437296850209,476.3776438351159
3733.3604,0.831446615516209,222.75111497304297
3734.2214,0.8296220807998829,339.51127717000304
3735.0803,0.8305432459609647,383.2827508989444
3735.9417,0.8339984073216956,398.7496369045336
3736.8013,0.8384856130036649,206.29116774688922
3737.661,0.8420305929379817,316.7991152917573
3738.5227,0.8432083253781897,241.13516329162334
3739.3828,0.8415980606450668,241.10008716790824
3740.245,0.8375550393874325,298.73539613559876
3741.1055,0.8319509446451523,240.86340461527735
3741.9683,0.826069883207963,315.9394367618823
3742.829,0.8214552522921972,337.62873114585443
3743.69,0.8190587935109346,179.8955509789708
3744.5532,0.8186911784126522,701.8448433756498
3745.4148,0.8192620499032012,389.4470457480062
3746.2786,0.819676514812296,240.7197765378878
3747.1404,0.8194847282706372,372.6314575126379
3748.0044,0.8188254958040705,386.4977685517991
3748.8667,0.8180457280623565,327.92251245999216
3749.729,0.8175184261314404,404.44570856529106
3750.5938,0.8176665296347164,301.9503466075876
3751.4565,0.8188002483195925,271.6279815640464
3752.3215,0.8207534769653779,299.7757628510929
3753.1848,0.8227315346421582,247.0677644982954
3754.0503,0.8237560719805698,658.0007217057655
3754.9138,0.8232965610601127,295.3175293577521
3755.7776,0.8215938810959116,377.30219683727415
3756.6438,0.8194219779728737,327.5661562099532
3757.508,0.8177230731706148,162.31982755092355
3758.3745,0.8173200298986325,405.7373178307288
3759.239,0.8187603349364504,280.40375486682467
3760.106,0.8220682198807595,277.349312128278
3760.971,0.8265457511406572,261.4759496389608
3761.8362,0.8309669658252755,352.87337717866717
3762.7036,0.8339399502662205,178.52372363625466
3763.5693,0.8342632559245761,321.09470641132197
3764.437,0.8312538548106411,224.17376188358483
3765.3032,0.8249931820849419,239.63290551812608
3766.1714,0.8162666779265582,225.3347238412324
3767.0378,0.8060955255975233,547.0572193878274
3767.9043,0.7947109458080109,272.04659765567686
3768.7732,0.7808950276180852,254.17657255733755
3769.6401,0.7621909337800816,301.9358514969658
3770.5095,0.7360666766494613,250.98028652375913
3771.377,0.7034631921562801,239.94198989045927
3772.2466,0.6713898826557696,259.1465205791356
3773.1145,0.6524704134420196,273.9200878288831
3773.9824,0.6573857845705927,378.4889908874886
3774.8528,0.6869764727184567,180.60865802094028
3775.721,0.7301832185556056,306.1517334557362
3776.5918,0.7717979480708181,352.9406999762938
3777.4604,0.8009614161755877,224.97912273071535
3778.3315,0.8158228589401963,380.08502574429144
3779.201,0.820426883753568,252.09915326411345
3780.0703,0.8204439886175586,319.5707793532016
3780.942,0.8199520387382188,391.57055166814763
3781.8118,0.8206740592411379,369.2919277427236
3782.6838,0.8224812955099414,436.6619040091384
3783.554,0.8243614449563994,277.24854361316346
3784.4265,0.8253600408301899,265.5198177204965
3785.297,0.8250219982258454,281.24450510593397
3786.168,0.8233718527831435,129.98821446116978
3787.041,0.820650182731717,196.2585273818049
3787.912,0.8171503010639504,356.7416446106821
3788.7856,0.8129900369341485,353.3372281960901
3789.6572,0.8080318113565426,309.59773012224395
3790.531,0.8018740499784901,388.82873427270954
3791.403,0.7942808050444765,346.3249170992122
3792.2754,0.7853921952324484,272.8517670098453
3793.15,0.7757750314355389,244.83073953181548
3794.0225,0.7663180587019838,300.7689747859459
3794.8972,0.7578985536295679,323.7238042883803
3795.7703,0.7514125898301706,260.24150447401473
3796.6455,0.7474319003341469,256.6500219745231
3797.519,0.7461068593605628,649.1064327656039
3798.3926,0.7471111968287446,394.2371994502769
3799.2686,0.750005220651481,344.1824224109988
3800.1426,0.7544692140182189,320.15932431793976
3801.0188,0.7602394756859568,224.97357571584268
3801.8933,0.7666198126500622,215.67484565244865
3802.77,0.7724657823955219,250.36780261443045
3803.6448,0.7766302495555745,194.3115721470425
3804.522,0.7788898355190368,417.37388700828956
3805.3972,0.7801933400249379,170.3878818246908
3806.2727,0.7821893574253366,405.79122594390236
3807.1504,0.7862792504330577,343.2439757625659
3808.0261,0.7929609718386831,327.4648303259601
3808.9043,0.8018959528247998,217.94704681889354
3809.7805,0.8120382877398182,328.60064068742014
3810.659,0.8219643845335631,329.1265329423969
3811.5356,0.8299451284122237,258.04766940726574
3812.4126,0.8347824525919063,296.4242783493053
3813.2917,0.8365036590241876,284.9626093636121
3814.169,0.8363797026513258,246.35954988493518
3815.0483,0.8358773423616009,302.9836523103533
3815.926,0.8354438722146362,451.76025671456694
3816.806,0.8343496306412437,277.6157659761644
3817.684,0.8317079250722802,255.64953741120107
3818.5623,0.827563001080323,197.71359004205038
3819.4429,0.8229949498172446,276.2245196994514
3820.3215,0.8192348261967909,463.5440207965284
3821.2024,0.8165019615250422,286.30970365019533
3822.0815,0.8137881704536059,244.92876567347545
3822.963,0.809514006039729,236.47777521748677
3823.8423,0.802676520856437,203.81603264027726
3824.722,0.7933716594663747,465.57159186921535
3825.604,0.7825210725608682,302.81306253062394
3826.4841,0.7711943958994719,485.34694823540343
3827.3665,0.759831434452943,247.4259360084915
3828.2468,0.7484824027916116,436.81238735809933
3829.1296,0.7370495110497888,288.1059471392444
3830.0105,0.725824431196862,447.05857939545785
3830.8916,0.7151160968458588,345.52244653885253
3831.7751,0.7049738735200176,465.6212966357885
3832.6565,0.6952582271635538,365.4877137101204
3833.5403,0.6858920153576111,315.0404360896487
3834.4224,0.6774435995219215,580.664687624946
3835.3064,0.6709401999123782,465.63436724120555
3836.1887,0.667720155151706,534.2370807555976
3837.0713,0.6689630346528384,360.9184700820546
3837.956,0.6753069165055166,329.2515604716758
3838.839,0.6862887551797413,393.2469567904809
3839.7244,0.7003553788897009,279.8888810214644
3840.6077,0.7152446956126732,372.9786441758198
3841.4932,0.7292129172767744,311.17778316375046
3842.377,0.7414595350322256,348.29043175379786
3843.261,0.7521838257479184,455.25414761584227
3844.1472,0.7616848109241313,426.19147840083474
3845.0315,0.7696956821055633,299.19779943244123
3845.9182,0.7756456478008745,212.97219794776962
3846.803,0.7791506956064522,461.0009000269911
3847.69,0.7806759674305951,223.34177492244763
3848.5752,0.7815071892250435,267.0947836594975
3849.4604,0.7832961173592272,258.2245379092152
3850.3481,0.7872689908987714,627.6537054927297
3851.234,0.793514118700789,228.07241675027421
3852.122,0.800978135662485,323.64290247454625
3853.0083,0.8080087526992596,363.30689822939684
3853.8967,0.8134645286945151,287.6679673052581
3854.7832,0.8171911769766331,275.2221219419415
3855.6702,0.8199110323112307,357.74357747404105
3856.559,0.8223742598868253,212.98415882801115
3857.4463,0.8246175087442851,275.00329698182856
3858.336,0.8258678758383654,328.9026704296925
3859.2234,0.8250770156018564,221.35465638160932
3860.1135,0.8217594104754169,397.5952578995102
3861.0015,0.816461438164738,317.03964409717173
3861.8896,0.8104500280801514,303.1123660278379
3862.7803,0.805073334914031,406.3780243096146
3863.6687,0.8013505869895885,285.1940404381365
3864.5598,0.7997958405605745,242.68194784425899
3865.4487,0.8004161959687319,444.5005810050226
3866.34,0.8022825050709413,281.9261139316832
3867.2297,0.8026579522631827,213.78641546984574
3868.1213,0.7951075202045346,316.5420392070766
3869.0112,0.7661179857894149,414.0422936164659
3869.9014,0.6921270366713637,296.51754762182424
3870.7937,0.5435856601810316,351.127917802115
3871.684,0.3059605827802289,206.93869927900818
3872.577,0.006226200368928408,254.82240588450384
3873.4678,-0.2702411744834252,252.1489493823376
3874.361,-0.4171245128523053,489.9977906704605
3875.2524,-0.3699528981267858,270.0458120835701
3876.1438,-0.155281094167104,314.1016921058427
3877.0376,0.13141294794608094,599.5553521360179
3877.9297,0.3875545471326462,301.19361038343584
3878.8237,0.5605614732039061,284.779697861435
3879.716,0.6494405922369245,322.5604015899528
3880.6108,0.6811762165178087,316.56534761713027
3881.5037,0.6828871288402039,443.4681449760999
3882.3965,0.6720300088823888,398.3848973355463
3883.2917,0.6567751254223021,762.7821548056903
3884.185,0.6402811115099528,494.041643552025
3885.0808,0.6234689622276525,605.5486458892256
3885.9746,0.6069368148599857,376.78211088899315
3886.8706,0.5912906232885511,512.9712531853525
3887.765,0.57754234346828,866.1902308359932
3888.6592,0.5666702462423574,561.4934939963397
3889.556,0.5594835765873808,518.316951425749
3890.4507,0.5565669024846536,482.47952925532974
3891.348,0.5583034169646327,396.506050210382
3892.243,0.5650176252333072,654.8782879273544
3893.1406,0.5767572946716899,374.60380930901783
3894.0361,0.5926236749532091,542.8748470292556
3894.932,0.6107345733885851,428.9631980957574
3895.83,0.6286603317023493,452.00288530672117
3896.7263,0.6443738057575797,513.1653734819853
3897.625,0.6574929218761866,606.6304412239901
3898.5215,0.6690152696754832,602.1378166624513
3899.4207,0.6806646697454686,621.0891170539315
3900.3176,0.6934354155445501,431.40233087910906
3901.2148,0.7072448093085373,565.1405095546884
3902.1145,0.721155596284531,273.9852691025253
3903.0122,0.7339965188974417,400.02971029514595
3903.912,0.7450936716758689,361.82623327457424
3904.8103,0.7541802805684985,414.0924718494119
3905.7107,0.7617131089486869,245.62543359782774
3906.6094,0.7689321834550363,258.7360745448892
3907.508,0.7777916185994669,440.7743283994112
3908.409,0.7898565113966222,298.1399584377107
3909.308,0.8047846783702419,299.3036508990485
3910.2097,0.8201543376786364,338.4185256503197
3911.1091,0.8326249899845126,127.62496499211206
3912.011,0.8403506392707585,327.66162265730196
3912.9111,0.8437524314031821,447.17217655129946
3913.8113,0.8448929001990497,278.66843532663984
3914.7136,0.8458701319268774,321.8244902495277
3915.6143,0.8478764367340337,287.795694484123
3916.517,0.8511729640974287,431.10551863379726
3917.4182,0.8554008383939169,249.8920531327865
3918.3215,0.8599127573340609,352.4400864794082
3919.223,0.8639250854843801,339.71335984054156
3920.1245,0.8668684087810471,242.39545812855528
3921.0286,0.8685525741280369,236.1266951728402
3921.9307,0.8691110251194619,309.6295140787832
3922.835,0.8687961241625942,231.21348700528196
3923.7373,0.8678208185889978,283.89043314717355
3924.642,0.8664304743889646,399.56010662772695
3925.5452,0.865128623645247,209.46019383935186
3926.448,0.8647327576924418,277.55272083866953
3927.3535,0.8660656374404812,340.6870363158481
3928.257,0.869281788455798,176.83939717930463
3929.1628,0.8734456303565376,209.82393186229945
3930.0667,0.8768016459077461,246.31835965661045
3930.9731,0.8778426004396751,233.24998382233665
3931.8774,0.876180910990403,247.20384786318192
