wavl,flux,ivar
3566.9744,34.17602116760885,1.5753673846593195
3567.795,34.155370399351426,1.5566130206255142
3568.6177,34.082064317851554,1.4094106058261484
3569.4385,33.96609082562488,1.4986948785287901
3570.2617,33.83086379005976,1.6035197940083237
3571.083,33.70448094740749,1.5889364007003797
3571.9065,33.607736589512555,1.796061354908712
3572.7283,33.55252112169333,1.5685152776335658
3573.55,33.54094482958118,1.541036332041523
3574.374,33.569204102047316,1.7403445352820555
3575.1963,33.62917716507336,1.557091719790167
3576.0208,33.71062150114443,1.618341482811574
3576.8435,33.80191442949345,1.5995258615773544
3577.6682,33.8923103859584,1.5113885230763027
3578.4915,33.96846826401402,1.4736654664279845
3579.3145,34.012300973535986,1.4588402754927559
3580.14,34.00088105054031,1.6381808669981996
3580.9636,33.916296362076956,1.6079180966894522
3581.7893,33.7602584741216,1.4478482189936084
3582.6133,33.564095498880334,1.533528688385391
3583.4395,33.37740986047178,1.7557905198004287
3584.264,33.24705777803395,1.5342493215105806
3585.0884,33.19073325656215,1.7509016061920673
3585.915,33.19298106684568,1.690658605026066
3586.74,33.218826850659156,1.5543248392821172
3587.5671,33.23621009095116,1.5907271593014456
3588.3923,33.23104486996866,1.4546723014386178
3589.22,33.207558578450055,1.7289114349505388
3590.0457,33.17727476465418,1.7298251012489831
3590.8716,33.147514191506176,1.6639115669758107
3591.6995,33.11856415752671,1.4194438104183038
3592.526,33.087166992303025,1.6552783298289815
3593.3542,33.04874616480408,1.8207940890647223
3594.181,32.99855967111371,1.7202986482134883
3595.0098,32.93415137617333,1.6447596930731752
3595.8367,32.86281785793861,1.6233418836301379
3596.6638,32.802618223171855,1.7270342645344856
3597.4934,32.774830533611095,1.7472880368910952
3598.3208,32.79110357632299,1.6933712131446579
3599.1506,32.84673124649319,1.681867690542251
3599.9788,32.92370285747611,1.718616038977749
3600.8088,32.9988217385375,1.8971065197162325
3601.6372,33.049475395184025,1.6949535384459935
3602.4678,33.061876245360985,1.580955377038179
3603.2964,33.03644963188084,1.6125788585695868
3604.1252,32.987629445113946,1.5307395430784223
3604.9565,32.93422604996814,1.5709750266730333
3605.786,32.88890269398656,1.6225771153922233
3606.6172,32.85302849999292,1.7689609223862457
3607.447,32.821660828159715,1.6214995389881923
3608.2788,32.788905112363366,1.7749970788158065
3609.109,32.7511707168098,1.782530642387704
3609.9392,32.70720430987574,1.5142405636986116
3610.7717,32.65964405637557,1.5943261955054777
3611.6023,32.61567078084922,2.022235707094595
3612.435,32.58107492707615,1.8347769367768054
3613.266,32.55296049565188,1.6649912217174256
3614.0994,32.51774049853864,1.7112024286043488
3614.9307,32.46265721198239,1.8710399906282429
3615.7625,32.389742818695794,1.5837793006904257
3616.5962,32.31938185212032,1.736387112818108
3617.4282,32.277499817991604,1.883624420089504
3618.2625,32.27543910973341,1.6440518578140524
3619.0947,32.30186617510331,1.7213952253245863
3619.9292,32.33109089546228,1.5605340988982819
3620.762,32.3404482910309,1.801031108866919
3621.595,32.323397492444855,1.8553176435927778
3622.4302,32.28897322639513,1.7973765282259204
3623.2634,32.2527838366479,1.9428163472011515
3624.0989,32.22635698588742,1.966703034546735
3624.9326,32.212926615293426,1.8542907950259386
3625.7686,32.20801035745217,1.6838104792205097
3626.6028,32.204877325018536,1.6010921026360028
3627.437,32.200713032198685,1.7225754550924202
3628.2734,32.1998046533366,1.9130333272913294
3629.1082,32.21073503957855,1.8243309255914013
3629.945,32.23962333864353,1.5238386993590038
3630.78,32.28427582721734,1.7230618508204323
3631.6174,32.33426980164846,1.9054415837348335
3632.453,32.374412710933946,1.6531253613433565
3633.2883,32.39169324312346,1.6126705792029172
3634.1262,32.379452302311826,1.6884794049459435
3634.9622,32.339420274307095,1.612344709463497
3635.8005,32.28006719158668,1.776139831614256
3636.637,32.214194163094334,1.7023777710830128
3637.4756,32.15382778143111,1.6706176077272452
3638.3123,32.10677493590131,1.6237689680416543
3639.1492,32.07165823156847,1.625104480731503
3639.9885,32.03846415400314,1.6943524178606286
3640.826,31.994619074434336,1.6919580461949635
3641.6653,31.93335067518915,1.8501601848281
3642.5032,31.860046994511507,1.8112543879948142
3643.343,31.789042385181233,1.7833705266308455
3644.1812,31.736160515302405,1.9313303592747395
3645.0195,31.708235527719133,1.7472075537476899
3645.86,31.698860896013958,1.7405232785843348
3646.699,31.69079432009909,1.7723849525630193
3647.5398,31.665212783065353,1.6821754857809912
3648.379,31.613555004104935,1.4840247226575063
3649.2202,31.543556656509896,1.6072721021548588
3650.0596,31.477041574866927,1.616778214292018
3650.8994,31.43704525343918,1.8447451801480548
3651.7412,31.434925499154264,1.7738705128050616
3652.5813,31.462697475468712,1.9177374914015797
3653.4236,31.49702183075156,1.6988929561287518
3654.2642,31.511973220726443,1.8600357108426335
3655.1067,31.49357364284254,1.7455590248480575
3655.9475,31.44621094008631,1.6619162595772639
3656.7886,31.38815794253579,1.9046127981916359
3657.6318,31.340057852710817,1.7236819973838462
3658.4734,31.31356712992271,2.024761421705633
3659.317,31.30512037124338,1.7347403481569543
3660.1587,31.30039714918384,1.7822422988312627
3661.003,31.2848146274667,1.9288815121927008
3661.845,31.253464529986285,1.8853753004738603
3662.6875,31.21227195797337,1.7982111404608039
3663.532,31.17169781788166,1.8870921506713547
3664.3748,31.13975150722468,1.8468329175409786
3665.2197,31.11924358223113,1.7992388034161784
3666.063,31.110211037859123,1.9322191303473837
3666.9084,31.109965750359724,2.1598673706901788
3667.752,31.110576665240977,1.7825750471069703
3668.5977,31.098331825666417,1.811780505326794
3669.4417,31.060899967296415,1.7274668356520364
3670.286,30.997930900845468,1.7910442167416825
3671.132,30.924967180408085,1.8515610752363598
3671.9768,30.865677235755182,1.9157795845251588
3672.8235,30.83628304186677,1.9303343397936685
3673.6685,30.83769030572664,1.8531858471086173
3674.5156,30.858252778322175,1.977929505159019
3675.3608,30.883544468496446,2.1649666995639305
3676.2063,30.903344885553157,1.8942380685022462
3677.0542,30.912114961168445,1.9339679557975755
3677.9,30.907999695795716,1.958793134399617
3678.748,30.893940966142498,1.7897743859163473
3679.5945,30.877682013791933,1.8631353386377922
3680.4429,30.865817221259515,2.1005383333745886
3681.2896,30.85571247121766,2.0636229133260384
3682.1365,30.834701785013102,1.7257232606727657
3682.9856,30.791304393824056,1.9268666946890318
3683.8328,30.72915998337958,2.35674350113783
3684.6824,30.667798522737183,1.990744486276658
3685.53,30.630482690383403,2.1081019773416476
3686.38,30.626730526850043,1.9184001443388288
3687.2278,30.647453924063242,1.99439958075089
3688.0762,30.673669864612943,1.8097770486939742
3688.9265,30.690589458109702,1.806839699522706
3689.7751,30.69452834959023,1.8078127540780708
3690.626,30.689681282881484,1.7570268626229586
3691.475,30.680907609113827,1.9039023758394065
3692.3264,30.670275077561495,1.8561275053537811
3693.1758,30.657212386227833,1.8904500531093062
3694.0254,30.63756896648921,1.7704405215553012
3694.8772,30.60277615273351,1.8937397520430408
3695.7273,30.544110140669627,1.8702302371326136
3696.5793,30.46001646016899,1.953440100967508
3697.43,30.360403317750233,1.951544707398611
3698.2825,30.258398495743794,1.9985949904945808
3699.1333,30.16108211546312,1.9988526433904148
3699.9841,30.065058034129287,1.9247593383668484
3700.8374,29.964667776910122,2.013643277900864
3701.6887,29.862446546924087,2.0822183719393546
3702.5425,29.76921943266912,2.0195920658688857
3703.3943,29.699390138666143,2.0416355522115195
3704.2483,29.660458062289035,2.094261979490835
3705.1003,29.65037669862347,1.968185232669718
3705.9526,29.65970965682415,1.8183887366545894
3706.8074,29.678932342774296,2.158078037184719
3707.66,29.70292954657475,1.960300475509383
3708.515,29.730552355427108,2.0039006688950187
3709.3682,29.759692372248097,2.0144740698478665
3710.2234,29.78542995760523,1.9376451354154092
3711.0771,29.80134592827754,2.2335814661637814
3711.9307,29.802363704209753,2.2948448343693246
3712.7866,29.784914271043775,2.0642989881694565
3713.6409,29.747391235980253,2.0057674008308055
3714.4973,29.691405949025835,1.9797077326231776
3715.3518,29.62341233985789,2.0754297767626673
3716.2085,29.551999543896425,2.121266451986261
3717.0635,29.486254804146647,1.986447310700255
3717.9185,29.432445207622674,2.2022806947310847
3718.776,29.392817610038115,2.1438233080952673
3719.6313,29.364997624842427,1.9998645235013963
3720.489,29.343013088281875,2.055583729826025
3721.345,29.321333387826353,2.234513465262125
3722.2031,29.296249262588393,2.147010408892074
3723.0593,29.26594547109885,2.099899272065768
3723.9158,29.229807248958362,1.9988307347446497
3724.7747,29.188173347868208,2.204663092194265
3725.6316,29.13997963010532,2.235077673168681
3726.4905,29.079511419148112,2.24404515402671
3727.348,29.001478328752977,2.05307949292213
3728.2073,28.90967825617479,2.0783664921378864
3729.065,28.822129429567354,2.206124159759786
3729.9229,28.760253585885465,2.3730700212140516
3730.783,28.734106982994884,2.0913507671431346
3731.6414,28.73542714670734,2.4003538884467424
3732.5017,28.74521887765442,2.2681157310883635
3733.3604,28.748618768320163,2.127006425846095
3734.2214,28.743270703394778,2.433222490210438
3735.0803,28.736027873443422,2.2689635671948927
3735.9417,28.73383314096749,2.04433724253121
3736.8013,28.737806318015206,2.3342877095725534
3737.661,28.742999697754207,2.381203453725765
3738.5227,28.741409387704945,2.1948400765217384
3739.3828,28.726305950977405,2.324756386770758
3740.245,28.697275040301843,2.2325390698354806
3741.1055,28.66315020649128,2.395188072336236
3741.9683,28.637362507790396,2.5781168316181016
3742.829,28.62904547613231,2.2859747277306544
3743.69,28.636063973733133,2.1692220300748994
3744.5532,28.64818933381595,2.2007833469596387
3745.4148,28.655842502905024,2.150305480995831
3746.2786,28.65616404235076,2.3400330318228453
3747.1404,28.650724142198648,2.3670572525767213
3748.0044,28.63981545180751,2.2448201432672206
3748.8667,28.62094557397809,2.0870573037631353
3749.729,28.592472121580975,2.1287182289952797
3750.5938,28.557113637561105,2.2378572420358513
3751.4565,28.52115497168112,2.29621831808195
3752.3215,28.489345444455374,2.342116870623631
3753.1848,28.461914342546212,2.3389094799322914
3754.0503,28.433347479148985,2.0477189327030034
3754.9138,28.395448702679573,2.166366196817847
3755.7776,28.34219752265678,2.224053804303051
3756.6438,28.275586213870607,2.2214925095313722
3757.508,28.206967020102997,2.284830117994108
3758.3745,28.14849998644125,2.158191092979862
3759.239,28.104637665560976,2.2005301173562914
3760.106,28.0688481606611,2.2341225104771807
3760.971,28.031708578114436,2.347585304299239
3761.8362,27.988628950616736,2.316486942004351
3762.7036,27.94245151965446,2.417919774468553
3763.5693,27.900809084821226,2.126452010876366
3764.437,27.871332437414022,2.4949499554297994
3765.3032,27.85883357533438,2.4510517769584834
3766.1714,27.862354616060326,2.3226980956580427
3767.0378,27.875275149987665,2.3922556626410643
3767.9043,27.888587087646314,2.304826625574145
3768.7732,27.895384398481234,2.3863310788275167
3769.6401,27.892859172677486,2.388263793922297
3770.5095,27.88093200335207,2.3065789523140428
3771.377,27.860100150034693,2.3502122738593605
3772.2466,27.831295027808846,2.6278453696086075
3773.1145,27.79785080502569,2.3707390078166286
3773.9824,27.764868847158553,2.2207230639269873
3774.8528,27.736581688046307,2.3144380061618235
3775.721,27.71444636923073,2.2816573824739614
3776.5918,27.697537661302,2.2888667334295216
3777.4604,27.68507503561858,2.1829340845594114
3778.3315,27.67599593075684,2.4669728132086917
3779.201,27.66783291995838,2.298463316882368
3780.0703,27.657465976157162,2.324715702799783
3780.942,27.64472092508227,2.3535367933426428
3781.8118,27.633456861707646,2.4785036294115104
3782.6838,27.625937114630812,2.1600348183472518
3783.554,27.61558801252898,2.230447683878263
3784.4265,27.586597397610518,2.401051243937006
3785.297,27.52462560367673,2.488596024118556
3786.168,27.429263732117366,2.3099254144563073
3787.041,27.31733500351468,2.4970604572924686
3787.912,27.213873552369282,2.421802527873787
3788.7856,27.135459208503747,2.468590012207325
3789.6572,27.084664071746758,2.611492190491844
3790.531,27.05180493090553,2.6588901500417723
3791.403,27.023719172039883,2.5690276883816328
3792.2754,26.988966545312508,2.4724720709676418
3793.15,26.941660715436605,2.5083824849166754
3794.0225,26.88445572780888,2.423862186793336
3794.8972,26.827547616001333,2.498523371002993
3795.7703,26.784577514125633,2.6063356492556498
3796.6455,26.763645284802482,2.5464554145651963
3797.519,26.76212419062747,2.5829548149976955
3798.3926,26.76717412075622,2.583720793094532
3799.2686,26.764059808800614,2.5392629376405913
3800.1426,26.746370457847533,2.531260926701071
3801.0188,26.72078578580736,2.551523081595662
3801.8933,26.702742909061183,2.5394471218928873
3802.77,26.70568948277462,2.6149118820727595
3803.6448,26.732977073460876,2.522762715621348
3804.522,26.777075339638408,2.4838967803723513
3805.3972,26.82409595150541,2.5585277706210223
3806.2727,26.860285227593973,2.436782955290516
3807.1504,26.875071994986353,2.453237316794703
3808.0261,26.862743183407282,2.4054328369481244
3808.9043,26.823543889183828,2.436505520466375
3809.7805,26.763864077188188,2.3396093481246436
3810.659,26.693607506926565,2.4438217920418475
3811.5356,26.623933897805887,2.4360983244084817
3812.4126,26.563161932669196,2.59689107027847
3813.2917,26.515477848344577,2.2114887667228005
3814.169,26.480709733101452,2.4470749364574633
3815.0483,26.45448061659624,2.5601342797364204
3815.926,26.430930771181263,2.398875702425734
3816.806,26.40420668762409,2.7038060739352967
3817.684,26.369570364353656,2.6615517559806636
3818.5623,26.32308846361422,2.5596694774887716
3819.4429,26.263701345380895,2.4547339744030827
3820.3215,26.19730535569053,2.868692916939377
3821.2024,26.135837146894197,2.785393588203799
3822.0815,26.09225148067675,2.5472905994250894
3822.963,26.071315538165784,2.7307557907741526
3823.8423,26.067287572494262,2.5304088380264504
3824.722,26.06778333300833,2.568107181471794
3825.604,26.060973328528195,2.761321603817816
3826.4841,26.03986027585605,2.739475699872193
3827.3665,26.002879097578653,2.672275697613703
3828.2468,25.953959990602492,2.6975733138532734
3829.1296,25.901143123699246,2.5084489753206847
3830.0105,25.854735587071975,2.87634920747934
3830.8916,25.821790262033396,2.621748920991193
3831.7751,25.80347997689882,2.8647001150582097
3832.6565,25.796072597138593,2.5178365604995916
3833.5403,25.794458430697922,2.7554425347956633
3834.4224,25.795881761577416,2.663221830005188
3835.3064,25.801506480856034,2.787449141900243
3836.1887,25.815763110035974,2.5728465980298365
3837.0713,25.843303866568377,2.58633090906174
3837.956,25.88469730372246,2.679531636402734
3838.839,25.933523509908774,2.6697822984395487
3839.7244,25.97849915113533,2.6540302877370885
3840.6077,26.00680490699225,2.6557451353249215
3841.4932,26.00848381115141,2.7180951463113727
3842.377,25.978110449921058,2.6084725639284114
3843.261,25.916145363935282,2.7925161854651415
3844.1472,25.82899701555261,2.5829159650176625
3845.0315,25.72854760767255,2.643269271241402
3845.9182,25.627266742606036,2.910847642305696
3846.803,25.536289599532566,2.639131555122688
3847.69,25.46122548744714,3.1064116986258945
3848.5752,25.4031040740269,2.6420678925374115
3849.4604,25.35748976730548,2.802318538237339
3850.3481,25.316843318862393,2.7640355344238943
3851.234,25.27466322527554,2.9098933420967703
3852.122,25.229389802178822,2.8414615267503667
3853.0083,25.18703112897649,2.9146126756421764
3853.8967,25.15686880589923,2.92275061899954
3854.7832,25.145661669302335,2.8925312894937787
3855.6702,25.152972222732753,2.8404253766097884
3856.559,25.172661527790176,2.843516967929279
3857.4463,25.196294205701818,2.909773476634961
3858.336,25.215277653953823,3.0961983684853864
3859.2234,25.220447146636616,2.734772318584548
3860.1135,25.204274627749207,2.8992613450360243
3861.0015,25.165894480309984,2.728289144152728
3861.8896,25.114182462136075,2.831750281137874
3862.7803,25.064190227767067,3.0487046726570415
3863.6687,25.028936912581845,2.9141092877028663
3864.5598,25.011604590420127,2.8274909149843572
3865.4487,25.00583096971513,2.8970108745765035
3866.34,25.00033993147461,2.8861054958538537
3867.2297,24.98581766324457,3.084564701279943
3868.1213,24.959546069418295,2.886650745000811
3869.0112,24.92665637471998,2.9462020017691883
3869.9014,24.896435969230595,2.9634026560048867
3870.7937,24.876779395755786,2.72022332738484
3871.684,24.869832699901032,2.9001302096356003
3872.577,24.87087519876491,2.9220346005888906
3873.4678,24.870586820630635,3.025760767890298
3874.361,24.85798449143758,3.0096704913302954
3875.2524,24.823566237960087,3.0909177115767923
3876.1438,24.7623243065884,3.098113275531139
3877.0376,24.6765276197859,2.9764043893874343
3877.9297,24.577771531197204,3.1403156699609878
3878.8237,24.482654239300732,2.810599883516044
3879.716,24.40729693540942,3.225311105575362
3880.6108,24.358605751471547,3.4622843093400806
3881.5037,24.332979947377336,2.9422152283044705
3882.3965,24.319110927726303,2.9807627364607123
3883.2917,24.30478328138209,2.980323528775492
3884.185,24.280969564894015,3.052147463659606
3885.0808,24.242488646477952,2.9591243075971256
3885.9746,24.18869510437407,3.045323545579232
3886.8706,24.123019089915548,3.2814944144356524
3887.765,24.052891860605122,3.2406603814368307
3888.6592,23.98592296399547,3.0471173863566703
3889.556,23.927316712550137,3.0722580886151842
3890.4507,23.879329297727054,3.0344705429611905
3891.348,23.8415307306631,3.2666955570503244
3892.243,23.814145240179705,3.1272463118134466
3893.1406,23.799027374634765,3.240767729395004
3894.0361,23.79968684153419,3.1130312942622402
3894.932,23.818251183520825,3.3005641709153064
3895.83,23.853401534759417,3.306283064558815
3896.7263,23.900219745833983,2.952191163746301
3897.625,23.953307062604548,3.366426355450949
3898.5215,24.007754354509153,2.928089210460682
3899.4207,24.06032330780928,3.0972397241717133
3900.3176,24.108573061593518,3.349525885507842
3901.2148,24.153370747052705,3.0624306272386574
3902.1145,24.19883895638943,3.1508646551359236
3903.0122,24.248701069443257,3.1752314698407793
3903.912,24.301647493504145,2.9649901622060026
3904.8103,24.348130771998637,3.297079212897325
3905.7107,24.374918256204708,2.966072550041863
3906.6094,24.371752189397174,2.747293829593473
3907.508,24.33763399423507,2.977222209205761
3908.409,24.28080501591761,2.917052857883343
3909.308,24.214703183559173,2.9668000546683517
3910.2097,24.150590418918707,2.9238084361824104
3911.1091,24.094415203752632,3.135601554088556
3912.011,24.0455589343067,2.8679935591795447
3912.9111,24.00155775705203,3.3185056350940236
3913.8113,23.96191844589592,3.048213356252114
3914.7136,23.93047703180928,3.1714521528856077
3915.6143,23.91230842043387,3.1370166812143636
3916.517,23.907018505292125,3.19396262968499
3917.4182,23.906594955454977,3.0329088290792443
3918.3215,23.900673233112943,3.079487686782281
3919.223,23.885279971174324,3.2087681949277975
3920.1245,23.865570220418256,3.1901453244030735
3921.0286,23.849831718767827,3.291121504216909
3921.9307,23.840895963758697,3.442451740669654
3922.835,23.83299775857575,3.2622678505132385
3923.7373,23.81757093368824,3.1361302398226276
3924.642,23.79169515414433,3.321393435115846
3925.5452,23.7623400155555,3.1246740383807166
3926.448,23.741941659446244,3.5449841318792426
3927.3535,23.74026152395468,2.943556101803637
3928.257,23.758201418554695,3.2961155292974316
3929.1628,23.787376670783143,3.073223650423314
3930.0667,23.81452435686525,3.0378586792388456
3930.9731,23.828650311759866,3.096828914346261
3931.8774,23.82607953947507,3.2246706984202995
3932.782,23.811806244520586,3.0531448647459767
3933.6887,23.794968859570464,3.333585734262967
