wavl,flux,ivar
3566.9744,1.6749466772264896,154.24448852168476
3567.795,1.674864062877196,148.87019690353858
3568.6177,1.6712134257464397,160.2891240663805
3569.4385,1.6642006809481105,143.2448189707464
3570.2617,1.6553174437279683,158.87532662067463
3571.083,1.6470647837048988,174.2130288502111
3571.9065,1.64161704592695,153.37400102108404
3572.7283,1.6397894558353783,164.87582714571542
3573.55,1.6406605206681584,140.37344121494655
3574.374,1.6424129438049118,158.7889028273098
3575.1963,1.643411264643612,151.32937633119533
3576.0208,1.642894634084922,163.17153378366584
3576.8435,1.640998495330005,185.81490713117773
3577.6682,1.6384102118100017,149.12589055303687
3578.4915,1.6359130638784145,192.1849880071024
3579.3145,1.633859986726302,154.62797961378462
3580.14,1.6319396903918624,155.88247150735353
3580.9636,1.6294887418090023,146.97262074889787
3581.7893,1.6262053362289877,168.59383593591662
3582.6133,1.6227909351048744,198.87057075274132
3583.4395,1.6206707834803677,166.77063773953876
3584.264,1.6210107006242873,179.98154838221237
3585.0884,1.6236539073396066,185.04061693402872
3585.915,1.6270183754974534,135.0250886951897
3586.74,1.628874838089438,146.19613884683753
3587.5671,1.6274980400414931,169.61533340097037
3588.3923,1.6223335676107287,168.72280879609463
3589.22,1.6140559817256852,158.7689379924002
3590.0457,1.6044156422617561,194.0926883073195
3590.8716,1.595649455746627,164.33496889800924
3591.6995,1.5899062378740865,183.18538311361027
3592.526,1.5884927272906733,197.32592599550313
3593.3542,1.5912348011282913,191.07533295012612
3594.181,1.5965317715139218,188.88409947585353
3595.0098,1.602151289428706,172.34526042927064
3595.8367,1.6062108350728321,178.5065715353949
3596.6638,1.607917689295293,167.87831422651914
3597.4934,1.6074260118298687,182.91110897271258
3598.3208,1.605402013728411,162.28478902533695
3599.1506,1.6026291876916499,178.742395767138
3599.9788,1.5998295136271847,141.43788671295243
3600.8088,1.5974030070930505,166.65816222308882
3601.6372,1.5952834063579644,167.42344173937056
3602.4678,1.5929485805142845,193.13531636663924
3603.2964,1.5898614571834233,162.81746519231658
3604.1252,1.585934979778009,182.75616372337416
3604.9565,1.581752495202433,187.3946369515506
3605.786,1.578319462047169,160.2149354320057
3606.6172,1.576446111987318,185.79812669931914
3607.447,1.5764341590443227,170.2107948152742
3608.2788,1.5779961294676212,185.33398528572408
3609.109,1.580344335805277,165.4842893352936
3609.9392,1.5823482560435655,146.9589659843017
3610.7717,1.5828812528936063,157.5178760694017
3611.6023,1.5814148998557898,201.61718639188854
3612.435,1.5784048646743372,176.0580869733042
3613.266,1.575024066695713,175.9665881428231
3614.0994,1.5723100053319654,173.82352763407542
3614.9307,1.5705851386554344,166.9706281606604
3615.7625,1.5694181176173174,183.1690027093332
3616.5962,1.568082888700108,198.84453046245326
3617.4282,1.565946978916678,171.44795700794452
3618.2625,1.562653245015216,156.9794006657739
3619.0947,1.5583178332250642,152.89435321840682
3619.9292,1.5535366971825453,196.57194381191258
3620.762,1.549287707053395,180.95179232902956
3621.595,1.5464778458688826,166.24203395959097
3622.4302,1.5456443303698608,204.49417683249885
3623.2634,1.546746039362233,217.3213247873364
3624.0989,1.5491069746700412,156.3785667835085
3624.9326,1.5515910754386684,169.76330800867942
3625.7686,1.5530980842159259,171.47570474608054
3626.6028,1.5529570120758753,158.40670168687168
3627.437,1.5509669238246646,181.88981425144982
3628.2734,1.547077191952028,185.6024984026808
3629.1082,1.5413963856423734,168.17107097629196
3629.945,1.5345513721542665,184.62767620091768
3630.78,1.5281498032699912,214.22746473758605
3631.6174,1.5242395618985056,177.12051533551542
3632.453,1.524222821059646,198.07792526641754
3633.2883,1.5277155715946587,194.59674539201202
3634.1262,1.532662003329349,148.2070160996664
3634.9622,1.5364370098151925,162.08954497619627
3635.8005,1.5372995032692642,160.35384094513978
3636.637,1.5349571192003881,177.1720971715247
3637.4756,1.5303625733337818,141.6200850734245
3638.3123,1.5251376664111904,208.7560435487636
3639.1492,1.5207981011986784,213.21505904370687
3639.9885,1.5180971502629579,172.14261335666436
3640.826,1.5166829243731148,178.44765911675603
3641.6653,1.515414894792546,217.5920848327393
3642.5032,1.5133148184360083,180.06085413009387
3643.343,1.51028730302257,211.04850465364083
3644.1812,1.5071821638221403,206.7330324733689
3645.0195,1.5051419873233163,190.2873612429111
3645.86,1.5049448276731077,211.12149489297747
3646.699,1.506686401834503,177.18314379556077
3647.5398,1.5098759926140937,174.2747763253208
3648.379,1.5136352706902332,204.5298231530604
3649.2202,1.516925436495852,184.29244565244352
3650.0596,1.5187245538105043,195.63907600011322
3650.8994,1.5184735840143793,190.8246231279914
3651.7412,1.5163487076773434,179.91818330420344
3652.5813,1.5131787877060567,172.16272975282
3653.4236,1.509852351385313,189.98197598362447
3654.2642,1.5068178520924929,187.33180268398277
3655.1067,1.5038717765887044,201.3281612581303
3655.9475,1.5004653434872701,189.49477056159856
3656.7886,1.4961125654606808,195.9641408020345
3657.6318,1.4908488071653139,241.61663321995138
3658.4734,1.4854641776815618,190.93683907642833
3659.317,1.48113846842064,175.5221069498578
3660.1587,1.4788959017187553,181.47001977851588
3661.003,1.479059019415409,207.70200308355678
3661.845,1.4812987992738396,185.8166582421382
3662.6875,1.48495125278767,192.19377253001423
3663.532,1.4892190639669065,179.82104210363647
3664.3748,1.493090727954029,184.1382435747778
3665.2197,1.4954182268425924,201.07244071110762
3666.063,1.4951841848237866,190.74812146543576
3666.9084,1.4920378080627354,200.38353098493403
3667.752,1.486594890269158,188.6116182259135
3668.5977,1.4801851397742787,173.15782790480992
3669.4417,1.4743603555408307,210.0488337446825
3670.286,1.4701889327964344,204.62284982751902
3671.132,1.4680049196553286,185.31414719972912
3671.9768,1.4674671676798936,179.89159062741973
3672.8235,1.467832128461053,219.78902360014678
3673.6685,1.4683467429496984,209.0948159657902
3674.5156,1.4685797695675842,205.51704241688654
3675.3608,1.468553369175935,224.54486604558434
3676.2063,1.4685914319778193,257.5029886451904
3677.0542,1.468983899433749,177.61059339095596
3677.9,1.4697168973178811,182.85162833348681
3678.748,1.4704498943615498,194.87580915678393
3679.5945,1.4707156333515015,202.92640212343844
3680.4429,1.4702592682735038,199.33236292168363
3681.2896,1.4692222393240726,198.15036373002442
3682.1365,1.467966712229093,229.87767038964813
3682.9856,1.4666820454297482,211.1761658979145
3683.8328,1.465203805295619,193.17451834613018
3684.6824,1.4631964532281716,183.19114309049428
3685.53,1.4604966852617216,175.33319101249666
3686.38,1.4571277753090401,247.5215735198049
3687.2278,1.4532545483065091,214.3303947900692
3688.0762,1.4491754513520811,224.46254111533432
3688.9265,1.4454679025265487,236.95163842099606
3689.7751,1.4428493818505896,164.61664253698507
3690.626,1.441723301111109,210.6070903960301
3691.475,1.4420109074500387,214.65887986361116
3692.3264,1.4433277859765592,220.2775157381963
3693.1758,1.4452896452383595,260.52439200236637
3694.0254,1.4476147481042734,231.37018720011687
3694.8772,1.4500353095267915,195.64757832324847
3695.7273,1.4522570364911216,202.1969785409006
3696.5793,1.4540713462594892,201.1873552618939
3697.43,1.4553683385127236,188.13406411977874
3698.2825,1.4561497375203922,209.31731849278628
3699.1333,1.4564697018856665,228.91800643228356
3699.9841,1.4564007291579935,199.39391455050657
3700.8374,1.4559781620218377,204.5217744909402
3701.6887,1.4552279666467944,207.5492723656682
3702.5425,1.454263703921515,200.68269285434997
3703.3943,1.453352233868495,205.89009369346746
3704.2483,1.4527124332769878,192.56757761834024
3705.1003,1.4521754518075645,200.5535022407105
3705.9526,1.451028743760929,197.50049347271482
3706.8074,1.44839525310876,235.4295096261798
3707.66,1.4439519092498014,186.56229557267318
3708.515,1.4382262037149134,224.84088984099225
3709.3682,1.4323486228382198,219.27268071400346
3710.2234,1.42725181794515,194.04858213975487
3711.0771,1.423244754991241,217.1456493653269
3711.9307,1.4198493874266838,220.62347998720278
3712.7866,1.416146180203176,198.91203897445064
3713.6409,1.411437744688769,200.5676966436904
3714.4973,1.405803753846742,208.01966767236078
3715.3518,1.4002669263100902,261.34416973498224
3716.2085,1.3960652873498436,252.7486611523794
3717.0635,1.393942885194105,233.70589414003933
3717.9185,1.3937629312384348,238.39398966367074
3718.776,1.3948215720672625,230.6283018893275
3719.6313,1.3962876157669815,224.3762902631589
3720.489,1.3975697197436963,224.3087606213318
3721.345,1.398445202439821,234.26260025511363
3722.2031,1.399022460543283,187.35016743928975
3723.0593,1.3994954862654372,208.31982605978004
3723.9158,1.3999356197782036,251.79940275896664
3724.7747,1.4002550826269193,256.4315118016534
3725.6316,1.4003274412164313,262.8552549244115
3726.4905,1.400071303677496,225.8541414207828
3727.348,1.3993975117522939,233.2272905432253
3728.2073,1.3981741047687624,211.7429853401606
3729.065,1.396407973652757,206.14864159750633
3729.9229,1.3944707310052487,236.15037753556146
3730.783,1.3930507316058125,226.93064544722995
3731.6414,1.3926945754678954,241.41146876421146
3732.5017,1.3933192199962883,221.85803859456612
3733.3604,1.3942439365149397,232.34801424489976
3734.2214,1.3946772425510048,221.84536286105543
3735.0803,1.3941683772494187,216.1281428230963
3735.9417,1.3927133114071963,221.10509144908562
3736.8013,1.3905613100905794,216.78282935212152
3737.661,1.3879055301060648,243.61741933425137
3738.5227,1.3847235950427221,213.65928247506918
3739.3828,1.380952764089525,207.39651535971447
3740.245,1.3768204173860772,247.4737801685106
3741.1055,1.37312667505846,238.43938087042957
3741.9683,1.3708717519198852,240.16204940127247
3742.829,1.3706800504159078,256.37070936406
3743.69,1.3723376497283284,221.91360671231809
3744.5532,1.3749555621975713,204.1924650497437
3745.4148,1.3773992585532069,239.15768670514205
3746.2786,1.3787780438377115,202.2440875271186
3747.1404,1.378701354546152,196.8738353789197
3748.0044,1.3774322444163165,208.99320230176423
3748.8667,1.3757805800508365,219.36353981499676
3749.729,1.374715758376659,201.17842849179613
3750.5938,1.3749103814604846,192.45626174965773
3751.4565,1.376413282163061,213.46389024776371
3752.3215,1.3786018272006477,200.2837630159086
3753.1848,1.380408053490482,221.83032545558268
3754.0503,1.3808645267084203,233.93418850499793
3754.9138,1.3796421396690854,246.14636991365043
3755.7776,1.377266031774706,227.96518989777488
3756.6438,1.3747369182518543,237.3712529320343
3757.508,1.372892007828003,239.55426539459913
3758.3745,1.3719371723467657,199.23858673196762
3759.239,1.3716080339432997,201.4874043552252
3760.106,1.3715932763985368,213.72502147302822
3760.971,1.37180827432657,237.6194621706661
3761.8362,1.372265821215263,259.92107553668865
3762.7036,1.3728209177534965,230.37021767324308
3763.5693,1.3731429014666012,229.91000633624475
3764.437,1.3729738841875057,225.0149155515326
3765.3032,1.372362654739911,238.04974024460392
3766.1714,1.3716334845251494,258.4559976738557
3767.0378,1.3711249275753268,237.1319603449176
3767.9043,1.3708979579094245,225.1527435330678
3768.7732,1.3706468243425531,224.16442141184388
3769.6401,1.369847122940839,236.2924277782768
3770.5095,1.368058865060836,258.6038906296746
3771.377,1.365261388379851,223.8655777674827
3772.2466,1.3619372494565247,248.09905791906425
3773.1145,1.3589108956052591,242.91969093769868
3773.9824,1.3568493812263798,263.78892565179115
3774.8528,1.3559408816959428,208.3754702895132
3775.721,1.3559403555915335,208.10782402888933
3776.5918,1.356478687835058,227.19536293202583
3777.4604,1.3572559961651076,234.49515884098165
3778.3315,1.357970876116689,228.9087671575836
3779.201,1.3582597266037404,208.5565953223606
3780.0703,1.3578999720401033,276.6898184961288
3780.942,1.356996331290402,251.821126512356
3781.8118,1.3559109722546738,246.57438269389417
3782.6838,1.3550072290125197,220.15090793082672
3783.554,1.354558293166052,217.64585655200608
3784.4265,1.3547488561175838,229.45716192376335
3785.297,1.355571594351541,268.5985930479563
3786.168,1.3566094281025707,258.38264937599286
3787.041,1.357073822317278,249.32246924572303
3787.912,1.356266822914437,232.1886253106694
3788.7856,1.3541034866751627,246.68615273931158
3789.6572,1.3512113201549805,237.02793563818682
3790.531,1.3485080149987319,224.1159683376203
3791.403,1.3467628989048464,229.38929096318915
3792.2754,1.346241787477164,245.42448051426194
3793.15,1.3466458497607967,276.3729232008812
3794.0225,1.3472739253156063,228.27662848245765
3794.8972,1.347437210379349,231.7182668020128
3795.7703,1.3467941086474835,273.18831918713596
3796.6455,1.3453443390635618,240.22978582111892
3797.519,1.3432202246900187,262.52317805263334
3798.3926,1.3405604239383948,255.44734655880282
3799.2686,1.337558085445685,237.5095853875326
3800.1426,1.334489507101179,240.34468967328135
3801.0188,1.3315583474551842,257.75913116809113
3801.8933,1.3289055810811232,241.58981079434332
3802.77,1.3266350884707525,254.55703563525574
3803.6448,1.324922127396925,233.5457146691235
3804.522,1.323918752210928,251.69114586207792
3805.3972,1.3237205842667172,260.0263681159636
3806.2727,1.324371148895591,302.58022535592846
3807.1504,1.3258579280570626,220.16190691958084
3808.0261,1.3278597967096324,236.70380790229183
3808.9043,1.3295416546940138,233.66027635502405
3809.7805,1.3297714931979292,186.28028375756725
3810.659,1.3279191103765264,201.15044906684048
3811.5356,1.3244848750290341,249.10629336104435
3812.4126,1.3208853688365092,264.5395561433924
3813.2917,1.3185807812485382,281.2120591917955
3814.169,1.3182862614331983,265.0995349062641
3815.0483,1.3197620006525148,204.55605901771432
3815.926,1.3221692268017222,236.22265620656353
3816.806,1.3245377543427999,265.93369063705666
3817.684,1.3260122702218395,225.55629989942688
3818.5623,1.3260256513033817,255.56272465541772
3819.4429,1.3243877306205551,266.21816441321687
3820.3215,1.3213904764269297,235.06827104467632
3821.2024,1.3176663386650675,273.39652168505575
3822.0815,1.3139075987039712,280.6484559477906
3822.963,1.310473043485473,247.45668026837333
3823.8423,1.3073919476651794,258.0215372658774
3824.722,1.304565630062738,274.4868319678705
3825.604,1.302116357583409,257.2560240028028
3826.4841,1.3004733968334334,267.89285316345195
3827.3665,1.3000769574844975,233.47426900921468
3828.2468,1.3010395086226967,262.28283620416124
3829.1296,1.3029940588271856,242.75843301114028
3830.0105,1.305275502405969,276.3878181213054
3830.8916,1.3072882106713635,251.8759815876217
3831.7751,1.3086556533178808,297.1786236392185
3832.6565,1.3090969411167133,251.87472454591122
3833.5403,1.3082576119146814,267.7845500541378
3834.4224,1.3057443778362177,244.82535386448
3835.3064,1.3014221488773179,269.5669819742091
3836.1887,1.2957335840874458,223.35758241586484
3837.0713,1.2895612708629984,251.72656343503704
3837.956,1.2838600730805074,266.7639284299286
3838.839,1.2793619673292602,295.8364518351966
3839.7244,1.2764477461815584,274.70872898484396
3840.6077,1.275347420953622,246.48296763769625
3841.4932,1.2761153238216036,249.56175282187624
3842.377,1.2784917615027733,246.91657295097096
3843.261,1.2817457117340356,322.06737983904793
3844.1472,1.2847945093115016,262.1020290606079
3845.0315,1.2866569396041108,252.41231479409905
3845.9182,1.287064015484766,230.9375965113792
3846.803,1.2866057848590116,311.446273923054
3847.69,1.2863146323034,315.51669893479635
3848.5752,1.2869358885861963,275.28763196179887
3849.4604,1.2885051510317311,268.6212199335684
3850.3481,1.2905523762029072,286.2084047913613
3851.234,1.2925946961409926,264.5917938643769
3852.122,1.2944787531463824,256.117654469884
3853.0083,1.2962409793120453,263.63560927351796
3853.8967,1.2979007377770462,265.86715018712835
3854.7832,1.2993342869641729,261.6233909404805
3855.6702,1.300340775680556,273.27236961355857
3856.559,1.3006398380468094,250.20669755088772
3857.4463,1.2999087863898928,267.147650632392
3858.336,1.297978800737034,353.76094094574097
3859.2234,1.295139218659179,217.0119051858072
3860.1135,1.2921445891089685,272.4042111003052
3861.0015,1.2899050822453229,263.2404092048713
3861.8896,1.2889223544485517,275.43644534444076
3862.7803,1.2890691318954848,279.6249918862659
3863.6687,1.2896874049891622,296.7525411736388
3864.5598,1.289930413651193,270.26902882577133
3865.4487,1.289150835268788,213.18257435606137
3866.34,1.287194839999119,274.8381698036598
3867.2297,1.2844342837196607,259.09331833914297
3868.1213,1.2814172522022083,316.4535011449713
3869.0112,1.2784962937381767,260.538330586849
3869.9014,1.2756555981578162,265.2931541287167
3870.7937,1.272784768599312,272.7452610628008
3871.684,1.2700438848201678,234.50950792911163
3872.577,1.2678576992321524,255.7695375608173
3873.4678,1.2665919174578857,273.48894129927817
3874.361,1.2660485777419914,283.47824779075154
3875.2524,1.265417327691676,239.87929043165855
3876.1438,1.2637314789726175,243.27206856459657
3877.0376,1.2605038274317413,281.92741000479134
3877.9297,1.256047708088693,287.711392691226
3878.8237,1.2511821721385277,256.48201969176444
3879.716,1.2467632924757313,272.83124105419824
3880.6108,1.2431582121640272,257.79707290671956
3881.5037,1.2402275458463223,267.3033197661715
3882.3965,1.2375535232699273,299.0230061289649
3883.2917,1.2348789447758353,269.99731757500433
3884.185,1.2323240780324876,285.4833796950413
3885.0808,1.2302427762464445,315.5115254772066
3885.9746,1.2290428130157953,282.01778379096174
3886.8706,1.228985769985059,272.9057870242118
3887.765,1.2301632254081962,290.93046159407396
3888.6592,1.2325123785391645,317.6017844455928
3889.556,1.235835941557431,287.19413530496
3890.4507,1.2397030217929126,297.30111297123165
3891.348,1.2434308905631462,296.46306909029823
3892.243,1.246087076872115,314.6336661930238
3893.1406,1.2469183870141094,247.07219500613462
3894.0361,1.2458192577787583,255.46117718043064
3894.932,1.2435730128731142,302.28858707131445
3895.83,1.2414231755715408,288.1428003016624
3896.7263,1.24034049184598,297.7499096314543
3897.625,1.2405492738470487,290.2612718023004
3898.5215,1.241725215241404,252.03709862930728
3899.4207,1.2434303577252541,288.5091497930554
3900.3176,1.2452749718740426,302.6702184381869
3901.2148,1.2468609285848526,276.7729717525005
3902.1145,1.247756763189503,291.4412531423123
3903.0122,1.2477257434385,274.10019784683266
3903.912,1.2469903881995625,276.15347731367336
3904.8103,1.2462156230443562,274.32917498496084
3905.7107,1.246200501921115,270.3874624209034
3906.6094,1.2475118497353554,324.38866889649466
3907.508,1.2502452856104929,299.0634297878779
3908.409,1.2539952218763006,270.0927001140618
3909.308,1.2579580586139476,256.3254891919636
3910.2097,1.2613267271061495,267.186871221867
3911.1091,1.2636586320341272,263.48431515309085
3912.011,1.2651740326157555,280.8834648591988
3912.9111,1.2664841378513692,254.08279901406308
3913.8113,1.268079973224329,312.04946125074264
3914.7136,1.2699608758231278,247.43019535798382
3915.6143,1.2717806091387531,230.43789400532017
3916.517,1.2733449422601182,273.37179895200376
3917.4182,1.2748192981641702,271.0289550776758
3918.3215,1.2764950640913146,267.908050607077
3919.223,1.2782724589221144,261.90530177895766
3920.1245,1.2794809124662359,243.70076121652446
3921.0286,1.2791993478027464,237.45612164583684
3921.9307,1.2769422673105268,234.1817107994339
3922.835,1.273126930974951,284.21476000112085
3923.7373,1.2689565485975849,307.31205351275
3924.642,1.2656610396439316,277.37710727143235
3925.5452,1.2638734855439864,258.78749904492116
3926.448,1.2634059787637364,250.27527851930773
3927.3535,1.263634630931971,247.81481114442957
3928.257,1.263938932273083,288.28449833903437
3929.1628,1.26390594508016,305.4110224303475
3930.0667,1.263260404841587,278.7143678357111
3930.9731,1.2617111671641135,308.27064832278626
3931.8774,1.258957025920906,273.03910725535
3932.782,1.2549025957486557,271.7678218296781
