wavl,flux,ivar
3566.9744,2.097188634590371,205.8198446979709
3567.795,2.0927259144055967,243.3139768651849
3568.6177,2.086797119861806,238.28113287624822
3569.4385,2.0807140510070665,207.25033241529877
3570.2617,2.0759098990134874,211.50784899578218
3571.083,2.0732488423497153,233.45494092416288
3571.9065,2.072320237607488,202.4756607768567
3572.7283,2.0718256636102135,213.91052410947708
3573.55,2.0707127260156013,202.04319583586886
3574.374,2.0690787766057377,231.75762043973162
3575.1963,2.067891323818624,209.30703538628953
3576.0208,2.067812122169934,216.61947830377193
3576.8435,2.068482540431054,218.3909945063654
3577.6682,2.068995503155617,192.11260462854872
3578.4915,2.0690118991342303,218.31830402158903
3579.3145,2.0692882972242104,239.0453452689333
3580.14,2.071024209666643,218.4813385836762
3580.9636,2.074630290921152,200.53116480441733
3581.7893,2.07910994088948,219.47841771337667
3582.6133,2.0824936687688322,216.72510367078212
3583.4395,2.083095457382047,223.48207623521944
3584.264,2.080394059806513,203.04489304368923
3585.0884,2.0750760636505423,204.8548456828863
3585.915,2.068327349430599,203.96152067831213
3586.74,2.061283714295851,179.0475508736546
3587.5671,2.054772803350277,241.3647175793906
3588.3923,2.049553707483708,213.4168050060337
3589.22,2.0461311401575135,211.94711120534137
3590.0457,2.0445845395147813,195.41499408254862
3590.8716,2.0443825625736225,206.81778674552373
3591.6995,2.044710090840636,199.16709245435842
3592.526,2.0449421608743217,222.89735112365625
3593.3542,2.044958845648345,220.78720964495716
3594.181,2.0450698575902475,272.4610460861766
3595.0098,2.0456434434446424,234.0981656075857
3595.8367,2.0466683824137046,240.6718738669568
3596.6638,2.0475582831954937,241.48904915067644
3597.4934,2.0473590843424074,245.95733369373704
3598.3208,2.045298171068522,253.23837740352448
3599.1506,2.04125479713622,186.2085795306512
3599.9788,2.035888548334324,228.5381055143158
3600.8088,2.030264347566495,189.60221497125698
3601.6372,2.0254730176358584,246.9398714616486
3602.4678,2.022079855807039,273.8388883121676
3603.2964,2.0199029022870265,222.16925616537912
3604.1252,2.018084260478443,224.55599050402137
3604.9565,2.01581041386428,225.70315482876558
3605.786,2.013121469380196,204.79444191090215
3606.6172,2.0110119118875076,232.83105300929893
3607.447,2.0107155333795173,209.70608516862956
3608.2788,2.0126783042528436,249.09052495359896
3609.109,2.016155362780737,223.19859961827058
3609.9392,2.0195717789217613,250.18692859213863
3610.7717,2.021121610085994,224.1670933259744
3611.6023,2.019399752431738,210.75100816933036
3612.435,2.014146241948055,207.68680298399764
3613.266,2.0067768131630586,231.8830936724228
3614.0994,1.9998213577885735,247.2561071193146
3614.9307,1.9955283015611256,257.11312240960837
3615.7625,1.9943635533703805,210.84655622428735
3616.5962,1.9950470797499167,179.6627084968613
3617.4282,1.9957566378759755,251.77479582932295
3618.2625,1.9954701935660955,221.2898059322816
3619.0947,1.9942879014295434,223.54206435077603
3619.9292,1.9927388351412094,213.573328439378
3620.762,1.991020509993111,233.37032543996293
3621.595,1.9889272745156061,243.17343672134714
3622.4302,1.986419331342532,247.90907945283422
3623.2634,1.9840003326859248,227.03971829456702
3624.0989,1.9823164191122091,298.4266668259263
3624.9326,1.9815239975332648,234.0917751274346
3625.7686,1.9810832453132323,209.76049700173542
3626.6028,1.9803319322224737,221.91557645374454
3627.437,1.979145595713453,235.89099015610955
3628.2734,1.978005723943931,296.59593542617876
3629.1082,1.9774562472791117,243.11980001011506
3629.945,1.9775069456459382,236.5582592407882
3630.78,1.9775709330871991,266.0382299529165
3631.6174,1.9769084065381295,225.37006161928412
3632.453,1.9752298605900647,254.6517612240069
3633.2883,1.9730051312644512,244.14869531135764
3634.1262,1.9712567884993493,274.80132220381716
3634.9622,1.9709423096278524,247.581950926257
3635.8005,1.9723095709649727,245.18774812633768
3636.637,1.9747844521559137,264.432179566194
3637.4756,1.977445704633158,258.4585107105731
3638.3123,1.979604093024476,209.50380858510343
3639.1492,1.9811581177380804,232.05608441134322
3639.9885,1.9824032118320694,223.94885393348952
3640.826,1.9835503331192312,255.78320850042422
3641.6653,1.9843702822094194,215.17482358595288
3642.5032,1.9843062199435189,199.19556250750776
3643.343,1.9830890265216417,217.73116451629366
3644.1812,1.9812139189225466,240.45883605065936
3645.0195,1.9796653869474277,263.9308720159464
3645.86,1.9790586318432808,236.9878500643198
3646.699,1.9789463882764042,241.21406613426186
3647.5398,1.9779499766605737,249.38450331461777
3648.379,1.9746767145162154,243.67694373912815
3649.2202,1.9686391898760105,236.49268012317756
3650.0596,1.9606344271267568,248.40764987348666
3650.8994,1.9521810788959906,238.17463221837417
3651.7412,1.9447777997301559,220.04460292925452
3652.5813,1.9393707771483564,261.1398383527337
3653.4236,1.9361037579397637,246.07369920328932
3654.2642,1.9345099414588918,207.6272465454065
3655.1067,1.9336338884611641,207.90968212121356
3655.9475,1.9324723532211592,299.2970217006406
3656.7886,1.9306196904996291,213.87995915882186
3657.6318,1.9287307453690716,255.0554309582836
3658.4734,1.928145458760472,323.2764527642686
3659.317,1.9297103448431578,254.1903530897829
3660.1587,1.932864360892,255.7736878727046
3661.003,1.9358801449034488,214.61407516433235
3661.845,1.9369802634282338,239.48866422128123
3662.6875,1.9354850842638867,236.97307410208273
3663.532,1.9320044044913867,286.3197482174085
3664.3748,1.927954268705077,233.34259503855625
3665.2197,1.9247913359352051,256.22033309617007
3666.063,1.9235605687305786,213.74692158771867
3666.9084,1.9245239380102706,317.87100552501124
3667.752,1.9270606731375857,266.27277282635225
3668.5977,1.929961390086378,251.08909495239936
3669.4417,1.9320376221467144,245.79318913780793
3670.286,1.9327573544648804,273.741274945451
3671.132,1.9323429196351203,266.2771720360418
3671.9768,1.931431082013878,284.52192977335596
3672.8235,1.9305222789023917,253.75382051263267
3673.6685,1.9296148429496214,252.23742786760275
3674.5156,1.928210754300126,229.41734464055241
3675.3608,1.9257265809231747,252.2150853342282
3676.2063,1.9219451330784894,255.51165998786365
3677.0542,1.9172709937979775,255.11300645829175
3677.9,1.9127029179360753,251.9565909802308
3678.748,1.9093625331727875,243.46397481511482
3679.5945,1.9080042140236941,274.62946577597904
3680.4429,1.9084313784674154,239.44086098026276
3681.2896,1.9094067795703873,274.52910398400587
3682.1365,1.9091158830382045,321.0176071499769
3682.9856,1.906048626835672,225.3219838618867
3683.8328,1.8999605669928386,233.75305411929145
3684.6824,1.8922401871984051,255.47896973661992
3685.53,1.885526779700441,279.9513522692421
3686.38,1.8821949058540646,257.0991986201647
3687.2278,1.882968305740051,280.71749354435923
3688.0762,1.8863412071469945,210.14064017633905
3688.9265,1.8895671198830368,231.95653662235298
3689.7751,1.8903688131633773,269.5676194871849
3690.626,1.8882842306443246,264.2982105583136
3691.475,1.8846805843619479,280.602869264222
3692.3264,1.881607259108089,220.8602810724937
3693.1758,1.8804760505030294,311.97277610627833
3694.0254,1.8814032327331027,246.89869383445765
3694.8772,1.8837392339229702,270.37277460600455
3695.7273,1.8869862461138565,220.50064955360415
3696.5793,1.8912674023024214,269.28153141834065
3697.43,1.8968146938486168,237.89877976132783
3698.2825,1.9032869012955036,245.88259686337216
3699.1333,1.909433995978056,224.2489123305785
3699.9841,1.9136538742804923,260.1872961627665
3700.8374,1.914713531732253,223.05950367955091
3701.6887,1.9123331056330568,240.79171491481355
3702.5425,1.9072812546093914,254.40132343442647
3703.3943,1.9010148740179995,251.16572507712033
3704.2483,1.894931947729316,308.20437951655975
3705.1003,1.8899071851122717,239.59564456205527
3705.9526,1.8859711718463223,284.7303500286456
3706.8074,1.8826008091044835,284.94307113054225
3707.66,1.8793320301349126,252.31137814951953
3708.515,1.8762837368904304,277.4573904957804
3709.3682,1.8742526580394123,268.86633221299513
3710.2234,1.8739345231456854,265.2454901409995
3711.0771,1.8750680484932145,289.39970950947986
3711.9307,1.8763329591073974,280.9740883829702
3712.7866,1.8763230872962116,285.9974467051504
3713.6409,1.8746837081395533,257.94587138814967
3714.4973,1.8722750350765316,269.9556707580651
3715.3518,1.870269635541093,237.27522323189277
3716.2085,1.8691264263639233,265.93115400059213
3717.0635,1.8684951612652714,257.49373760820737
3717.9185,1.8677991089205976,268.783315449871
3718.776,1.8668326636128343,253.74169430461922
3719.6313,1.8658942498480304,264.12302200479235
3720.489,1.8654749427288384,277.96542381307313
3721.345,1.8657943292958992,281.9543120184818
3722.2031,1.866466627409468,263.51664698805854
3723.0593,1.8666372372160687,269.8804953909002
3723.9158,1.8655451845035775,288.77905012840034
3724.7747,1.8629962942532343,222.23570148660485
3725.6316,1.859425612778315,261.58470528867855
3726.4905,1.855482291546101,271.9310997269506
3727.348,1.8516811725894615,303.37771564683493
3728.2073,1.8481977271295207,256.07818865138745
3729.065,1.845075489212826,287.2932583718849
3729.9229,1.8424185271425648,263.09025292347786
3730.783,1.8405404519514827,251.06330801201662
3731.6414,1.8398961958880982,274.6698893675793
3732.5017,1.8408176759750376,303.38038148638697
3733.3604,1.8432017659593671,263.99689540882895
3734.2214,1.8463498161668772,265.9532854080515
3735.0803,1.8491358485421294,258.4502390315855
3735.9417,1.850572036161295,322.2950839494572
3736.8013,1.8501641221961334,252.86758223580657
3737.661,1.8479623649033539,238.63529527466727
3738.5227,1.8442807033535802,276.7128738469805
3739.3828,1.8395205650321778,283.07996873178405
3740.245,1.8340694459327136,263.1804602453636
3741.1055,1.8284561945594913,279.10182536671437
3741.9683,1.8232609985835995,300.7072648398405
3742.829,1.8190962559404378,251.0531911274064
3743.69,1.81635947346942,257.6260334332874
3744.5532,1.8152490136582051,241.95417055303403
3745.4148,1.8158244922820101,286.5708059263439
3746.2786,1.818014174823589,316.07253823685727
3747.1404,1.8215401579881552,282.9151987520491
3748.0044,1.8259517206601596,263.7076861446609
3748.8667,1.8307050438549144,270.61073455161113
3749.729,1.8353405312798434,277.60513601909713
3750.5938,1.839316124989235,277.61701813975935
3751.4565,1.8417267066346037,275.47455580682686
3752.3215,1.8414882798795102,237.30985002169928
3753.1848,1.8379710775120794,309.15638424925095
3754.0503,1.831737474405306,252.9728317717119
3754.9138,1.824737053598444,301.82215036310515
3755.7776,1.8194589674042836,242.61531538364383
3756.6438,1.817694073691455,290.5508224521673
3757.508,1.8194687415833282,301.7216763822742
3758.3745,1.8230165292899756,268.8548617368937
3759.239,1.8259262913637657,243.32406237795638
3760.106,1.8266520896953822,256.4198141369117
3760.971,1.8251439876041378,255.75854221287827
3761.8362,1.8224559257720354,270.1257308689906
3762.7036,1.8198441246366301,256.44464110329824
3763.5693,1.8181242140456444,276.0726013789411
3764.437,1.8173597221365043,275.1548617586079
3765.3032,1.816913986656647,270.48793569363033
3766.1714,1.8157275171752782,290.62820516289503
3767.0378,1.8128760901314198,275.8803406908276
3767.9043,1.808072646372281,310.47561482502977
3768.7732,1.8018068800669003,321.7153154614254
3769.6401,1.795192408701779,285.84484065581586
3770.5095,1.7895196826783009,290.9466067579861
3771.377,1.7860584602876912,317.37926101782153
3772.2466,1.785594056646621,268.2016091430023
3773.1145,1.7881536510151912,278.33777227908257
3773.9824,1.7929589652961668,303.79188485817554
3774.8528,1.7988285569250286,274.73240255739995
3775.721,1.8045651881082183,254.1129254855158
3776.5918,1.8093017993849372,282.3364649366491
3777.4604,1.8124194607734336,269.121632298231
3778.3315,1.8136636502754062,247.2116795968379
3779.201,1.8131157922840129,258.2035442330565
3780.0703,1.8112421823253309,263.2406675558333
3780.942,1.808888756040093,308.0613798568104
3781.8118,1.8072444461217805,264.5329406951045
3782.6838,1.8073834235414492,293.0672876174702
3783.554,1.8095201146117117,263.33309533253606
3784.4265,1.8125888923262916,259.20550346697405
3785.297,1.8147706820023246,249.76584995331754
3786.168,1.8147628229628001,270.3536028681783
3787.041,1.8125355479513399,281.60709860967796
3787.912,1.8090810118878273,296.7155202423676
3788.7856,1.8054178103469052,293.64326037718706
3789.6572,1.801958611152239,261.3060003259824
3790.531,1.7984863251065586,269.61326618861045
3791.403,1.7947012125793587,285.67880399038154
3792.2754,1.7905000772093125,283.43677993802845
3793.15,1.785969701275197,288.927305679211
3794.0225,1.781274032418154,282.40065079544587
3794.8972,1.7765561969519075,296.79457252762364
3795.7703,1.772073853769692,284.8375097890679
3796.6455,1.7680714014134498,296.858934865929
3797.519,1.7647322633407487,272.1214951167705
3798.3926,1.7620534494574749,276.19365879774153
3799.2686,1.7599488423085246,306.37754386737316
3800.1426,1.7584243249609328,283.09607198394593
3801.0188,1.7576773163086536,308.94324981802157
3801.8933,1.758067178201058,288.80534960783973
3802.77,1.7598195529321465,339.9577353805527
3803.6448,1.7627551258917666,284.3567353866457
3804.522,1.766385808682865,299.3908960100758
3805.3972,1.770184662242132,280.7192836233276
3806.2727,1.7738992147490809,254.95988921836837
3807.1504,1.777595069809451,272.2630052421146
3808.0261,1.7816280436721603,302.1622390295728
3808.9043,1.7865641083879393,296.4507514621377
3809.7805,1.7926386964041288,294.78109000663085
3810.659,1.7993279888898934,287.0274361312381
3811.5356,1.805231803666766,286.73051932199314
3812.4126,1.808886412480068,235.0865836911151
3813.2917,1.8095859659740903,268.182114225013
3814.169,1.8077398786554004,295.2210691377039
3815.0483,1.8044900453096426,278.8773485014037
3815.926,1.8010103739710084,336.32020622262064
3816.806,1.797893445705209,291.9212116193281
3817.684,1.7950760371390544,282.15346170855963
3818.5623,1.792090310284053,293.7422614372283
3819.4429,1.7885548759251577,292.0567478732132
3820.3215,1.7845157271764263,255.34699719218762
3821.2024,1.7803059654706352,263.9637846679548
3822.0815,1.776202844917946,285.86161624587646
3822.963,1.7719454025893333,319.0776294618848
3823.8423,1.7668221396344497,286.3222436452376
3824.722,1.760095614941943,287.3027818189496
3825.604,1.7515674162881978,288.8706976509262
3826.4841,1.7417914160772348,306.84403360615937
3827.3665,1.7316053157366849,297.2756514530975
3828.2468,1.721869938562744,324.26645580520346
3829.1296,1.7129859049080562,339.76509838033746
3830.0105,1.7049728468061724,342.4403665964777
3830.8916,1.6973978318884877,329.8159934312605
3831.7751,1.6897308878127677,307.4041904176026
3832.6565,1.6817786242692163,328.534830144344
3833.5403,1.673817633811188,321.9833170474896
3834.4224,1.666760016762921,361.13603461790683
3835.3064,1.6617049734691423,301.24900152807584
3836.1887,1.6595384491119476,427.84271664450677
3837.0713,1.6604183186467625,284.217892057594
3837.956,1.6638086829908838,318.8384484173211
3838.839,1.6688757088785602,381.3157607075687
3839.7244,1.6751360666970125,304.7145224596258
3840.6077,1.6826200959524436,318.1590346256577
3841.4932,1.6917005445295459,334.92124309755894
3842.377,1.7023771958874188,342.2650429037715
3843.261,1.7140466537618189,362.19016718587113
3844.1472,1.7256144325107907,288.5620364744352
3845.0315,1.7359438587028175,278.31005236103107
3845.9182,1.7444583650914685,299.3234770156567
3846.803,1.7509592844004453,309.8454400547407
3847.69,1.7556083007467747,303.9274992092723
3848.5752,1.7587736197494608,270.25894352476314
3849.4604,1.7612328100623826,326.59105032564844
3850.3481,1.7640984918127045,312.9900479288859
3851.234,1.7684623804530024,306.84159983029787
3852.122,1.7750003264735068,277.52308663631754
3853.0083,1.783550198697175,296.6613232256032
3853.8967,1.79316893181352,292.79508252256926
3854.7832,1.802245774904562,267.9676586781984
3855.6702,1.8092619167765749,272.8902482841975
3856.559,1.813426733477745,240.9521637492306
3857.4463,1.8150963969017972,262.98508628483336
3858.336,1.8155557736389585,315.083877974199
3859.2234,1.8161835966288191,284.58840490263935
3860.1135,1.8177487443543803,290.9959781240032
3861.0015,1.820175954844598,246.43444851079414
3861.8896,1.822787267796267,293.18693705174724
3862.7803,1.8246146211726133,269.6276277601921
3863.6687,1.82472853585307,267.9103043425723
3864.5598,1.822623762133609,268.4587095749429
3865.4487,1.8184061588132807,283.3004942404552
3866.34,1.812533874840288,295.92051682307863
3867.2297,1.80546504481296,299.31508020860986
3868.1213,1.7973683600706596,283.0306931611822
3869.0112,1.788442195726137,282.225636917146
3869.9014,1.779052097887126,285.73014231056715
3870.7937,1.7697036640045745,285.81629012672687
3871.684,1.7607647254995034,288.1939813467638
3872.577,1.7520485418919458,306.3822045457818
3873.4678,1.7430225078494463,314.88033760464265
3874.361,1.7329056783797532,313.2868872706456
3875.2524,1.7212053222179275,270.7812540443951
3876.1438,1.707806629626908,333.23919630432573
3877.0376,1.693045514492204,330.12338926697595
3877.9297,1.6776387726112603,330.0755245569998
3878.8237,1.6621711485651716,418.1760390604641
3879.716,1.6471512677835092,336.8463248094394
3880.6108,1.6326774082669584,386.03697694611543
3881.5037,1.6187141957233595,400.2829956805102
3882.3965,1.6048815463458206,295.7435823397701
3883.2917,1.5906260456431067,364.7012274734256
3884.185,1.5755269765164952,417.99860286657616
3885.0808,1.5593169514823932,345.0671979771711
3885.9746,1.5423373476854756,372.4029691581613
3886.8706,1.5251691793793543,376.8642515241303
3887.765,1.5088627120773457,374.0080575204832
3888.6592,1.4947571050560298,365.0164605961483
3889.556,1.4846243926159604,496.6738875021075
3890.4507,1.4803157399786293,469.5489997063626
3891.348,1.4828218105851823,450.3433654614497
3892.243,1.491762733760682,384.7852570727548
3893.1406,1.505577923451905,431.23349679160583
3894.0361,1.5220921735930788,378.31783061906947
3894.932,1.539565946383314,374.9973931574601
3895.83,1.5570933703761871,372.8261361989365
3896.7263,1.574550805710047,375.58754747936075
3897.625,1.5925976311338248,389.3906770810386
3898.5215,1.611710609118215,367.42498777404796
3899.4207,1.6319290179105788,377.69272415117194
3900.3176,1.6521978219368316,307.79772781025855
3901.2148,1.6710660370115016,325.98056128527935
3902.1145,1.687193731814108,311.15651887146146
3903.0122,1.6999525868335765,305.96718158647155
3903.912,1.710014954324275,326.2807613485572
3904.8103,1.7188298735945022,320.86739971703764
3905.7107,1.7280703995338687,320.1079110693278
3906.6094,1.738752243057752,298.09544519974924
3907.508,1.751140172431759,341.98092326513284
3908.409,1.7649435465835346,303.90880418139983
3909.308,1.7795338731172714,248.64259960284312
3910.2097,1.794346179235076,287.374234636195
3911.1091,1.8086870542414861,303.0848161021602
3912.011,1.8221114713067028,307.26095831825717
3912.9111,1.8342035134075991,269.09391686056455
3913.8113,1.8447577716546846,264.98074859917085
3914.7136,1.853593139733212,266.7073025628704
3915.6143,1.860551879514538,249.87281307795362
3916.517,1.8658826036921978,261.8513509982254
3917.4182,1.8703245936132833,248.0521355338474
3918.3215,1.8749932488010659,266.95620158930507
3919.223,1.880637117599111,248.41932155566818
3920.1245,1.8871214083744154,233.19972763997828
3921.0286,1.8934285349492508,256.75431914392846
3921.9307,1.8982642204095874,255.67193645968462
3922.835,1.9009118365515054,271.7421090323196
3923.7373,1.9014717913219932,245.6225002069464
3924.642,1.9007087896674135,242.7876175102766
3925.5452,1.8995553397456635,264.6067250907271
3926.448,1.898617401110068,271.92230438546335
3927.3535,1.8978604907577132,252.32550022507968
3928.257,1.8966451752497357,279.36425569889803
3929.1628,1.8941527901178257,252.11006150098692
3930.0667,1.8900536540981998,256.3785906425865
3930.9731,1.8848390088020983,274.3192133938195
3931.8774,1.8797272995916463,248.69362410713128
3932.782,1.875955321090684,280.2747731138912
3933.6887,1.874192595024753,269.32762720456657
