wavl,flux,ivar
3566.9744,0.9149119555479844,410.42999382487324
3567.795,0.9162396267442995,346.6066015422148
3568.6177,0.9184147932781073,413.3482757154899
3569.4385,0.9205231285796344,444.2759194099938
3570.2617,0.9213744263876041,283.93552272461943
3571.083,0.9201998774436786,294.060890522073
3571.9065,0.9169632131167161,353.4535428955123
3572.7283,0.9121112222361618,392.37462524839697
3573.55,0.9061803026970879,425.67039031362094
3574.374,0.8997971414403859,357.9555206939264
3575.1963,0.893925367987506,338.8512752634058
3576.0208,0.8896955926834881,359.606625948375
3576.8435,0.8880632072969762,376.85269116185424
3577.6682,0.8892151006132747,614.8205903606076
3578.4915,0.8923606942461502,401.2140716139244
3579.3145,0.8959397079948491,528.0601318964827
3580.14,0.8982231287959807,493.76524017453653
3580.9636,0.8980509382150191,383.004884470043
3581.7893,0.8954327172998281,304.9391363072171
3582.6133,0.8914995985968808,516.9373500026056
3583.4395,0.8877055830108784,431.8283774992916
3584.264,0.88492956629428,352.12620744968245
3585.0884,0.8830598659777312,500.2881833346292
3585.915,0.8815192882358449,398.36477153284704
3586.74,0.8800075177099707,461.86145090523496
3587.5671,0.8787388432937008,564.7947004909272
3588.3923,0.8782166094468671,360.5378834896073
3589.22,0.8788911947739675,305.1572191921082
3590.0457,0.8809863718415933,435.73058977881
3590.8716,0.8843571831875067,447.1348993224352
3591.6995,0.8883804585596731,318.62658337541114
3592.526,0.8920284418795198,486.9069851864841
3593.3542,0.8943009657505391,447.6235845467882
3594.181,0.8945786565886898,482.197201530888
3595.0098,0.8928276156401058,401.68891857425064
3595.8367,0.8895056984658509,310.18449717055233
3596.6638,0.8853200324045892,317.5540730592355
3597.4934,0.8810113253957585,340.510863228513
3598.3208,0.8772311429459062,486.52235072629725
3599.1506,0.8743502561002336,416.80055718308944
3599.9788,0.8724751348647074,395.62671788491656
3600.8088,0.8714107737567478,340.3207134280332
3601.6372,0.870873629821263,616.2887160945372
3602.4678,0.8707185405725839,351.64743424770745
3603.2964,0.8710123228732504,411.96947773757086
3604.1252,0.8717986436036446,688.228561148606
3604.9565,0.87285009987317,367.4214396742993
3605.786,0.8737076161979179,450.0642639864672
3606.6172,0.874027554247749,670.9720868303809
3607.447,0.8738500162819781,459.3641395967003
3608.2788,0.873602651441184,489.1083745222519
3609.109,0.873828332809419,484.56000457661133
3609.9392,0.8748139906431964,518.6478380198885
3610.7717,0.8763426392664767,441.6526901574675
3611.6023,0.8777184697888294,447.9757630807694
3612.435,0.8781627533369626,432.84547100551674
3613.266,0.8772478606923977,537.9182909108815
3614.0994,0.8750599105803528,312.612906196706
3614.9307,0.871982147605689,349.85442167843314
3615.7625,0.8683591008217746,430.3263763254066
3616.5962,0.8644900266754568,403.05117906515926
3617.4282,0.8608542524010364,533.834153489843
3618.2625,0.858117106612939,496.2830797297337
3619.0947,0.8569429209314721,588.7592748006929
3619.9292,0.8575992604144573,490.7279207500754
3620.762,0.8598144524404719,356.71796091780277
3621.595,0.8628493403007007,501.49257106713026
3622.4302,0.8656938078608657,358.0044734363927
3623.2634,0.8673450420044952,331.50196254006084
3624.0989,0.8672862301576777,452.2944381888071
3624.9326,0.8657911955690951,382.71763138542696
3625.7686,0.8637765011404468,575.5355058259639
3626.6028,0.8621723014004761,370.0229897834827
3627.437,0.8612834767386458,340.7695226541375
3628.2734,0.8607705887696998,551.1626990884364
3629.1082,0.8601586789540768,329.3160225465944
3629.945,0.8593725346534747,570.1364909656296
3630.78,0.8588476642880728,364.400788979291
3631.6174,0.859093321296499,459.25909531820025
3632.453,0.8601029099373594,427.0471755408656
3633.2883,0.8611090218190321,284.4235565367769
3634.1262,0.8609389751662516,393.159546977318
3634.9622,0.8587371545261655,411.32445875845593
3635.8005,0.8545261887435873,376.77821962171544
3636.637,0.8493134518191559,563.6617380981731
3637.4756,0.8445693602461141,633.09320136106
3638.3123,0.8416652195251251,562.4784656858012
3639.1492,0.8413008297484234,401.26227446471603
3639.9885,0.8434012713022826,503.2322742928272
3640.826,0.847199145684626,338.660288286776
3641.6653,0.8516527453443523,511.75789762630455
3642.5032,0.8559099825245085,510.7939132043764
3643.343,0.8597272636890769,473.5899857490923
3644.1812,0.8632525557383756,472.85052687811935
3645.0195,0.8665348942999646,374.9551704675773
3645.86,0.869092514990312,448.4747400212185
3646.699,0.8700797418171586,400.2120942342863
3647.5398,0.8689406550676632,454.69641494566775
3648.379,0.8658809255650858,422.21322003908307
3649.2202,0.8617917721485534,467.20505632238996
3650.0596,0.8578820374600676,374.6214678774428
3650.8994,0.8552622121793672,460.8563703227038
3651.7412,0.8547678882788974,449.5714437171302
3652.5813,0.8566016369078182,551.9507666229285
3653.4236,0.8599867804335611,520.4991506926829
3654.2642,0.8633054348038273,371.86692947949473
3655.1067,0.8649565863644787,382.8142432259628
3655.9475,0.8641514410072385,321.52005737383047
3656.7886,0.8611474195300416,335.36345194248514
3657.6318,0.8568530509225649,420.15299933758143
3658.4734,0.8524643700227346,520.0507118730607
3659.317,0.8491589850586634,361.9877382812129
3660.1587,0.8478962439804895,516.0800833895155
3661.003,0.8489623336079082,441.65985556951864
3661.845,0.8517160696856999,435.18937087115404
3662.6875,0.8547857765803463,494.13416343328305
3663.532,0.8566660535952606,399.6909502750051
3664.3748,0.8564065911483034,505.3704830638315
3665.2197,0.8540233669638014,342.0358716666107
3666.063,0.8503422467633163,593.3585089876757
3666.9084,0.8463521528714015,479.2240115288483
3667.752,0.8427002610511478,381.72014725873044
3668.5977,0.8395339821311296,430.64756241045285
3669.4417,0.8368783018517275,387.8678315398436
3670.286,0.8348278142381305,527.7129158063105
3671.132,0.8334947949307443,460.8810958617042
3671.9768,0.8328045961719239,464.11607725269243
3672.8235,0.8324987854000768,393.61280467938974
3673.6685,0.8324029442593642,442.3690580214429
3674.5156,0.8325428152886457,437.28103486807504
3675.3608,0.8329308174289051,527.1081824352055
3676.2063,0.8333521674227763,400.41237437939594
3677.0542,0.8335724490959434,359.0000825668822
3677.9,0.8337633352621298,457.0129159523077
3678.748,0.8344999026573312,426.6891652938988
3679.5945,0.8361519745591035,538.17595573846
3680.4429,0.8383754900388758,619.5230026608581
3681.2896,0.8402615648952461,468.11739695128824
3682.1365,0.8410288200569832,445.8644554948676
3682.9856,0.8404665109373569,552.0462126878678
3683.8328,0.8389377778409507,486.014851182898
3684.6824,0.8371062406778423,415.5524575569461
3685.53,0.8357044179222791,417.2566290710954
3686.38,0.8352652676363816,532.2100259868906
3687.2278,0.8359222252872943,494.7617910797609
3688.0762,0.8373188618079543,498.02805783947764
3688.9265,0.838773419264307,367.5169878439162
3689.7751,0.8395688516587083,471.9197174485476
3690.626,0.839233523341728,412.3225809204219
3691.475,0.837668664225487,379.937565483354
3692.3264,0.8351849128895336,430.99081265850106
3693.1758,0.8324619065469819,374.25029081810663
3694.0254,0.8302427072694217,341.81417281099107
3694.8772,0.8289532635727801,588.7983659889969
3695.7273,0.8284415325032736,387.4641999866983
3696.5793,0.8280389099614958,430.93427042287266
3697.43,0.8269449625517143,517.1035749258397
3698.2825,0.824675878767822,371.9969188026799
3699.1333,0.8214304937568999,476.2892565899577
3699.9841,0.8180509500509068,438.5631820617643
3700.8374,0.8155978504069303,352.447289122536
3701.6887,0.8147911330648712,539.4993035594082
3702.5425,0.8156877060156632,450.9513993291732
3703.3943,0.8178718684712136,422.35822528344613
3704.2483,0.8208517780503244,424.65283761233644
3705.1003,0.8242285910910458,501.2719696754784
3705.9526,0.8276119240955803,432.2960614942865
3706.8074,0.8303425104943921,369.512691342268
3707.66,0.8314793414867576,499.7874351076391
3708.515,0.8302648021095868,529.2227958565784
3709.3682,0.8266489182692723,480.39797929915807
3710.2234,0.8214069986519941,691.6960079248671
3711.0771,0.8157239011688939,468.89742197950414
3711.9307,0.8104788887872171,433.0123815003326
3712.7866,0.8060551185934378,457.94095608434185
3713.6409,0.8027006240167084,457.8582206508311
3714.4973,0.8007265722943812,532.623324546187
3715.3518,0.8003483444972909,493.45885737582427
3716.2085,0.8012955304421078,718.6336452479824
3717.0635,0.8029440146052645,389.6240767984052
3717.9185,0.8048163137383337,446.6295100467486
3718.776,0.806768762678872,595.2007151234671
3719.6313,0.8086729747994149,387.9008036125627
3720.489,0.8102527474451194,437.52234261024245
3721.345,0.8113413567617624,399.69290821798916
3722.2031,0.8122270000306723,461.5689641392965
3723.0593,0.8133655202701897,788.9919462170087
3723.9158,0.814785658766997,480.9468442164833
3724.7747,0.8159361064960824,392.66441347484465
3725.6316,0.8162236161499369,457.5185157056731
3726.4905,0.8155601127630042,348.0517069614462
3727.348,0.8142019956048852,432.97046515650084
3728.2073,0.8122221576618802,391.3850375960367
3729.065,0.8094539472378692,411.477834519518
3729.9229,0.8059237989424693,522.2642149633609
3730.783,0.8021400153339651,502.26981317093055
3731.6414,0.7988008583494928,537.6847577737083
3732.5017,0.7962445451091645,491.8561934453454
3733.3604,0.7944405274655071,558.8583624433002
3734.2214,0.7932605811374562,480.07404732290587
3735.0803,0.7927240269633848,474.54848468833086
3735.9417,0.7928858794014259,465.97595606183273
3736.8013,0.7936891794672937,426.87265785041586
3737.661,0.7949321594488652,468.12561125209794
3738.5227,0.7962903144750393,649.9875002290589
3739.3828,0.7972551178002666,466.70597160583077
3740.245,0.7971658871938183,492.2936856571408
3741.1055,0.7954911116369466,439.16908776550844
3741.9683,0.79236976402823,531.0564610294219
3742.829,0.7891842606625201,503.53589935486576
3743.69,0.7888943638791783,437.9775827689767
3744.5532,0.7964868389665323,462.35327170955566
3745.4148,0.8189938245497205,546.2605184302469
3746.2786,0.863825223088813,550.5873921821611
3747.1404,0.9325407836499789,492.5406944423196
3748.0044,1.0143128302091922,551.5761002550818
3748.8667,1.0836105605710193,428.54862518661423
3749.729,1.1128711017362451,11.378342146530974
3750.5938,1.0897028358011656,457.4435084506417
3751.4565,1.0262720063334425,549.4956241809209
3752.3215,0.9497164532530685,547.516374320833
3753.1848,0.8848880764293783,500.25462423043336
3754.0503,0.8418052005584072,434.3446762256226
3754.9138,0.8180468057999215,411.31724551151837
3755.7776,0.8058318974648465,489.175710015741
3756.6438,0.7988081539397729,456.69727556069677
3757.508,0.7939829823501505,399.184941555093
3758.3745,0.7906944729517702,593.6245437322874
3759.239,0.7890068038840081,563.7998901235251
3760.106,0.7885398897872785,583.9887177777385
3760.971,0.7884468544539188,472.26241500928035
3761.8362,0.7880058990677251,424.5872772870409
3762.7036,0.7871304399504625,528.3121518175348
3763.5693,0.7863180311899365,518.2562141657379
3764.437,0.7861470143803613,418.1690067993004
3765.3032,0.7868029530832616,593.6535861854404
3766.1714,0.7879146663109573,513.9933611071091
3767.0378,0.7887345855696719,379.9136993717915
3767.9043,0.7885249218434602,537.8440813952238
3768.7732,0.7868784065836627,451.73007671952877
3769.6401,0.7839027755078297,452.39708246441336
3770.5095,0.7801530151084273,480.2750452372239
3771.377,0.7765121432419955,553.5423637041065
3772.2466,0.7738843569878966,497.43020199061755
3773.1145,0.7730062005973191,660.9513322735594
3773.9824,0.7741558078699715,482.98595804863925
3774.8528,0.7769783848065329,391.3761649067389
3775.721,0.7804257038245961,477.3374663052345
3776.5918,0.7831923524845403,500.5165284712589
3777.4604,0.7843391311755458,430.1396618232533
3778.3315,0.7838306738323106,477.5158646280319
3779.201,0.7823887684145099,720.3416089645139
3780.0703,0.7809409171025201,488.6256761699282
3780.942,0.7801668275698067,693.0228424854215
3781.8118,0.7804030817071284,459.09781450992904
3782.6838,0.7816881123838861,415.14795993360565
3783.554,0.7837582381358458,642.4477316846223
3784.4265,0.786088148411873,522.887379787078
3785.297,0.7880236047274896,491.4609636798576
3786.168,0.7890684840547383,411.37026205508516
3787.041,0.7889900165830538,584.9882521296926
3787.912,0.7877846591602647,497.13656690547555
3788.7856,0.7855951505756529,550.081975462098
3789.6572,0.7827612456962465,594.4642943208133
3790.531,0.779809249721432,448.93244442504437
3791.403,0.7773170786075432,560.042204710191
3792.2754,0.7754969076960607,477.3864657122734
3793.15,0.7739906525554365,450.1829785938541
3794.0225,0.7720763546578026,510.12741155749865
3794.8972,0.7691751997548675,469.03886422066273
3795.7703,0.7653719338033682,501.5613906199015
3796.6455,0.7614519559706198,619.7575117311377
3797.519,0.7586039734028647,549.6465376492413
3798.3926,0.7577729960346309,462.3275479358107
3799.2686,0.7592191955834583,592.933799441079
3800.1426,0.7623369656753538,558.4324186338049
3801.0188,0.7658967282626926,546.4121684210256
3801.8933,0.768461942678695,636.1212694117911
3802.77,0.7690023619666398,570.781812919374
3803.6448,0.767347834393298,496.9872422177242
3804.522,0.7643355304956759,728.2346325660639
3805.3972,0.761426250254358,639.2707048052208
3806.2727,0.7599026783512548,549.4506702654076
3807.1504,0.7603739919156618,646.0916997734749
3808.0261,0.7627776666277107,469.1147339849154
3808.9043,0.7666615208120444,544.7485820935848
3809.7805,0.7712275095662317,487.2461274853602
3810.659,0.7754381959473268,332.85394866984836
3811.5356,0.7783193572358023,426.6722326719723
3812.4126,0.7795973764762355,556.0008510604821
3813.2917,0.7798049527229246,455.28943444893997
3814.169,0.7797781318956872,643.7052233618334
3815.0483,0.7799715790955322,539.0670254410235
3815.926,0.7802188635650118,519.8776279099636
3816.806,0.78003929062329,480.1959949963638
3817.684,0.7790884872764586,487.5127819341734
3818.5623,0.7773787770627664,598.3171602303487
3819.4429,0.775214359502117,457.3625595214002
3820.3215,0.773033961259555,463.1923554621519
3821.2024,0.7711811014865908,501.692739294305
3822.0815,0.7697725335252102,606.6064093601351
3822.963,0.7685798018561629,440.59492635256004
3823.8423,0.7671332863105609,526.2463300640312
3824.722,0.7649219160208316,489.9878607989397
3825.604,0.7616221419542181,544.7103491454446
3826.4841,0.7572525599410841,525.0501918912942
3827.3665,0.7521131775640301,539.8982049057959
3828.2468,0.7467535805586903,494.5199275357004
3829.1296,0.7416374792161353,696.8297385005803
3830.0105,0.7369322099469454,593.9491570634895
3830.8916,0.7322737413965094,778.2481594646497
3831.7751,0.7270227043578448,473.4368956846537
3832.6565,0.7207845429607707,546.3313531457679
3833.5403,0.7136924854159888,1147.0932023127616
3834.4224,0.7065559645951641,612.0632023444882
3835.3064,0.7004348739386269,582.5846964433927
3836.1887,0.6963570199330759,717.8163819995965
3837.0713,0.6949354942754432,638.9483881234027
3837.956,0.6963084999319078,674.121450016964
3838.839,0.7001509675959056,726.4861195912887
3839.7244,0.7059135172696495,742.3163394132025
3840.6077,0.7130412489376746,593.8964100017065
3841.4932,0.7212222906437254,491.5213206040051
3842.377,0.7301067648474782,541.561448605818
3843.261,0.739140281056236,531.7864073349699
3844.1472,0.7474832008803717,512.2462032519148
3845.0315,0.7543361882076556,596.2699239108899
3845.9182,0.7595155624118768,563.133549757821
3846.803,0.7633711916946381,580.7611716942239
3847.69,0.7665311386814271,526.6315019652752
3848.5752,0.7694703430867758,670.9170076299293
3849.4604,0.772540145274633,484.51092575603866
3850.3481,0.7761081589309557,493.3773194945784
3851.234,0.7804906800507055,551.3778687606115
3852.122,0.7856954803795492,587.8477542747792
3853.0083,0.7910580555210945,481.8689638251211
3853.8967,0.7955005711690699,476.2748435200931
3854.7832,0.7980426743446286,628.995252003677
3855.6702,0.7984861468680927,412.95887816474976
3856.559,0.7975188927499711,495.48961598521976
3857.4463,0.7963099837832871,448.89698895104056
3858.336,0.795769448961249,505.69078899285375
3859.2234,0.7960605962393049,512.9661881711124
3860.1135,0.7966834473027639,452.0080889707151
3861.0015,0.797036144890954,465.43726996840326
3861.8896,0.796916442672086,544.0911399896787
3862.7803,0.7964969784622395,408.89630050613914
3863.6687,0.7959348100401533,521.2871348619639
3864.5598,0.7950883843122064,436.5151818543824
3865.4487,0.7936588091804287,486.95216273563284
3866.34,0.7914629836572062,505.6461833286396
3867.2297,0.7885514933195452,586.904600770485
3868.1213,0.7850054133957955,447.0753579571096
3869.0112,0.7808311223522328,521.4548693224522
3869.9014,0.7759826126918691,619.9196929876008
3870.7937,0.7706185801286707,494.30425428424974
3871.684,0.7652988706239037,506.64926465068305
3872.577,0.760706265702262,535.2012715842495
3873.4678,0.7572254284703392,517.4300550060549
3874.361,0.7544238687098093,654.9577173970468
3875.2524,0.751240565197966,513.5922624529231
3876.1438,0.7465809885170562,610.3267161232894
3877.0376,0.7399650633277759,691.6240067893511
3877.9297,0.7317578134844498,617.106814853213
3878.8237,0.7227474400150287,641.614903638884
3879.716,0.7138103611814262,787.8003978986769
3880.6108,0.7054244344014968,634.3189555583524
3881.5037,0.6976856052659418,662.419108135534
3882.3965,0.6902063760417768,645.2349512797582
3883.2917,0.6823808267112725,737.4424639622465
3884.185,0.6737884396600046,602.1588816446215
3885.0808,0.6643726723571125,666.2999529978274
3885.9746,0.6546560589928208,779.1063706766115
3886.8706,0.6452703550166918,777.4345749396939
3887.765,0.6367954726379924,705.1288901864247
3888.6592,0.6295981967011283,860.6582621687219
3889.556,0.6241727955518489,728.3082566754633
3890.4507,0.6213235479727988,769.6250223220318
3891.348,0.6218163806477407,741.5665732004568
3892.243,0.6259505055026661,816.9657397654697
3893.1406,0.6333614774471603,1052.3304349148593
3894.0361,0.6431545009218365,740.1360511630069
3894.932,0.6543898497848876,616.2203560537018
3895.83,0.666173762001142,666.4691162675991
3896.7263,0.6774791697796564,592.0803171852609
3897.625,0.687391145737299,544.8879925781002
3898.5215,0.6952492855453238,572.2244835814881
3899.4207,0.7012484890110366,664.633789778455
3900.3176,0.7063010655721523,676.5285432122627
3901.2148,0.711718835016539,627.3261727922277
3902.1145,0.7185463149686039,584.1384346784941
3903.0122,0.7271023234523615,717.8247920323602
3903.912,0.7370727375495222,454.2476708605655
3904.8103,0.7476142040317656,471.06989399821754
3905.7107,0.7578764060658696,652.910121947041
3906.6094,0.7671530634076693,439.22285692002157
3907.508,0.7752702397490591,554.8911339136029
3908.409,0.7825659280100103,441.9514974939833
3909.308,0.789609554082903,383.09779714589615
3910.2097,0.7968557765703698,525.6919460453231
3911.1091,0.8041387145278296,701.3894939805814
3912.011,0.8108957080495868,412.5201548413237
3912.9111,0.8165610505032741,480.0335147689245
3913.8113,0.8212094582310921,501.68819834252815
3914.7136,0.8255143362495677,483.8104308317984
3915.6143,0.8301623783965862,537.4478768643916
3916.517,0.8352885242728361,438.12936146351024
3917.4182,0.840273562177219,371.40304013172124
3918.3215,0.8443340244127674,348.48696013424905
3919.223,0.8471182137806873,458.1020969559733
3920.1245,0.849038685368093,487.3778171297721
3921.0286,0.8509198953201963,406.4721955745007
3921.9307,0.8533975837575182,445.17460740080554
3922.835,0.8565346056988226,433.8210031610337
3923.7373,0.8597908822405319,417.4488340867672
3924.642,0.8624464875703011,406.1646540981234
3925.5452,0.8639581747853434,543.3729624364793
3926.448,0.8642092637572566,399.30553257108545
3927.3535,0.8634705833696941,473.18957656329314
3928.257,0.8622984656680139,338.55812146918197
3929.1628,0.8612874709965481,545.9247169388798
3930.0667,0.8607158362865323,394.0427292777264
3930.9731,0.8602542958955982,372.7104481293526
3931.8774,0.8591350468582819,522.1482573571373
3932.782,0.8566955508542239,393.9497210735727
3933.6887,0.8528431247490393,487.5516386434667
3934.5938,0.84809621899609,437.7614361392341
