wavl,flux,ivar
3566.9744,10.93532460622548,7.77094207638085
3567.795,10.885293303718417,8.073165727359179
3568.6177,10.838466389034657,7.679001659936554
3569.4385,10.802612439330643,9.033376535928666
3570.2617,10.774579866832848,9.861637005447673
3571.083,10.747547429649204,7.804275003378028
3571.9065,10.716238082637732,9.386456392566442
3572.7283,10.67917333147834,7.431281128428386
3573.55,10.636778852255137,10.24049873118938
3574.374,10.590203183414381,8.785519556503353
3575.1963,10.542135055419882,11.118307157337378
3576.0208,10.497260546795564,10.142532174671496
3576.8435,10.462906875139861,10.33917128328492
3577.6682,10.445008740387378,8.493385681105497
3578.4915,10.44356953106625,10.004952022545751
3579.3145,10.449402359813176,8.791509326269427
3580.14,10.44763685314316,10.875849200014166
3580.9636,10.42708759148027,8.814225924774675
3581.7893,10.389847440681907,8.006359530731038
3582.6133,10.353582390080634,7.779183872860213
3583.4395,10.341997856903728,10.443104666508004
3584.264,10.370212907908657,7.5791561643246865
3585.0884,10.433521059474575,11.907844023192935
3585.915,10.509237459982357,10.984915978289834
3586.74,10.56928552352169,6.502682372325571
3587.5671,10.597372142415393,8.523520127770405
3588.3923,10.594363118696547,10.710314715266254
3589.22,10.57174622803117,8.474612146739979
3590.0457,10.539598551017733,8.746828014045652
3590.8716,10.500775549414746,8.522374753271881
3591.6995,10.454550986819601,7.851006406708328
3592.526,10.403121795651057,8.38323139596203
3593.3542,10.353289906769648,9.468990266166935
3594.181,10.314780118450951,9.22094499636832
3595.0098,10.29438092274017,8.520692064524972
3595.8367,10.291956126349481,9.628741500502498
3596.6638,10.299429006094599,10.707849005315413
3597.4934,10.30615745782598,8.2300386241019
3598.3208,10.305828428021986,6.502685706884362
3599.1506,10.298800313095118,9.177662943060293
3599.9788,10.287694731747054,9.333399813272639
3600.8088,10.272031761117926,8.567794690972859
3601.6372,10.248742708152117,8.987746465087119
3602.4678,10.217140861605664,9.082505824195401
3603.2964,10.183301108693135,11.658269609470622
3604.1252,10.157845814912658,11.318562344757856
3604.9565,10.150872246360565,9.390084876555791
3605.786,10.16723751021906,10.205997893795606
3606.6172,10.204547698813373,10.48191471271524
3607.447,10.25345228464482,10.432197317738632
3608.2788,10.301544859194676,10.314577954142653
3609.109,10.338441601342339,8.897387326795315
3609.9392,10.360814449111356,10.905453071857506
3610.7717,10.370857190528763,7.03915088539143
3611.6023,10.37138072304256,10.662780196646558
3612.435,10.362521711201861,8.390565837252185
3613.266,10.342856271422598,11.258409690599366
3614.0994,10.312543683040285,9.563254327709553
3614.9307,10.275153576316464,9.412446293442972
3615.7625,10.23567304911635,9.979408238823373
3616.5962,10.198579616433754,10.294836620759632
3617.4282,10.167247678761298,8.784165172014955
3618.2625,10.14354951184265,10.157556574249014
3619.0947,10.12795158387776,8.67718306866108
3619.9292,10.118065077183635,8.774702185396755
3620.762,10.109011855152684,7.924863940067305
3621.595,10.09509351780389,6.458296352102466
3622.4302,10.072493709595594,11.855774448939785
3623.2634,10.040828969013399,8.488154190929864
3624.0989,10.001314146857723,10.496774193605498
3624.9326,9.954623349415112,11.287896144273375
3625.7686,9.899888864650512,9.461451110101644
3626.6028,9.839521454495086,9.21730499931932
3627.437,9.782261446197447,11.537333795157597
3628.2734,9.741190852637123,10.997983179865003
3629.1082,9.7255754682693,10.163902873072598
3629.945,9.733421910976865,10.47144502568493
3630.78,9.753348683513579,10.66808333150285
3631.6174,9.772996235161731,8.973214664771554
3632.453,9.786144628980475,8.408674232225245
3633.2883,9.794117002368981,8.82452135175997
3634.1262,9.801609323039122,9.546548564046356
3634.9622,9.812051412064319,10.870260730040231
3635.8005,9.825075218044331,12.030270487755832
3636.637,9.835841928547042,10.791508585975558
3637.4756,9.836939874545493,7.076660806856967
3638.3123,9.821813897833485,13.778074006747806
3639.1492,9.789025429605113,10.105498614872582
3639.9885,9.744710578345531,11.195664456907709
3640.826,9.70172459629826,13.597735820412133
3641.6653,9.672763607820073,9.321618928249626
3642.5032,9.663506596431395,8.817952148951424
3643.343,9.668857434158166,10.239137681584067
3644.1812,9.676429469396707,8.920137647713274
3645.0195,9.673358760579475,14.566519887977531
3645.86,9.652089404847697,9.054084575754759
3646.699,9.613864977653618,8.10936246471436
3647.5398,9.568244681542762,14.212256176215734
3648.379,9.52928956101386,10.032640418873997
3649.2202,9.507495380347924,12.310260342888792
3650.0596,9.504546955416648,10.371389286930105
3650.8994,9.512691411748685,9.932668553111913
3651.7412,9.519934968056845,12.076768791314256
3652.5813,9.516232560520264,12.15662699542561
3653.4236,9.497963587416262,9.169944292404617
3654.2642,9.469192028254351,8.715316425468078
3655.1067,9.438957370810154,8.798399181808986
3655.9475,9.416340209703236,14.781063349000913
3656.7886,9.40459325565724,11.12763399699128
3657.6318,9.400106002933482,9.784911640060699
3658.4734,9.396702453053283,11.383269919999236
3659.317,9.391723147719624,11.55840588949682
3660.1587,9.388088504590325,12.549194140206831
3661.003,9.390538659579603,11.18423850782202
3661.845,9.400668796614632,8.565178012542221
3662.6875,9.41565184764275,14.460873084844405
3663.532,9.43106966404344,8.79055360152047
3664.3748,9.444302967978373,14.900386271552426
3665.2197,9.455633240215926,10.85467092390365
3666.063,9.465840870830476,11.18286187551892
3666.9084,9.473757704552023,8.304313451837016
3667.752,9.475994169085219,10.236938459871254
3668.5977,9.470146158401807,13.971333007242695
3669.4417,9.458144761794385,13.738487778692996
3670.286,9.445980872709322,11.581563828309715
3671.132,9.439362696804832,10.416869675210563
3671.9768,9.439148014773673,7.829008512734031
3672.8235,9.440652900017307,16.705144525454635
3673.6685,9.436987760275521,9.040484921071098
3674.5156,9.422777121100959,11.830697517507016
3675.3608,9.396552090064775,10.421661572051553
3676.2063,9.361704778314689,9.274964738548789
3677.0542,9.326283206335315,11.60518935087644
3677.9,9.300208945442462,11.915994543503524
3678.748,9.289388169383237,10.707177319762717
3679.5945,9.292633874880197,11.79348249428172
3680.4429,9.30211211834792,12.917008494767316
3681.2896,9.307230033447041,11.52406464065703
3682.1365,9.299303533093745,11.292761070596164
3682.9856,9.275583392232754,8.76790961638215
3683.8328,9.242034894493253,12.777841046350472
3684.6824,9.21102745172494,15.527165179890538
3685.53,9.194982341371574,11.268257642625795
3686.38,9.198159990625262,9.149943788436538
3687.2278,9.21442980059676,11.509993928990763
3688.0762,9.231738312217532,11.544737115187798
3688.9265,9.239957134086987,11.070247130320988
3689.7751,9.236699845314892,9.534387246483377
3690.626,9.22776895653058,11.252424103585827
3691.475,9.222169698433024,9.609755872482205
3692.3264,9.22537161170214,13.775566690669596
3693.1758,9.235725833520087,10.01214738074014
3694.0254,9.245912395934777,13.03385241332821
3694.8772,9.247402706392752,11.067224488246515
3695.7273,9.234804956074882,12.302746772652208
3696.5793,9.208183356982774,10.58634461707224
3697.43,9.173187223165149,10.23419243255605
3698.2825,9.138023305968872,11.267356192304062
3699.1333,9.109262246772854,12.07851426370746
3699.9841,9.087380721651117,10.530856100146705
3700.8374,9.067517049115503,10.677440789221356
3701.6887,9.044871712461552,10.184072464500755
3702.5425,9.01933558287856,12.890351422711294
3703.3943,8.995355312954723,11.582493930681293
3704.2483,8.976307059875642,12.545687553315279
3705.1003,8.961595718635484,12.12805932160765
3705.9526,8.948240950644873,11.261969269916408
3706.8074,8.934805273295025,12.168334108013418
3707.66,8.921893712938752,11.83859903120078
3708.515,8.908767168287644,11.916697720207981
3709.3682,8.891694851950605,11.475231182103148
3710.2234,8.866521133139644,9.35380349757703
3711.0771,8.834287159781786,13.458917258923123
3711.9307,8.8026009587902,12.71301559068025
3712.7866,8.781001198817174,16.18853869553748
3713.6409,8.773980597260124,14.14015844161358
3714.4973,8.777594760725428,10.1920700758846
3715.3518,8.783172484550715,10.825699488937813
3716.2085,8.78362242131539,15.15224922914538
3717.0635,8.776820192588891,12.973050851707184
3717.9185,8.764407990271806,17.681400791658074
3718.776,8.748970767504781,12.14308861914755
3719.6313,8.73333251305163,11.125206343913954
3720.489,8.72066265572779,15.07712096678509
3721.345,8.713410567392938,13.592717444684343
3722.2031,8.709899607924557,12.863682363934743
3723.0593,8.70335772383819,11.901628823799877
3723.9158,8.685921640372355,11.878031618477909
3724.7747,8.655389058916205,9.920573570588667
3725.6316,8.618830518540053,15.837309276178367
3726.4905,8.588095567509255,15.347466409211478
3727.348,8.572181890435175,13.875213704870001
3728.2073,8.571020733527531,12.724599094431497
3729.065,8.57625388415936,15.602770450064096
3729.9229,8.576905637330992,15.693043489086092
3730.783,8.566277504360382,15.170249656973754
3731.6414,8.54619627524724,11.240650000282653
3732.5017,8.525742993921936,12.103325662995697
3733.3604,8.515760792545805,14.218012085210859
3734.2214,8.522031637224787,12.44405221162662
3735.0803,8.542232311867547,15.354768592331565
3735.9417,8.567334379216696,14.478773263578576
3736.8013,8.585004020110231,13.353278127573246
3737.661,8.58463894135707,10.135739398150305
3738.5227,8.561930079541312,11.678481791683957
3739.3828,8.522152745226208,15.778375117806723
3740.245,8.477863974801847,15.263483840435848
3741.1055,8.44308409357608,12.93057194257469
3741.9683,8.425968964245657,12.22409819062348
3742.829,8.426772175213667,16.078026861385567
3743.69,8.43922184639277,13.341023922481611
3744.5532,8.45446851071032,13.337466097378258
3745.4148,8.464122095373957,13.830278574620724
3746.2786,8.46280897922983,14.348076684846118
3747.1404,8.44982654573975,12.023368498276628
3748.0044,8.429869400379035,14.849174564225018
3748.8667,8.411661509128837,16.52181041470341
3749.729,8.403523130821355,12.23201030323438
3750.5938,8.408908706713849,12.88923568322128
3751.4565,8.4240228902591,14.470559091780295
3752.3215,8.439523962206833,21.663123856493442
3753.1848,8.445218829930313,11.424628393875523
3754.0503,8.436147508034642,12.79602351657221
3754.9138,8.415876511751273,14.502691912481223
3755.7776,8.394246136018841,13.701490747126707
3756.6438,8.38096995741931,18.279425114255186
3757.508,8.379920733665069,15.281102196085058
3758.3745,8.38758544344774,16.411474641014337
3759.239,8.395670637091337,14.704502052409426
3760.106,8.39496560306612,14.151033981550981
3760.971,8.379037305760637,12.10519258103849
3761.8362,8.347268638058342,14.98475883757712
3762.7036,8.305357755587238,16.268275194799457
3763.5693,8.26295273541077,21.034488093781178
3764.437,8.228423673247544,17.243896833564538
3765.3032,8.206023426378081,16.98205411258006
3766.1714,8.194522987690009,15.374490219617504
3767.0378,8.189189341146662,15.772025384292284
3767.9043,8.184695171410622,14.577192409244121
3768.7732,8.178152333554971,13.845343588460532
3769.6401,8.170016957428007,14.802101811506631
3770.5095,8.162329793232507,14.171354038759484
3771.377,8.156324317409108,14.854847973773461
3772.2466,8.150813989413795,14.700841972654874
3773.1145,8.142823604881245,15.745067578562267
3773.9824,8.129975185504685,14.802814670779169
3774.8528,8.113660370441194,15.240879762207818
3775.721,8.100294650559864,18.244211037156752
3776.5918,8.098014424735517,15.770322001054081
3777.4604,8.111713885428706,14.418660710115278
3778.3315,8.140037755812935,14.328526311230846
3779.201,8.17592158502451,13.836258554158363
3780.0703,8.209666106781334,15.146746556564475
3780.942,8.23183020356491,12.948312939778251
3781.8118,8.23649366741115,17.817571445980718
3782.6838,8.2241593696311,13.513093001914813
3783.554,8.201069335405348,15.101510259386245
3784.4265,8.174983830137261,13.140441919726031
3785.297,8.151349413040883,16.50006637359476
3786.168,8.131473280202163,15.23670040294507
3787.041,8.113806149928289,16.026160064778054
3787.912,8.095317606482805,17.02397414137151
3788.7856,8.072017875460078,13.612569680999021
3789.6572,8.04078739986704,15.880672245414614
3790.531,8.000973578957401,17.434768367673893
3791.403,7.955950384100858,15.126419902622168
3792.2754,7.911061738877975,12.324198100211769
3793.15,7.870977058276294,16.92080975237457
3794.0225,7.837734907329671,16.301363252260764
3794.8972,7.809888591863997,17.020463207673426
3795.7703,7.78496231644666,16.708518782530884
3796.6455,7.761763647978289,16.877272205501157
3797.519,7.742828591483514,16.446701582056455
3798.3926,7.733455629290169,20.703486804046506
3799.2686,7.739073804206795,13.775874250783662
3800.1426,7.7622257343592596,16.24427939471171
3801.0188,7.801580961738028,19.01336576745706
3801.8933,7.85181724195935,17.06043442342913
3802.77,7.90526594154016,15.068899457590637
3803.6448,7.952981567839201,16.309483232338632
3804.522,7.988438820628055,15.141631509757891
3805.3972,8.009004753776482,14.448377165481133
3806.2727,8.017166733997168,16.465605676983042
3807.1504,8.018845855302443,12.09381810771925
3808.0261,8.02098229189633,16.921558903392654
3808.9043,8.028526051735076,13.862331218602874
3809.7805,8.042157207430046,14.042048768401543
3810.659,8.05865535960796,16.130799666321472
3811.5356,8.072993231725555,18.876237575862824
3812.4126,8.080747204468667,16.974564876240873
3813.2917,8.078750964548302,11.679944123841492
3814.169,8.065916526783953,14.239699014718449
3815.0483,8.044598229629077,15.2380729790051
3815.926,8.02077944544383,15.302027346522726
3816.806,8.000228378084373,16.762328683871356
3817.684,7.984353896637814,14.876121708828926
3818.5623,7.969226508027153,14.305302141587397
3819.4429,7.94959852477307,16.43385204630038
3820.3215,7.92317629457732,17.160178631676747
3821.2024,7.890958153434439,15.412058100746451
3822.0815,7.855754965834924,15.942147524154597
3822.963,7.819508786977081,19.563474284276122
3823.8423,7.782537423711614,16.11770397038889
3824.722,7.742298713453485,13.445870291864196
3825.604,7.6941988146814735,16.19410609523409
3826.4841,7.634301225494763,17.185002998724016
3827.3665,7.56148978385568,14.580867483211751
3828.2468,7.48018904189629,15.37265316378253
3829.1296,7.39732276219071,17.251277160042328
3830.0105,7.319473475678071,22.079903659385565
3830.8916,7.247754325789502,19.105343351267745
3831.7751,7.178959951619738,18.357432266317506
3832.6565,7.110707208810481,18.681429641798662
3833.5403,7.044912097495088,21.8931133593603
3834.4224,6.989572304704508,22.03544325462419
3835.3064,6.953384956450489,21.43289489524474
3836.1887,6.941685482035493,19.75836225866396
3837.0713,6.9543203229996085,21.30786107888992
3837.956,6.988549587362327,22.61766792287472
3838.839,7.041654317983842,18.548315190253522
3839.7244,7.111624502767247,22.337203959409248
3840.6077,7.1934050495846975,24.56670997189624
3841.4932,7.278588201793529,19.60890839121732
3842.377,7.357108305295449,17.3098974279548
3843.261,7.424470973217508,22.03074166552201
3844.1472,7.484092121413063,20.67388149671384
3845.0315,7.54351402008819,22.055199893397138
3845.9182,7.608154847462398,18.327170761917024
3846.803,7.6754576766888585,15.193027440783426
3847.69,7.73812899047369,17.433159461131726
3848.5752,7.789553991157592,14.853826624637364
3849.4604,7.829895074016027,16.12113351362432
3850.3481,7.864975202479081,15.392233760315948
3851.234,7.9011098083559625,14.5043698851052
3852.122,7.941458974389159,18.693973300428567
3853.0083,7.984548598613611,15.06610019029366
3853.8967,8.026543444711447,15.358429765024251
3854.7832,8.061839147428296,15.08845213077709
3855.6702,8.084916684335635,15.720299617712419
3856.559,8.092020342758877,13.199334450655108
3857.4463,8.083915944141848,14.3098962186862
3858.336,8.06676485127368,17.437320603588972
3859.2234,8.050001838437693,16.436675695913802
3860.1135,8.041895427053284,16.560227233394635
3861.0015,8.045971890341763,16.135111507657918
3861.8896,8.059049980902882,14.902329322577598
3862.7803,8.07238130401743,15.246818356707692
3863.6687,8.074939745841796,15.16105579354977
3864.5598,8.058001117995946,14.067861505133509
3865.4487,8.018302401477985,15.41441858695861
3866.34,7.958065552845466,15.60428792418338
3867.2297,7.884001137609536,14.349573684503705
3868.1213,7.803898782794618,14.44887259710026
3869.0112,7.725603942371157,16.020370051737462
3869.9014,7.654113409911185,15.809491993583347
3870.7937,7.59099820863272,15.392306096571133
3871.684,7.534807195636645,16.364797071608603
3872.577,7.481691177578067,20.339589341248296
3873.4678,7.42926169424024,17.276605191891246
3874.361,7.377406190882447,18.91497510666342
3875.2524,7.3280821617480525,20.070169781179594
3876.1438,7.2804644055616246,19.911780657286904
3877.0376,7.22858098350571,20.23948686880828
3877.9297,7.163859529290541,17.89149366679454
3878.8237,7.0798668541806045,16.82695203379722
3879.716,6.977354460345254,19.898836069445533
3880.6108,6.861639906677548,18.14311974312859
3881.5037,6.739945370097189,20.805293283191887
3882.3965,6.615879943706054,22.04856836020598
3883.2917,6.489899118331916,22.587640262485127
3884.185,6.362984064014742,28.36256264646575
3885.0808,6.23733397907947,22.239408410746584
3885.9746,6.119432101165931,31.47647687228766
3886.8706,6.01560978821315,31.014700356165946
3887.765,5.931779639038168,32.49503482653003
3888.6592,5.871494565984659,25.087374996447814
3889.556,5.838121608289711,34.996446464689264
3890.4507,5.835071715208392,30.441660522047172
3891.348,5.863326087367139,26.24200620050851
3892.243,5.919433203415066,27.403685449397038
3893.1406,5.9966498335380605,28.73422130012685
3894.0361,6.086796723498756,24.10694372141981
3894.932,6.184580352443531,24.683626701547958
3895.83,6.287848791370441,24.72123073686093
3896.7263,6.3949933844653595,23.15251891194802
3897.625,6.504198689226751,17.72636100155552
3898.5215,6.610746145195214,21.215497779686725
3899.4207,6.711561939881425,22.90841244870521
3900.3176,6.806098268274747,19.745198032546526
3901.2148,6.898918262690455,22.46655223749845
3902.1145,6.995991343516646,21.882182366662196
3903.0122,7.10000597017698,18.09707092589133
3903.912,7.209984109814483,20.601535655087655
3904.8103,7.320487739532317,17.624003608267977
3905.7107,7.426430790746129,17.432655654438683
3906.6094,7.523718415594326,17.593400472812046
3907.508,7.611493337711523,17.45221925185574
3908.409,7.690529339318584,22.05399580144779
3909.308,7.761781832803108,13.081008328878616
3910.2097,7.827343579787126,12.24000748339164
3911.1091,7.8887400681199376,17.180118218286356
3912.011,7.947247277873632,18.237753233296228
3912.9111,8.002195428236284,14.184218016110504
3913.8113,8.053116998832309,14.903902222091654
3914.7136,8.100813593930356,14.027179407277746
3915.6143,8.146557103685414,15.1750946033612
3916.517,8.19061436747608,14.104050403530351
3917.4182,8.230396367470528,14.800708233637877
3918.3215,8.263262012477472,13.454811713010661
3919.223,8.28923587008618,15.466071402630693
3920.1245,8.312375169609687,15.464638679117709
3921.0286,8.337359309878241,14.240024983882703
3921.9307,8.365366471910276,14.38219455016986
3922.835,8.39404877440849,13.677874618800445
3923.7373,8.420428029910056,14.297407774367064
3924.642,8.444310319728995,15.84296788300542
3925.5452,8.466711279972108,12.809442131388368
3926.448,8.486973532638425,12.762801081248785
3927.3535,8.501648535620854,12.257579291452965
3928.257,8.506926373386765,14.347313446198774
3929.1628,8.501814069428299,13.180999807460246
3930.0667,8.48834243088775,12.048192896701474
3930.9731,8.469577871001574,14.871805108123594
3931.8774,8.448082635302871,13.76630457844318
3932.782,8.42500865883514,12.38361401848455
3933.6887,8.400239322733146,13.947580153753272
3934.5938,8.372608621590937,14.198757501248753
3935.501,8.339859298240242,13.688557997928974
3936.4062,8.300012938375012,13.92926992441979
3937.3142,8.25177032509547,14.936120642154382
3938.22,8.196183594511284,13.934604129949038
3939.128,8.135925117545625,13.965153317450785
