wavl,flux,ivar
3566.9744,1.23846382341348,628.611792610489
3567.795,1.2354634830582552,588.2024765436698
3568.6177,1.2320444519363813,516.8062320077756
3569.4385,1.2293373563651195,738.1929664383516
3570.2617,1.2279582896805847,760.8794755410645
3571.083,1.2278419707439368,571.8050779292834
3571.9065,1.2281975126605313,648.4080005795701
3572.7283,1.2279814467772363,655.7555260459133
3573.55,1.2265481470233854,537.0114097900175
3574.374,1.223891046849963,550.1229739988154
3575.1963,1.2203257872815214,760.3521411748644
3576.0208,1.2158869285745755,592.6853140762018
3576.8435,1.2102420346882279,715.0848589271523
3577.6682,1.2030646972381236,650.89373907264
3578.4915,1.194778508635623,890.9962631938288
3579.3145,1.1866602515111824,790.0673052662828
3580.14,1.1804321109372014,717.3168408433256
3580.9636,1.1776104833688523,671.2412940835541
3581.7893,1.178859827648494,701.4310277844997
3582.6133,1.183900574214688,871.4155134296518
3583.4395,1.1917888943000523,650.358774103561
3584.264,1.2012252966413424,570.5746625402144
3585.0884,1.210838633970405,832.2433281895288
3585.915,1.2190379581892756,700.6176230106223
3586.74,1.2239888769731821,676.7859323167322
3587.5671,1.2242951800762645,684.5193127989346
3588.3923,1.2197393717425293,845.8140348559987
3589.22,1.2116767407998037,703.66975782797
3590.0457,1.202710241970473,711.8438007371439
3590.8716,1.1955762636377756,634.7235373703006
3591.6995,1.192213421338366,865.1745143560405
3592.526,1.1931918577725118,884.4471161800706
3593.3542,1.1977286060608066,672.1518589604557
3594.181,1.2041870053805492,773.7740944981927
3595.0098,1.2107999834307395,671.1940863261837
3595.8367,1.2160786328611601,791.558985985397
3596.6638,1.219166355333232,635.0547413911614
3597.4934,1.2198033768868897,977.7018677677142
3598.3208,1.2183391839296311,437.59737957362773
3599.1506,1.215660060815745,600.9944610798815
3599.9788,1.212826540141924,771.6631348506457
3600.8088,1.210377484729798,775.0961445594586
3601.6372,1.2080665561497914,644.7205067007255
3602.4678,1.2053492612838541,653.9723692749725
3603.2964,1.2023299074872464,812.0470852690678
3604.1252,1.1999683962415133,783.9833624302099
3604.9565,1.1994199796259586,615.742173200655
3605.786,1.2011201445326243,593.9292219252416
3606.6172,1.2044862152366795,688.0958051979619
3607.447,1.208312637039438,779.9913472025712
3608.2788,1.211395373575747,626.2055395220569
3609.109,1.212748939721384,531.6824414710709
3609.9392,1.211685340894411,739.4035620980443
3610.7717,1.2079291253034141,661.0304671542984
3611.6023,1.201991511316166,982.046680424704
3612.435,1.1951452825940478,592.1834728693503
3613.266,1.1890455380126883,751.1401619351193
3614.0994,1.184928196984211,755.4919502088964
3614.9307,1.1832877939240944,769.5363075423429
3615.7625,1.1837322472347012,688.6833987043938
3616.5962,1.1851696080887666,689.402482556175
3617.4282,1.1861352211169824,721.1213678665629
3618.2625,1.1854483076414661,759.5335777574572
3619.0947,1.182830837927228,913.1859007100435
3619.9292,1.1789831084311435,609.140870851838
3620.762,1.175086488014976,597.1900102982612
3621.595,1.1720929704508478,558.3896126047819
3622.4302,1.1704727067154115,942.57911813323
3623.2634,1.1701958623165152,765.1041647731023
3624.0989,1.1706790762387196,652.5312821574694
3624.9326,1.1709337702259488,584.0037792128529
3625.7686,1.1701616421035044,824.1413369019998
3626.6028,1.168454058543953,856.5594224416573
3627.437,1.1668153668414938,606.5757172771595
3628.2734,1.1664288364177962,616.3546774775323
3629.1082,1.1678882597595766,679.6901315099865
3629.945,1.1710032981941945,690.7078119760012
3630.78,1.1750116170473681,1080.7208798439449
3631.6174,1.1789130387050173,660.1691344879383
3632.453,1.18168606183128,678.274604459177
3633.2883,1.1827571800691068,595.7963563002256
3634.1262,1.1822355823985335,948.296884579953
3634.9622,1.1807625286106997,788.86370090561
3635.8005,1.1789829928611992,667.454890022758
3636.637,1.1772132973691785,604.9344728743747
3637.4756,1.175487273479353,709.3484675792618
3638.3123,1.1738540074874066,921.9846001371603
3639.1492,1.1724303351257515,802.5945355500502
3639.9885,1.1713239679864693,766.0416681651778
3640.826,1.1706227323299407,776.4991060215009
3641.6653,1.1704762641505766,662.8121254293899
3642.5032,1.1710971837750304,757.6416549989809
3643.343,1.1725530109907412,625.0595755308016
3644.1812,1.1746013946634357,639.457877964838
3645.0195,1.1768260406568491,684.7179734717713
3645.86,1.1788674173946756,630.4811030645259
3646.699,1.1804954188587593,731.7809818889378
3647.5398,1.1815929850659959,774.162071304749
3648.379,1.1821566959259824,624.4558186053648
3649.2202,1.1824320101130557,636.2900145965319
3650.0596,1.182880266965232,818.3948855829298
3650.8994,1.1839483110019424,799.2531214618223
3651.7412,1.1858233008100003,886.8257970803062
3652.5813,1.1883394390450455,642.563856110012
3653.4236,1.1910573406060028,809.9870246516259
3654.2642,1.193329165424965,607.5683649347666
3655.1067,1.1945985889023694,679.7778190367868
3655.9475,1.1947616070717217,748.5523051882483
3656.7886,1.1943955076890644,612.3315108671891
3657.6318,1.194425222717533,531.2697320465605
3658.4734,1.1954271897774276,698.2884707327514
3659.317,1.1971590379756674,730.8867626483212
3660.1587,1.1987347264518964,834.2650108267408
3661.003,1.1992572144068536,558.9779133067931
3661.845,1.198190394896258,693.2743735455133
3662.6875,1.1953207232909575,835.0339390728598
3663.532,1.1906882399240801,700.5539363794833
3664.3748,1.1849294340812622,684.2738581604706
3665.2197,1.179385572439402,759.7605077010737
3666.063,1.1756026374951483,883.2104129482037
3666.9084,1.174169111095735,756.3436282568598
3667.752,1.174338870455978,657.8250179956142
3668.5977,1.1747123715596781,545.6038334929124
3669.4417,1.174360650450363,663.6529088971861
3670.286,1.1733235507970936,703.5545979106859
3671.132,1.1723407733774505,653.3564290684665
3671.9768,1.1723568704070404,834.3491986633311
3672.8235,1.1740580784057846,781.8923942977149
3673.6685,1.1774426373466722,811.9160559459987
3674.5156,1.181648119013646,750.9083366146195
3675.3608,1.185268723654994,758.2527674506346
3676.2063,1.1872449471383641,769.6775821037284
3677.0542,1.1873852396421722,641.5639331941327
3677.9,1.1862381317288495,848.3741039585459
3678.748,1.1845680101230636,668.8519984656384
3679.5945,1.1830949502831092,743.3069284661689
3680.4429,1.1825201514659915,832.6834496857081
3681.2896,1.1835059191345547,783.2781556750814
3682.1365,1.1863190886777564,690.6187659071358
3682.9856,1.1904650453698025,699.7591914399355
3683.8328,1.1946222040333394,613.609938721049
3684.6824,1.1972219814811778,746.0335495374562
3685.53,1.197225985968152,643.3392675979647
3686.38,1.1948013029926692,608.1035206423521
3687.2278,1.1911742909839058,635.6888408496658
3688.0762,1.1877276094434694,1031.3455498518251
3688.9265,1.1852082346786124,830.4104554186979
3689.7751,1.1836832539956905,621.151647257532
3690.626,1.1830023616913918,704.4297065461486
3691.475,1.18312847737598,677.5889351381322
3692.3264,1.183999211510454,822.5498478574108
3693.1758,1.185401843075365,772.2826900308049
3694.0254,1.1871383511086604,694.8987928478832
3694.8772,1.189169683647723,693.4699350777431
3695.7273,1.1914419208488265,643.3694695845228
3696.5793,1.1936614222545432,603.7696285904076
3697.43,1.1953193704669665,700.1515919445288
3698.2825,1.196111822439122,668.4113128690149
3699.1333,1.1961405722637402,889.779618627293
3699.9841,1.1956203448370115,723.5840359526403
3700.8374,1.194327015471778,626.1398063887546
3701.6887,1.1915324061838974,586.1289005971815
3702.5425,1.1865917806685635,680.5073065040536
3703.3943,1.1797926903572702,712.2367636828629
3704.2483,1.172418232029859,822.9527945473129
3705.1003,1.1661544439602265,877.8237880938963
3705.9526,1.1619233153729167,951.1033790108195
3706.8074,1.159478110191561,705.7463940938662
3707.66,1.1579512327676504,644.636476031929
3708.515,1.156872858202111,809.8964504724975
3709.3682,1.1567130057114687,925.5976861764846
3710.2234,1.1583415645515218,691.3362441179268
3711.0771,1.1620892741895137,674.1267350291275
3711.9307,1.1673230314012035,678.8020689442848
3712.7866,1.172764850799586,672.3490989598097
3713.6409,1.177052928335128,804.2930122084649
3714.4973,1.1793505774923911,676.802763753329
3715.3518,1.1795645881011612,837.5239746771829
3716.2085,1.1783708845348322,751.3631541253371
3717.0635,1.1767840082491918,741.2425741842432
3717.9185,1.1755147692746881,923.1459566117293
3718.776,1.1746167547284947,718.7705090738417
3719.6313,1.1736903322547902,970.0999578314879
3720.489,1.1723553780280074,779.7997274279026
3721.345,1.17056593974628,780.9263107007303
3722.2031,1.168509783966191,656.3608324321584
3723.0593,1.1664300450327165,847.7680412176941
3723.9158,1.1645058208795338,648.3314567414906
3724.7747,1.1629210986514327,833.7748176792079
3725.6316,1.1619341936679148,696.7708880473976
3726.4905,1.1618054219060094,663.1558241562855
3727.348,1.162598778137569,629.3742200347581
3728.2073,1.1638746513139095,941.526796799125
3729.065,1.1646136465170918,786.8719667701891
3729.9229,1.1637157439972987,569.2559264395055
3730.783,1.1608106906328468,718.4037427886755
3731.6414,1.156775638017128,738.3024797924227
3732.5017,1.153290862626634,631.7909587535676
3733.3604,1.151854542450905,765.0310003450043
3734.2214,1.152843073876437,1053.2583893431217
3735.0803,1.1554083065432001,790.2677551817608
3735.9417,1.1581499943930702,688.6478554275262
3736.8013,1.15996048813983,771.6017595483648
3737.661,1.1605466777085984,882.0486001939734
3738.5227,1.160302305118596,912.6500735554866
3739.3828,1.1599511872395938,781.378577768403
3740.245,1.1601989480450876,806.9847754553053
3741.1055,1.1614279155055807,728.5904092083721
3741.9683,1.163491225031311,759.7196226364437
3742.829,1.165794505671482,604.4422467944148
3743.69,1.1677467682801135,553.0808622980582
3744.5532,1.1690110886115928,707.9198195257743
3745.4148,1.169281970273909,663.4270948907706
3746.2786,1.1680022240457941,637.5315259977314
3747.1404,1.1646253527782604,759.8417072997976
3748.0044,1.159320174877894,770.8053155985151
3748.8667,1.153433946039544,749.2091770405573
3749.729,1.1489622506856392,721.9971027042177
3750.5938,1.1476088352995475,803.6689318564258
3751.4565,1.1499904251385136,931.1080919457945
3752.3215,1.1554185635973853,737.0584051747394
3753.1848,1.16218204903627,600.2847352224892
3754.0503,1.168212378920477,708.091623543311
3754.9138,1.1716868623289016,780.79208594046
3755.7776,1.1718279017863045,735.9401873598334
3756.6438,1.1692033535743511,681.9378790782142
3757.508,1.1654534995549866,668.8171630955758
3758.3745,1.1622460396033913,615.2440662658872
3759.239,1.1603436591517222,876.6132186474563
3760.106,1.1593432250724485,759.055490174684
3760.971,1.1584084128713712,645.8763824942534
3761.8362,1.1571668779946707,904.7021616983561
3762.7036,1.1560481964879077,833.2169423826276
3763.5693,1.155811987455614,841.1326328743548
3764.437,1.1567882230090136,843.077432313713
3765.3032,1.1586059615920663,692.0010251047242
3766.1714,1.160591842616068,792.6519005236586
3767.0378,1.1622744391645075,713.5606181414353
3767.9043,1.1635063151745202,720.3483302340078
3768.7732,1.1641496827751228,833.5402216414891
3769.6401,1.1639228306147258,684.0336184563872
3770.5095,1.1627119219063091,824.5483692756571
3771.377,1.1609840906731115,633.1917241081879
3772.2466,1.1596756188228523,832.1471797235548
3773.1145,1.1595506425919748,780.4476761126112
3773.9824,1.1605736646271916,636.3104674337523
3774.8528,1.1620134590380498,637.7917293812499
3775.721,1.1631211835501991,752.4081629142107
3776.5918,1.1637969511775532,697.9989703052561
3777.4604,1.1645770138715206,1132.2759643017944
3778.3315,1.1660758367221984,619.5504829990183
3779.201,1.1683573076986031,775.0856472031955
3780.0703,1.1708897593165106,563.1213866111249
3780.942,1.1730548065746418,864.6396327979485
3781.8118,1.174649211119804,888.7982952856958
3782.6838,1.1758454510327587,721.9762357612037
3783.554,1.1766017284630805,750.772821516153
3784.4265,1.1763603179137385,616.5701613672419
3785.297,1.1744119281988588,722.5065217513574
3786.168,1.1706070863448337,786.8975396414403
3787.041,1.1656705983205042,688.8638546765377
3787.912,1.1609132545520842,802.744300281538
3788.7856,1.1574528160998443,659.1091291260176
3789.6572,1.1557078925933284,703.6870352429237
3790.531,1.1551242253362637,792.080984028048
3791.403,1.1544575531151997,727.946531150539
3792.2754,1.1523624438936173,902.5443757838588
3793.15,1.1480259087720965,802.5125615887704
3794.0225,1.1414795925801464,660.1013394649028
3794.8972,1.1333080836635645,926.9988016148884
3795.7703,1.1244323560750002,724.9979715573329
3796.6455,1.1158663841116758,615.7244376348979
3797.519,1.1088854301740467,915.3017206577482
3798.3926,1.1046986185369618,989.8391665894874
3799.2686,1.1040583339541177,816.9143807159354
3800.1426,1.106822312819722,844.3618249863919
3801.0188,1.1119577230721898,833.1197563499506
3801.8933,1.1180255406757282,810.5235728634291
3802.77,1.1240069228313605,881.4289455169117
3803.6448,1.1296680671816877,750.8150943421443
3804.522,1.1355395766443606,701.3792992780179
3805.3972,1.142235366898972,968.1211725213515
3806.2727,1.1500368923351845,788.6611670668187
3807.1504,1.1587260742983303,729.4415613403385
3808.0261,1.167716025386181,675.3927112687717
3808.9043,1.1764335949187783,717.4807185236648
3809.7805,1.1842459922121003,819.7102563453295
3810.659,1.190639925262728,646.8354607982066
3811.5356,1.1951274034997497,644.3208399371887
3812.4126,1.197491038308342,615.0033863648014
3813.2917,1.1978907341639677,664.11437721691
3814.169,1.1969350608702505,585.2464338693959
3815.0483,1.1954831350863753,705.062774405664
3815.926,1.1942689521672927,728.7474904111705
3816.806,1.1935576720736105,659.5721407926173
3817.684,1.193075826930444,576.9272996102502
3818.5623,1.1921461095839108,697.3366119503496
3819.4429,1.1899841618735676,584.3886370929697
3820.3215,1.1860679246905241,667.7021832607734
3821.2024,1.1803382874835207,718.7527164424102
3822.0815,1.1732824694290953,681.5752887191755
3822.963,1.1656075308837823,609.5008922861808
3823.8423,1.1580062017215222,808.094491791418
3824.722,1.1507147412106447,820.8509285032994
3825.604,1.1434310347278591,723.2710948287489
3826.4841,1.1355050606273216,794.6808008864684
3827.3665,1.1261836006661856,752.1251823735943
3828.2468,1.115181315898536,673.559739491831
3829.1296,1.10268941705114,718.4701747199683
3830.0105,1.0894342211101236,850.0296077321273
3830.8916,1.0760969210262363,793.0536055836384
3831.7751,1.0631238156831553,808.4755112284771
3832.6565,1.050843286930068,709.7973183652043
3833.5403,1.0394960644138795,868.2784538980586
3834.4224,1.029800434497802,836.2990731430642
3835.3064,1.022907290851912,805.3761201471074
3836.1887,1.0203546642069163,1030.9817443274912
3837.0713,1.0232980021077978,1042.642903703772
3837.956,1.0318259395377802,975.4631031857725
3838.839,1.044610104444116,928.5380747187113
3839.7244,1.059681761129708,994.2379794114207
3840.6077,1.0752305689783201,797.8177035575163
3841.4932,1.090439749847849,808.9125206539978
3842.377,1.10504813877743,809.9230060408313
3843.261,1.1191048697402743,835.5940423729485
3844.1472,1.132546535868161,733.3593762681322
3845.0315,1.1450600466182637,1004.270333230527
3845.9182,1.1563998118283363,708.5276924068918
3846.803,1.1663627475426688,649.176237595734
3847.69,1.1752585672224887,816.8812722599197
3848.5752,1.1837490188464117,625.9521388119371
3849.4604,1.1926591566065565,795.6613986468701
3850.3481,1.2024524523749773,830.6717514811851
3851.234,1.2128791400800096,748.8687818185947
3852.122,1.2232379113667127,573.850665449283
3853.0083,1.2325262272621125,697.9665545249835
3853.8967,1.2400849586383482,592.313997510908
3854.7832,1.245798051795712,584.2710798981108
3855.6702,1.2502728637552591,620.1906309228297
3856.559,1.2543730962535362,610.561046922552
3857.4463,1.2585915473546807,620.799073401751
3858.336,1.2627413770231724,713.9769719676126
3859.2234,1.2661013336334936,479.85402398490703
3860.1135,1.2681205778297284,631.0521614383896
3861.0015,1.2688091079073387,541.801123258898
3861.8896,1.2686574917079831,587.9305139757383
3862.7803,1.2680669224483578,571.4407993385341
3863.6687,1.266964282096396,634.2235700250873
3864.5598,1.2649283694018216,766.7107494589361
3865.4487,1.2617493830675464,807.4912650895933
3866.34,1.257730728153354,591.4718700604633
3867.2297,1.2535116942742615,632.8472447494502
3868.1213,1.2494054540787052,673.0489064762689
3869.0112,1.245141939761155,717.3905750297793
3869.9014,1.2400569555504684,532.7301236140063
3870.7937,1.2335967444831621,657.7466304354753
3871.684,1.225610046335081,669.4897383742625
3872.577,1.2161520863470805,628.4057152400081
3873.4678,1.2054785676960105,675.9217094112113
3874.361,1.1937185977188705,694.2044710116794
3875.2524,1.1809062665031194,667.5435535957572
3876.1438,1.166683938650339,663.7905988363628
3877.0376,1.15054609750866,688.2007598547646
3877.9297,1.132407316774752,790.5880334862056
3878.8237,1.1126367699028832,896.2329093044915
3879.716,1.0922346100495712,754.0300526822818
3880.6108,1.0720503846592655,868.7929017974739
3881.5037,1.0527051266904954,994.1459195686735
3882.3965,1.0341072917268441,942.586017563388
3883.2917,1.0157921146324187,1042.0006544335204
3884.185,0.9973952427410558,866.1453965355383
3885.0808,0.9784899340883244,1041.887740983133
3885.9746,0.958901358030042,1341.1528116873383
3886.8706,0.9384141302448588,984.5594559001369
3887.765,0.9176100591452516,1087.8391499034349
3888.6592,0.8981479254964541,1653.550049420116
3889.556,0.8829232005587921,1435.7360107947736
3890.4507,0.8752791288886226,1330.9430369717084
3891.348,0.8773728696187122,1586.9827876506909
3892.243,0.8893262299781907,1175.3192295154745
3893.1406,0.9094257177091836,1651.7547421350953
3894.0361,0.9349150292164021,896.5930473102563
3894.932,0.9633871606991106,1207.092972873332
3895.83,0.9930823417857513,883.2925306425416
3896.7263,1.0224897582372925,906.880181561556
3897.625,1.0506472123522426,1038.4678503873063
3898.5215,1.076633308366708,926.1504855397093
3899.4207,1.1002834108383235,853.531260718455
3900.3176,1.1215295903984712,801.7937589432972
3901.2148,1.1405549164504636,726.3007900463556
3902.1145,1.1574405396617375,578.8276094455821
3903.0122,1.1722927461844124,674.0646702092787
3903.912,1.1857688894875085,688.6280373963589
3904.8103,1.1987047479691084,749.4622848382
3905.7107,1.2119703630149188,676.5354498151853
3906.6094,1.225897808986527,723.0178231548518
3907.508,1.240430118005661,517.7982542899626
3908.409,1.255212652169554,685.986778239349
3909.308,1.2696501689273536,738.5442642314443
3910.2097,1.2832690649663816,665.8074687351177
3911.1091,1.2956610366729304,586.3817762675687
3912.011,1.3070166865143034,537.4239930622617
3912.9111,1.3179091378280654,666.4977945245867
3913.8113,1.3290502952998655,592.8870217001174
3914.7136,1.340550294957586,570.2942752706869
3915.6143,1.3515437467800926,434.48035282287054
3916.517,1.3608293476538729,485.3131156000516
3917.4182,1.3675924972379478,462.4511269905688
3918.3215,1.372139483591583,510.3437783315301
3919.223,1.3755808279623853,596.7261617546822
3920.1245,1.3791601389800643,526.730009170439
3921.0286,1.3835147429582384,532.5935599232507
3921.9307,1.3884300519420456,594.9039117614177
3922.835,1.3932489899345892,486.53921870008594
3923.7373,1.3974089303514008,525.9864093585783
3924.642,1.4010195884442747,535.5315856916241
3925.5452,1.4047825294338228,494.983211209909
3926.448,1.4094515848220586,512.2199663360403
3927.3535,1.4149923612207504,560.6653331542748
3928.257,1.4201823212141822,412.29367890668277
3929.1628,1.4233365653309105,478.729034978915
3930.0667,1.4234281996559615,495.4447212529456
3930.9731,1.4208556536176964,466.74202860127946
3931.8774,1.417058438466524,432.14817289957165
3932.782,1.4134100903024744,492.6625293073296
3933.6887,1.4103817852719713,467.9061075326821
3934.5938,1.407439181744255,489.61013623679
3935.501,1.403485480356147,504.9103593145102
3936.4062,1.3976105280034368,448.3306282574807
3937.3142,1.3895022969503086,509.5450851901294
3938.22,1.3796797906915952,495.6018009026245
