wavl,flux,ivar
4606.806,1.1188040872683662,235.3385236595219
4607.8687,1.2046072229678024,395.384343343567
4608.9287,1.2700097046980667,379.7335706423472
4609.989,1.310957408426662,302.9302041695762
4611.052,1.3304122835231809,316.0078040567972
4612.113,1.3349354941076126,396.81760211889235
4613.1763,1.3313899067652213,401.40558421055147
4614.2373,1.324765972698168,379.5211616594843
4615.3013,1.317772201489457,329.3152355931383
4616.3633,1.311491599729884,424.79956984825833
4617.4253,1.306048013753194,350.7423472490187
4618.4897,1.30122653253973,445.55091749973263
4619.5522,1.296828398201853,300.62791320758834
4620.6177,1.2927897610144867,365.1912676028571
4621.6807,1.289309848766059,441.3502186836423
4622.7466,1.286613974118715,362.9030000317421
4623.8096,1.284751149660727,382.6126353084353
4624.8735,1.2834139935396707,383.7842788283506
4625.94,1.282149629157874,375.74897946023566
4627.0044,1.2807200374467822,361.0085519686264
4628.0713,1.2793184757473306,405.32125068888627
4629.1357,1.278457138447143,416.81546462378077
4630.203,1.2785331147613328,374.87637734399493
4631.2686,1.279509861718616,399.99340770330684
4632.3364,1.2809447732097297,360.22898452000453
4633.4023,1.2822870304638974,408.0237444440108
4634.468,1.283173852643433,410.8484945925743
4635.5366,1.2834783225362756,382.86844585526296
4636.603,1.283221753300913,359.10077908600005
4637.6724,1.282525538820982,405.43328534997704
4638.7393,1.2816548610502774,362.81915150155504
4639.809,1.281043236015874,377.54165376650104
4640.8765,1.2811970278885365,361.8760871399054
4641.944,1.282408615111042,373.24727741699286
4643.014,1.2844999230360756,400.5352181220692
4644.0825,1.2867971646958862,396.9044265835978
4645.1533,1.2885546729119788,410.8595461250458
4646.222,1.2894750258310699,407.7886281639566
4647.2935,1.289984611615189,367.74669508025517
4648.3623,1.290883667099636,409.0120333640398
4649.4316,1.2926563294042175,390.7687381765675
4650.504,1.2949610916358751,381.536554813124
4651.5737,1.2967186137735958,414.6484433324575
4652.6465,1.2968203859711558,354.8529461349009
4653.717,1.2948445742720798,390.65247682739255
4654.79,1.2913421689038762,381.40216317296137
4655.861,1.2875526601584237,375.526653817199
4656.9316,1.2846723754507976,380.95054652819346
4658.006,1.2832666176940446,485.7825465060085
4659.077,1.2830688502246852,372.3977637390123
4660.152,1.2832803176551038,375.91781543873964
4661.2236,1.2832059041707722,390.1222060874083
4662.2983,1.282672146619846,422.34737299652807
4663.371,1.2819340700548854,365.0434649029171
4664.444,1.2812498731747306,347.98007194454834
4665.5195,1.280593856126095,402.21911201985273
4666.593,1.2797163433680248,381.33101928147414
4667.669,1.2783834674200991,374.619688946976
4668.7427,1.2766120489239443,377.1537363796691
4669.8193,1.2746872399066547,413.76762732766315
4670.8936,1.2730537056210154,420.4512382717562
4671.9683,1.2720464080931548,406.0009926552341
4673.0454,1.2717356932786261,360.32739824193413
4674.1206,1.2719125341702342,414.8315199303443
4675.198,1.272227029057238,457.0023693705622
4676.274,1.2724039587747868,404.9182547554616
4677.352,1.272454820562839,416.2925431978643
4678.428,1.2727501509772507,412.9767034776214
4679.5044,1.273818632680702,407.4558883957549
4680.5835,1.275921261943502,400.73969077184546
4681.66,1.2786815430414804,349.2489988583131
4682.7397,1.2811924762049398,336.4562825811003
4683.8174,1.2824359001477308,391.1477320332269
4684.8975,1.281835653214538,405.400448149232
4685.975,1.2795111598920046,379.78257240193653
4687.053,1.2762404724898317,363.1114006366424
4688.134,1.2731767814057526,461.97331060829055
4689.2124,1.271385664452027,412.4319940538856
4690.2935,1.2713016574428015,419.7194523603443
4691.3726,1.2725433761253977,397.5863915787766
4692.4546,1.2741188938856292,420.40656621658866
4693.534,1.2748377770907109,386.49898969864904
4694.614,1.2737360695289748,341.71491051786535
4695.6963,1.2703742027113976,363.12595063778406
4696.7764,1.2651217215103665,386.59742712852653
4697.8594,1.259053577621776,463.8695064418687
4698.9404,1.253563435488256,463.91135191562785
4700.024,1.249572098179287,404.2713743727262
4701.105,1.247201968569757,411.67794829498513
4702.1865,1.2458663171473636,364.4181699357569
4703.271,1.2448053493125533,447.45926973358246
4704.353,1.2435122772977125,436.13776557059856
4705.4375,1.2418799895889996,382.53880255927237
4706.52,1.2401642404734865,499.7957475460688
4707.6055,1.238763569725141,412.97735803208394
4708.6885,1.237991165324973,379.59299434234737
4709.772,1.2378503775644092,422.745350661722
4710.858,1.2380285758662175,376.52249951228106
4711.9414,1.2380634959959407,387.44975956176006
4713.0283,1.237588184061877,388.5587560841269
4714.1123,1.2364805992669619,453.70024991051486
4715.199,1.2348518226854692,440.4937409756451
4716.284,1.2330229829356245,425.48340255009975
4717.3716,1.2314687224046863,390.42814111187624
4718.457,1.2307126901718286,433.90292149995463
4719.5425,1.2310127270011293,422.3620250761229
4720.631,1.232139336570536,431.2105211196226
4721.717,1.2334530237335968,438.02571182379637
4722.8057,1.234320128452057,431.2821949097638
4723.892,1.234451602739502,410.1674648655626
4724.9814,1.2339579327879593,419.07424747035543
4726.0684,1.2330999704924113,430.39077718549015
4727.1553,1.2320050640771056,403.6314795246999
4728.2456,1.230586760058452,406.76676408054
4729.3335,1.2287204717791544,403.98246993454393
4730.424,1.2264468534301491,429.21375609065524
4731.512,1.2240840960696302,450.14538295487716
4732.603,1.2220416999463024,449.4412986124199
4733.692,1.220589856120359,462.12874770475645
4734.781,1.2196490207544466,422.7765369032321
4735.8726,1.218822976041344,389.3095732735016
4736.9624,1.2176050231856566,451.3099852303951
4738.0547,1.2156528325573535,405.543639448988
4739.1445,1.2130266400858623,400.29211406036956
4740.2373,1.210114590919874,414.6493657367829
4741.3276,1.2073550841207354,460.8046528788949
4742.4185,1.2048087552615974,418.7873173629684
4743.512,1.2021029865720607,385.30105778259815
4744.6035,1.1987928988063876,409.85083081616256
4745.6973,1.1947846298660396,443.1811825223852
4746.789,1.1905444512658596,453.94260318792436
4747.884,1.186737955869472,481.0833085584214
4748.976,1.183846029733708,416.39713150486904
4750.0684,1.1818720546323676,415.6637056092098
4751.164,1.1805013407343539,464.6414226107474
4752.257,1.1794276494805735,424.15864961355857
4753.3525,1.1785799017540053,416.9219510096774
4754.4463,1.1781525260637506,447.7561792319016
4755.5425,1.1783904734027162,452.6680476020138
4756.6367,1.179390038724695,471.13918611443967
4757.731,1.1810284481861895,511.6372046309019
4758.828,1.1829756736694081,509.10332212086297
4759.923,1.1846652498434318,459.3110169070069
4761.0205,1.1853844608963253,438.83854020692405
4762.1157,1.1845114537597285,432.21198674775474
4763.214,1.1818928870489842,537.9701880139513
4764.3096,1.1780307227085622,465.95880343801554
4765.406,1.1738334171685318,493.6349372216389
4766.5044,1.1701898079020907,489.8485871920865
4767.601,1.1675972524900304,512.2560296255645
4768.7,1.1659340694629905,485.38809958205485
4769.7974,1.164541148461045,452.80023000047555
4770.8975,1.162436061461117,463.011527885884
4771.995,1.1587882964007905,473.0496732111308
4773.093,1.1533610690847662,494.52841833442363
4774.1934,1.1467078682490437,468.40600477513226
4775.2915,1.1399674784364946,504.6737791857925
4776.3926,1.1341431883781183,470.39415100501157
4777.4917,1.1296974808011662,489.6304494647284
4778.5933,1.1263633114670497,530.9599584505744
4779.6924,1.1235523215266152,556.6470925807466
4780.792,1.1207051783687263,503.97164452818197
4781.8945,1.1174919904504288,511.20864291198217
4782.9946,1.1137949506876834,487.13647921282455
4784.0977,1.1096168074525972,494.7513146496155
4785.198,1.1052148752386906,441.2689603826177
4786.302,1.10104102031583,496.29545958775725
4787.403,1.0976548813665348,527.7490378139474
4788.504,1.095375637409381,544.8834511795542
4789.6084,1.0941474896776744,524.4027919894872
4790.71,1.0935762467873698,529.4960797290131
4791.815,1.0930854961392307,499.24438927349485
4792.917,1.0921414164287306,547.3175337474796
4794.0225,1.0903845584893894,547.4505084416666
4795.1255,1.08770920881522,483.0158288147104
4796.2285,1.084180655216257,537.9144428903195
4797.3345,1.0799008666413314,530.4984230844325
4798.438,1.0749299729805146,554.713504715168
4799.5444,1.069225149996069,538.2874794957303
4800.649,1.0628987740287315,586.5785305464632
4801.756,1.0562527050532988,590.3588523175291
4802.8604,1.049801359222166,568.0513201182515
4803.968,1.04392830351665,621.5907615144587
4805.073,1.0388328152832291,632.0909618387356
4806.178,1.0344014496275662,624.7837710269614
4807.2866,1.0302468718024036,597.2558039188501
4808.3926,1.0257773063502515,586.9246297022574
4809.5015,1.0202774727509463,553.0017489417166
4810.608,1.0133450274378797,650.6380598615415
4811.7173,1.005098197838335,688.3354334890349
4812.824,0.9963111855409746,684.9930460439305
4813.931,0.9878969776156227,761.5728517282745
4815.0415,0.9804543841593888,686.4148102844588
4816.149,0.9740705622134864,703.9422025196344
4817.26,0.9682779042091122,616.6476468972382
4818.3677,0.9625250120857302,637.9064480575261
4819.479,0.9563425035268378,644.7772418471409
4820.588,0.9496277312911025,713.9559223606269
4821.697,0.9424803491229173,725.7277979116113
4822.8086,0.9350296369707058,698.7613885677771
4823.918,0.9273093920416107,589.6982052336317
4825.0303,0.919162325498821,741.8708153045092
4826.14,0.910618920953091,886.8604335349802
4827.2534,0.9018859417584155,765.0255123425127
4828.364,0.893400165114113,769.9082970239118
4829.4746,0.885378661260091,817.9573367184116
4830.5884,0.87774540977882,867.9202827561991
4831.699,0.8702400737620216,815.7826336255997
4832.8135,0.862447158325155,901.7486134601824
4833.9253,0.8540890841964326,815.4310984642423
4835.04,0.844920215713887,934.4251342711308
4836.1523,0.8349492295623439,691.6055243843758
4837.265,0.8243230050766516,1008.9355260656922
4838.3804,0.8133375450901322,843.3118358998878
4839.4937,0.8023429124822451,1104.7666955954344
4840.6094,0.7914864430755651,938.2598834992473
4841.723,0.7809178647481078,1128.97185905236
4842.8394,0.7706750966316894,1161.3479960367388
4843.9536,0.7607670652692435,1007.1805430772373
4845.068,0.7508819092010489,1074.7000640310157
4846.185,0.7404513689681891,1246.6932673309407
4847.3003,0.7289909151978713,1165.389124068688
4848.418,0.7162452789135858,1272.9837585074572
4849.533,0.7024828983445225,1320.926736587717
4850.6514,0.688083496384578,1490.3730984376925
4851.7676,0.6734543087855523,1446.3065341603397
4852.884,0.6585939326172585,1788.813423478161
4854.0024,0.6432106127838492,1548.1983201710889
4855.119,0.6270341531449696,1663.064520626778
4856.239,0.6097525630434598,1829.5099013618542
4857.356,0.5913492829455659,1619.5569648334078
4858.476,0.571897875203829,2087.5770623453564
4859.5938,0.5523067444747825,2111.7186084170194
4860.712,0.5344775358413845,2533.845616393984
4861.8325,0.5214358340076122,2393.8453455220088
4862.951,0.5163070050722375,3677.243627729806
4864.0723,0.520558102186543,2902.031708378748
4865.1914,0.5331270585851308,2745.834605483356
4866.3135,0.5510491952932011,1852.8515939915674
4867.4326,0.5708126893801069,1770.8986060916798
4868.5527,0.5900346868086039,2637.038568633599
4869.6753,0.6077229483788477,1443.1420127981662
4870.7954,0.6239192885340173,1716.3197160387442
4871.919,0.6393385353361389,1563.7755525836822
4873.0396,0.654441388359464,1367.6489185874734
4874.163,0.669451428550532,1149.9720568824107
4875.2847,0.684100983999732,1571.5997048372903
4876.4062,0.6981475156571461,1257.2066704988829
4877.531,0.7114678644983308,1530.6253063586933
4878.653,0.7239119534873765,1442.8938886008714
4879.778,0.7354578703539381,1064.7417043682897
4880.9004,0.7460586328892904,968.6041695680507
4882.026,0.7559824396894853,1237.0728884114424
4883.149,0.7655600042796412,1105.2182575599552
4884.272,0.7751630863907315,1108.9199512143452
4885.3984,0.7849979253355761,1038.7109195803396
4886.5225,0.7949944253530312,1083.4998541876487
4887.6494,0.805035948905232,987.0231965086458
4888.7734,0.8148458167752588,867.9177837687171
4889.901,0.8243060489821084,887.5646315151249
4891.026,0.8333433310715128,920.4739496824511
4892.154,0.8421336354275152,911.6198006227719
4893.2793,0.8508106268650327,881.914051992851
4894.405,0.8594380163342373,1039.224467532707
4895.5337,0.867862909518156,895.4000648923906
4896.6597,0.87575932096472,783.3590873372782
4897.789,0.8830776126100869,871.2218865876466
4898.9155,0.8900403785933729,715.242531797779
4900.0454,0.8971442845458529,935.1089080381942
4901.1724,0.90462125845768,766.7661257031587
4902.3,0.9123713986626358,780.0561796816891
4903.4307,0.920057691984787,813.6190344084168
4904.5586,0.9273908075522124,725.1609639819837
4905.6895,0.9344982402235975,723.2209909245286
4906.818,0.9417332583797878,738.3784688850545
4907.9497,0.9495937606823751,682.3390035741744
4909.0786,0.9582810635590535,835.1923092570287
4910.208,0.9676364030739295,639.000493409899
4911.3403,0.9770563061640642,624.4503161387404
4912.47,0.985666717611342,665.3646633605412
4913.603,0.9928566210892672,633.8853401424548
4914.7334,0.9984356879278171,659.7218647873148
4915.8667,1.002827207621052,646.8849199494359
4916.9976,1.0067078594455294,667.066791657885
4918.1284,1.0106734952236276,621.5999797854612
4919.2627,1.0149178099810077,600.8297649611079
4920.3945,1.0192109099252615,622.1434469120397
4921.529,1.0232333005452647,580.9621023593065
4922.661,1.0267806515021949,599.1255907581603
4923.7964,1.0299512203102037,590.7979770280958
4924.929,1.0330306466504326,620.2603514468333
4926.062,1.036392112006871,628.6974335945982
4927.1978,1.040321262905591,549.2256445584756
4928.3315,1.0448571742748696,629.674106366463
4929.468,1.0497615124956097,566.2826917033398
4930.602,1.0544526572475423,575.9275880283615
4931.739,1.0582432739403946,530.8186128933033
4932.8735,1.0605733026776505,543.1032682828412
4934.0083,1.0613543346678147,544.9065566361037
4935.146,1.0610606766079522,584.1025493903433
4936.2812,1.0606171328142595,605.9183098977509
4937.4194,1.0610360176866653,548.1852401140452
4938.5557,1.0629683756015806,594.1735351595286
4939.6943,1.066438373926198,576.5561676548974
4940.8306,1.070910186071719,519.7549893253292
4941.9673,1.075744882577673,522.9735209147366
4943.107,1.0805814531988844,535.2203967899994
4944.244,1.0854209615197505,523.8348993511761
4945.3843,1.090521070382385,485.28836010831526
4946.522,1.0959896819003812,586.0534191686977
4947.6626,1.1016537958920527,531.8278107593738
4948.801,1.1069621665547613,516.7051714817959
4949.9395,1.1113277315919539,545.6094458863964
4951.0806,1.1144107044488316,443.99507555362885
4952.2197,1.1163173386572165,439.4040007027575
4953.362,1.1175868855202515,564.2936341480597
4954.501,1.1188883645681493,478.7736722974919
4955.6436,1.1207049852899038,484.223628281986
4956.7837,1.123048103817712,473.18119364574716
4957.924,1.1254764454104194,413.93149269263336
4959.0674,1.1273596255900795,478.8517072973152
4960.208,1.1282811688627399,473.152308154835
4961.352,1.1283457347189976,514.3831553966966
4962.493,1.1280541712462797,533.3152881770831
4963.6377,1.1279235345929852,560.2293287549761
4964.7793,1.1281826071765635,521.9181894949094
4965.9214,1.128788095823319,511.6420772762567
4967.067,1.1296504206087334,502.11151064949473
4968.2095,1.1307742184654619,464.22651256862474
4969.355,1.132243142938983,429.670209440258
4970.498,1.1340619702786499,459.75200207040996
4971.6445,1.1360974068194933,491.9186927935223
4972.788,1.1380991353100298,472.45660789431076
4973.932,1.1399172743013068,471.4485576867097
4975.079,1.141630594529214,498.3270650032605
4976.2236,1.1434911851839378,488.31657236022966
4977.371,1.1457026075695596,462.7162363920472
4978.516,1.1481173205396276,481.2593900133186
4979.664,1.150251203729342,478.65494559676023
4980.8096,1.151558268099921,462.57909092232956
4981.9585,1.1519164758050553,452.15639087867595
4983.1045,1.1518068912325694,486.40387689771546
4984.251,1.1520759969238263,465.03511680542164
4985.4004,1.1534374832358947,441.8382156692192
4986.547,1.1560878975238134,485.5591835884355
4987.697,1.1596812507134293,456.85432242923537
4988.844,1.1634504981752083,413.4562798201638
4989.9946,1.1665599090130876,442.9062035026018
4991.1426,1.1683674471857477,474.3667470586575
4992.291,1.1687211464750638,435.31303093807514
4993.442,1.1679592942255725,391.80401470007644
4994.591,1.1667464588676826,414.1562888747901
4995.7427,1.1657586694516577,450.67509687427815
4996.892,1.1653968740893046,455.7020932565715
4998.044,1.1655979565833072,471.5692529415854
4999.194,1.1659055296093739,463.84186037721736
5000.3438,1.1657673306096188,467.79853662633633
5001.497,1.164886692344684,451.67771605392966
5002.6475,1.1634147672292137,463.4897490396018
5003.8013,1.161831350887605,428.23521281087346
5004.952,1.1606784375133574,485.21179258894165
5006.1064,1.160227460536272,446.3428642599019
5007.2583,1.1603550157488052,509.02530150858513
5008.41,1.1606366923471818,466.5137074765432
5009.565,1.1606475661107487,448.07999009559563
5010.7173,1.1602174730016612,461.5068056745542
5011.873,1.159460490508439,470.8685063327905
5013.026,1.1586249692933537,469.9676101568168
5014.1816,1.157907767425493,460.3592704723546
5015.3354,1.157391303477733,453.69015111355196
5016.4893,1.1570465772373415,481.28751373666825
5017.646,1.1568138966505883,478.402155990593
5018.8003,1.1566976644399058,467.6927860336567
5019.9575,1.156801567114929,536.0087410173463
5021.1123,1.1572485077709365,502.5325375251602
5022.27,1.1580248005828588,502.85051511803476
5023.426,1.158890329214214,521.9752023589108
5024.581,1.1595033280653413,490.55390375408297
5025.7397,1.1596562719414973,454.9211723024438
5026.896,1.159430327597956,461.12549068334806
5028.055,1.1591405529533938,531.5598391226987
5029.212,1.1591319067723551,477.62293959874165
5030.3716,1.159589098260266,510.19998731897334
5031.529,1.1604694099788893,474.4696886223778
5032.6865,1.161560328223864,509.8128270441794
5033.847,1.1625815993773048,492.8612051780526
5035.005,1.1632864363328785,472.4788820510166
5036.166,1.1635754372715195,503.90213537489535
5037.3247,1.1635366880512115,517.1984787894683
5038.4863,1.1634261631414649,474.6780094753732
5039.6455,1.1635693924875354,459.5967865316007
5040.8047,1.1642399486915993,525.4937304139
5041.967,1.165542523194474,478.5901438785253
5043.127,1.1673075926664642,472.4471113150794
5044.29,1.169144477057794,426.6075161455188
5045.45,1.1706164595458468,434.16597614097174
5046.614,1.171497973884594,446.8179281507422
5047.775,1.1717830996437477,473.18765277714454
5048.936,1.1715573338258125,441.1413408369483
5050.1,1.1708726633479882,466.5622398835082
5051.262,1.1698004974467406,446.88795793249363
5052.427,1.168496928468682,476.5391973033818
5053.5894,1.1671888139071325,490.59802044317865
5054.7544,1.1660754459235796,470.27375732770923
5055.9175,1.1653271945387815,511.25956984747774
5057.0806,1.1650877304204024,483.56386603916917
5058.2466,1.1654481688590492,472.2267109355704
5059.41,1.1663675953738686,474.9964852533708
5060.577,1.167670987465821,482.7003933839445
5061.741,1.1690992407836172,467.6509948108867
5062.908,1.170382603151079,452.2502083190886
5064.073,1.1711669898525945,491.1836712279393
5065.238,1.1709501753479827,492.7902849468759
5066.4062,1.1691256534337433,477.1019385190901
5067.572,1.165350690503463,504.50239544632143
5068.74,1.1599762998116816,458.56142112724103
5069.9062,1.1542989282243412,467.36545944838696
5071.075,1.1500532327120847,445.13792982609095
5072.2417,1.1486424531931487,525.8167870871026
5073.4116,1.1503773600636655,515.1971926654793
5074.5786,1.1544476308329759,520.3923301860018
5075.746,1.159489984026154,431.16055587756
5076.9165,1.1642369120020815,512.5926181057648
5078.0845,1.1678302106714888,396.88450599285767
5079.2554,1.1699225775745035,483.3765734392364
5080.424,1.1705414904996585,472.79720395985703
5081.5957,1.1700736644425729,450.4907619861256
5082.7646,1.1691387201537924,478.519475256526
5083.9336,1.1683233767019197,499.3504790099598
