wavl,flux,ivar
3566.9744,2.0602489335365584,35.53789639534734
3567.795,2.0576270142259347,45.223895695283694
3568.6177,2.0546955427576226,40.975173617289514
3569.4385,2.0522192168780435,40.26609808088962
3570.2617,2.049988760936795,39.670051493562184
3571.083,2.0469138647419416,41.35982523293639
3571.9065,2.041669447445261,47.27883177646014
3572.7283,2.033501902017924,37.043225636695674
3573.55,2.022494863549811,30.780809197271612
3574.374,2.0095627323919087,37.38633830447572
3575.1963,1.996423011521961,46.06073484196956
3576.0208,1.9850858755692575,40.85393608559425
3576.8435,1.977484017077671,43.71747684689487
3577.6682,1.9743830587345448,55.669322585761236
3578.4915,1.9748738660929628,33.83509242093108
3579.3145,1.9767132667323901,41.2689238990551
3580.14,1.9778026321342046,36.22372805328103
3580.9636,1.9774841251727828,51.101185980458105
3581.7893,1.9766587694899376,39.40927974534485
3582.6133,1.9767611947505765,44.7305781258307
3583.4395,1.978553627125244,48.238952615529456
3584.264,1.9814941287940788,37.93232169835519
3585.0884,1.9840146511140473,32.36765133902156
3585.915,1.9845166824868512,40.97126769032454
3586.74,1.9824530808259695,36.68743441623755
3587.5671,1.9785498065041964,43.316379271317615
3588.3923,1.9739768600269554,49.48965955521737
3589.22,1.9692419810177402,45.55550461238639
3590.0457,1.9641224526228382,40.34744373911079
3590.8716,1.9582727943558793,47.12600646197565
3591.6995,1.9519029769893081,46.87095717208479
3592.526,1.945840899400503,43.68963273100173
3593.3542,1.941062602500918,56.1931061349223
3594.181,1.9383992219089543,49.53736363926674
3595.0098,1.938142018981286,53.14271299759294
3595.8367,1.939806495722084,49.40922526678224
3596.6638,1.942071248145173,38.53982869656191
3597.4934,1.943168848238981,40.478751051410434
3598.3208,1.9415864270174552,43.404821106572584
3599.1506,1.936746386223196,39.18349654488369
3599.9788,1.9293626146969578,39.772300451246366
3600.8088,1.9212145362184245,39.572673609198844
3601.6372,1.9146708102636691,54.17514807142215
3602.4678,1.9116470379426242,58.99214606322538
3603.2964,1.9127682186156556,46.76051866733352
3604.1252,1.9169297579972724,51.172809587710226
3604.9565,1.9219287703122254,40.07570028510825
3605.786,1.9256268797902352,43.95333622051994
3606.6172,1.9270340043429401,39.95343984958025
3607.447,1.9263388413369662,46.28487471919896
3608.2788,1.924340299110271,45.71016675012616
3609.109,1.921879113218249,56.02592803620347
3609.9392,1.9195990908932814,43.813615765892216
3610.7717,1.9178927702719286,48.040883556496006
3611.6023,1.9168497753469653,46.460188074386416
3612.435,1.9163080225710902,44.078411767441864
3613.266,1.9160549504600246,62.30436409196187
3614.0994,1.9158334606728666,58.76064113051454
3614.9307,1.9152056285059793,46.98560368907142
3615.7625,1.913534358407861,47.82899724844702
3616.5962,1.9101837408722502,40.864600316306465
3617.4282,1.9047464547773967,47.638684998498604
3618.2625,1.8969870858070794,48.66793047588686
3619.0947,1.8868984289551023,51.758223474731345
3619.9292,1.8747214203321259,45.449156897107436
3620.762,1.861579669361746,51.62043177176531
3621.595,1.8495168311060104,46.01570226082205
3622.4302,1.8409661533284656,54.14194933015471
3623.2634,1.8373810658204952,61.706642266951256
3624.0989,1.8380286227360538,49.2037549722771
3624.9326,1.8404375324169984,45.671412239676286
3625.7686,1.8420314421527244,43.80797645755415
3626.6028,1.8416803282116683,47.317735570399705
3627.437,1.8400298152561962,56.34574120942531
3628.2734,1.8384804135718344,34.891608605198826
3629.1082,1.8377619982970936,62.359050949677844
3629.945,1.8370254181043701,44.60066665716834
3630.78,1.8342039378314332,43.1239368617531
3631.6174,1.8274190188528376,55.44777736117412
3632.453,1.8166008067297057,68.42295557082988
3633.2883,1.8038008314176726,56.778932666747835
3634.1262,1.792135235987431,54.120638434332676
3634.9622,1.784143026570368,43.41789463926348
3635.8005,1.7802959818351909,65.01482018989354
3636.637,1.778980125836955,42.215497363483806
3637.4756,1.777278838546113,56.62180576839924
3638.3123,1.7725762327756132,64.19008774073961
3639.1492,1.7640423880014746,53.05366437741588
3639.9885,1.7532074441167884,58.56082302737854
3640.826,1.7432247220199957,58.13419865789423
3641.6653,1.7369164314778318,49.470630166097635
3642.5032,1.7355962009860095,52.489907323804594
3643.343,1.7388414813478734,47.59895242311905
3644.1812,1.7451617801495336,73.53149171410796
3645.0195,1.7525835944278816,52.0138813977175
3645.86,1.7589016754167661,54.873083131333125
3646.699,1.7620322501614816,42.830727587962336
3647.5398,1.7608679461367192,65.18811733892261
3648.379,1.7558979641683006,57.82744473505698
3649.2202,1.749050519419893,50.30338589130577
3650.0596,1.7427403963468147,46.47055331035558
3650.8994,1.73853573881317,64.69798089374241
3651.7412,1.7365814475926953,45.529975708991195
3652.5813,1.7356954240105444,53.53763981697118
3653.4236,1.7339708946046781,52.51991827466345
3654.2642,1.7297077558092557,56.390763215370754
3655.1067,1.7222889216899642,59.24730393587046
3655.9475,1.7128000366240377,74.08261880318435
3656.7886,1.7036629256328297,52.01628827004645
3657.6318,1.6975897653097076,66.26568271902867
3658.4734,1.6961531843730966,62.45114810410285
3659.317,1.6987142322696056,59.328685075919765
3660.1587,1.7026862650107988,88.57328459274216
3661.003,1.7050857129554664,56.78951867575025
3661.845,1.7044305246022033,71.15196250645278
3662.6875,1.7017286999303616,49.67067815116259
3663.532,1.6995555262638318,72.7733185975185
3664.3748,1.6999691633962257,70.14565905624944
3665.2197,1.702870155211347,61.07715469047954
3666.063,1.706197547772391,55.04104767073888
3666.9084,1.7077228487866813,47.352730276781664
3667.752,1.7067490867026018,66.31043564197444
3668.5977,1.7044337130317702,57.69045502234254
3669.4417,1.7025380580734697,78.98853175630407
3670.286,1.7017321395781801,54.55022925061016
3671.132,1.7009645675717406,52.12955782723188
3671.9768,1.6983857280484607,53.56458292193398
3672.8235,1.692998371354014,47.25790448153398
3673.6685,1.6855983094369469,51.565000705634844
3674.5156,1.6780053479680481,73.22559906051985
3675.3608,1.6717105885389476,55.864833054458714
3676.2063,1.666931146881361,67.80244745106324
3677.0542,1.6630668076452975,68.641241203443
3677.9,1.6595813167836981,59.184133479612214
3678.748,1.6563526941119904,54.77513004090069
3679.5945,1.6535876202592088,55.867839387841435
3680.4429,1.6514776942350673,59.4113805314645
3681.2896,1.650188410185205,58.57445320431799
3682.1365,1.649922526513993,61.39739172372284
3682.9856,1.6508949423300856,64.76256765837027
3683.8328,1.6529047655959288,81.85203113720894
3684.6824,1.654868905529372,63.61556833662004
3685.53,1.6549586291874179,46.57208543871449
3686.38,1.6517532036169362,54.85608978406364
3687.2278,1.6455028314349331,57.379605205990806
3688.0762,1.638186815888827,64.08374500254604
3688.9265,1.632265972959837,57.9137788684098
3689.7751,1.6291257199728095,65.38402537545818
3690.626,1.628294822713401,74.8038344324259
3691.475,1.6280346881529792,60.67228743490488
3692.3264,1.6265833208097018,53.89308745195846
3693.1758,1.6233619964644899,60.466290747635455
3694.0254,1.619302756664596,63.17898960120326
3694.8772,1.6161186703090795,67.0517030410135
3695.7273,1.614977660492492,86.00894430996387
3696.5793,1.6154575908696214,64.93003379414519
3697.43,1.6157419072871444,58.72944080325416
3698.2825,1.6139054506134132,52.51564615312493
3699.1333,1.6093923768733138,89.93973516716215
3699.9841,1.6035322720747958,72.55171988412468
3700.8374,1.5988271280852644,84.71377127171789
3701.6887,1.5975770407868386,70.51830071129065
3702.5425,1.6004910917340724,57.105798818880395
3703.3943,1.6061612139700345,58.08157350619548
3704.2483,1.611704367419279,55.42462117732614
3705.1003,1.614259471324707,49.253656784316554
3705.9526,1.6127137248292993,77.04896751142637
3706.8074,1.608111701516084,71.00945916771092
3707.66,1.6026006969146713,64.5010650767264
3708.515,1.5975267596053655,73.34414436860379
3709.3682,1.592664703771972,61.28966926999005
3710.2234,1.5868786887980106,68.52582002382147
3711.0771,1.5796508114210983,50.988506367898324
3711.9307,1.5716369551393201,64.63292169629506
3712.7866,1.5641393918456743,72.94769151869104
3713.6409,1.5583414301660252,56.89904205667551
3714.4973,1.55479696753247,85.92904531901851
3715.3518,1.5535104795592016,91.75943938587451
3716.2085,1.5538999969550935,65.9340617886407
3717.0635,1.5550000070861874,72.41400971932366
3717.9185,1.555859238053034,94.33236543201886
3718.776,1.5558462172429717,71.9910711832534
3719.6313,1.554630739968032,65.18254414861467
3720.489,1.5521276847231926,56.39309556870759
3721.345,1.5487526192187693,82.37607760379264
3722.2031,1.5456024525966279,57.718034629927516
3723.0593,1.5441511305567974,69.27362566897344
3723.9158,1.5452687965553094,74.72556442576081
3724.7747,1.5484676441162784,65.54359096266995
3725.6316,1.5519058742374474,63.700928540464396
3726.4905,1.553421907949557,60.8697489120424
3727.348,1.5517571174720162,61.64363316781253
3728.2073,1.5472881856167326,70.39212675998434
3729.065,1.5418211687121648,88.07442024676372
3729.9229,1.5375620893610151,80.76657697874609
3730.783,1.5359827503236525,110.48590835209546
3731.6414,1.5370319799625176,72.70816274075642
3732.5017,1.5391425247911739,62.15842543929825
3733.3604,1.540073297735671,62.22551909828166
3734.2214,1.5380648295364168,61.867311451878535
3735.0803,1.5326453161137523,59.749137890720725
3735.9417,1.5247166677047772,71.8780742754932
3736.8013,1.5161884101759964,85.50061570678004
3737.661,1.5090593779970007,87.66848197567798
3738.5227,1.5047050538966198,73.41501505016336
3739.3828,1.5034787716839053,88.48523521627656
3740.245,1.5046805084065478,83.51255875595466
3741.1055,1.506984175093225,80.06131430715581
3741.9683,1.5090743305386498,60.80308394278693
3742.829,1.5102335408640042,69.33480241397879
3743.69,1.5106255687081276,70.54175479608207
3744.5532,1.5108922441575687,99.61016689682755
3745.4148,1.5113743078235837,77.84892872361493
3746.2786,1.511564785996632,71.05659537765479
3747.1404,1.5102925619529477,89.27100466771995
3748.0044,1.5065565258317106,89.8701651158011
3748.8667,1.5004612311801258,68.26828061796887
3749.729,1.4934424819022036,84.16003636004308
3750.5938,1.4875853979005427,65.09910824242694
3751.4565,1.4843703722958355,80.52813533405413
3752.3215,1.4835996875696988,54.93593111622344
3753.1848,1.483688930471442,72.90523456962273
3754.0503,1.4829669485817911,72.68921934356716
3754.9138,1.480963610060378,83.44824260369897
3755.7776,1.4784647488309248,81.320718839423
3756.6438,1.4764484102086315,109.87663934311524
3757.508,1.4751233433272175,66.11256490748052
3758.3745,1.4740355776735377,83.48345731581264
3759.239,1.4730810927251856,84.0573942987809
3760.106,1.4730210110616013,76.45144463459333
3760.971,1.4747654321071668,81.25573222601012
3761.8362,1.478050435524671,93.07987904225797
3762.7036,1.4810518875496634,70.17250643367716
3763.5693,1.4815214784998645,67.8034565283011
3764.437,1.4785087636192942,81.1444011951604
3765.3032,1.4729117163225587,76.18834876073169
3766.1714,1.466451999545701,100.87150029051679
3767.0378,1.4604185972719903,75.43082840078819
3767.9043,1.4551844795742683,81.2645823667411
3768.7732,1.4507168351481303,65.19687800358035
3769.6401,1.4469774094726198,71.60787389708739
3770.5095,1.4437163400368316,99.88654757820753
3771.377,1.4404686928301866,82.066756693786
3772.2466,1.4368947469075009,87.6404861311909
3773.1145,1.4333306834488477,65.94787568658693
3773.9824,1.4306085410179612,114.83446823043553
3774.8528,1.4293869946796809,99.07650311777394
3775.721,1.4296371987370442,88.37540919168025
3776.5918,1.4308313000817299,108.89787653897206
3777.4604,1.4325442018151513,74.6361410997886
3778.3315,1.4346873489128644,81.82686710848198
3779.201,1.4370231788095704,92.4805130329971
3780.0703,1.4386897129751364,80.86464509920468
3780.942,1.4383824964136,103.55063553163552
3781.8118,1.4352504499084833,79.50708703910439
3782.6838,1.4296307736148097,71.12184942118635
3783.554,1.4230287891344895,82.18257092111598
3784.4265,1.4172241327693063,84.98574860397494
3785.297,1.4134549335634865,80.98146807796775
3786.168,1.4117868227236738,71.21731407392265
3787.041,1.411300513362713,79.52480009473288
3787.912,1.410769371267793,87.00315483946943
3788.7856,1.409428763583614,75.67619683370549
3789.6572,1.4072750661947164,91.56518642944125
3790.531,1.404718343255002,79.03183286755927
3791.403,1.40214180244283,79.18159822387919
3792.2754,1.3996461343247202,79.42837075914144
3793.15,1.3971116832325856,94.1104100673848
3794.0225,1.3943715988197203,72.659330643463
3794.8972,1.3913865622946309,91.28702599012527
3795.7703,1.3884851282661774,95.49751760958023
3796.6455,1.3862587138569418,89.70293133964856
3797.519,1.3852673038399819,96.17318497285206
3798.3926,1.3856459962873904,103.10738778669672
3799.2686,1.387020649730848,110.44712824818363
3800.1426,1.3885974887856642,89.38692668226884
3801.0188,1.3894026862006557,90.79627075228427
3801.8933,1.3885414932438092,88.1885756065859
3802.77,1.385488081835221,90.315134269144
3803.6448,1.380279207134554,125.75682029592015
3804.522,1.373465826571178,86.50414779868403
3805.3972,1.3660989764196394,94.19252145364786
3806.2727,1.3593426918184803,107.62250219780591
3807.1504,1.354078826399768,93.74550311560745
3808.0261,1.3505561154247574,91.53486786102313
3808.9043,1.3483650541643466,75.79290677594778
3809.7805,1.3469906615166447,90.69898266098113
3810.659,1.3462302595821392,87.65361142931772
3811.5356,1.3462947600899995,92.53849917900445
3812.4126,1.3474997258978072,98.2071334410565
3813.2917,1.34991059694013,87.3022203134536
3814.169,1.3531352136581225,86.86889376555933
3815.0483,1.3565247292077338,77.85604409711692
3815.926,1.3595214700326983,92.73078452994099
3816.806,1.3619836576285316,113.89748899379708
3817.684,1.3639563158495778,84.99510095689311
3818.5623,1.3652860727518157,102.87914490001312
3819.4429,1.3654880544255557,84.97305055022206
3820.3215,1.364190876820674,80.94763715610806
3821.2024,1.3616703070752587,95.7259849499944
3822.0815,1.3588252989290672,107.5237944123935
3822.963,1.3564388601418826,89.06923810073229
3823.8423,1.3545337961459911,112.60066681452348
3824.722,1.3523384133715857,105.50738435243068
3825.604,1.3489271298187335,90.95507170575682
3826.4841,1.3438620652839317,97.1101103954129
3827.3665,1.3372559480677666,91.71156108753901
3828.2468,1.3296016527176706,89.32869808621734
3829.1296,1.321400791028838,91.70402320039835
3830.0105,1.313312586457455,102.51682865791527
3830.8916,1.3060991380988307,110.32670866122913
3831.7751,1.3005230010713145,112.40242012827333
3832.6565,1.2969234915385808,101.31498695511394
3833.5403,1.2948136089191256,111.74255606931919
3834.4224,1.2931975343358841,94.77890207697311
3835.3064,1.291188694301312,113.17416710126454
3836.1887,1.288606349506652,83.88822899328862
3837.0713,1.2859673841888317,85.83331090998819
3837.956,1.284020346239157,95.79375451177799
3838.839,1.2831668343797493,107.92144559762873
3839.7244,1.2831786628137685,88.37931750269523
3840.6077,1.2834967662761636,110.09340566660045
3841.4932,1.283815596484274,123.30638822689505
3842.377,1.2844441522599646,108.30055654441396
3843.261,1.2860998978586822,111.91661791130905
3844.1472,1.2892921522782677,89.67046463605197
3845.0315,1.293750560067855,103.02336900156268
3845.9182,1.2984294359742892,116.061288264587
3846.803,1.3019037312560695,101.64521604180482
3847.69,1.3031766483619471,113.9846202427761
3848.5752,1.302223549676926,107.77520621694863
3849.4604,1.3001308985098459,104.47252288281733
3850.3481,1.2985335384435466,122.15310743602075
3851.234,1.2986961240890187,92.42453035455503
3852.122,1.3007779759336888,111.96371598571038
3853.0083,1.3038726080012042,64.64050036645273
3853.8967,1.306789683152037,119.57669355679887
3854.7832,1.3088338300171862,92.03106804422148
3855.6702,1.3100934810870202,111.26488971141052
3856.559,1.310999462273352,122.49807780684002
3857.4463,1.3117885403919824,98.9213059684474
3858.336,1.312358539913892,93.67225297053169
3859.2234,1.3124429347993536,95.08124994996157
3860.1135,1.3117987215378826,101.53875732239342
3861.0015,1.31031047148431,99.15715323106751
3861.8896,1.3081910783714583,92.79157573374161
3862.7803,1.3061661909020812,98.99109272894783
3863.6687,1.3051965849651794,97.3592533602657
3864.5598,1.3056398341273343,115.18671582025698
3865.4487,1.3067108193418466,113.40399184439433
3866.34,1.3068934192222923,84.54060249011853
3867.2297,1.3050128574835378,92.40092711345294
3868.1213,1.3009302925993542,96.28369580946759
3869.0112,1.2953183613562236,81.12171987502894
3869.9014,1.2888832298556814,115.26936835705565
3870.7937,1.2820161184931662,89.40848790286337
3871.684,1.275066888556175,98.4728519395356
3872.577,1.2685415837422929,111.43060593546484
3873.4678,1.2631243621458124,127.08562895880966
3874.361,1.2590593187787544,106.35729711534869
3875.2524,1.2558414672843832,94.01735434384044
3876.1438,1.2522318604535907,111.2323499917002
3877.0376,1.2468782968924403,146.47095746053265
3877.9297,1.239096397325602,118.010224150106
3878.8237,1.2291763778193805,95.18174391246097
3879.716,1.2182916561735528,134.56960890391903
3880.6108,1.2076404710822044,106.41197262984063
3881.5037,1.1979374401423077,124.3232026793418
3882.3965,1.1889908875652486,123.79387481298033
3883.2917,1.1800287072133997,153.2970997645453
3884.185,1.170255395360659,117.25140065774518
3885.0808,1.1591941269243917,125.32511279676346
3885.9746,1.1472544468473251,136.76866344133086
3886.8706,1.1355687414002686,135.09397111293148
3887.765,1.1258054192455391,136.18887251481559
3888.6592,1.119328069751038,157.30808591386761
3889.556,1.116777878324472,172.50752480077313
3890.4507,1.1179524969721963,105.13336470842816
3891.348,1.1219837473960932,134.2955733357607
3892.243,1.1276433624643214,143.84339290688104
3893.1406,1.1337792025959836,158.72417520006383
3894.0361,1.1396191659152701,132.24812150148196
3894.932,1.1451487866572063,105.51152479514492
3895.83,1.150898095541909,131.69679659846855
3896.7263,1.1573689284946382,133.37478059754795
3897.625,1.1646735909532702,125.71231655685123
3898.5215,1.1723862959741789,140.42384786474034
3899.4207,1.1800516090785402,90.59317649264293
3900.3176,1.187388661699382,194.88968582558238
3901.2148,1.194504310177967,110.91805234760214
3902.1145,1.2016152325735614,121.83623074189094
3903.0122,1.2087618891378218,116.36231646841823
3903.912,1.2158506321172784,106.74780041409007
3904.8103,1.2225532845270024,116.79696726477502
3905.7107,1.228453544931921,130.6016490655185
3906.6094,1.233038734392539,106.0784083290686
3907.508,1.2361326165023991,111.63989220669448
3908.409,1.23826146822263,129.1966560584211
3909.308,1.2406557438840193,109.12364715845573
3910.2097,1.2446206403592017,120.83363767413978
3911.1091,1.2505457081441962,116.3368722141451
3912.011,1.2576194365775313,97.37768818263424
3912.9111,1.264318404874067,87.62426947312792
3913.8113,1.2695775403731269,127.10265314274031
3914.7136,1.2733041298422192,102.57365566935997
3915.6143,1.2760283015917375,131.989278435847
3916.517,1.2782488436091712,104.77243918065989
3917.4182,1.2800458881773782,108.41028039582382
3918.3215,1.2812892244751186,94.33755005545959
3919.223,1.2818532938568432,89.62474478461759
3920.1245,1.2816572716991708,89.00125517907652
3921.0286,1.280580203458812,111.1422298850665
3921.9307,1.278577583336584,103.53018190954785
3922.835,1.2758923256171883,113.15878283286916
3923.7373,1.2731637087408345,104.83558855204802
3924.642,1.2711216632728377,128.91294134822735
3925.5452,1.2701925524886557,102.61246705121015
3926.448,1.2702013394549814,109.01090226652882
3927.3535,1.2705386497049518,122.61436985100508
3928.257,1.2705842413692376,93.29704672128533
3929.1628,1.270053233345157,103.35477410777311
3930.0667,1.2689550429041985,108.73798931731652
3930.9731,1.2672890841649083,99.33598051549835
3931.8774,1.2649673160716055,87.13482155422804
3932.782,1.2620656023409653,91.89633275755568
3933.6887,1.2591233138902973,95.61078932141015
3934.5938,1.2569919825818814,101.140599193339
3935.501,1.2562021677248567,110.75612802367547
