wavl,flux,ivar
3566.9744,0.8756492029160798,874.9088947217898
3567.795,0.8736411677488305,784.1484302470407
3568.6177,0.8721486081818258,902.898063332918
3569.4385,0.8709363692051639,1086.8167505207407
3570.2617,0.8699834577061512,1021.0378545583382
3571.083,0.8696942969131061,785.8712769741473
3571.9065,0.8707081528302373,984.6938488053268
3572.7283,0.8733925664346465,889.240551885569
3573.55,0.877408726062518,844.0066177432203
3574.374,0.8817502607665069,666.8815082653989
3575.1963,0.8852251886282212,580.5149423693682
3576.0208,0.8871491944986086,1172.0514470340793
3576.8435,0.8875617690296436,1503.1739609914644
3577.6682,0.8870512118551078,767.4696998850627
3578.4915,0.8862681613073956,1314.8474384187891
3579.3145,0.8855620466664238,800.9112886133144
3580.14,0.8849550443519479,807.0475125096875
3580.9636,0.8843718404192341,1205.5940438953626
3581.7893,0.8838252066925539,846.66344044923
3582.6133,0.8834615244955705,952.3725767386892
3583.4395,0.883526439953719,1058.2132321322351
3584.264,0.884344996141904,841.0158429510534
3585.0884,0.8862011796803262,1077.3513621766733
3585.915,0.8891208064785243,1011.1871502385823
3586.74,0.8926816924340671,830.2557971799199
3587.5671,0.8961293460812441,897.0722460454365
3588.3923,0.8985627367344535,820.3123090915401
3589.22,0.8992880274733949,783.7107378914272
3590.0457,0.8980286870373433,629.5060983964518
3590.8716,0.8950863252432872,817.1670156440308
3591.6995,0.891276698290613,836.1129752993446
3592.526,0.8877129350147058,841.2776822466868
3593.3542,0.8853345966179578,1207.355387995638
3594.181,0.8845632990889155,1125.0680312084178
3595.0098,0.8851820266644979,853.7275476177429
3595.8367,0.8866804894447636,1346.8993597957704
3596.6638,0.8886906696999074,906.9580774822612
3597.4934,0.8910785702557514,798.8708248902877
3598.3208,0.8936413615832458,712.5281674742628
3599.1506,0.8959487645646418,750.0226305539779
3599.9788,0.8974892410444772,879.4976996706836
3600.8088,0.8981009211572112,568.6804666749505
3601.6372,0.8980247609247026,1508.0827469423248
3602.4678,0.8975311640018073,938.2527297973494
3603.2964,0.8964879078159951,812.2996786067245
3604.1252,0.894422558473376,746.3093099376023
3604.9565,0.8911180084734094,1344.7502034118288
3605.786,0.8872198342097313,965.6685324072447
3606.6172,0.8840920444427115,925.5373213308953
3607.447,0.8830760715048789,878.4726392141465
3608.2788,0.8845198032025762,795.1563257181876
3609.109,0.8874781701706755,932.5407279768363
3609.9392,0.8903524284340512,978.7704355311946
3610.7717,0.8920172620738525,829.0244701974307
3611.6023,0.8925183553928634,1137.1217930596133
3612.435,0.8927297135990832,897.805504279396
3613.266,0.8932847550359235,908.7587490311471
3614.0994,0.8939608866569221,764.620785267488
3614.9307,0.8940266938346262,757.7083519670265
3615.7625,0.8930070804630242,793.6074963093279
3616.5962,0.8909351968471196,947.0276725815324
3617.4282,0.8880290942805965,927.8477518893148
3618.2625,0.8843175097739921,815.0058888220022
3619.0947,0.8798648512841216,1121.7548521934114
3619.9292,0.875142593965957,940.746321942235
3620.762,0.8711953176021444,1006.9393906026305
3621.595,0.8690636974932883,981.4463168285846
3622.4302,0.8692029873379531,908.1024600330484
3623.2634,0.8712489327485052,847.1388989108954
3624.0989,0.8742598925821486,700.035946769194
3624.9326,0.8770491748656198,996.0511256477679
3625.7686,0.8785992820957693,794.6756047054071
3626.6028,0.8784437030022314,779.2283249592937
3627.437,0.8769593648048443,753.2392285988283
3628.2734,0.8750957556009499,943.7307531909672
3629.1082,0.87376173293076,761.8145180462891
3629.945,0.8733194090708827,725.4467717978916
3630.78,0.8735925436997849,1002.7083452315355
3631.6174,0.8740967977596741,763.4166567838246
3632.453,0.8742871131877706,1066.9120963482355
3633.2883,0.8738304496382716,1064.6262339556824
3634.1262,0.8728412710069697,1262.4951583022314
3634.9622,0.8718961716174513,1137.701179470264
3635.8005,0.8716946553710134,816.1878266510472
3636.637,0.8726821825327105,1922.3749299970186
3637.4756,0.8748875098517035,665.8966322439092
3638.3123,0.8779713215557965,967.5159052395211
3639.1492,0.8813680726244044,1206.903289026575
3639.9885,0.8843436629716126,1612.0096261828214
3640.826,0.8861015507053928,1124.015514436155
3641.6653,0.8860843717459826,988.1986350824193
3642.5032,0.8841830255415155,992.010113883743
3643.343,0.8807926669519057,1086.1671144010945
3644.1812,0.8767449141232693,865.8243914504559
3645.0195,0.8731140259612166,754.6492007421721
3645.86,0.8709455263068444,997.8042515028255
3646.699,0.8707197673499985,916.3963573862698
3647.5398,0.8718848737345865,805.4985178131494
3648.379,0.873151197257625,928.2702257810477
3649.2202,0.873510505609136,766.2827342409062
3650.0596,0.8730723968772295,851.7215310200622
3650.8994,0.872887737792949,870.1467420097166
3651.7412,0.8739158816181828,999.1727688751994
3652.5813,0.8761471994127432,800.0849911125023
3653.4236,0.8786302627433891,675.6874866760999
3654.2642,0.8801099277390361,860.4360980410477
3655.1067,0.8797608996220596,1096.5430056048697
3655.9475,0.8775385467286528,847.6947911120076
3656.7886,0.8742112346423468,870.5146942427325
3657.6318,0.871074531682102,1520.0346709475155
3658.4734,0.869408566104052,1185.5989941288144
3659.317,0.8697880577914762,1057.6135999963926
3660.1587,0.8718044503709756,819.5611413266691
3661.003,0.8743650705613554,871.5721046177562
3661.845,0.8763670304353242,1067.3964952190306
3662.6875,0.8773888928607698,1141.8934067155653
3663.532,0.8778571216524872,938.0013750065593
3664.3748,0.8787040261563583,782.4290845967281
3665.2197,0.8806915740082968,997.9627943901697
3666.063,0.8838196579490836,1097.3378481942086
3666.9084,0.887326639275403,658.5031792851603
3667.752,0.8901612061108424,1087.333196189992
3668.5977,0.8917329987851937,852.6274310349446
3669.4417,0.8922556483417876,738.8290327664183
3670.286,0.8926172635711859,1472.4483749380283
3671.132,0.8937397886706541,1015.0318980097511
3671.9768,0.8959218660191413,857.2452118055606
3672.8235,0.8986807848406049,626.3924304823761
3673.6685,0.9011021386125783,872.5613107118158
3674.5156,0.9024201228434992,891.2914685058767
3675.3608,0.9022892307244827,990.9247522833635
3676.2063,0.9008183479923092,961.5798448761249
3677.0542,0.8983854511240795,805.3345344004736
3677.9,0.8954860096416986,946.5464383392638
3678.748,0.8926160875393351,991.2852613539474
3679.5945,0.8904105484525757,969.0460729119369
3680.4429,0.8896191078474062,908.113031174832
3681.2896,0.8908728237008181,1187.3288351546348
3682.1365,0.8941866231357776,910.8455414863732
3682.9856,0.8986740747254751,865.4765738411379
3683.8328,0.9026916423801282,869.4916434693779
3684.6824,0.9045606566069927,677.0252955550067
3685.53,0.9032255135112229,1156.4305398032513
3686.38,0.8986609848948717,795.7575839390697
3687.2278,0.8918204643147997,841.5787247923911
3688.0762,0.8842155719137146,846.3173928852553
3688.9265,0.8774922230201476,1357.1103518040331
3689.7751,0.8729569372893824,988.6800157731834
3690.626,0.8710528744559365,1297.2228825631946
3691.475,0.8713742911926442,926.1639045360608
3692.3264,0.8730682353521405,977.37363359839
3693.1758,0.8754764043697777,925.8314292251201
3694.0254,0.878479198784365,950.8855639455014
3694.8772,0.882267144958382,878.4660405846521
3695.7273,0.8868092878022428,811.3879872214019
3696.5793,0.891629936285376,1068.1562322782238
3697.43,0.8959147937627712,793.3785412296811
3698.2825,0.8990487307619097,1090.6038968937883
3699.1333,0.900895128288339,817.484429855962
3699.9841,0.9017854174246612,900.9891346711094
3700.8374,0.9021114182666508,1290.9876934724896
3701.6887,0.9019965744969092,757.8329550025215
3702.5425,0.9013016799794106,728.33889112611
3703.3943,0.899909181317283,808.0208247753327
3704.2483,0.8979315240217427,777.9330740849696
3705.1003,0.8956409982648688,987.1954016369925
3705.9526,0.8931171374202971,1033.7308192279374
3706.8074,0.8900960665454574,965.4733491974479
3707.66,0.8862717885421756,981.0415397030891
3708.515,0.8817386883749312,1024.9943531453396
3709.3682,0.8772939236560051,1177.3320096806153
3710.2234,0.8740696598207762,963.4552847097642
3711.0771,0.8730740330200631,989.9488162362157
3711.9307,0.8747398873231343,972.5498663987294
3712.7866,0.8787455843006345,937.2025066036592
3713.6409,0.8838601970347473,994.6498555566577
3714.4973,0.888257742220634,748.3241414665506
3715.3518,0.8902451195305788,628.9854079004127
3716.2085,0.8892919758802009,939.6194371034115
3717.0635,0.8862750390607833,1010.3274263020389
3717.9185,0.8827585626821353,1425.1422032094938
3718.776,0.8799295877573781,832.6072044308148
3719.6313,0.8781479904656462,1005.3287311134541
3720.489,0.8772269131923891,770.515171673664
3721.345,0.8770660334907756,805.3638040911148
3722.2031,0.8778598258335423,1154.045348559765
3723.0593,0.8798220048968819,1004.5931738901277
3723.9158,0.8828095473217142,768.0327691633076
3724.7747,0.8862804494571386,836.1629230900805
3725.6316,0.8895895028457608,917.2186008305235
3726.4905,0.8924218443317407,890.1976438891579
3727.348,0.8948336951907893,888.9337382938232
3728.2073,0.8971021464193271,790.4496658505907
3729.065,0.899359029378645,849.0251371769984
3729.9229,0.9013539713888545,753.8069128626958
3730.783,0.9023870123773284,788.0191402407252
3731.6414,0.9016271677759256,906.4674253902213
3732.5017,0.8987405815965571,956.6135395678612
3733.3604,0.8943872654648669,784.747816130609
3734.2214,0.8900012565602827,1205.4129971812686
3735.0803,0.8870230318703219,833.7435423188876
3735.9417,0.8859818608526232,1003.8038835411875
3736.8013,0.8863910349450043,885.7935185484009
3737.661,0.8872323168122791,1077.3749172478645
3738.5227,0.8875911096428346,973.3286325017912
3739.3828,0.8869376843534874,1200.7545662083342
3740.245,0.8851173417112047,740.418033557015
3741.1055,0.8822852409942259,1028.5443548196565
3741.9683,0.8788103423812577,1162.2176140002275
3742.829,0.875247144160222,850.608015027008
3743.69,0.872194158601409,1053.5487055770975
3744.5532,0.8702784738368828,1045.6825920426231
3745.4148,0.8700819638173725,865.7422941197258
3746.2786,0.8718697704257679,901.3601032527315
3747.1404,0.8753030989795046,1031.4955338424547
3748.0044,0.8794853520280729,772.1704349168149
3748.8667,0.8833458251293211,895.1637824579366
3749.729,0.8862328111453383,956.9476129759915
3750.5938,0.8880786161493716,802.6371512140914
3751.4565,0.8892092437710327,790.999625986328
3752.3215,0.8900845830423545,996.193680648403
3753.1848,0.8910512807160259,1041.1728469888417
3754.0503,0.8922228746293533,728.2064437769828
3754.9138,0.8934516828774428,1081.734941917928
3755.7776,0.8945314703162808,1055.0111153468688
3756.6438,0.8953968107560023,984.2483663502805
3757.508,0.8960841890732589,776.2060783774286
3758.3745,0.8965073931285666,897.7516561491584
3759.239,0.8963600852630386,757.8843286932935
3760.106,0.895380987127855,907.9703332991742
3760.971,0.8937008047681196,716.8163280778688
3761.8362,0.8918424202822475,986.7428332787501
3762.7036,0.8903402703430894,1255.2793573413396
3763.5693,0.8893081466193756,591.854166522951
3764.437,0.8883337655709477,827.482433907122
3765.3032,0.8868633295627282,813.0325162617597
3766.1714,0.8846382021926711,1082.1647293348099
3767.0378,0.8818392239494919,1216.5580803101302
3767.9043,0.8788024953756194,933.70029439419
3768.7732,0.8757691877875472,1186.8496635124236
3769.6401,0.8729345984425321,835.3404464121415
3770.5095,0.8705811144987644,1000.6359699704542
3771.377,0.8691963691616096,897.8944181149958
3772.2466,0.869239693837336,702.884188607734
3773.1145,0.870816248813732,936.8654175490542
3773.9824,0.8734270279742059,982.4982061594316
3774.8528,0.8761142378920029,858.2883960518232
3775.721,0.8779581704651265,998.9932215944258
3776.5918,0.878721939272239,824.2845011734315
3777.4604,0.8790624294949521,906.2103297061828
3778.3315,0.8802492687144279,892.1671260644034
3779.201,0.8833977899279805,818.8961400941236
3780.0703,0.8887126435419133,807.2182411331495
3780.942,0.8952406799750763,1060.6223128254185
3781.8118,0.9012919800941467,850.9428595642688
3782.6838,0.9054191596292075,757.0458480396446
3783.554,0.9069748364991191,885.7249242426207
3784.4265,0.9062935951678002,996.7020110072378
3785.297,0.9043860130308323,719.852120233681
3786.168,0.9024881745892482,870.5348639069965
3787.041,0.9014991250393035,852.7036414636859
3787.912,0.9014920452294275,902.8578882037091
3788.7856,0.9016678301617638,750.8242953287576
3789.6572,0.9009345671737055,819.9232951924624
3790.531,0.8986300604437639,707.0577645668629
3791.403,0.8948265998966469,914.4945808380093
3792.2754,0.8900189058545338,791.1746189224903
3793.15,0.884663740926175,828.7293965541649
3794.0225,0.8789796440545479,1087.9210853933262
3794.8972,0.8729295681791928,970.9925199609413
3795.7703,0.8666207440153559,825.2610856174181
3796.6455,0.8605582372104457,885.7552225769539
3797.519,0.8559514633812688,893.7372153201533
3798.3926,0.8543554384102288,943.1877017156187
3799.2686,0.8569485959145775,870.2067392599007
3800.1426,0.8636126281637488,809.0880023698942
3801.0188,0.8727259204801219,711.9345449852025
3801.8933,0.8817070876795564,870.198385154457
3802.77,0.8883378712248355,922.8846235838107
3803.6448,0.8916142736441599,955.4297338181315
3804.522,0.8921282563921615,639.765469666386
3805.3972,0.8914778283277511,851.1819592400187
3806.2727,0.8913501243327459,1028.5955399644536
3807.1504,0.8927530354610745,1024.165788952052
3808.0261,0.8958227924637537,768.9713327490581
3808.9043,0.9001662162462608,884.6886400520779
3809.7805,0.9051628351116088,1230.189508300356
3810.659,0.9101825006799948,752.2665406309329
3811.5356,0.9145110426581325,927.8436929189246
3812.4126,0.9175346432125332,848.3223051928218
3813.2917,0.9189245631447793,678.1705436290214
3814.169,0.9187965190108157,814.43172211038
3815.0483,0.9176348866482623,654.2416537924711
3815.926,0.9160483249408592,1044.2010364906714
3816.806,0.9145787604579428,919.4188699982464
3817.684,0.9136081175809058,945.4470585947008
3818.5623,0.913165438061761,988.4507901613044
3819.4429,0.9128396284713793,846.4459374430701
3820.3215,0.9119903873466824,763.8111320038751
3821.2024,0.9101725057270733,837.7585101958853
3822.0815,0.9074043968687355,813.0483799880207
3822.963,0.9039894238176246,1147.7557195186005
3823.8423,0.9002283777159076,748.4962490002279
3824.722,0.8961615046910248,947.9281958759
3825.604,0.8915982135587408,712.4576012715505
3826.4841,0.8862600278668832,972.8035472440897
3827.3665,0.8798056479321381,1033.200368462612
3828.2468,0.8720693794389539,777.6903160943781
3829.1296,0.8630868298998446,1053.897845249949
3830.0105,0.8532929063337027,1147.2664851097074
3830.8916,0.8432312113261278,1077.9877711841464
3831.7751,0.8334198071102449,723.5359594270933
3832.6565,0.8243756411040467,946.8179815419635
3833.5403,0.816549212964983,942.7131255043233
3834.4224,0.8106151850602188,1034.4988390220965
3835.3064,0.8072822887665458,993.2966552332861
3836.1887,0.8071546130124028,1523.0250181871027
3837.0713,0.8103687707228863,950.0055344300958
3837.956,0.8165088880840319,1259.1992332152033
3838.839,0.8247075882073347,1133.761227537915
3839.7244,0.8341117768419624,925.4184147065179
3840.6077,0.844017656509549,938.5053150511231
3841.4932,0.8541012226658271,1070.3241689632093
3842.377,0.8641621861144941,903.6585212444523
3843.261,0.8741652798140978,1098.3310985945798
3844.1472,0.8840795727169153,887.2506986502735
3845.0315,0.8937809292404615,942.1968308521276
3845.9182,0.9032298553270243,877.9763924119225
3846.803,0.9122753279597231,964.8913717192358
3847.69,0.9208263290697599,870.2891142651233
3848.5752,0.9287534918107512,591.361787890357
3849.4604,0.9361282749527623,834.153407800171
3850.3481,0.9431436522657008,814.3075318448911
3851.234,0.9499098993557995,647.3185678662937
3852.122,0.9564971197274281,792.7952584403996
3853.0083,0.9628664223578409,952.0706692124272
3853.8967,0.96906801859426,545.7282885312954
3854.7832,0.9750600312013664,819.3999900556402
3855.6702,0.9806878275209254,679.4810576465029
3856.559,0.9856138187618314,793.4522675936954
3857.4463,0.9894600217209445,1003.8940064234689
3858.336,0.9920539915906151,728.2282917642128
3859.2234,0.9933993275997218,735.1494035062296
3860.1135,0.9936530059007062,702.0515349288873
3861.0015,0.993030761618677,690.3452362620027
3861.8896,0.9917607889599479,632.0142237806456
3862.7803,0.9899633543068506,746.9538045767102
3863.6687,0.9875815523520189,694.7488863886982
3864.5598,0.9844005051987205,625.1146034180588
3865.4487,0.980281504798681,611.7782179661698
3866.34,0.9752300421613476,763.7922384121847
3867.2297,0.9694874769067642,719.1190579594237
3868.1213,0.9633679674375297,616.8280037802816
3869.0112,0.9572342027770228,671.2175785823064
3869.9014,0.9512513483555237,752.4564985013519
3870.7937,0.9453124658441162,741.3050340823442
3871.684,0.9391505798624067,819.8541169165009
3872.577,0.93247115112063,924.9226873799266
3873.4678,0.9252518708002377,813.9411688208793
3874.361,0.9175974992845211,956.0984962209743
3875.2524,0.9097576045029234,766.4104306877346
3876.1438,0.9018652029481384,954.0606542003001
3877.0376,0.8938344992636108,908.8670036575248
3877.9297,0.8853081304525477,756.0099426689823
3878.8237,0.8755969253462942,816.0585066649345
3879.716,0.8641246238621958,990.0884503430436
3880.6108,0.8505753587918289,1090.0453796891584
3881.5037,0.8352499177951156,1217.307669975867
3882.3965,0.8187639491304345,1025.5579795250503
3883.2917,0.801883986725667,1274.0680639699167
3884.185,0.7854007226363946,1004.5570020229039
3885.0808,0.7696363170711188,1126.6348815089148
3885.9746,0.7547474278838131,1291.7667598134585
3886.8706,0.7406629156766534,1160.8713780697235
3887.765,0.7278144241361433,1065.6963981578328
3888.6592,0.7172786827380538,1439.5098604154032
3889.556,0.7107356405204871,1561.5132981337788
3890.4507,0.7097465940605894,1384.5938622151814
3891.348,0.7147996113154677,1501.1293019365826
3892.243,0.7250258346536026,1215.4833810978391
3893.1406,0.7387809032185867,1449.1967167238554
3894.0361,0.7542257080433372,1019.314814580745
3894.932,0.7700839586413717,1328.724142625215
3895.83,0.7856620963394444,970.7408008657336
3896.7263,0.8006718338901123,1089.4238638763486
3897.625,0.8153783041604579,839.6487531011045
3898.5215,0.8300680009071887,1143.7322563680486
3899.4207,0.8450129878426776,999.735017121975
3900.3176,0.859940374478904,721.1535630390165
3901.2148,0.8744921224817972,910.1468801172914
3902.1145,0.8885401022964767,900.8006542556253
3903.0122,0.9023241595446437,998.6876521271238
3903.912,0.916412276071608,1076.5040544772876
3904.8103,0.9309338889445288,925.8309042675504
3905.7107,0.9456290316261466,715.9969749617277
3906.6094,0.9598711350076464,735.1421582517572
3907.508,0.9733135300110801,841.5135745989081
3908.409,0.9860102875605208,798.5994429016808
3909.308,0.9982227869327166,654.4143932284372
3910.2097,1.0103084707605783,724.3086744420424
3911.1091,1.0221905083118508,669.8697031643411
3912.011,1.03354252656618,670.567803959586
3912.9111,1.0437914255079395,720.0909877585746
3913.8113,1.052595334558112,586.6784646964846
3914.7136,1.059833639125329,721.478213800281
3915.6143,1.0654798501628397,545.2856425707962
3916.517,1.0697012287832133,690.0938192180588
3917.4182,1.0728360142706117,581.3166600043128
3918.3215,1.075425697480957,617.8336220713146
3919.223,1.0779718515405567,635.3482343440196
3920.1245,1.0808487657171932,507.4528847341507
3921.0286,1.0842479458639318,546.6241656736643
3921.9307,1.0880541523059828,559.6602485233044
3922.835,1.091797242863511,573.2995100984788
3923.7373,1.0947821571148273,580.4742963249527
3924.642,1.0967286056592191,573.6602900383864
3925.5452,1.0981885225255879,678.7377230056242
3926.448,1.1003427527000833,679.074993012151
3927.3535,1.1040975662513381,512.8842638621785
3928.257,1.1092440430448758,464.5373246614347
3929.1628,1.1145388632813418,620.8897418760872
3930.0667,1.1184173395929482,483.59789625867586
3930.9731,1.119958134087164,544.3295060492225
3931.8774,1.1190973006363334,688.8347445984027
3932.782,1.1162634432593441,682.2673464581492
3933.6887,1.1118081903974333,523.5662296200518
3934.5938,1.1059793732501624,620.3551653496487
3935.501,1.0992182028301982,553.3587316429107
