wavl,flux,ivar
3566.9744,3.4009572073052294,33.803112514689566
3567.795,3.372790258661358,32.92491063103957
3568.6177,3.3351129224534657,33.48184945542533
3569.4385,3.2995364572704,32.23467267355609
3570.2617,3.27498547316069,38.260140257119026
3571.083,3.2649409525583186,32.3490452226593
3571.9065,3.2675944303921334,48.34490152263858
3572.7283,3.279052798694928,32.667024268909486
3573.55,3.2957776900298805,48.45125131323353
3574.374,3.3154076341412746,27.330208974394264
3575.1963,3.3361621271741386,32.96249047720823
3576.0208,3.3566627817142205,25.658323188703573
3576.8435,3.375235885303515,48.44149032283588
3577.6682,3.3900052971758967,29.819518938203142
3578.4915,3.398673017755128,51.762567710217056
3579.3145,3.3997371348913568,25.635365535749237
3580.14,3.393558620958004,31.627115325042155
3580.9636,3.382441657740262,34.54303305180793
3581.7893,3.3689785662171627,25.744903974050377
3582.6133,3.3548121356626392,34.78350332114052
3583.4395,3.340628779413406,26.97046824472472
3584.264,3.3278646340558815,40.20770984949679
3585.0884,3.3194874261203804,24.66643783182731
3585.915,3.3193833521872143,34.11651546488655
3586.74,3.3297962363173355,30.115907952683326
3587.5671,3.34869634294622,35.40233337890564
3588.3923,3.3692516766917064,23.732786233989824
3589.22,3.3832598643291174,26.321715123707968
3590.0457,3.385473539169144,31.34688209431418
3590.8716,3.3765692472218607,25.90665760234367
3591.6995,3.3617854485323,30.466148977993505
3592.526,3.3474590683529306,31.422421937895734
3593.3542,3.3374976248084023,30.099624256616966
3594.181,3.3325784239052725,32.4480660597552
3595.0098,3.331267738573235,25.504338049170716
3595.8367,3.3320989023259906,28.462890200126086
3596.6638,3.3345021317732138,31.603404497814125
3597.4934,3.3383475518648935,38.552732265558106
3598.3208,3.3429880930765754,44.55013709593804
3599.1506,3.3473454247515098,27.341743435526276
3599.9788,3.3508244935323717,31.904200391191672
3600.8088,3.3540192838370997,31.8571901381983
3601.6372,3.357591026334214,44.172306590999895
3602.4678,3.360208545847912,38.38131746615975
3603.2964,3.357669693183847,23.900541486944388
3604.1252,3.345132828935532,25.077857828589718
3604.9565,3.3210666287752955,24.62988581766933
3605.786,3.29026899028411,36.26304048598165
3606.6172,3.2622992300284825,39.989083202097845
3607.447,3.2476726385352035,37.14571774209516
3608.2788,3.252982453926279,42.059255529676875
3609.109,3.278604415778401,31.790572579289098
3609.9392,3.318607333989677,66.64390596394205
3610.7717,3.3628011245982274,38.0534174069541
3611.6023,3.400113596391578,30.20496513798908
3612.435,3.4236213156988575,28.397758648090278
3613.266,3.432150191387121,26.794599822442663
3614.0994,3.4297159352822253,35.843473052919805
3614.9307,3.4222570724062296,30.06941012157481
3615.7625,3.4144195884621906,36.91506757600779
3616.5962,3.407464064149491,47.9577704512615
3617.4282,3.3994598048214497,35.67065206790219
3618.2625,3.3880805946262473,31.437466507579785
3619.0947,3.374528407399445,36.67852598980085
3619.9292,3.3641911288012483,29.12596045188132
3620.762,3.3633754259416233,31.169849889726315
3621.595,3.3742753617728356,44.46189125019299
3622.4302,3.3932923538436537,29.304866558378464
3623.2634,3.4131308367082287,36.864993400020474
3624.0989,3.427156452653694,20.9037167586547
3624.9326,3.431715832636152,25.954757750060384
3625.7686,3.4268023791134956,27.547261711188874
3626.6028,3.4152887908575686,31.760092627320454
3627.437,3.4020992362912543,34.03442689750301
3628.2734,3.3932116768688867,28.420598147030375
3629.1082,3.394015688931482,29.268609534063216
3629.945,3.4069311144906145,32.38837353922407
3630.78,3.4297708805639875,44.419640117278405
3631.6174,3.456610782558631,18.729069385325868
3632.453,3.480244602606686,22.384290283814618
3633.2883,3.495721377333669,31.64176423883769
3634.1262,3.501123825945244,38.05983880833797
3634.9622,3.4966145195531,28.24878066062259
3635.8005,3.4834114322492944,29.69040456803783
3636.637,3.4638956851458067,40.76082773455984
3637.4756,3.4416562401194777,30.81961452609638
3638.3123,3.4211162231726586,46.03061650887604
3639.1492,3.405705859258026,24.108739673716663
3639.9885,3.397091485574973,30.555363669874676
3640.826,3.395045681592318,27.41909566274548
3641.6653,3.3975792271569234,27.479364799489087
3642.5032,3.401506686496531,32.31099453743005
3643.343,3.403439835140707,44.8378827644718
3644.1812,3.4011401164826607,20.87535843596254
3645.0195,3.394603005804278,34.86738979671942
3645.86,3.3859962689754837,31.17608058207257
3646.699,3.3785467321058733,30.19663779327419
3647.5398,3.374613378317388,29.153982963362278
3648.379,3.374376878638329,33.617091660150976
3649.2202,3.3756330003689548,24.402144858277442
3650.0596,3.375397907856371,30.24715787448536
3650.8994,3.372512036406812,18.702546701738708
3651.7412,3.3691487177806563,37.17132754534546
3652.5813,3.3694325006845895,27.248825941866752
3653.4236,3.375643770129148,30.577170344209094
3654.2642,3.3853044673226877,25.28340976499395
3655.1067,3.3922316273447635,31.48791272655344
3655.9475,3.3908792811381328,19.88697669142568
3656.7886,3.3806795860455585,30.58458491301205
3657.6318,3.3662075775059432,34.328826073949685
3658.4734,3.353503478709234,51.25145067248548
3659.317,3.3455088442350194,34.441266589485465
3660.1587,3.341317863595438,26.859149716688442
3661.003,3.3385724714106955,33.692555047862854
3661.845,3.336364518639242,77.19554607611417
3662.6875,3.3357965087800427,35.35485580811069
3663.532,3.338983034696439,35.964975249536266
3664.3748,3.3477857210470963,35.61124082069299
3665.2197,3.3629113185812978,26.965417301402372
3666.063,3.3829302729997104,31.14608430396389
3666.9084,3.404406641151658,31.03115516897865
3667.752,3.422483914760529,30.49772465327318
3668.5977,3.432832761507978,38.86645890386699
3669.4417,3.4329578558629548,41.630501880269485
3670.286,3.423582565541384,28.215135993072035
3671.132,3.408520705852526,29.971085151676316
3671.9768,3.3931438159743443,30.970323577248244
3672.8235,3.3815436145169264,36.67539718168587
3673.6685,3.37518832372952,28.224912731637747
3674.5156,3.3733609823702113,20.16137832122756
3675.3608,3.3749923169618286,33.48650874673146
3676.2063,3.3793967075544504,30.088076434028686
3677.0542,3.38544997191112,34.35704367806282
3677.9,3.3903130433182906,34.57365283430313
3678.748,3.3900005866744345,36.08221307673181
3679.5945,3.3819081902810484,31.841937674386514
3680.4429,3.367499756829363,28.354078153995935
3681.2896,3.3524004171474364,33.11834035226021
3682.1365,3.342792129483908,24.54011160443502
3682.9856,3.3414663521844323,39.78312436955098
3683.8328,3.3465913510733505,40.45155843198549
3684.6824,3.3542073658875418,22.53539951868014
3685.53,3.3615063782856316,51.0074075480021
3686.38,3.367975936930574,30.161610878102575
3687.2278,3.373792208907794,32.789190246073915
3688.0762,3.3783907724786304,37.745043312138584
3688.9265,3.380496275828838,24.533066787093645
3689.7751,3.3792753429895033,28.837152683722035
3690.626,3.375193648836069,33.06378183833674
3691.475,3.370273644499205,30.191172266977194
3692.3264,3.3678020119254954,30.988898048822545
3693.1758,3.371186316983053,44.34110865055263
3694.0254,3.381729031694045,31.346141518797943
3694.8772,3.3972940868326367,29.902752461469174
3695.7273,3.413292029415848,23.246306825951514
3696.5793,3.425783634702128,26.581925383357117
3697.43,3.4329724269165456,25.304779471976737
3698.2825,3.4346940302898896,25.544179587495385
3699.1333,3.4307174675346555,24.11799220782751
3699.9841,3.420344486697014,39.08771742722772
3700.8374,3.4032530323162007,30.447583520630282
3701.6887,3.3808647469623825,29.848384247875984
3702.5425,3.356307804741486,24.03962250208564
3703.3943,3.3339569479689573,40.519835488591184
3704.2483,3.31729614911001,32.520065539802246
3705.1003,3.3076805335680834,28.4769155244478
3705.9526,3.303375974355822,27.023571698244467
3706.8074,3.3006011515885505,32.15496424533809
3707.66,3.2956496697910325,24.300736702863553
3708.515,3.28712918824482,37.00470419604492
3709.3682,3.277033762117313,38.19243364469153
3710.2234,3.26940331366633,35.02047687488353
3711.0771,3.2676370323742367,29.453658542387796
3711.9307,3.2716268289489765,46.56020592453676
3712.7866,3.2773018781224548,23.34970646611506
3713.6409,3.2792657380080343,33.037957068753066
3714.4973,3.275202181050333,31.637089576735402
3715.3518,3.267902202980085,35.659480576433204
3716.2085,3.2627028724363774,38.35933230463529
3717.0635,3.26291545076487,26.134240287479038
3717.9185,3.267486932154197,35.62722662728284
3718.776,3.2728769414477035,35.87551195295629
3719.6313,3.2762782059134143,40.850401402731
3720.489,3.277308412149239,25.471239622666772
3721.345,3.277165868580974,43.545724131573344
3722.2031,3.2770419469471137,32.06131643235718
3723.0593,3.2772657330376638,34.76164018308019
3723.9158,3.2775561199013517,44.04605316696576
3724.7747,3.277553510811837,34.33319217985559
3725.6316,3.276873926997398,31.40543390604848
3726.4905,3.274977026897467,35.67257208134324
3727.348,3.2716537773004646,33.32498753002749
3728.2073,3.2678617894717195,37.19303668435545
3729.065,3.2657130559233476,38.01538133202642
3729.9229,3.2668100465400136,39.00583257018966
3730.783,3.270494752267009,32.455463247695576
3731.6414,3.27389316502268,32.602955694062324
3732.5017,3.274212209033032,39.6473908319608
3733.3604,3.270928565053627,32.8011547247773
3734.2214,3.265774637560817,39.172261558602735
3735.0803,3.2608325594920915,39.14808830158598
3735.9417,3.256749274759333,31.743064281866086
3736.8013,3.2528332238395494,36.56399368538569
3737.661,3.2480490684342245,41.422123824506684
3738.5227,3.2419753988302245,37.22229611938751
3739.3828,3.2353513932886537,24.68446686038978
3740.245,3.230049738644295,30.67775483945131
3741.1055,3.228432962567955,47.75238297316613
3741.9683,3.2317393060277415,31.095330736733615
3742.829,3.2388837690606946,32.71217710636917
3743.69,3.246850799757782,27.687593701002054
3744.5532,3.2526285629038982,27.715404018210723
3745.4148,3.255265881330469,29.621966132989737
3746.2786,3.256433719894594,38.739470646976415
3747.1404,3.2584599097634284,37.23665654237007
3748.0044,3.261677382437423,29.256962578791963
3748.8667,3.2637472586976495,31.999633059508668
3749.729,3.262192650482314,29.93978570391537
3750.5938,3.257547082834852,34.53635736200673
3751.4565,3.2538579531076826,37.54133746481956
3752.3215,3.2556495941695913,29.32914576915656
3753.1848,3.264414535915406,28.142827214098354
3754.0503,3.277673515999093,31.63208561980269
3754.9138,3.2907920338705376,26.739481695433334
3755.7776,3.3000089366657708,38.060777899667436
3756.6438,3.3039167888692584,34.926925996685725
3757.508,3.303269931998753,34.50483413188647
3758.3745,3.299745302467167,30.40683198355566
3759.239,3.2947018690400354,37.67388514438941
3760.106,3.2887073443584334,32.91024632479781
3760.971,3.2819170385465606,28.816868412359607
3761.8362,3.2742881190110844,36.93067748491465
3762.7036,3.265675183173439,37.32389558220237
3763.5693,3.2561409817589824,32.79417978987347
3764.437,3.246483831130514,33.357685064092685
3765.3032,3.2386419846907866,35.629736072480796
3766.1714,3.234422934705229,34.60533767261464
3767.0378,3.23369514808578,42.68055729216805
3767.9043,3.2336206202876214,36.11446448954105
3768.7732,3.2302332459439267,27.975458930832495
3769.6401,3.2210050694028203,33.090285432103116
3770.5095,3.2063149846432477,42.49469498604175
3771.377,3.1895714823697943,28.930574878233422
3772.2466,3.1757142292966196,49.07149169588238
3773.1145,3.1693130928835656,47.271382614142766
3773.9824,3.171771876628891,35.529215340042
3774.8528,3.180326753492122,28.83572248320917
3775.721,3.189829552215931,29.854330098502466
3776.5918,3.1969666857716885,34.38687882226652
3777.4604,3.202742102768111,27.302485089286037
3778.3315,3.2112764069690187,40.83193420624473
3779.201,3.2255391919898364,38.91007019364396
3780.0703,3.244621445158504,32.621366231465295
3780.942,3.2645506668177364,41.47907138937678
3781.8118,3.281036512375293,31.46992805352765
3782.6838,3.291636668984516,42.2360327533208
3783.554,3.295302228860303,34.16752829206083
3784.4265,3.2919173265437123,28.352311474393137
3785.297,3.282403807289226,31.2232322120989
3786.168,3.2690086933839893,29.65161852891568
3787.041,3.254622059122535,43.23601140697704
3787.912,3.2415551230344035,29.134190013910594
3788.7856,3.2305853751499662,32.02052921957586
3789.6572,3.2216662812865624,35.38612429202908
3790.531,3.2144728949955,35.311915876811426
3791.403,3.208713813762158,31.978286197307362
3792.2754,3.2037373034203265,28.599278423955173
3793.15,3.198689700791266,40.18890371907432
3794.0225,3.1930939499926487,37.074721477925756
3794.8972,3.187083759209827,29.317023365487938
3795.7703,3.1811527394317367,36.80497155416747
3796.6455,3.175437997439627,30.03276988874441
3797.519,3.169729190514019,39.111195605047165
3798.3926,3.1639684948523192,36.104647054519155
3799.2686,3.1589418801862688,44.45896201791484
3800.1426,3.1564060413797512,32.5283384933955
3801.0188,3.158397292541454,31.402324242323825
3801.8933,3.1661779157837837,37.96570700278415
3802.77,3.179240068339247,38.172214006995034
3803.6448,3.1949736460937355,37.5514443966746
3804.522,3.2099440713029694,29.456895546185386
3805.3972,3.2211160030863253,38.90863843185172
3806.2727,3.2268651756485256,35.19490240921417
3807.1504,3.2267402779165817,27.29130702572407
3808.0261,3.221536497646403,38.34049315149471
3808.9043,3.213527049050124,38.24374848632242
3809.7805,3.20613286120622,32.00061270876822
3810.659,3.2022889972771056,32.83759274479991
3811.5356,3.202926330055236,31.92510912927492
3812.4126,3.206549718834049,35.2616600005629
3813.2917,3.2105519525441575,27.816358904157855
3814.169,3.2129888015871453,43.57207256286733
3815.0483,3.213495052379132,29.728682828973508
3815.926,3.2124943098528993,35.078176328851086
3816.806,3.2098795161578892,32.89313719269309
3817.684,3.2048181472209714,39.947268950939126
3818.5623,3.1970352456317235,34.640888436115695
3819.4429,3.1880971020836704,37.79525630216977
3820.3215,3.1810266110975562,33.6976917829533
3821.2024,3.178037755833031,39.080854434353526
3822.0815,3.178850317188846,37.22227329157882
3822.963,3.1808252097696013,39.46648666723283
3823.8423,3.1808053414084334,36.125117500881856
3824.722,3.176836570219751,35.25764208007547
3825.604,3.1684501500705777,35.58380999843543
3826.4841,3.1560179365494623,50.81309844984139
3827.3665,3.1397616894418103,41.54925837796341
3828.2468,3.1197574321129418,34.67751235360183
3829.1296,3.0960537671923034,34.48762085326461
3830.0105,3.0697327584888794,39.000219851207625
3830.8916,3.042816726564299,46.66150672328594
3831.7751,3.0180860922884145,55.242224540914464
3832.6565,2.9984872412010684,39.842683369267675
3833.5403,2.9859211407601274,33.94043953271719
3834.4224,2.98114215016482,39.36963423353018
3835.3064,2.983551768112615,40.39388098316458
3836.1887,2.991850488328252,36.81983831825804
3837.0713,3.004595021062545,32.838996999918805
3837.956,3.020342961827888,34.42155254279951
3838.839,3.0374332772438355,34.53531650414304
3839.7244,3.054479923284344,40.33755621252222
3840.6077,3.0705587196244726,27.44718031526164
3841.4932,3.085666698278511,51.982309003029116
3842.377,3.1000773639314536,24.581704788125563
3843.261,3.114140861728379,42.883827200970686
3844.1472,3.127979917181702,35.990453077822615
3845.0315,3.1413817869917966,39.317705117772135
3845.9182,3.154103684755066,31.95745542679042
3846.803,3.1658413510566206,37.32378805717289
3847.69,3.176689068535915,30.14192898419355
3848.5752,3.1868566934576767,34.86625979363136
3849.4604,3.1967077430908972,38.063109214698606
3850.3481,3.2068339310586866,29.060585214581995
3851.234,3.2180092468480455,40.23959731394023
3852.122,3.2306782690396885,31.07958281337584
3853.0083,3.2437549410253816,30.290508940496185
3853.8967,3.2549037099696294,30.23188856022254
3854.7832,3.261657061381572,31.408593876116377
3855.6702,3.262906049196163,32.78323599102476
3856.559,3.2588482645568067,31.463047497146587
3857.4463,3.2503266665064694,36.38830116610068
3858.336,3.238336800276515,32.95135747322108
3859.2234,3.224453133753151,37.85018032657637
3860.1135,3.2109075093358843,33.218885168930264
3861.0015,3.200619039667023,35.87865318024681
3861.8896,3.1960422129535866,29.70724367649449
3862.7803,3.198187613057537,33.867007381672515
3863.6687,3.205824898135925,38.70302000726538
3864.5598,3.215856941614419,23.52171936562326
3865.4487,3.224316500517436,26.62408520949327
3866.34,3.2276583744729503,33.2214631569425
3867.2297,3.2233123568310815,32.5174589808137
3868.1213,3.2102932688501795,32.63411011195329
3869.0112,3.1897935598292184,36.54744144684857
3869.9014,3.1648515813052915,49.121319228723934
3870.7937,3.139090302469618,43.25646853521317
3871.684,3.115290055199247,35.98149559714089
3872.577,3.0941939348965337,34.43794453889122
3873.4678,3.0753179924088507,32.449436776272854
3874.361,3.0573802084114243,35.6437670360743
3875.2524,3.0394682966474904,33.59589125287735
3876.1438,3.021208229245431,39.1539313199276
3877.0376,3.0027805886952748,47.99335646195398
3877.9297,2.9843058485684444,32.59093366344569
3878.8237,2.9647718116552446,48.331549097034234
3879.716,2.942575406872505,32.94021791379976
3880.6108,2.9165099471463285,41.38307534507608
3881.5037,2.887421694171949,45.9972255554604
3882.3965,2.857528829362852,43.96172208770382
3883.2917,2.82883111643144,44.17820434872206
3884.185,2.801714354131482,39.083039506256235
3885.0808,2.7745564473950046,45.16468496406226
3885.9746,2.7461461820667377,49.172133053488224
3886.8706,2.717094552019931,54.86575007194794
3887.765,2.6906155489694017,40.83297527163593
3888.6592,2.670453749332337,48.71943116058252
3889.556,2.6590050821701867,58.32979350215776
3890.4507,2.656459103545978,45.385052298398584
3891.348,2.6615188788706057,48.708193962916305
3892.243,2.6731623823038695,52.92965632327593
3893.1406,2.691547745139976,52.42526902753106
3894.0361,2.7168704938722668,54.60713707095903
3894.932,2.748106841452719,46.40277641280452
3895.83,2.782391606675566,39.40615218347584
3896.7263,2.815860007497069,45.53052354626727
3897.625,2.846130031620541,48.22072682613022
3898.5215,2.872871999715109,42.780006604229555
3899.4207,2.8982235984295714,37.474272123733016
3900.3176,2.9248981193530343,47.01103336592672
3901.2148,2.9551040870347696,33.057741811432045
3902.1145,2.9892028305086225,43.68284836021039
3903.0122,3.025155093256408,39.266755284052245
3903.912,3.059946683914178,49.178173021187916
3904.8103,3.0906047998718007,36.482059279274694
3905.7107,3.1161313466886336,31.79687952671315
3906.6094,3.1370070808763457,40.231368809067064
3907.508,3.1545412973234694,29.889136512149168
3908.409,3.1698306120237496,33.81444938263128
3909.308,3.183787443912374,30.69447997600763
3910.2097,3.197833283784785,34.045092552579824
3911.1091,3.2134434353949364,30.921081889680472
3912.011,3.2316382178439467,35.533089153674666
3912.9111,3.2520757132851723,36.678716217184174
3913.8113,3.2735056773618223,31.961411801359937
3914.7136,3.294366758565961,27.036863600601286
3915.6143,3.313356857951311,38.54951897535733
3916.517,3.3302540931562223,28.589301556412586
3917.4182,3.345702403290611,37.09681810095343
3918.3215,3.3610095545876417,30.316781320874313
3919.223,3.3768170260940096,33.09475021743164
3920.1245,3.392468955575434,32.87157645926795
3921.0286,3.406081697413715,26.714442442403822
3921.9307,3.4157265361331017,32.14898859295958
3922.835,3.420892615816671,31.215284514792934
3923.7373,3.4224815900753622,29.435631675454307
3924.642,3.422178274366787,37.62104404379512
3925.5452,3.4217188750590375,30.58679867556916
3926.448,3.422583271069696,25.94312629394098
3927.3535,3.425582111417565,28.709475549728953
3928.257,3.430060095682936,30.129750382523227
3929.1628,3.4334970909457327,25.119176264116433
3930.0667,3.4321640805980254,29.354115427142172
3930.9731,3.422986866428605,31.082876628353198
3931.8774,3.405506420399267,30.25994661729518
3932.782,3.382340000870767,36.0323302475719
3933.6887,3.3581104266452146,31.424341964143522
3934.5938,3.3377065755238102,34.96146587960892
3935.501,3.3244368096487835,34.48721455149352
3936.4062,3.3198138263615933,40.64369214700437
