wavl,flux,ivar
3566.9744,9.07341238133728,6.333411978510687
3567.795,9.071770385974812,7.3247982487909535
3568.6177,9.051549163731664,7.685280965043451
3569.4385,9.023557739623444,6.151909590191044
3570.2617,8.997598860506617,7.224635077991125
3571.083,8.97841875329878,7.3526456431827345
3571.9065,8.96463253088364,6.749403763664955
3572.7283,8.951792522377426,6.743630093213762
3573.55,8.935876088053172,6.854914727060821
3574.374,8.915822680211523,6.820554358593581
3575.1963,8.893880391968642,6.175566655613386
3576.0208,8.873715327383863,7.241115595029788
3576.8435,8.858521106426625,7.204685871670045
3577.6682,8.848479347085199,7.104448310215478
3578.4915,8.839938682943064,7.22392020862672
3579.3145,8.826484929541937,6.12660400733294
3580.14,8.802615791178521,7.703315103557895
3580.9636,8.768271896237716,7.246596838311707
3581.7893,8.730241154050937,8.107140777674182
3582.6133,8.700190044204392,7.52637692434425
3583.4395,8.688315610909946,7.910449987989408
3584.264,8.698460036509008,7.704911891177685
3585.0884,8.726286744223286,5.96620929126736
3585.915,8.7620209845324,6.662390400268841
3586.74,8.794257134575187,8.67184859837072
3587.5671,8.81447042293322,6.473413383801768
3588.3923,8.81905305493911,7.041284809386304
3589.22,8.809960991983278,9.738104040085664
3590.0457,8.792616685310815,6.995188788959997
3590.8716,8.772930127621063,6.329799151545402
3591.6995,8.75497251436553,6.791318741690666
3592.526,8.739357860975625,8.013278959078775
3593.3542,8.721886566742933,6.445762609226862
3594.181,8.69498654026476,6.775038551078477
3595.0098,8.651844811982182,7.117396912283547
3595.8367,8.592682967742293,7.361430974697015
3596.6638,8.526415349017848,8.030402763281899
3597.4934,8.467731072004147,7.840680550533913
3598.3208,8.430749855122727,7.287308864507393
3599.1506,8.421445067100287,8.340535937085553
3599.9788,8.435679116313532,8.725884330860051
3600.8088,8.46134126623602,8.585066878032679
3601.6372,8.484244198091238,5.778434519508928
3602.4678,8.494562423976669,8.009204320765436
3603.2964,8.490217678294185,6.5380878470093915
3604.1252,8.47738665206374,6.692816909218265
3604.9565,8.466920063509171,11.43537233552567
3605.786,8.468360405956997,8.039818935562204
3606.6172,8.484565406819286,8.178817712950904
3607.447,8.511331544823737,6.460579361679086
3608.2788,8.541836126229883,9.175544498491975
3609.109,8.57048144179895,7.5120007360264385
3609.9392,8.59402549352467,6.373352210533261
3610.7717,8.60971573131037,7.486334205661838
3611.6023,8.614668661391176,7.093481802512121
3612.435,8.607340945009827,7.655432813137793
3613.266,8.588607651775742,7.631718067903601
3614.0994,8.561414634312529,8.279329392497688
3614.9307,8.530091990911092,7.24739210782158
3615.7625,8.4988782177466,7.044647541245661
3616.5962,8.471071795955798,7.58713617097024
3617.4282,8.447901520926463,7.2460287082321715
3618.2625,8.427207770095336,7.217849588762754
3619.0947,8.404453663649557,8.252114865761117
3619.9292,8.375054901623365,7.8518062377026645
3620.762,8.338581077503294,8.645572780201867
3621.595,8.29972217960049,7.72570718949566
3622.4302,8.265821897377844,8.910302177485365
3623.2634,8.242554436722372,9.647613354788657
3624.0989,8.23086017916068,7.58810296298342
3624.9326,8.228240895059205,7.985442162897638
3625.7686,8.230622121890352,8.767287003683212
3626.6028,8.233861713605963,9.16752615652128
3627.437,8.234748581040408,6.692232931264186
3628.2734,8.23192290015745,7.941524836003167
3629.1082,8.225487111749654,8.777433751993529
3629.945,8.214674654778166,7.5839166209844
3630.78,8.196729774761028,7.803292559123351
3631.6174,8.169209173613078,6.926430279195053
3632.453,8.134546129965777,8.778094822176353
3633.2883,8.100020304588496,9.011876850730406
3634.1262,8.073112775418675,8.679770285507347
3634.9622,8.056253205916219,7.7675539300504335
3635.8005,8.045245314582502,9.216348020079463
3636.637,8.03311401789386,7.072770291833055
3637.4756,8.014211676017164,7.606410358454334
3638.3123,7.986934577324081,9.797871412977798
3639.1492,7.953258820313708,9.267333007877486
3639.9885,7.9170501434947935,9.560588775952954
3640.826,7.882439722101845,9.628565551680342
3641.6653,7.852156250622652,7.927489266342816
3642.5032,7.828386693948055,9.804891104246455
3643.343,7.8130903606821605,9.769407904631677
3644.1812,7.808473553988052,8.746420886906137
3645.0195,7.815302329146207,9.72966454489524
3645.86,7.831013635042743,9.1411861572942
3646.699,7.849076130312441,11.059788176104371
3647.5398,7.861860280644359,9.953152504239302
3648.379,7.864399495324723,7.761851564485415
3649.2202,7.856634966308434,10.165139355073242
3650.0596,7.842178390474381,9.490780596862844
3650.8994,7.8256610210377,8.38942279790274
3651.7412,7.811276104146733,8.352117967691598
3652.5813,7.802382436220911,10.431009451529102
3653.4236,7.800467011319627,9.80354061454205
3654.2642,7.804090759181485,8.44128424633177
3655.1067,7.808781019430436,9.296718139620172
3655.9475,7.808860579895971,9.230730180658185
3656.7886,7.800254028181574,8.077270641133047
3657.6318,7.782209209983912,9.52624646528654
3658.4734,7.757167763356286,9.820045067578638
3659.317,7.728260746904609,8.829603642994362
3660.1587,7.697734883601613,9.956000290445711
3661.003,7.666587871410374,9.503979933695618
3661.845,7.636809557317857,9.2602988970532
3662.6875,7.6114990580551725,9.232423654110669
3663.532,7.5938501388694455,11.64168260969677
3664.3748,7.585152892205082,8.437645404644046
3665.2197,7.583756844432574,9.371549126679321
3666.063,7.585855250464696,9.495995855652188
3666.9084,7.58682273349892,9.38527131376234
3667.752,7.582966245922845,10.15361624888033
3668.5977,7.57319185809709,9.18614196160291
3669.4417,7.560010368283478,9.152650255929665
3670.286,7.548816878303104,10.292354562457781
3671.132,7.545561269587554,12.682857397279369
3671.9768,7.553202589737403,10.18806481391861
3672.8235,7.5691084982351216,10.77068264908054
3673.6685,7.585503062562038,9.245385415338589
3674.5156,7.593496998437972,9.464476408578113
3675.3608,7.5874243181328715,9.353256022018313
3676.2063,7.567281445282293,9.17750699847588
3677.0542,7.5376817888715575,10.576695207777265
3677.9,7.505682361704524,9.349703356120708
3678.748,7.477758909755235,10.10715383618066
3679.5945,7.458873508663884,8.707533763869938
3680.4429,7.4511600919046685,9.882747585680807
3681.2896,7.453781135838374,9.73622288245769
3682.1365,7.4626735682969,9.970696730617476
3682.9856,7.471540663862665,10.10592600845979
3683.8328,7.474059467485758,9.42887644731347
3684.6824,7.467070939528826,9.249998189415434
3685.53,7.452466247331142,10.917343443836558
3686.38,7.436028700662623,10.129405079726057
3687.2278,7.423846936068597,11.183260719610324
3688.0762,7.418047166536821,8.270019598174532
3688.9265,7.415805496108475,9.661566235958878
3689.7751,7.411803674486488,10.853679299361952
3690.626,7.402291538611193,8.571500110176968
3691.475,7.387826238426887,8.594667763470435
3692.3264,7.372492059551386,10.403027909502201
3693.1758,7.36070952567385,12.942103311504585
3694.0254,7.353114693667326,11.732430475069076
3694.8772,7.345392806829256,8.64977834629516
3695.7273,7.3309212873185094,9.863371311069923
3696.5793,7.305306968572102,10.338279268308732
3697.43,7.26978168343187,9.63681375740138
3698.2825,7.230344693282878,11.214475291823183
3699.1333,7.1953034861475444,10.263073693808217
3699.9841,7.171332940413389,9.795240582278844
3700.8374,7.161280226127441,10.47784883628267
3701.6887,7.163006624348063,11.089266674977967
3702.5425,7.170115665957574,11.537420808193223
3703.3943,7.174914017518163,9.822185842884858
3704.2483,7.1719285907279735,11.07964280055851
3705.1003,7.159788531814695,10.201984931435629
3705.9526,7.1408048624279,11.894268394522621
3706.8074,7.119066903362996,10.08963515495674
3707.66,7.098538703423708,11.749295757411016
3708.515,7.080990567002798,10.245247906155978
3709.3682,7.06592578940201,11.50691188716017
3710.2234,7.051435758647639,13.525532931353716
3711.0771,7.036717583637126,10.21519371417952
3711.9307,7.023099560915469,12.174324320788845
3712.7866,7.012926180522084,11.195649871477896
3713.6409,7.007077529392422,10.580391266726096
3714.4973,7.003307198657282,12.092795270906967
3715.3518,6.997336220333656,11.516656490721001
3716.2085,6.985382037935265,12.662346398325289
3717.0635,6.966761561850324,10.987138699356517
3717.9185,6.944367505413421,11.195178959765002
3718.776,6.923093326963479,12.286983675570982
3719.6313,6.907450929417663,12.434938236895352
3720.489,6.8995281103139545,9.93180127716876
3721.345,6.8992023051953115,13.075600632725203
3722.2031,6.904413540617276,11.208045439343378
3723.0593,6.911098037485665,12.633702824447484
3723.9158,6.913534468227952,10.074205005325057
3724.7747,6.9065312434955,8.629627557318633
3725.6316,6.889147119311386,11.929749450151249
3726.4905,6.866159913783934,10.230812732996243
3727.348,6.845565444606034,11.979225612193101
3728.2073,6.832955438646607,12.856740493897448
3729.065,6.828331296960877,12.602311136044461
3729.9229,6.826913938421783,11.03966785021606
3730.783,6.823348364473411,11.225797988655296
3731.6414,6.815254994338417,12.020173362831919
3732.5017,6.803780011470606,12.07872810751865
3733.3604,6.791969005239722,13.125297100308373
3734.2214,6.782597236453429,10.277305381919426
3735.0803,6.7772717307382395,13.375685083428122
3735.9417,6.775872146290474,12.294547646073987
3736.8013,6.776931022586804,11.949815743043176
3737.661,6.778769172540029,13.896812824810157
3738.5227,6.781027049533155,10.429151199613134
3739.3828,6.7848781429374405,10.436505920196542
3740.245,6.791361305448943,11.648258345273069
3741.1055,6.79911269175941,10.253473172233287
3741.9683,6.804189386582093,13.40684201036545
3742.829,6.802169931405819,11.430950597163328
3743.69,6.791016332350929,12.152765682194111
3744.5532,6.771812208126878,14.263245697697005
3745.4148,6.747696031207992,14.616999982739975
3746.2786,6.721724497724375,11.915132363452898
3747.1404,6.696464632086976,13.373181512791053
3748.0044,6.673568847537746,12.455692797395383
3748.8667,6.654274592199497,11.563523811866874
3749.729,6.638779703455497,14.803604004160619
3750.5938,6.626323282765076,12.855707559657786
3751.4565,6.615858200547741,13.167282571031874
3752.3215,6.606987651385723,11.02936374550224
3753.1848,6.600746236399658,13.259101042027341
3754.0503,6.598399223118185,14.378634538479654
3754.9138,6.59963371146203,13.019791953237025
3755.7776,6.6018496982981345,14.79332390462073
3756.6438,6.601625609513674,14.807344119220298
3757.508,6.596783731462927,12.594704984698918
3758.3745,6.587282117190453,11.850565383817806
3759.239,6.5748332199642,12.46243719087272
3760.106,6.561653689521339,13.199504346360948
3760.971,6.549593238397881,12.413169747607744
3761.8362,6.539188802405444,13.396616680898628
3762.7036,6.5298997134451175,12.532399758329673
3763.5693,6.521039100116064,13.272589875002817
3764.437,6.512398917756808,13.000794422818373
3765.3032,6.504294320994922,12.5368062002708
3766.1714,6.496807495629107,12.777522073648056
3767.0378,6.489759722141402,13.751775179363497
3767.9043,6.483143786786352,12.518078740064073
3768.7732,6.477545057037134,14.432697386710606
3769.6401,6.473586361846783,13.36544621294173
3770.5095,6.470784011540714,10.639670667582914
3771.377,6.467535805629819,13.600571565508663
3772.2466,6.462310643515027,12.359834596686532
3773.1145,6.454915857530233,14.222927025552382
3773.9824,6.445991297148492,12.515889318390125
3774.8528,6.435474261575507,14.807212849395592
3775.721,6.422238062627289,12.448818102843823
3776.5918,6.405505304677252,11.72977917393269
3777.4604,6.38719038427991,14.592313968644147
3778.3315,6.37151056848795,13.34025827892245
3779.201,6.36294056326187,14.08981933910049
3780.0703,6.363204890076649,13.394847171069173
3780.942,6.37026923663045,13.292748444975754
3781.8118,6.378922758330117,13.428540285563942
3782.6838,6.383013062469765,12.219572282217085
3783.554,6.378013755978826,14.69110014923061
3784.4265,6.36280908878736,11.986151197104107
3785.297,6.339599030675154,13.863500683890388
3786.168,6.312062933144641,14.413087124973808
3787.041,6.284158434520215,14.009427504162616
3787.912,6.260161804853437,13.004226616689003
3788.7856,6.244012328265302,13.85982085014616
3789.6572,6.238329748438328,14.004526936573876
3790.531,6.242214451560553,13.96921346044755
3791.403,6.250959825297859,13.771680182733974
3792.2754,6.257922328259973,14.290624207132034
3793.15,6.257419570878996,14.432713231225526
3794.0225,6.246961696216303,14.77858047677028
3794.8972,6.227774351006712,15.508496673133326
3795.7703,6.2039663499497975,12.928027393484967
3796.6455,6.180182848389139,13.932148084668704
3797.519,6.1599386115501,15.655539540849247
3798.3926,6.144268435224274,13.991935122931451
3799.2686,6.132308761037327,13.074227371997729
3800.1426,6.122696928446375,14.324203492118034
3801.0188,6.11486731588403,13.553343580833731
3801.8933,6.1098880334458965,19.039746843938566
3802.77,6.1093510091804175,13.747776669758004
3803.6448,6.113548162125984,15.379442515689787
3804.522,6.12068272794764,15.741780400107379
3805.3972,6.128096318691365,13.979664733305125
3806.2727,6.134213062824183,13.903558203858065
3807.1504,6.13870248541255,13.771018974806335
3808.0261,6.141063035721861,15.957434336160594
3808.9043,6.139696392929635,13.50861767300045
3809.7805,6.132813347297654,13.68663461515119
3810.659,6.120436151876447,15.939275539180352
3811.5356,6.1054740644141905,16.356431874989955
3812.4126,6.092199978566722,16.66035890353272
3813.2917,6.083733421041879,17.834251931008275
3814.169,6.08045331018728,14.14736683435263
3815.0483,6.080402621923408,14.25351692925252
3815.926,6.080986121616241,15.022382785437086
3816.806,6.0798396945864415,15.04508277669943
3817.684,6.074745632690128,14.240031265134723
3818.5623,6.063808224839791,14.035263695071087
3819.4429,6.046443914541736,15.76591562965692
3820.3215,6.024278535748059,14.870444905754367
3821.2024,5.999975086531018,17.683119731904497
3822.0815,5.975887105425729,15.682920587509914
3822.963,5.952747913102352,15.815025951343294
3823.8423,5.930526563297203,16.67593237224434
3824.722,5.9087845529665675,18.115650573441208
3825.604,5.887087714370198,16.450016412596494
3826.4841,5.865198970780289,15.911175618244169
3827.3665,5.842951472347499,16.212751144451943
3828.2468,5.820761589213869,16.37244119568396
3829.1296,5.798614344014901,20.709926417584313
3830.0105,5.7756255910631165,18.569114122097705
3830.8916,5.749781477649592,16.562500931132746
3831.7751,5.719878747288909,16.31224721206679
3832.6565,5.688081147802975,16.93394978026339
3833.5403,5.659787531172135,17.46658022578649
3834.4224,5.641624657768476,18.378547231572785
3835.3064,5.636921195059803,17.54614188796095
3836.1887,5.643617550936477,15.770234473879382
3837.0713,5.6552906027779235,17.741677093166658
3837.956,5.665153330066313,19.99504128551945
3838.839,5.669991164682918,16.67737634869338
3839.7244,5.6716779739139955,16.810475789395
3840.6077,5.674850316883668,17.348478145830192
3841.4932,5.683058400040917,17.45715447308695
3842.377,5.696333462299806,17.55352917184121
3843.261,5.712101197854167,15.460003635447107
3844.1472,5.72766006122328,16.688355869240446
3845.0315,5.741720007939595,17.85132549200937
3845.9182,5.754537260566901,17.315220803617738
3846.803,5.766728775378633,16.185021039527907
3847.69,5.77904254731154,16.697123097847882
3848.5752,5.792070460715726,16.720364197418668
3849.4604,5.806074393062353,17.276052408925462
3850.3481,5.820187497926498,19.18885890619381
3851.234,5.832193079324992,16.77119735532085
3852.122,5.839922564580379,14.614850523906242
3853.0083,5.842455617160219,15.888240185834814
3853.8967,5.840520493652565,16.207255770713207
3854.7832,5.835649975606537,16.574103836399352
3855.6702,5.8294751484394745,17.691553612847493
3856.559,5.8233327974169455,16.80964911049542
3857.4463,5.817641070143762,15.709707678516178
3858.336,5.811216814424431,16.39545007733618
3859.2234,5.802042673726438,14.711325966877652
3860.1135,5.7890247585011805,16.33364629095877
3861.0015,5.773686681210451,17.500530214481383
3861.8896,5.75948668287516,17.963809654780018
3862.7803,5.7499767147900895,16.996592183208243
3863.6687,5.746983729630525,16.500881801668243
3864.5598,5.749658377797528,15.474917088076833
3865.4487,5.7546929817588595,14.622888607291188
3866.34,5.7571483520692635,17.07770428382541
3867.2297,5.751949741879345,16.177243889381806
3868.1213,5.736004855591187,17.3603421150399
3869.0112,5.709847237103058,15.474692321539363
3869.9014,5.676926254209111,19.08984995663428
3870.7937,5.6411005148031546,18.5150093838971
3871.684,5.604542322174957,15.902219611320891
3872.577,5.566991445057236,18.585313271426486
3873.4678,5.52824590069662,16.78771943352461
3874.361,5.488966272154365,21.06904942026608
3875.2524,5.45147311964993,18.819322106798538
3876.1438,5.418181660772863,18.16223430453305
3877.0376,5.390940941509843,30.84914126445981
3877.9297,5.370258574228395,18.810178191925978
3878.8237,5.354042601728353,19.172399307791096
3879.716,5.338127288370698,17.640546082008683
3880.6108,5.317656245692977,20.5030589986852
3881.5037,5.289711532849375,17.856334241150886
3882.3965,5.254135788383792,18.59954349429011
3883.2917,5.2129651065110725,19.98137238298629
3884.185,5.169341241324121,21.936213161801604
3885.0808,5.125485192685968,22.870288527944158
3885.9746,5.082799654506032,23.870623904258856
3886.8706,5.041161024058687,21.21391633947206
3887.765,5.001076498302568,22.93326076813564
3888.6592,4.964916713838673,23.571036525933796
3889.556,4.937534316297483,23.707073397911206
3890.4507,4.924213525405743,28.470240945841432
3891.348,4.927180444335716,20.41992545881686
3892.243,4.944566866888529,24.01034179556927
3893.1406,4.971647676663325,23.045157369452117
3894.0361,5.0028325021584354,22.129796932094965
3894.932,5.0342601388101365,24.172182162023443
3895.83,5.064802511084248,22.18268651470952
3896.7263,5.09566953322911,21.328455346038215
3897.625,5.129523063910436,21.186316865733495
3898.5215,5.168076952720158,21.614859303471214
3899.4207,5.211586345937685,20.2783323339655
3900.3176,5.257555973555136,29.36211414427499
3901.2148,5.302018895821006,18.674359310786834
3902.1145,5.340808566163098,15.960129650178082
3903.0122,5.371483093622056,18.640332201693415
3903.912,5.394990446552533,20.46912135376761
3904.8103,5.414091429101177,18.87459512845816
3905.7107,5.431798561287392,18.07882240256559
3906.6094,5.44966700972894,18.996817501217514
3907.508,5.467888238513539,20.22504921378037
3908.409,5.485691619478478,18.575448823888557
3909.308,5.501951386774024,17.137356309965284
3910.2097,5.5161213883040485,19.44164498083338
3911.1091,5.5281451303507545,19.019521757017994
3912.011,5.538443527266961,19.295452270322137
3912.9111,5.547383475805912,15.47043365572938
3913.8113,5.555577782859621,21.233496460641167
3914.7136,5.564090794427723,19.114602271365904
3915.6143,5.5742323512483445,19.070176457548378
3916.517,5.586884372147534,18.02659017949406
3917.4182,5.601344755157142,17.544391145197395
3918.3215,5.6153961765268114,16.798583703539368
3919.223,5.626219235099598,17.72849966272106
3920.1245,5.6321715762820475,19.40421469804713
3921.0286,5.63323973510529,20.030214442806432
3921.9307,5.630554605505673,17.912828855559397
3922.835,5.625895628118928,16.70334980991958
3923.7373,5.621798075941246,18.921243393213405
3924.642,5.621224765565888,17.606354669364382
3925.5452,5.626267957685892,19.543077770521215
3926.448,5.636617425167521,18.212934051860497
3927.3535,5.649453445250698,17.640901135469676
3928.257,5.660536656675914,17.073187818688098
3929.1628,5.666034107452807,17.37891418820328
3930.0667,5.663431335558458,16.534777296770873
3930.9731,5.652047700999302,16.401458630607333
3931.8774,5.633118013753493,15.964507383696885
3932.782,5.609131253231504,18.34499581582837
3933.6887,5.582867980057516,17.111525075925016
3934.5938,5.556592824737266,22.468653973784367
3935.501,5.531443534210295,19.15189087130564
3936.4062,5.5086125458306014,20.535376369552438
3937.3142,5.489505439383873,16.45457588757076
3938.22,5.475401906766759,19.52858517806127
3939.128,5.465128231767396,17.05615224363749
3940.0342,5.454327502470421,19.73831268997901
