wavl,flux,ivar
3566.9744,63.51094195512076,0.9182401927167517
3567.795,63.328796132428764,1.0459172117263422
3568.6177,63.11748618451837,0.9335719942899554
3569.4385,62.9170546382656,0.9278873313045453
3570.2617,62.73569465977766,0.911742421767088
3571.083,62.5681839466694,0.9529665238893282
3571.9065,62.40767881993085,0.9326019208852577
3572.7283,62.25548499037296,0.9866254217197631
3573.55,62.11569309223048,1.0160606484490633
3574.374,61.99018001494278,0.9441345207339656
3575.1963,61.87557341251277,0.9760495817716808
3576.0208,61.762578604544075,1.0016942173240522
3576.8435,61.64282974997794,0.9791580129897857
3577.6682,61.50901033246168,1.0216595222559715
3578.4915,61.35556801368,0.9895568696729161
3579.3145,61.176611848426816,0.9994800037286097
3580.14,60.971945925509864,1.0154653945113488
3580.9636,60.75971834383864,1.014751091462869
3581.7893,60.580128126954065,1.033810017274654
3582.6133,60.493780175185414,1.0805277378532674
3583.4395,60.557847807966496,1.104112173141654
3584.264,60.79597254330763,1.067830478403977
3585.0884,61.1742417728758,1.0524007232708286
3585.915,61.60292418080509,1.118991237965586
3586.74,61.96298580795582,0.8485726089526805
3587.5671,62.16075032881845,0.8999213046819454
3588.3923,62.158469539311334,1.0212222915869948
3589.22,61.98018907086359,1.096578045380843
3590.0457,61.683465691450195,1.009545050697214
3590.8716,61.323324875524456,1.0182010687530305
3591.6995,60.937693149335495,0.9748384844419632
3592.526,60.55664708671444,1.09481955063665
3593.3542,60.20901600124944,0.9639086199764355
3594.181,59.92874569851775,1.1262075589002671
3595.0098,59.735026556020244,1.1404169029855744
3595.8367,59.62372309050164,1.0854603900039863
3596.6638,59.56681637864857,0.9903178751777129
3597.4934,59.53288446586721,1.1155522202383394
3598.3208,59.50166083615172,1.0504893021273993
3599.1506,59.46079429998295,1.056196051002787
3599.9788,59.39475741580479,1.180379085575323
3600.8088,59.28369876634992,1.0237566423805726
3601.6372,59.12418453651161,1.024132598843046
3602.4678,58.948805109247914,1.0383840214014293
3603.2964,58.82631675278309,1.1935213214490477
3604.1252,58.82480437782254,1.2056676321263626
3604.9565,58.971292078069716,1.1340226091574388
3605.786,59.22939090550295,0.9762060624925397
3606.6172,59.51943773480466,1.0534519929994965
3607.447,59.75559780818258,0.9581350891703058
3608.2788,59.88694582344021,1.0473669852943357
3609.109,59.9059237392636,1.085450274824663
3609.9392,59.836377294516396,1.0856816859536744
3610.7717,59.70914160676329,0.9947614060951991
3611.6023,59.55088943154246,1.0330579616573428
3612.435,59.37938968706938,1.2262327325856364
3613.266,59.20499586884435,1.0887070495317652
3614.0994,59.0245780527568,1.103568274204473
3614.9307,58.82825776865766,1.060197110081783
3615.7625,58.6087510017905,1.051128715743756
3616.5962,58.3743857569519,1.1644806803463532
3617.4282,58.14942553985406,1.0525978227627146
3618.2625,57.95787033172741,1.0534224227153257
3619.0947,57.81466781342338,1.1878073031570426
3619.9292,57.71751797989801,1.0732866106098633
3620.762,57.65150964615598,1.236681952593717
3621.595,57.59126929614758,1.0959702773609583
3622.4302,57.50877774629528,1.0551234380011978
3623.2634,57.384922410500366,1.2001097428249277
3624.0989,57.21740537562623,1.1882470327898598
3624.9326,57.02405411829049,1.206712938267636
3625.7686,56.8311935277635,1.1975335298632075
3626.6028,56.6641423750591,1.0888696432264309
3627.437,56.53318458400022,1.2019635724236586
3628.2734,56.431328751804486,1.1886695693384006
3629.1082,56.34097269418144,1.1926739901096892
3629.945,56.24410477447628,1.2212465235607195
3630.78,56.131656332812504,1.2273848554381817
3631.6174,55.99954379641637,1.1967842048251789
3632.453,55.84656778597409,1.1727573439733003
3633.2883,55.67313201227321,1.1829895737502618
3634.1262,55.485641730047504,1.2282497710752245
3634.9622,55.296179567831466,1.2240834385461732
3635.8005,55.11032070898372,1.2357812414233524
3636.637,54.924932290764644,1.116862294407216
3637.4756,54.727845359972555,1.2399650459781042
3638.3123,54.51200416488252,1.32847746693624
3639.1492,54.28060835867743,1.275774950101577
3639.9885,54.0496000912265,1.2581128237773558
3640.826,53.8430052190722,1.304529749829346
3641.6653,53.67815239762525,1.3431504561010448
3642.5032,53.56013704049954,1.3037908234374402
3643.343,53.477024536881565,1.237807214122996
3644.1812,53.40894873566171,1.2755603992690239
3645.0195,53.338491791318056,1.3028565711896898
3645.86,53.260284160777985,1.4323857016237571
3646.699,53.18288332686212,1.2193010872234318
3647.5398,53.12108007736485,1.3603030821307303
3648.379,53.08622388682036,1.4066067649047085
3649.2202,53.07592568181972,1.2619193947864393
3650.0596,53.073705089491675,1.3959140850651555
3650.8994,53.05796162958949,1.2750567784732587
3651.7412,53.01447752652626,1.354344530243943
3652.5813,52.9427433409263,1.4547686555942994
3653.4236,52.85156801559888,1.2610168098403876
3654.2642,52.752734978082565,1.2655591004820896
3655.1067,52.654107079313114,1.3291355413679524
3655.9475,52.56027047029043,1.3999163592366077
3656.7886,52.47343722928023,1.3696716934255264
3657.6318,52.397820054941924,1.392651393622265
3658.4734,52.342209610681174,1.4413601844141588
3659.317,52.317617331378365,1.3097435618086901
3660.1587,52.333651565197556,1.3964517902614175
3661.003,52.39239508964093,1.3854459526046776
3661.845,52.48377551379809,1.3950293049092095
3662.6875,52.587232041164704,1.3248856793566783
3663.532,52.6776780577043,1.2979715987949447
3664.3748,52.733704149289814,1.5107138863962064
3665.2197,52.74389599427426,1.3299490368621198
3666.063,52.704824978251246,1.3205390583703118
3666.9084,52.61754999509613,1.3872065354996739
3667.752,52.488289815143844,1.3654814287759895
3668.5977,52.33094100099878,1.2395650388288229
3669.4417,52.17115224880361,1.3891673622253888
3670.286,52.03607488038533,1.471232603703013
3671.132,51.94000986676746,1.343487088456524
3671.9768,51.87303973429408,1.2641722226604228
3672.8235,51.804081842970085,1.4870793969488494
3673.6685,51.70274779037303,1.3608075180003367
3674.5156,51.55981431517455,1.3679553514672602
3675.3608,51.3955777364574,1.42739997703985
3676.2063,51.2439260915932,1.455042490023835
3677.0542,51.13194175154344,1.4761044745488503
3677.9,51.066988792072316,1.3870906247472443
3678.748,51.03559154662566,1.3939139029157583
3679.5945,51.015178749276025,1.4843743567014478
3680.4429,50.98433044971654,1.465654103583643
3681.2896,50.93040219923779,1.3422183287165392
3682.1365,50.85131073579726,1.5140221727823553
3682.9856,50.75472124677138,1.4752290002214195
3683.8328,50.6556688817328,1.7572805969902463
3684.6824,50.56851259320075,1.3624378213433417
3685.53,50.501425601521454,1.5198801527737704
3686.38,50.45227479239309,1.3355570647075286
3687.2278,50.41583206160659,1.598013409235738
3688.0762,50.3918009101913,1.5555222990727229
3688.9265,50.38809927006466,1.6091025026688963
3689.7751,50.41329330653863,1.6027224146428125
3690.626,50.46524718781906,1.5368754480641478
3691.475,50.52577717477046,1.393769401798067
3692.3264,50.568250465995575,1.462771285380754
3693.1758,50.56967433765219,1.573747498423675
3694.0254,50.519698316767006,1.532875050037139
3694.8772,50.419463563351044,1.482133530288477
3695.7273,50.27958949727326,1.4515724434184645
3696.5793,50.117240557316016,1.5914066702740741
3697.43,49.95610967462558,1.5495141747303465
3698.2825,49.815873254360156,1.5762631049389066
3699.1333,49.70373776554902,1.5263695880113706
3699.9841,49.60824400116561,1.562628990800897
3700.8374,49.508264482452596,1.5468822914440152
3701.6887,49.388719476357814,1.515300533183365
3702.5425,49.24878797757336,1.616292786450194
3703.3943,49.10213642058381,1.651868287510349
3704.2483,48.96266982678186,1.6167680050376678
3705.1003,48.83639005532017,1.542404780154248
3705.9526,48.71654091947976,1.614049141978412
3706.8074,48.591257652096886,1.694252538068468
3707.66,48.453987896132624,1.5859382176559067
3708.515,48.30512246097902,1.6215619429420023
3709.3682,48.15070833178231,1.6123722416921977
3710.2234,47.99376251154158,1.468116159916457
3711.0771,47.83725730210437,1.6401607390250341
3711.9307,47.68724772047776,1.676981340049954
3712.7866,47.55554597071009,1.6368852214484246
3713.6409,47.456062575324516,1.726921392287694
3714.4973,47.39557558791478,1.6849566150429822
3715.3518,47.37235142478653,1.6489493927652028
3716.2085,47.37715657435968,1.7133007766608155
3717.0635,47.39894310468484,1.7181264412058546
3717.9185,47.4295191840823,1.6965599314398574
3718.776,47.46540518825952,1.7229585836785923
3719.6313,47.505053726343235,1.7080306685497693
3720.489,47.544778555059494,1.7563710541158195
3721.345,47.57481976513138,1.5974264545396362
3722.2031,47.58127767633512,1.9028949086898739
3723.0593,47.55112941349602,1.6029198405121765
3723.9158,47.478503925349216,1.6222279985779717
3724.7747,47.36708711152458,1.7648669492644486
3725.6316,47.22985864591351,1.5968547295996356
3726.4905,47.082762240598406,1.7345321102475468
3727.348,46.94234407921176,1.7355079385658922
3728.2073,46.81918677209511,1.72365292739376
3729.065,46.71652034243839,1.7368512798946316
3729.9229,46.62825311944824,1.76915673661191
3730.783,46.54523061858618,1.678901023515823
3731.6414,46.4630570535742,1.6517718810728612
3732.5017,46.38360425802773,1.7967892891623047
3733.3604,46.3124699816956,1.8540811306623226
3734.2214,46.25207766180829,1.7449580821403952
3735.0803,46.20117803234537,1.8226602037739486
3735.9417,46.1546870781018,1.7546725731598978
3736.8013,46.1053769518764,1.8589830950372401
3737.661,46.04380433948283,1.6866745105117023
3738.5227,45.962794100837826,1.811025281837809
3739.3828,45.864592113577345,1.7232883934948993
3740.245,45.761028114267766,1.7376216598021568
3741.1055,45.668091380382506,1.8430419796701951
3741.9683,45.594132954332515,1.7226910331032956
3742.829,45.53800625811621,1.86459148733451
3743.69,45.49233236166145,1.708985086633858
3744.5532,45.45095872747543,1.8397914977718504
3745.4148,45.412551180916424,1.7355693565048709
3746.2786,45.37989600823275,1.8210223413606776
3747.1404,45.359298838438065,1.8057604449370848
3748.0044,45.35723614220427,1.954655791272196
3748.8667,45.37523956130792,1.8429548528349318
3749.729,45.40389179193014,1.7093828645797404
3750.5938,45.42254565417258,2.0101947063586425
3751.4565,45.4079992495797,1.828215434211614
3752.3215,45.34888002804565,1.9805761955189227
3753.1848,45.25477328358379,1.7347213869356373
3754.0503,45.15040734511695,1.8614273846608342
3754.9138,45.06135083122973,1.9476980041726977
3755.7776,44.99771345764652,1.9841824055197623
3756.6438,44.95244240089209,1.7849181507343366
3757.508,44.91088241839754,1.989768801007979
3758.3745,44.86202041072674,1.724121288374824
3759.239,44.80388646816275,1.9270280790732652
3760.106,44.738245933567995,1.856576600198899
3760.971,44.66627929652908,1.9841340250295965
3761.8362,44.587586772168365,1.931205202957701
3762.7036,44.50418163438475,1.9526718624070323
3763.5693,44.421220874443335,2.024363478189801
3764.437,44.34111832447641,1.926488351832821
3765.3032,44.26129293339126,1.8504847555768937
3766.1714,44.17483820075164,1.9463609137371443
3767.0378,44.07768962047964,1.8923268992374598
3767.9043,43.97187876620349,1.929002187723539
3768.7732,43.865726988113366,1.9996103961419682
3769.6401,43.77050104550294,2.016985776038703
3770.5095,43.69314411904997,1.9426125294602667
3771.377,43.63489372782686,2.094728801399475
3772.2466,43.59017999751833,1.9861574497523269
3773.1145,43.55104617051193,2.0610617643477
3773.9824,43.51041142692715,2.12991502764034
3774.8528,43.46530491770182,1.934092017076556
3775.721,43.417688820565694,2.019450297097574
3776.5918,43.37125949373452,2.062104380100924
3777.4604,43.32962337019235,2.0173290513334172
3778.3315,43.29464579586811,1.8219867708899553
3779.201,43.26811944263143,1.9843460256250307
3780.0703,43.25040169744249,2.0821021705417153
3780.942,43.23865124542683,1.9048244985633056
3781.8118,43.22718826269497,2.1517997509664633
3782.6838,43.211154660608855,2.103302161765627
3783.554,43.18974189958756,2.0137414827375486
3784.4265,43.16358514314223,2.0600307785784193
3785.297,43.129791544038696,2.197897973602472
3786.168,43.079825731207244,2.1022212194156533
3787.041,43.004795885765134,1.9849781717453825
3787.912,42.90376141514062,1.9902962569434028
3788.7856,42.78519948955157,2.052985028577801
3789.6572,42.66485814274912,2.0411109978044593
3790.531,42.55603327182381,2.0756222233649164
3791.403,42.465442588414135,2.221391347741553
3792.2754,42.389458319192215,2.0661465251292097
3793.15,42.31805142539396,2.2367947148187204
3794.0225,42.24178177005087,2.1874712470319064
3794.8972,42.1572866475007,2.124502344835928
3795.7703,42.071572360362616,2.119541691372938
3796.6455,41.997270348194654,2.134705641569627
3797.519,41.946003444328056,2.195917406032548
3798.3926,41.919776228054374,2.0807633862159367
3799.2686,41.91024753483343,2.1502550461704906
3800.1426,41.903362130582245,2.1144220276094945
3801.0188,41.88545874717773,2.1333685589951052
3801.8933,41.84768618917917,2.218170592090769
3802.77,41.78764557163287,2.0446713543638446
3803.6448,41.711104525009596,1.9810058895217757
3804.522,41.62989850397175,2.324775597948475
3805.3972,41.558678285310584,2.401600005703217
3806.2727,41.506685335258155,2.17540408164198
3807.1504,41.47469374916696,2.2876699367278506
3808.0261,41.457605473050414,2.255284376437821
3808.9043,41.44939435626326,2.1633691592824267
3809.7805,41.44501340187792,2.1805155539623082
3810.659,41.43747908113406,2.452759468152784
3811.5356,41.41767803512085,2.1913821050352036
3812.4126,41.37945094062463,2.178042950604513
3813.2917,41.324622129576795,2.1949013631512426
3814.169,41.261999369562695,2.1608850053842086
3815.0483,41.1997803405133,2.081344247515363
3815.926,41.141856095172436,2.2371365483178676
3816.806,41.08675166980371,2.2601472971247487
3817.684,41.030257677343315,2.2896375248382115
3818.5623,40.965178831989974,2.3376575339061163
3819.4429,40.88313591027342,2.205054193270778
3820.3215,40.779919848509195,2.134422742340113
3821.2024,40.65841548667873,2.3454663612992586
3822.0815,40.529657608778024,2.3621379913683653
3822.963,40.40460731043939,2.3039556839191073
3823.8423,40.290527999932145,2.3269741058911353
3824.722,40.18805224763628,2.4841084116331777
3825.604,40.09502884821202,2.325804368031641
3826.4841,40.00957931331789,2.33241903579491
3827.3665,39.929014814478386,2.400330033275707
3828.2468,39.851333392308206,2.314366132269568
3829.1296,39.77387189765678,2.422472465079299
3830.0105,39.69494107894238,2.53722773555634
3830.8916,39.61262523685491,2.503992823081974
3831.7751,39.52678330231468,2.3651269583273953
3832.6565,39.4416789286462,2.4910306607095483
3833.5403,39.36367954279802,2.634805522131159
3834.4224,39.298525835792084,2.4569221652595634
3835.3064,39.245596636247036,2.5859581179297404
3836.1887,39.19927372497932,2.4562461047510946
3837.0713,39.15281108817962,2.4228745797099758
3837.956,39.10394430975087,2.6705388752463946
3838.839,39.05774147824585,2.533816520795548
3839.7244,39.02471745367396,2.4515509862761093
3840.6077,39.01655748103796,2.558119041334953
3841.4932,39.03806684418648,2.7025814265763706
3842.377,39.08197239818723,2.415210332352093
3843.261,39.13164064144332,2.354133533127919
3844.1472,39.170569359085455,2.4648864738609357
3845.0315,39.190747377636114,2.4207000482012258
3845.9182,39.19418253588297,2.36274075408763
3846.803,39.18681285576594,2.5516669541274273
3847.69,39.1723156685781,2.394858036437107
3848.5752,39.14982369749685,2.350057380611394
3849.4604,39.1155504479852,2.451417279670927
3850.3481,39.066018019402996,2.2189158217356244
3851.234,39.001054572517745,2.1785854684169297
3852.122,38.923858408775594,2.7594107947550484
3853.0083,38.8414160765841,2.4357214984781725
3853.8967,38.76005660166036,2.5928251862514355
3854.7832,38.68335746773642,2.6669230632496594
3855.6702,38.60985017508785,2.6937688016110553
3856.559,38.536450169907006,2.4420519813859265
3857.4463,38.46218897435425,2.655766172501627
3858.336,38.387708377405865,2.660626725645504
3859.2234,38.31442238811031,2.5060861085060266
3860.1135,38.24141434502153,2.625914180555576
3861.0015,38.16840569466867,2.7278023719398403
3861.8896,38.09683495173449,2.4919464349115046
3862.7803,38.03042089702998,2.7313878625081265
3863.6687,37.97221716953152,2.694094924644484
3864.5598,37.9200644128499,2.794086369924367
3865.4487,37.86828778074917,2.694057973566609
3866.34,37.81097085359245,2.7955010329083976
3867.2297,37.74807580216006,2.6738073324321596
3868.1213,37.68555663616679,2.6495498699766937
3869.0112,37.63230397010728,2.8442357450900118
3869.9014,37.59340823256513,2.4935667050037496
3870.7937,37.56827885742552,2.5668920067849994
3871.684,37.55297297048961,2.5742999246394955
3872.577,37.54299952418878,2.672818486438684
3873.4678,37.53401574675333,2.812435336624813
3874.361,37.51980064028748,2.913218107055662
3875.2524,37.491679864923874,2.724725511247813
3876.1438,37.44037535722591,2.737841739469568
3877.0376,37.36048484045772,2.8915962886814253
3877.9297,37.25587047615759,2.7997959028691377
3878.8237,37.13822379909875,2.6626225216501966
3879.716,37.02155981630938,2.879437958053659
3880.6108,36.911030989712486,2.7404347902102053
3881.5037,36.80248888530712,2.70901376753223
3882.3965,36.68799585572517,2.611392079270836
3883.2917,36.56643035203168,2.8355544354859528
3884.185,36.447040990302625,2.835671961213994
3885.0808,36.34034281587712,2.959018404549846
3885.9746,36.25066641267114,2.8628302626827122
3886.8706,36.17025741535141,2.6786259643614003
3887.765,36.0859809432745,3.1173191644145115
3888.6592,35.988037661926136,2.855263625462647
3889.556,35.87805753625073,2.940250862822719
3890.4507,35.76989455933574,3.1202673849345066
3891.348,35.67953654603422,3.087465026691434
3892.243,35.617274177595945,3.0826411899811617
3893.1406,35.58249061504044,3.0988432068970373
3894.0361,35.56979497091051,2.8288824764281055
3894.932,35.57514544832423,3.0982306400629205
3895.83,35.5979930182193,2.9375140240629287
3896.7263,35.63674436963892,2.950453628693107
3897.625,35.68580646725622,2.858234479595479
3898.5215,35.73708208550898,2.7586332798080426
3899.4207,35.78610937027908,2.863641663940579
3900.3176,35.8332119195248,3.1678195595589878
3901.2148,35.88192916132697,2.7704567329578014
3902.1145,35.93494593396677,2.8349828432564554
3903.0122,35.99249215887278,2.908756071488117
3903.912,36.05460062171757,2.9245641928086874
3904.8103,36.12142905013897,3.018053537268844
3905.7107,36.193400857312895,2.88507971810749
3906.6094,36.26664171466678,2.852797710088509
3907.508,36.33109434070162,2.7905910013050956
3908.409,36.371793982916856,3.0020129546618626
3909.308,36.37624679227502,2.8581614773042423
3910.2097,36.34300964803765,2.745498186040188
3911.1091,36.28314165310963,2.751143894935218
3912.011,36.213317098918125,2.607677526279768
3912.9111,36.1486863053417,2.85214343609033
3913.8113,36.09723608279235,2.983173046294815
3914.7136,36.05944818480545,2.928363925838745
3915.6143,36.029481157209226,2.85160410255505
3916.517,35.99699378890578,2.9265838490488094
3917.4182,35.95168780469676,2.897244221627621
3918.3215,35.88689394080114,2.8889230389884557
3919.223,35.80357458234346,2.9166405991709015
3920.1245,35.71084004393995,2.8537420659099517
3921.0286,35.625311204227216,3.0069226533711912
3921.9307,35.566771726592044,3.195859592395654
3922.835,35.54838656036515,2.9416958741526327
3923.7373,35.5704848830262,2.9324216632372324
3924.642,35.619634608295186,3.1410569063735574
3925.5452,35.67508043275011,2.958120114188151
3926.448,35.71890859070439,2.916519157273701
3927.3535,35.742093853666915,3.0231399714742966
3928.257,35.74438057083287,2.9418850155707412
3929.1628,35.72992614641945,2.919890863896509
3930.0667,35.702049241490236,2.9174099486994978
3930.9731,35.66102009063049,2.7218411931432795
3931.8774,35.60641535579296,2.9854879517313617
3932.782,35.539856497140796,3.0415588702880068
3933.6887,35.46709498390323,2.9585311307902007
3934.5938,35.39639815872457,3.17178038321391
3935.501,35.33220120081072,3.1136554707828474
3936.4062,35.27246911187687,2.899728527154662
