wavl,flux,ivar
3566.9744,0.6704202047699692,1961.2197859366806
3567.795,0.6714633526947282,1683.1208806134978
3568.6177,0.6722404382964108,1851.274289424492
3569.4385,0.6724835878415333,1507.1540671050598
3570.2617,0.6722555456421047,1824.3028422444156
3571.083,0.6718075292315708,2010.975204282907
3571.9065,0.6713849183515631,1914.5439580887448
3572.7283,0.6710785676969729,2007.1066158254284
3573.55,0.6708685736888468,2107.0819519061943
3574.374,0.6708332589298264,1574.254285313877
3575.1963,0.6711983187037345,1586.79117049138
3576.0208,0.6721065235806033,1940.8183114357178
3576.8435,0.6733932867156591,1235.7544100827868
3577.6682,0.674709264406338,1471.9746227174257
3578.4915,0.6757942314023898,1827.5778488424878
3579.3145,0.6766033018452482,1888.1786977221766
3580.14,0.6771440134989607,1678.1681846994602
3580.9636,0.6773145602079433,1652.7800521748457
3581.7893,0.6769349496473968,1698.9307848595004
3582.6133,0.6758671242455717,2536.873770892621
3583.4395,0.67408840208289,1532.4964522403075
3584.264,0.6717384109896017,1958.844203077088
3585.0884,0.6690908318327803,1784.329712520899
3585.915,0.6665182954042181,1872.622989168899
3586.74,0.6644541435173126,2114.0391111921813
3587.5671,0.6633025481224176,1946.8255450950758
3588.3923,0.6633735815597491,1883.918729373132
3589.22,0.6646531436463824,1904.5177707452656
3590.0457,0.6666093337328866,1580.7108926608164
3590.8716,0.6683002499133496,1665.198035985085
3591.6995,0.6687922510103899,1943.0284315346223
3592.526,0.6676468359582935,1714.3929943625183
3593.3542,0.6651073778569986,1835.0535107395772
3594.181,0.6619231141668956,1682.6003005054333
3595.0098,0.6589687410459899,1951.9842800907359
3595.8367,0.6570293388756148,1567.576481121868
3596.6638,0.6565656242709549,1718.7853505882101
3597.4934,0.6575884533118198,2317.805104462945
3598.3208,0.6595698397714949,1736.4687447494248
3599.1506,0.6616396623267335,2163.380792825364
3599.9788,0.6629212620566819,1573.040621592684
3600.8088,0.6629264340457158,1550.7027621273996
3601.6372,0.6617043978040109,1784.5924978621013
3602.4678,0.6597497073098679,2220.5210571838847
3603.2964,0.6577295536114086,1703.379793121803
3604.1252,0.6561513279259921,1895.4468388059777
3604.9565,0.6552746839132632,1779.9119172162723
3605.786,0.6551945169492849,1827.9411864748486
3606.6172,0.6558798062701584,1924.0981541401711
3607.447,0.6570801428934379,1875.4086404386035
3608.2788,0.6582543590383274,1972.3873135876077
3609.109,0.6587136588589002,1566.5902177831476
3609.9392,0.657992843486183,1758.8711592695165
3610.7717,0.6561182850885695,1849.733743029743
3611.6023,0.6536307258952831,1697.4522916452222
3612.435,0.6512543351991334,2483.0552616021764
3613.266,0.6495294713009594,1833.873337981039
3614.0994,0.6485127678212442,2263.9562454477286
3614.9307,0.6478876050408771,1716.6068060150462
3615.7625,0.6473127741933757,1690.431823562173
3616.5962,0.6467710068659077,2053.7173546344775
3617.4282,0.6465408179176413,2355.9132033989786
3618.2625,0.6468147343449634,1720.1905859857561
3619.0947,0.6474062101656588,2271.773189613407
3619.9292,0.6479235457028443,2050.286147856804
3620.762,0.648247602437802,2064.5739398110904
3621.595,0.6487668200111645,2011.7185922189503
3622.4302,0.6500264906285836,2166.9680397401057
3623.2634,0.6521374622941172,1977.2439874003721
3624.0989,0.6546072890199013,1463.0929238959022
3624.9326,0.6566647909412033,1880.0567482925574
3625.7686,0.6578250527247194,1958.8463507096176
3626.6028,0.6581104429041625,2030.530588338781
3627.437,0.6579655963981517,1969.6264159300376
3628.2734,0.6579242644009413,2060.5170975979886
3629.1082,0.6582454370587169,2136.2983276565246
3629.945,0.6586785724615002,1937.218095930221
3630.78,0.6585609316088287,2265.969928786263
3631.6174,0.6572760118503187,1846.6429902042908
3632.453,0.6547738068710468,1862.6146355954197
3633.2883,0.6517113157636254,1747.6567487361935
3634.1262,0.6491154593415007,2180.6482971286837
3634.9622,0.6478111948157661,2090.0415419822625
3635.8005,0.6479133182357767,1716.2637427309776
3636.637,0.6488050119879767,1640.986240253884
3637.4756,0.6495350363603944,2843.2525914640682
3638.3123,0.6494366304936626,1642.9891098404291
3639.1492,0.6485729919429559,1795.5467849209879
3639.9885,0.64761991044231,1931.5315075551161
3640.826,0.6473090624325165,1929.0827898654309
3641.6653,0.647888375619694,1863.0091384461632
3642.5032,0.649078882305628,1544.112069974786
3643.343,0.6504112447648948,1817.2802772774787
3644.1812,0.6515209531520034,1759.2883643769876
3645.0195,0.6522508861400832,1782.2872415145378
3645.86,0.6525606795852943,1881.2791195958964
3646.699,0.6523896289426714,2124.723437014363
3647.5398,0.6515443826938581,2127.806423327433
3648.379,0.6497504478889414,1550.2157174594774
3649.2202,0.6469002318001654,1999.6994296207517
3650.0596,0.6433710722325191,2200.7351785935507
3650.8994,0.6399612880865709,1956.4849136996193
3651.7412,0.6375330526380495,2263.939147645235
3652.5813,0.6365545999296183,2074.747911914708
3653.4236,0.6368858145360494,2291.5412420188563
3654.2642,0.6380039934158718,1657.700518140917
3655.1067,0.6393792663083717,2079.0882239498796
3655.9475,0.6406781724757498,2159.745427238686
3656.7886,0.641744322138604,1809.177327301406
3657.6318,0.6424730782009065,1844.587945006348
3658.4734,0.6427937550353717,2805.7145303740804
3659.317,0.6427268234427923,1441.655094931431
3660.1587,0.6423821106770967,1625.5904663385945
3661.003,0.6419265260226498,2278.229247897391
3661.845,0.6415610800725539,1935.9870715674035
3662.6875,0.64144055665873,2442.111348342183
3663.532,0.6415426393902469,2125.8532879529266
3664.3748,0.6416095741299278,1820.0483999580983
3665.2197,0.6413308161848341,1801.9507069436147
3666.063,0.6406518758097778,2015.5555748435597
3666.9084,0.6398815055118363,2674.623837471904
3667.752,0.639483002669656,2339.3303305551653
3668.5977,0.6397423961534705,1839.224453364409
3669.4417,0.6406532201611791,2358.990714208937
3670.286,0.6420335454747333,1895.3229309622684
3671.132,0.6436954205981015,1774.4745108686732
3671.9768,0.6455048538099384,2211.303513599182
3672.8235,0.647370028572271,1741.2561784893244
3673.6685,0.6491051215166378,2167.5779556026737
3674.5156,0.6503637264512785,1879.3207891984846
3675.3608,0.6506526087310097,2012.532380402638
3676.2063,0.6495896980888103,2175.595755037279
3677.0542,0.6471694872832477,1763.1530168748814
3677.9,0.6439080174672335,1577.9716856970583
3678.748,0.6406256069143085,2333.9987662464887
3679.5945,0.638183373883932,2022.7755795132423
3680.4429,0.6371481632278239,1984.4229839548682
3681.2896,0.6376910658349816,2097.571651150703
3682.1365,0.6395478905260435,1518.3394735931806
3682.9856,0.6421212417228498,2114.4052717346685
3683.8328,0.6446450631188518,1668.6967149589561
3684.6824,0.6464775486968022,1676.4969902409302
3685.53,0.6472048877290367,1965.9169430864497
3686.38,0.646646756529319,2268.471680299821
3687.2278,0.6447705558807764,1729.6538496183575
3688.0762,0.6417371735545734,2087.1213389247864
3688.9265,0.6380140550195829,2207.357548007323
3689.7751,0.6343709036192086,1956.7906851763482
3690.626,0.6315712664503256,1773.359950109603
3691.475,0.6301242035039499,1864.7539390060367
3692.3264,0.6300717379764393,2278.3219032788024
3693.1758,0.6310557880892788,2326.670023730807
3694.0254,0.6325296052324474,1947.9382306207701
3694.8772,0.6340592082603498,2086.57164774775
3695.7273,0.6355021367689317,1635.0483043463655
3696.5793,0.6369862389590427,2094.579040553288
3697.43,0.6386617761039504,1951.5899528805462
3698.2825,0.6405328472988726,2089.952989076213
3699.1333,0.6423714820975162,1900.6132399523137
3699.9841,0.6437905354270684,2027.2408181166973
3700.8374,0.6443497562644779,1733.8401537611624
3701.6887,0.6437452362604799,1879.0269566500165
3702.5425,0.6419908407609933,1828.0640090643742
3703.3943,0.6394738610958773,1820.4334616316737
3704.2483,0.6367902937543451,1930.1163532012542
3705.1003,0.6345214595333731,2021.3663325164996
3705.9526,0.6329058136443957,1890.7643592242819
3706.8074,0.6317434853811512,1962.4375454442734
3707.66,0.6305892675666208,1969.304812692305
3708.515,0.6291404434276309,2071.569513097753
3709.3682,0.6275612649556989,2135.0569643259905
3710.2234,0.6263778207201793,2277.8518617475547
3711.0771,0.6261290788047257,2075.0337132670093
3711.9307,0.6270005675492464,2476.020438435743
3712.7866,0.6287446987868762,3046.7888325570075
3713.6409,0.6308109485652942,2170.6576158371663
3714.4973,0.6326591456644705,1676.1864015453043
3715.3518,0.6339778247730952,2166.510784153337
3716.2085,0.6347721638429334,1937.8054279301298
3717.0635,0.6351785694796683,2439.198555805693
3717.9185,0.635293607967519,1880.0741078668616
3718.776,0.635161260285244,2388.051199642973
3719.6313,0.6349242722129079,2055.7178018402883
3720.489,0.6348673671795425,1895.402257983358
3721.345,0.6352039666711546,2124.122398854081
3722.2031,0.6357808244467078,2132.8964420585016
3723.0593,0.6360526568271111,1728.3137501538704
3723.9158,0.6354464992661097,1840.1643084248237
3724.7747,0.6337595710939943,1853.098961811068
3725.6316,0.6312631319346486,2052.172898666061
3726.4905,0.6284159349307115,2198.1163774078423
3727.348,0.6256373480310038,2067.0651320925213
3728.2073,0.6232127233090966,1685.4578532348082
3729.065,0.6214111535291952,2133.290929925453
3729.9229,0.6204685164497916,2124.6043724263127
3730.783,0.6205410078365878,2193.053821652579
3731.6414,0.6216141003811251,2071.9674114507175
3732.5017,0.6234587991447968,2181.896030580906
3733.3604,0.6256107645210964,2125.66228017415
3734.2214,0.6274914482078572,1829.7223430316735
3735.0803,0.6286103835223398,1975.9367486567921
3735.9417,0.6288696481571634,1848.3464261073245
3736.8013,0.6286014148981636,2338.814889304485
3737.661,0.6283223364623189,2285.082552830653
3738.5227,0.6283482512367073,1983.465518900478
3739.3828,0.628592215196661,2125.5395401764526
3740.245,0.6286504113072571,1908.5157957854544
3741.1055,0.6280598790664685,2030.8203940407248
3741.9683,0.6265749268168697,1953.984975895183
3742.829,0.6243822546274732,2542.1137753449007
3743.69,0.622072373810847,1887.0598136766241
3744.5532,0.6203573152492063,1838.4596185337027
3745.4148,0.619669357114378,1874.8888146274728
3746.2786,0.6199124576730575,2000.9894450899803
3747.1404,0.6206021279381849,2126.659958646473
3748.0044,0.6211692635680662,2108.7747719279673
3748.8667,0.6211934714311217,2259.232809111598
3749.729,0.6205467965130615,1606.9323764635922
3750.5938,0.6194636052777721,2330.4091841085046
3751.4565,0.6185066326948764,2206.132705694342
3752.3215,0.618274750751617,2045.9079692505368
3753.1848,0.619048136464355,1966.8457055301733
3754.0503,0.6206313872656641,1928.1013157895695
3754.9138,0.6225300340004518,2260.47823021567
3755.7776,0.6243090072885731,2113.0640645134254
3756.6438,0.6257656027007219,1726.9173133290403
3757.508,0.6268542814795944,2302.697216023964
3758.3745,0.6275435993149023,1916.3273064784078
3759.239,0.6277352247113414,2064.443549811317
3760.106,0.627381732439861,1884.1012018541298
3760.971,0.626610931339361,2008.6104274274903
3761.8362,0.6256859905261591,2087.5441356584884
3762.7036,0.6248095919990995,1968.012130806041
3763.5693,0.6239860111320498,1926.292902339018
3764.437,0.6230792464984746,2015.1746915752306
3765.3032,0.6220261649649176,2085.1978942989663
3766.1714,0.6209088785078722,2163.1758328903734
3767.0378,0.6198624282279733,2351.3770637065113
3767.9043,0.6189062563943845,2090.080431271724
3768.7732,0.6179279155205075,2185.6925175965102
3769.6401,0.6168037773718379,2248.0139606041294
3770.5095,0.6155105168839308,1942.1036801899102
3771.377,0.6141795889072953,2306.6531859795623
3772.2466,0.6129669661850615,2309.199969340062
3773.1145,0.611928367370782,3270.912881247829
3773.9824,0.6109863752552139,1761.1035644626152
3774.8528,0.6100887044318183,2095.812283231619
3775.721,0.6093091789212123,2358.96565996141
3776.5918,0.6087173174836527,2415.724814542264
3777.4604,0.6082714192142027,2027.6859963566772
3778.3315,0.6079189187904258,2116.767324206419
3779.201,0.6077947409168737,2639.176079232321
3780.0703,0.6081309067794661,2343.0960575319045
3780.942,0.6089848895261522,2071.5173119027263
3781.8118,0.6101913319792388,2256.9546410791727
3782.6838,0.6116777790897852,2329.1654450097794
3783.554,0.6136308875564168,2522.375162155454
3784.4265,0.6162487584132683,2336.4008768225494
3785.297,0.6192501110325057,2116.143361461463
3786.168,0.6218748058136248,1918.924978156799
3787.041,0.623334278177636,1839.2961295085984
3787.912,0.6233185743858293,1999.0630377636162
3788.7856,0.6220786636552839,2087.627117393281
3789.6572,0.6200891900975215,2466.441104372787
3790.531,0.6177172884677453,2007.7402548677242
3791.403,0.6152378386533066,2098.458212237498
3792.2754,0.6129348140223703,2253.0357024778195
3793.15,0.6111243244141341,2147.0330332722374
3794.0225,0.6099868694526752,2199.26780820916
3794.8972,0.6093898301231319,2429.012396005343
3795.7703,0.6089912913670349,2095.910812308095
3796.6455,0.6085046330976758,2050.5871207427926
3797.519,0.6079437646442232,1795.4205121497937
3798.3926,0.6075929291994334,1852.6956552119657
3799.2686,0.6077467520323442,2081.4811740177333
3800.1426,0.6084243166177528,2071.762503019601
3801.0188,0.6093149672024117,2251.4996939962857
3801.8933,0.6100048457181401,2397.7615270311085
3802.77,0.6103404047439867,2247.9400352753905
3803.6448,0.6105797286444559,2283.394280308182
3804.522,0.6112118301873218,2144.5654636922345
3805.3972,0.6125661727226387,2420.2719787466553
3806.2727,0.6145826944181365,2341.8222731505352
3807.1504,0.6168883303923667,1857.2644870508452
3808.0261,0.6190392546467174,2072.1679521474125
3808.9043,0.6207669859132424,2700.627963766839
3809.7805,0.6219786943430213,2249.0889055676903
3810.659,0.6227257280013758,1905.147428686345
3811.5356,0.6231069104531818,1738.745473448292
3812.4126,0.6232269628588418,2467.9775151579424
3813.2917,0.6231459137385347,1947.9939862890385
3814.169,0.6228813306226948,2027.9292766589592
3815.0483,0.6224624213356216,2468.624629355454
3815.926,0.6219903112036637,2240.7641014191618
3816.806,0.6216013478197773,2410.4370047838256
3817.684,0.6213540239186076,2026.9713782760516
3818.5623,0.6211154927317092,2130.041387315285
3819.4429,0.6205849067679206,1886.0777714524206
3820.3215,0.6194613059066044,2123.4515187796624
3821.2024,0.6176220585234673,1900.0943107225335
3822.0815,0.61522554423743,2244.720699022574
3822.963,0.6126023327977838,2167.3987093299133
3823.8423,0.6101048155317903,2906.9696275605893
3824.722,0.6078648477904051,2124.8029384007873
3825.604,0.6057436402818266,2063.211566912728
3826.4841,0.603487233125616,2034.0737780720901
3827.3665,0.6009362093869735,2402.3912901885014
3828.2468,0.5981883039157103,2653.4752346134815
3829.1296,0.5954427904412172,2367.2489909653555
3830.0105,0.5928722232104979,2092.7207285340455
3830.8916,0.5905169281805799,2176.219238941152
3831.7751,0.5883685640264485,2410.2286271002686
3832.6565,0.5864196717056518,2765.2830627758476
3833.5403,0.5846055230897392,2298.4573015746146
3834.4224,0.5829050772766468,1931.880166131392
3835.3064,0.5814873641758378,2567.5534204961045
3836.1887,0.5808199659559243,2448.1426436872025
3837.0713,0.5814147948396249,2549.7115839735548
3837.956,0.5834452876197918,3024.277593592362
3838.839,0.5865318395916002,2086.7689318669886
3839.7244,0.5899810235957212,2348.4597079160962
3840.6077,0.5931476229896561,2199.7429164083173
3841.4932,0.595797904197403,2184.299041321681
3842.377,0.5980801016757264,2046.6765096683887
3843.261,0.6003371793463833,2735.4363603544643
3844.1472,0.6027791212383348,1992.8352236584567
3845.0315,0.6053287280261785,2192.7740057347396
3845.9182,0.6078054771113874,2140.489995043459
3846.803,0.6101257825041421,1633.9993893628564
3847.69,0.6124075677658224,2046.6512803897645
3848.5752,0.6147260532059886,1922.089202523666
3849.4604,0.6169580037130652,2195.985222755821
3850.3481,0.6188586442646057,2007.6446676251699
3851.234,0.620343237752574,2012.8193655308594
3852.122,0.6216583594370908,2168.4852546167226
3853.0083,0.6231253788206013,2345.5339692776074
3853.8967,0.6248135079169997,2230.724973408778
3854.7832,0.6264390218234674,1872.2527102772274
3855.6702,0.6276978256824247,2032.2808720400633
3856.559,0.6285892978442482,2252.4754866663925
3857.4463,0.6294091565812296,1894.9554835451693
3858.336,0.6304086468785851,2108.5511700001243
3859.2234,0.6314405217369264,2328.1034827066555
3860.1135,0.6320031858493518,1920.2404486743533
3861.0015,0.6315983321374155,2097.625680053891
3861.8896,0.6301279976667575,2215.420170578036
3862.7803,0.6279470400725766,2046.0074463118224
3863.6687,0.6256398870396817,1921.7153497125178
3864.5598,0.6236721701883048,2254.5239325124767
3865.4487,0.6222717472661679,2106.9636710387426
3866.34,0.621347236641192,1973.1191377826062
3867.2297,0.620526018431942,1778.0128222108438
3868.1213,0.619239387901992,2660.1158618497416
3869.0112,0.6170036213228561,2017.8009975558791
3869.9014,0.61368257986642,2484.97848427789
3870.7937,0.6095456895043676,2130.578063805024
3871.684,0.6050982108971515,2377.049251003027
3872.577,0.6007490684428544,2271.8661194589363
3873.4678,0.5967796915018089,2409.9283925438476
3874.361,0.5932931780959126,2373.931746459675
3875.2524,0.5903478695756641,2199.1064848570622
3876.1438,0.5878914529398332,2170.8104407866645
3877.0376,0.5857118601720506,2632.6227828677024
3877.9297,0.583393171314787,2379.5996767760744
3878.8237,0.580402420238079,2199.1222693783725
3879.716,0.5764298866554475,2391.9410458554653
3880.6108,0.5715252156114081,2335.7311306967913
3881.5037,0.5660281910136775,2688.852391323857
3882.3965,0.5601804705219758,2489.658291472007
3883.2917,0.554038813658275,2395.509777838804
3884.185,0.5476994361019767,2589.4770926221463
3885.0808,0.5413737919754301,2251.4776100894765
3885.9746,0.5354661649678322,2832.2817375634077
3886.8706,0.5302507176223723,3181.422408691051
3887.765,0.5258611631143493,3078.9756551398273
3888.6592,0.5223100132602814,3031.371679280754
3889.556,0.5197568438319793,3021.6981270598867
3890.4507,0.5186441521023331,3489.5219030939597
3891.348,0.5195066511832386,2493.3653938394236
3892.243,0.5226313918035946,3107.8830233397834
3893.1406,0.5278236657620795,2827.6183868763073
3894.0361,0.5344068752239025,2596.8947696726964
3894.932,0.5416151053694263,2844.8225382706773
3895.83,0.5488205512876908,2277.4115033406815
3896.7263,0.5555397190093467,2571.272954105392
3897.625,0.5615032898256693,2103.003415232417
3898.5215,0.5665194793595854,2198.84435403563
3899.4207,0.5706870039307952,2607.031296409077
3900.3176,0.574379615163687,2461.7998973094113
3901.2148,0.5782595504160083,2152.0326753610047
3902.1145,0.5829560663283349,1964.915302525771
3903.0122,0.5886962449438161,2740.2538135162713
3903.912,0.5952808994412379,2191.6635976794587
3904.8103,0.6021857584607699,2144.9929514185924
3905.7107,0.6089839537578943,2042.0007259726851
3906.6094,0.6153923093420365,1987.1377883823432
3907.508,0.6213393475144,2273.7455504082463
3908.409,0.6268233990991462,2180.876870170387
3909.308,0.6318217745289957,1908.7841124794993
3910.2097,0.6363714953446189,2213.166630976184
3911.1091,0.6404901809858542,2355.500096539064
3912.011,0.644275709351489,1895.364758759798
3912.9111,0.6478149509188331,1786.9772853244053
3913.8113,0.6512221157311998,1938.301345678854
3914.7136,0.6545885293670122,1817.5754192189097
3915.6143,0.6579558023186937,1847.151902828422
3916.517,0.6613662584729952,1744.9929452676902
3917.4182,0.6647557865262574,1884.546559318424
3918.3215,0.6679361409292807,1834.2071096851898
3919.223,0.6705493984298613,1761.3148605994281
3920.1245,0.6722894185486925,1770.4444681420748
3921.0286,0.6730954706815053,1944.9955783979092
3921.9307,0.6732474367786382,1849.5086351592918
3922.835,0.6732651924628882,1690.0900118201616
3923.7373,0.6736683160243275,1907.3197591305845
3924.642,0.6747565692910172,2094.133474035817
3925.5452,0.676470982911395,1581.0002042177232
3926.448,0.6784336614086541,1713.0162311269817
3927.3535,0.6801241105152748,1743.560666483206
3928.257,0.6810771739623629,1668.6648196719218
3929.1628,0.6810405396477721,2063.6877374406145
3930.0667,0.6799882439211492,1695.1905274362573
3930.9731,0.6781185062824427,1870.0812461021894
