wavl,flux,ivar
3566.9744,0.47636872698156657,3692.786722432077
3567.795,0.4769117852677209,3095.4454158079457
3568.6177,0.47836007371587985,2687.466846455193
3569.4385,0.479441505298743,2711.347507648899
3570.2617,0.4772277460508642,2153.23313926429
3571.083,0.46633006384837955,1809.2735249041148
3571.9065,0.4382292565660764,1817.959805330638
3572.7283,0.3835987726928573,2369.3105749499823
3573.55,0.29898800123526503,2875.0448374222583
3574.374,0.1963271454202748,2575.4278450709894
3575.1963,0.10669469495954696,1980.7950020794087
3576.0208,0.06572613819502665,5134.22321362133
3576.8435,0.09187118471082241,2180.221313867305
3577.6682,0.17243578202639426,2223.72343362088
3578.4915,0.27283436583269105,2429.751211827722
3579.3145,0.36047451551992205,1942.5717213405112
3580.14,0.42030392888983326,2187.459183955329
3580.9636,0.45379060690311823,2169.301243338961
3581.7893,0.470273709918434,2546.121208246832
3582.6133,0.47801308348213517,2482.503781337075
3583.4395,0.4818176566822365,2133.6417155488266
3584.264,0.48359521127747435,1690.2625740376327
3585.0884,0.4839236155626217,2232.050222557539
3585.915,0.4830327134877379,1828.2548292674421
3586.74,0.4812909304621426,2091.118362431756
3587.5671,0.4792157125512032,2066.3774631151505
3588.3923,0.47728098285620313,2416.4831289226963
3589.22,0.4756847072300764,2490.4896474924126
3590.0457,0.47439751989135076,2225.5173591863427
3590.8716,0.4733018677939295,2007.8289421400782
3591.6995,0.47237257449390424,1839.8443017955524
3592.526,0.4717192409126132,2082.5593160502417
3593.3542,0.47147519883799643,2588.1133410285215
3594.181,0.47165956707405754,2374.066523263749
3595.0098,0.47213045627428285,2178.695544841126
3595.8367,0.4726975565669036,2543.236169557254
3596.6638,0.47328022077252724,3142.1380061314408
3597.4934,0.47393156331745556,2349.112888146724
3598.3208,0.4747169314816099,2187.913841132137
3599.1506,0.475573204508507,2102.3809024739603
3599.9788,0.4762263460657446,2024.3571079940734
3600.8088,0.4763028570043316,2592.098059612336
3601.6372,0.4755733542640409,1728.2076478146294
3602.4678,0.474199959636917,1295.9151939487936
3603.2964,0.4727672334874342,2626.734872722961
3604.1252,0.471942049600425,3367.8046949497502
3604.9565,0.4720360638808003,1967.3880198685938
3605.786,0.47279223333143533,2643.805257386494
3606.6172,0.4736444772094553,2000.6698413413765
3607.447,0.4741857802019072,2979.249994102785
3608.2788,0.4743938658744298,2105.727585361277
3609.109,0.47440396699233295,2202.183779909554
3609.9392,0.4742116633483747,2009.6279060779234
3610.7717,0.4737287625609233,1780.431438561627
3611.6023,0.4732266073771874,2767.558492781768
3612.435,0.47370741942149747,1941.2562179817676
3613.266,0.4766731891826699,2743.8176154639755
3614.0994,0.48311292987644544,3020.1531463050865
3614.9307,0.4921467603472545,2332.4974112885743
3615.7625,0.5008116574531033,1971.4157683438739
3616.5962,0.5054339412843527,128.76647268743517
3617.4282,0.5039432993784011,2275.0620239374925
3618.2625,0.49710349456792174,2483.3702090754027
3619.0947,0.4876122116825042,3023.528728874076
3619.9292,0.4780836389706835,1721.9584428808068
3620.762,0.470086886341762,2379.9190714204524
3621.595,0.4641031498266425,2207.630969468708
3622.4302,0.4601333121747646,1975.841203418993
3623.2634,0.45791402922146557,2612.779397226194
3624.0989,0.45682809762807336,2452.1504547648065
3624.9326,0.456127287071341,2633.7474599890393
3625.7686,0.45539716777321004,2288.993610538498
3626.6028,0.4549716207440771,3022.510891965065
3627.437,0.45569356365531083,2571.825863851923
3628.2734,0.4581450325050927,2175.017588385175
3629.1082,0.46199925073633613,3269.5110029503544
3629.945,0.46624827391911805,2296.113750863625
3630.78,0.469916440353626,2925.780058710115
3631.6174,0.4726595917000249,2225.2247816351323
3632.453,0.4745064719303168,2203.806718491304
3633.2883,0.4754382013949122,2030.56797494562
3634.1262,0.47526361039930004,2320.696994920801
3634.9622,0.4739631153542901,1727.07801907815
3635.8005,0.47190795658261625,1846.316816629671
3636.637,0.46970583563344376,2538.537523185207
3637.4756,0.4678502720122461,2073.4114850904325
3638.3123,0.46666110209364114,2303.6159277003153
3639.1492,0.4663118060335194,4400.4897779995745
3639.9885,0.46681702381396173,2156.694857923859
3640.826,0.46787997800479453,2327.0742712929164
3641.6653,0.4689250500741843,2308.3857280095267
3642.5032,0.46938570012023967,2517.7654914166956
3643.343,0.469072811529092,2251.332677803375
3644.1812,0.4682650948010576,2451.0398531474675
3645.0195,0.46748889492341983,2196.4986794703227
3645.86,0.4672016919897764,1863.0061646755455
3646.699,0.4676081315377234,2763.3407852073897
3647.5398,0.4686579944155053,2850.7703511439536
3648.379,0.4701153831087938,2106.9711652527453
3649.2202,0.47161123184153037,2282.625614937859
3650.0596,0.4726596464394896,2107.5431698304687
3650.8994,0.47284581514248497,2738.1401280468494
3651.7412,0.47203724232804123,2262.147255882712
3652.5813,0.47044685073423154,1974.3295442395442
3653.4236,0.46840345620685364,3000.805790558522
3654.2642,0.46619153827570936,2542.694305688515
3655.1067,0.4640968478907124,2097.606359867345
3655.9475,0.4625733451655413,2067.74687153278
3656.7886,0.46202609360492897,2153.034104082261
3657.6318,0.46244165241814156,2600.5347357699134
3658.4734,0.4632846090139483,3320.147456169305
3659.317,0.4639364005404313,1411.8317479952357
3660.1587,0.46421882288866995,2137.425928371049
3661.003,0.46447296468724514,2919.3184520975046
3661.845,0.46511728185908974,2864.0017843566293
3662.6875,0.46619872819607056,2756.8671080761155
3663.532,0.4673283645567843,2248.6733256883163
3664.3748,0.4679662068184685,2344.4003148360243
3665.2197,0.4677687717042995,2099.6362306726705
3666.063,0.46670608224913407,1684.0404021738273
3666.9084,0.46497089039572326,2549.3402916969026
3667.752,0.46283700091004065,3511.5710604434835
3668.5977,0.4604263207991944,2096.671655212314
3669.4417,0.4572816405954779,3116.816031960604
3670.286,0.45139959171285693,2812.0498910859733
3671.132,0.4383179041995285,3132.6322448956867
3671.9768,0.4119253897732376,2583.9836156247043
3672.8235,0.36812565025221233,2702.3460009324613
3673.6685,0.31148992177289764,1941.1372097487924
3674.5156,0.2576646691693334,2380.325139355881
3675.3608,0.22843802619465597,2195.745017888054
3676.2063,0.23752598397902958,2204.567618645697
3677.0542,0.28127283444563544,2354.618780206961
3677.9,0.3406557167795107,3286.8886422900373
3678.748,0.3950942587073146,2202.3305194273253
3679.5945,0.4327355569869493,2067.353201610468
3680.4429,0.4533758953603019,2545.348398975246
3681.2896,0.46261303419512445,2653.4024118642087
3682.1365,0.46645831124347975,1955.518508454243
3682.9856,0.46844093681214455,2652.377427523643
3683.8328,0.4697461624841713,2025.516293590586
3684.6824,0.4703909199718838,2709.1547124252884
3685.53,0.4701865364444107,3773.8897304042503
3686.38,0.46916230671352765,2299.6859994271176
3687.2278,0.4675063250783702,2328.0905437103424
3688.0762,0.46534998297261126,2400.5690172754507
3688.9265,0.46273681622473667,1721.9404377547166
3689.7751,0.4598220522947299,6437.440844569124
3690.626,0.4570167139114465,2252.500748930534
3691.475,0.45499318502054453,3337.8825142022774
3692.3264,0.4543726653124407,2836.4898604544896
3693.1758,0.45545148948172876,2553.865500695905
3694.0254,0.4580173258850577,2596.257168417197
3694.8772,0.4613940527215745,1964.9019782801336
3695.7273,0.4646224705662947,2456.3467531188567
3696.5793,0.4668654167373818,2630.1469136488886
3697.43,0.46770831404152036,1874.6240998971628
3698.2825,0.46734788029993957,2007.2026648204658
3699.1333,0.46641328060976867,2473.8503393661413
3699.9841,0.46553355586782696,2064.3685534952842
3700.8374,0.46491037155538023,2063.6825714419783
3701.6887,0.4642307896149018,1948.304191847337
3702.5425,0.4629806310546274,2604.1496344487473
3703.3943,0.4609349151150585,2967.253423137517
3704.2483,0.4583363862168785,2018.3127843859525
3705.1003,0.45572921138069644,2612.4947900474353
3705.9526,0.45356399032359085,2790.1653618732357
3706.8074,0.45206628716885144,2532.2665400728492
3707.66,0.45132891652956547,2813.380802964919
3708.515,0.4513821058065335,2900.866935369726
3709.3682,0.4521500897227698,3058.8329790270736
3710.2234,0.4533032432729216,2176.1313009895803
3711.0771,0.45418999205508676,2748.080255983389
3711.9307,0.45405665919887395,1936.3230919954115
3712.7866,0.45253788166111836,1774.7277547887788
3713.6409,0.45012963804822315,2246.6190419017935
3714.4973,0.44799757904837145,2815.5295251443645
3715.3518,0.4471598939530511,2169.026804862255
3716.2085,0.44769287322933826,2029.0673919963263
3717.0635,0.44883725278084996,2446.0680090322626
3717.9185,0.4497896717302183,3156.551498781098
3718.776,0.4503281513834749,1957.7377874313308
3719.6313,0.45071020394318345,2771.2011505014284
3720.489,0.4511186714236253,2837.6253174346803
3721.345,0.45131574183558576,3564.8046864161142
3722.2031,0.4509100087831047,1886.0819074919766
3723.0593,0.44988705123277045,2457.1886421879512
3723.9158,0.4487760125211398,1925.2661117324699
3724.7747,0.4482891753530926,2474.7331937495123
3725.6316,0.44883157822550834,3137.3333376191285
3726.4905,0.45031736555482177,2707.974238810484
3727.348,0.45232851447628747,2703.60544016756
3728.2073,0.45439576107541374,2346.451210463445
3729.065,0.4561415768793537,2361.697972383203
3729.9229,0.45735561470624175,2288.5647112041324
3730.783,0.45791344314893495,2142.5285156082923
3731.6414,0.4576694648643722,2187.1759275880586
3732.5017,0.4564381900642331,3085.154972639778
3733.3604,0.4541483993166735,2605.4451961624977
3734.2214,0.451037023472865,2040.2756011221052
3735.0803,0.44773826577503856,2539.2658177240637
3735.9417,0.44498552749118075,2574.3917432001995
3736.8013,0.4433149313508838,2171.243515102147
3737.661,0.4428231002560461,2354.8295903848743
3738.5227,0.4432918107047954,2539.4333777374154
3739.3828,0.4444238148617663,1922.9553366312684
3740.245,0.4460193503793164,3422.779067223008
3741.1055,0.4479114237147735,2363.892431974986
3741.9683,0.4498344957802817,2460.2113358568167
3742.829,0.4513422021718326,2320.3146255089173
3743.69,0.4520417403289842,2309.2492382839846
3744.5532,0.45186721634258925,2904.525223906951
3745.4148,0.4511669898084365,2735.8197061197125
3746.2786,0.4504448968439659,2567.7236443774314
3747.1404,0.45002401848441254,3438.46572902829
3748.0044,0.44993695309708914,2649.684749221428
3748.8667,0.4501062368615864,1926.6555135356311
3749.729,0.450522782174451,3142.4961839695748
3750.5938,0.4512234614570415,2379.0260957585747
3751.4565,0.4520942468602786,3234.0457106682397
3752.3215,0.45276264907591907,2140.883172022988
3753.1848,0.4527293378444654,1896.0402006030183
3754.0503,0.45175754751256053,2025.4950351462608
3754.9138,0.4501974691708851,2456.250633293665
3755.7776,0.44889320623064694,3047.9367781131177
3756.6438,0.4487002897363184,3370.9873708531486
3757.508,0.4499553021984143,3061.621552107185
3758.3745,0.4523298010450517,2907.3268969221913
3759.239,0.4550966331966855,3370.7618460734093
3760.106,0.45759396460103985,2062.667211623042
3760.971,0.4594294176199473,3090.3924448403523
3761.8362,0.4605327696938762,1943.3219489156002
3762.7036,0.4610071412057616,2031.5775626876073
3763.5693,0.46098996501896944,2497.908650951731
3764.437,0.4605495422832238,2601.333177649116
3765.3032,0.4596539374767773,2638.392928796474
3766.1714,0.45824595260057654,2632.631338250822
3767.0378,0.4563902941153517,2588.571196126939
3767.9043,0.4543191441905689,2881.098262197027
3768.7732,0.45237601128397514,2742.114775154587
3769.6401,0.4509123573322532,2705.3969007553987
3770.5095,0.4501402138349092,2264.701897766873
3771.377,0.45005301245081236,2944.816217715144
3772.2466,0.4503316226917102,2957.8978104641005
3773.1145,0.4504206709301408,2544.754350563185
3773.9824,0.4498173579171679,2114.312375928058
3774.8528,0.44839197145832854,2612.9439278299055
3775.721,0.44648147743537203,2622.9699029863586
3776.5918,0.44462164103070234,2562.4905751988344
3777.4604,0.4432796669250693,1805.2202262982646
3778.3315,0.4426828538462263,2760.794180826683
3779.201,0.4428568772257259,2551.935422089585
3780.0703,0.4436573499054124,2655.285593956428
3780.942,0.44487544702357773,3199.6894668675905
3781.8118,0.44638159895546664,2518.409055298142
3782.6838,0.44826036919569173,2533.903916151104
3783.554,0.45071353182051993,2653.837923980131
3784.4265,0.45386557164114205,3413.7129926031203
3785.297,0.45748694058571443,2572.3726405530006
3786.168,0.4610055391670474,1962.356079374089
3787.041,0.46367542544679213,2797.4811208413357
3787.912,0.4648899784636291,2154.778617661307
3788.7856,0.464492482894611,2235.7060686281275
3789.6572,0.4628108940679181,2307.0098741934094
3790.531,0.46043635685917794,2651.0993555909436
3791.403,0.45789637934141403,2800.3590853223313
3792.2754,0.45543193061537274,2109.401360031972
3793.15,0.45313268352907465,2932.113024920859
3794.0225,0.4511769441188595,2817.587200686604
3794.8972,0.4498236427501431,2825.811707621235
3795.7703,0.44925681428092523,2321.2411298615875
3796.6455,0.44940528519230705,2434.897199140048
3797.519,0.4499844950151849,1967.4721637959487
3798.3926,0.45064671869335954,2232.750516240407
3799.2686,0.45112805601492784,2527.005696349377
3800.1426,0.45133160508273884,2267.265807752716
3801.0188,0.4513330411718614,2632.2845837918285
3801.8933,0.45125787963012803,2967.2151052807158
3802.77,0.4511042837264191,2749.80027217628
3803.6448,0.45066318168536296,2264.8029128363855
3804.522,0.44965168639815145,2678.0170919464126
3805.3972,0.4480277332868372,1956.2288424075218
3806.2727,0.446175336153549,2225.059752654575
3807.1504,0.4447782641998887,2794.5235766849514
3808.0261,0.4444449822008656,2503.452209185181
3808.9043,0.44540134032638107,2304.7608080816167
3809.7805,0.44750501595833353,2773.8347798462105
3810.659,0.45042041246971837,3754.2587296914617
3811.5356,0.45367660489626443,2739.616635246794
3812.4126,0.4567514608875186,2771.276812491748
3813.2917,0.45915929555031937,2257.1288757532134
3814.169,0.4605889131625798,3331.163927239633
3815.0483,0.4610370911455958,1902.8897401542977
3815.926,0.46077817291498896,2304.3367732740494
3816.806,0.46024930840583483,2279.485797849417
3817.684,0.45980789029362173,2829.666888454118
3818.5623,0.45949273027199333,2600.044146009729
3819.4429,0.45899460037106726,2481.4357163827162
3820.3215,0.4578878884410401,2355.9508458828523
3821.2024,0.4559536945284242,2349.4630103062836
3822.0815,0.4534165722182748,2457.5493381377746
3822.963,0.45087024544815096,2873.5196390617275
3823.8423,0.44902997565339525,2616.215078996274
3824.722,0.44829886110490114,3403.7568041151158
3825.604,0.44852726713115404,2799.7158605164645
3826.4841,0.44902981954929694,2389.2407240021735
3827.3665,0.44892315472685784,2352.357139255593
3828.2468,0.4475560332609262,2958.139585580213
3829.1296,0.4447728715410831,2300.863843636059
3830.0105,0.4409645247578285,2682.5281241224516
3830.8916,0.43684732837680673,2011.3013737284455
3831.7751,0.43319876323272655,2144.6906755697555
3832.6565,0.43059006405247086,2619.7808686993167
3833.5403,0.4291153159146723,3146.7573041849582
3834.4224,0.4284315762580636,2139.00671970787
3835.3064,0.4279563769477857,2765.717147640212
3836.1887,0.42726783604685226,2718.166306834639
3837.0713,0.4263915123726623,2782.9963003360936
3837.956,0.4257946320153791,3424.910838897009
3838.839,0.4260782249594547,2473.747514147894
3839.7244,0.42760749431896133,3027.2395422966706
3840.6077,0.43034337767815356,3374.5628451469092
3841.4932,0.43393797894249836,2419.5707432840395
3842.377,0.4378149653625944,2620.7615819436724
3843.261,0.4413115713974333,3213.9742832281995
3844.1472,0.44379460269626375,2363.9497572616374
3845.0315,0.4449258199788024,2493.237215292215
3845.9182,0.4449809676424945,2961.4430070616195
3846.803,0.44482953883520954,2176.8764527499175
3847.69,0.4455345238684266,3042.499953532522
3848.5752,0.44775182816272285,2357.436584373568
3849.4604,0.4513748758924509,1919.9912928626886
3850.3481,0.45564075450959857,3345.222054036355
3851.234,0.4595359631471157,1638.8932024526398
3852.122,0.4623738507195129,2504.199807682854
3853.0083,0.4639876628399848,2335.6894782112904
3853.8967,0.46468811332857896,1958.252194047824
3854.7832,0.4649103586300716,2293.837123354575
3855.6702,0.46496392650642443,2196.333357163868
3856.559,0.46496758731896837,1870.8157843865552
3857.4463,0.46494048048982517,2449.377088790698
3858.336,0.464883276568868,2327.341386384423
3859.2234,0.46480797483360264,2273.3123566842414
3860.1135,0.46477069963378986,1795.1055821350724
3861.0015,0.4649020926593603,2198.4827886992725
3861.8896,0.4653196029101877,3535.4648480308642
3862.7803,0.46594305099089484,3132.6666425836643
3863.6687,0.46644424264952655,2068.934920075228
3864.5598,0.46652962010993765,2330.1622956758656
3865.4487,0.46628470912949943,2268.574566108621
3866.34,0.4661594214587107,2370.3276551989693
3867.2297,0.4664789808019521,2697.496176722162
3868.1213,0.4669372231210769,2899.296031337076
3869.0112,0.4666483963949834,1901.9142167283862
3869.9014,0.46482281331724795,3610.368018682039
3870.7937,0.46143841960079923,3898.4573660580427
3871.684,0.4573404482954215,1919.9952893144484
3872.577,0.45360774132846277,2423.47259903559
3873.4678,0.4509559256079642,2398.006064577772
3874.361,0.44938274171274795,2661.9340183200397
3875.2524,0.4483559658272428,2859.442586970778
3876.1438,0.44714689974065247,2583.9255702777173
3877.0376,0.4451934272935763,2311.6456084152996
3877.9297,0.4422579458190251,2774.5957395132996
3878.8237,0.43831314785207126,2921.7767266273263
3879.716,0.4334844434493766,2515.651579294829
3880.6108,0.4279827581284505,4290.272659230856
3881.5037,0.42218331798064035,3362.070036416402
3882.3965,0.4164044138821222,3636.2463750169495
3883.2917,0.4108306576266251,3239.771936230551
3884.185,0.4056711895805566,2920.9171152804993
3885.0808,0.40129022397707753,3659.164414397211
3885.9746,0.39827960252261774,2616.620934964527
3886.8706,0.39698807022289684,3357.167679881598
3887.765,0.3971778819598438,4222.018326938906
3888.6592,0.39803281470883833,2707.4842895918505
3889.556,0.3986503192828037,3223.759618490754
3890.4507,0.3985346782386066,3390.1221208922657
3891.348,0.39779273834567114,3415.8228328494174
3892.243,0.39699656120837196,3421.2680984096323
3893.1406,0.3968849226409549,4355.7871367179005
3894.0361,0.39806919683151704,3719.801658637193
3894.932,0.4008079953046767,2599.624616920828
3895.83,0.4049515320409727,3689.0520056956184
3896.7263,0.40995701016762237,3422.3397727950933
3897.625,0.41511121079564584,4001.292774878186
3898.5215,0.41967176552527974,3133.2277240275084
3899.4207,0.4232635227869794,2620.3302561852715
3900.3176,0.425983907753236,3219.3986862684033
3901.2148,0.4283917892896135,2797.6875645787186
3902.1145,0.4311451977465285,3859.995512229844
3903.0122,0.4346503770405394,3665.6610474599643
3903.912,0.4389533901057378,2909.8238448060206
3904.8103,0.44371051375002796,2911.7900342228486
3905.7107,0.4484274245960005,2545.5191398327206
3906.6094,0.45263228691779883,1979.2585919852017
3907.508,0.45620310838857975,2217.999011558627
3908.409,0.4594581719432874,3430.6995226992453
3909.308,0.46300450989902187,2735.4626841829313
3910.2097,0.46743801853077604,2626.026840261975
3911.1091,0.4729018761414453,2883.3077233213403
3912.011,0.4790397287281702,2262.846356771616
3912.9111,0.4850703901268977,1855.3387225952692
3913.8113,0.49025995629597313,1809.2089504671972
3914.7136,0.49420536202893967,1978.3584619339028
3915.6143,0.4969058523376581,1647.181323820351
3916.517,0.49868160101307013,2688.5476299027896
3917.4182,0.49990526701462695,1912.5681731961727
3918.3215,0.5008615864786751,2430.4068730231775
3919.223,0.5016333871816088,1946.5712500697653
3920.1245,0.5021281069680253,1960.6013332796615
3921.0286,0.5021917260735436,1859.5459374019724
3921.9307,0.5017941200346913,1880.892982649658
3922.835,0.5011338072968743,2220.726517485986
3923.7373,0.5005706078053341,2148.6701170443007
3924.642,0.5004117817687703,1720.8441477510448
3925.5452,0.5007358783689028,1983.6759684470212
3926.448,0.5013611744036851,2139.6978191859216
3927.3535,0.5019798775428913,2030.361295880394
