wavl,flux,ivar
3566.9744,1.1071836064273257,699.5933517310414
3567.795,1.1083333571260268,715.2211265719587
3568.6177,1.1083816362792411,710.2684761456289
3569.4385,1.1071032873357616,798.4598852548579
3570.2617,1.1044017598600064,727.1390642898853
3571.083,1.1004311953737642,854.4979353576665
3571.9065,1.0955273658946434,837.0170759264857
3572.7283,1.0901750972464042,800.7779979010277
3573.55,1.0848775440087224,778.2175362073137
3574.374,1.0802272414930745,857.0151331734437
3575.1963,1.0769277860908144,796.087103123368
3576.0208,1.075499612409635,808.2355925405726
3576.8435,1.0759869908805009,735.8655578140929
3577.6682,1.0777404977662743,716.9456794483622
3578.4915,1.0796029624194874,580.1716517422502
3579.3145,1.080411242687213,768.6437401459225
3580.14,1.0794700777673332,863.5566835999691
3580.9636,1.0767895242283236,1163.3116229681962
3581.7893,1.0729515138435441,752.8108231959465
3582.6133,1.0688377478149238,815.016375965908
3583.4395,1.065273049218317,863.5852604770328
3584.264,1.0629218733736052,855.7850015629656
3585.0884,1.0621334721695068,1070.352873688103
3585.915,1.0629071957109568,667.149880757422
3586.74,1.0648434017466628,730.5860205288387
3587.5671,1.06723922738738,883.9112780886862
3588.3923,1.069265630230462,747.8787132313752
3589.22,1.0702775177096537,679.9008039910319
3590.0457,1.0699893858169458,746.7604555392312
3590.8716,1.0685409242089017,852.4160856864667
3591.6995,1.0663831883411399,876.5578543641718
3592.526,1.0641832963440425,792.3432577147004
3593.3542,1.062654618205971,880.5349865150887
3594.181,1.0623444046490949,758.5128882770736
3595.0098,1.0633294313255803,864.6739820247182
3595.8367,1.0651404561555065,907.6711613794165
3596.6638,1.0670223191977275,777.4468145826295
3597.4934,1.068308646951343,861.758071482184
3598.3208,1.0686279476398253,739.9246146792457
3599.1506,1.0679011751098404,698.3794548116521
3599.9788,1.0662417688017902,790.6286843205258
3600.8088,1.0639289377355288,737.1772125865581
3601.6372,1.0614525933261905,788.4787391129198
3602.4678,1.0593925190489757,782.5781992878279
3603.2964,1.0582447726154798,872.8520638231386
3604.1252,1.0581980246938791,918.4439916976928
3604.9565,1.0591663602433572,829.1293656878595
3605.786,1.0609244743563022,944.6243957922017
3606.6172,1.0632230082390102,879.1233349586475
3607.447,1.0657063391484816,919.3896162161199
3608.2788,1.0678821940088215,960.2093491800588
3609.109,1.0691410682289502,686.5288477016086
3609.9392,1.0689303390714695,725.5879611749693
3610.7717,1.0668730224755592,803.9338933578608
3611.6023,1.0629755590602126,905.8335206686322
3612.435,1.0577711378773842,828.6853325851134
3613.266,1.0524001622540888,730.2215586747313
3614.0994,1.048173555187296,869.4565732282648
3614.9307,1.046052754690042,868.1849500143815
3615.7625,1.0461024150004476,856.2094336990057
3616.5962,1.0475299986588047,843.6565599960549
3617.4282,1.0490874508969197,764.5131035822599
3618.2625,1.049706332203479,801.5460347531587
3619.0947,1.0489820875851248,862.8959062165864
3619.9292,1.0473682110238376,862.1510936492871
3620.762,1.045917122417335,785.5704541143987
3621.595,1.0456142135331485,949.4656799418275
3622.4302,1.046793461752588,821.0639083916027
3623.2634,1.049012568927786,823.8202557478093
3624.0989,1.051480546410447,970.3811983120984
3624.9326,1.0535221289440915,779.3545589127298
3625.7686,1.054884747795034,857.7997102604824
3626.6028,1.0557073835889486,789.8192467000077
3627.437,1.0563317804506793,962.1337704801573
3628.2734,1.0569216975636255,1132.7211976850635
3629.1082,1.0572054873475194,893.672699669992
3629.945,1.056663756773495,744.829403363557
3630.78,1.0550637526453002,899.6209600920033
3631.6174,1.0528439602833997,723.6465162353317
3632.453,1.051077107295355,787.4416939977673
3633.2883,1.0509998842771864,856.529038262445
3634.1262,1.0534896183353744,853.4849818840024
3634.9622,1.0585349709080714,910.9519392774217
3635.8005,1.0651344904716042,840.9772154581431
3636.637,1.0715752473767473,960.6210311711623
3637.4756,1.0762695444965014,872.101728707381
3638.3123,1.0782595417759144,760.0180397918313
3639.1492,1.0775714896812374,916.1786260699564
3639.9885,1.0751107704236582,1022.5793593480377
3640.826,1.0723814128900928,689.6483600010881
3641.6653,1.0708172349767404,855.1675526710308
3642.5032,1.07110258968055,677.0533319598339
3643.343,1.0727974372287832,865.8624806592796
3644.1812,1.0746554605066327,817.6862531952931
3645.0195,1.0754442826257407,865.2842819592123
3645.86,1.0746073494435178,766.7554491653301
3646.699,1.0723865496529477,921.3232302890017
3647.5398,1.0694315685179983,852.7758278475512
3648.379,1.066427801643667,754.0538912351863
3649.2202,1.0638821606317888,705.7731584848169
3650.0596,1.0621296857345504,798.3214534516741
3650.8994,1.0612067199961304,952.7516220844906
3651.7412,1.060811219769157,871.1843156329097
3652.5813,1.06040174121307,861.026559663261
3653.4236,1.0594925690263854,832.2412029955333
3654.2642,1.0579661165538856,943.3986661226628
3655.1067,1.0560966323600447,804.6045602673413
3655.9475,1.0542920948812773,739.1402265654951
3656.7886,1.052738946218063,760.5914859738473
3657.6318,1.0514202777760475,949.0998240982263
3658.4734,1.0504833796380761,860.4452575553075
3659.317,1.0505013318561833,908.6307695299756
3660.1587,1.0522723270499075,849.953164978695
3661.003,1.0562639892495418,864.2371884429565
3661.845,1.062188119696166,978.4134459641476
3662.6875,1.0692018293559888,730.5344342707431
3663.532,1.0763131228319054,991.485247485104
3664.3748,1.0826594481198935,765.2726308293637
3665.2197,1.087676791706099,902.7074663853983
3666.063,1.0909773132270566,824.8799656248266
3666.9084,1.092496154806381,674.0903230904718
3667.752,1.0924598078837073,802.9166452690888
3668.5977,1.0912782216018948,736.4962324639289
3669.4417,1.0893326507389773,651.2363213604544
3670.286,1.0868522997791374,791.767809714348
3671.132,1.0838303210017883,869.593510194052
3671.9768,1.0797958836133572,786.5906993902374
3672.8235,1.0734330953969078,775.5194023231327
3673.6685,1.0627370117638981,738.9321946180401
3674.5156,1.0459339963424696,938.6102279952602
3675.3608,1.0237418910239493,959.2312048338713
3676.2063,1.000789944997248,905.9581134373241
3677.0542,0.9848438980959996,844.2186655231216
3677.9,0.9826935781866344,840.1105733540286
3678.748,0.9952499315960898,843.6928933031104
3679.5945,1.0167698344421479,862.0792229570775
3680.4429,1.0389131202232245,894.332864459778
3681.2896,1.0554392372495163,794.1278841594312
3682.1365,1.0646329729716897,862.18461554108
3682.9856,1.0679215975055898,800.8818564500593
3683.8328,1.0676483825346912,996.6464888111125
3684.6824,1.0656281886881893,837.0280782512402
3685.53,1.0628220399512829,895.4531969351467
3686.38,1.0596669476587242,855.5103043871045
3687.2278,1.0566149290519449,818.1032966249282
3688.0762,1.0543554335036656,836.4459397153953
3688.9265,1.053751717612795,886.7708114076333
3689.7751,1.055428510739899,862.1512062502908
3690.626,1.0593902408187448,999.4417685953351
3691.475,1.0649622783732737,954.3866823338788
3692.3264,1.0711991172296371,947.0057019494782
3693.1758,1.077158221576294,975.9033849770398
3694.0254,1.0821014772160502,824.4265137294252
3694.8772,1.0853612858885193,792.7025214144594
3695.7273,1.0863945865069922,845.3196588621364
3696.5793,1.085108559499035,770.2581051158822
3697.43,1.0820593726894756,766.9912044200834
3698.2825,1.0782748934212099,775.2533289099302
3699.1333,1.074788111121016,732.512640182848
3699.9841,1.0721169257923953,752.3494425098605
3700.8374,1.0702173013642613,840.3501950144159
3701.6887,1.0688309993578586,838.5238162095218
3702.5425,1.0678743234114525,777.0550614724132
3703.3943,1.0675899517251015,817.0851901257404
3704.2483,1.0682683079657151,775.895038339331
3705.1003,1.0698868910179788,839.3762108025064
3705.9526,1.0719826216758659,743.6589702377111
3706.8074,1.0738119726331636,1027.3172597842217
3707.66,1.0746356710674918,837.6528996986099
3708.515,1.0740535592306435,933.0565069519278
3709.3682,1.0722255233300468,770.0966869386052
3710.2234,1.0699004182968188,794.8217866314152
3711.0771,1.0681208587721065,1088.6091223166536
3711.9307,1.0676081390492098,824.6557033881522
3712.7866,1.0683282308837174,910.2196895416513
3713.6409,1.0695001672956428,780.0794601034922
3714.4973,1.070064940481435,807.5758421590314
3715.3518,1.069235976237563,741.527600451984
3716.2085,1.066874049343336,808.6667201279779
3717.0635,1.0635668855985596,798.6217626665298
3717.9185,1.0603347843620592,857.4855800434136
3718.776,1.0581494314653335,774.8040535388059
3719.6313,1.0575128453753262,807.5286376581711
3720.489,1.0583394502532941,869.7957279630025
3721.345,1.060235521620455,956.3141945451806
3722.2031,1.0627892543103101,723.4817055026444
3723.0593,1.0655673683130773,883.4171887441806
3723.9158,1.0680424657855854,925.7786225560251
3724.7747,1.0696193584436133,807.2526735044096
3725.6316,1.06993248833312,1051.7189102767338
3726.4905,1.0692263909900896,819.6777716077061
3727.348,1.0685125043378279,842.7355194580903
3728.2073,1.0695108644181999,742.5368329546668
3729.065,1.0743384318476257,884.1845124530868
3729.9229,1.0846604375779734,823.4106411421164
3730.783,1.1001391068943422,788.5937026496051
3731.6414,1.1168846364712337,839.3481533749413
3732.5017,1.1284450315848769,857.9793763960632
3733.3604,1.1291301641087104,882.2058902574039
3734.2214,1.118060114183914,772.7350724714536
3735.0803,1.0998908416662352,919.7340807912176
3735.9417,1.0814220801015932,986.3996676838685
3736.8013,1.0677792122824221,818.0293055099554
3737.661,1.0602516342961983,957.6340598514413
3738.5227,1.0573658820317404,879.493080580162
3739.3828,1.0568425967453434,876.2308452679335
3740.245,1.0569748179246736,947.9853626374212
3741.1055,1.0569622071765625,802.417110017043
3741.9683,1.0564901483052276,991.8036359454344
3742.829,1.0552922490505734,789.148676329834
3743.69,1.0530880804623368,812.4140064471736
3744.5532,1.0497956517688987,976.8415061615266
3745.4148,1.045734662311571,800.039723489838
3746.2786,1.0415452826634808,839.467212943146
3747.1404,1.0380953101740291,851.0295490230727
3748.0044,1.0361394906867971,898.5669839513216
3748.8667,1.036039872556471,957.0049429010554
3749.729,1.0375134854420254,918.9756011159556
3750.5938,1.0397815378793354,886.0346107524447
3751.4565,1.0419511072272525,984.3535888399193
3752.3215,1.0435071879833389,913.3609467397741
3753.1848,1.044513557148278,885.0664948218738
3754.0503,1.0455595703304943,926.7848066317872
3754.9138,1.0473916691282135,953.6215151233475
3755.7776,1.050501365408804,996.6981669773938
3756.6438,1.054819229100094,802.5440937603922
3757.508,1.059619151465604,823.8738147468605
3758.3745,1.0638528517804837,741.5146142487064
3759.239,1.066549742790428,778.073348780812
3760.106,1.0673481001000278,978.2662586110233
3760.971,1.0665792044208295,865.7354023069433
3761.8362,1.0649938868841122,877.926913991626
3762.7036,1.0632758377382594,860.0917545344118
3763.5693,1.0617964606917096,877.3823446923037
3764.437,1.060634137118757,1028.8037913156554
3765.3032,1.0597425862485585,853.6364952080091
3766.1714,1.0590037332450435,821.0692405557719
3767.0378,1.0583003610576671,818.5341968492755
3767.9043,1.0576005000134094,847.6269219196238
3768.7732,1.0569783968087814,920.1487597147836
3769.6401,1.0564786801942063,925.5269001174497
3770.5095,1.0559562831877456,899.4741428160637
3771.377,1.055122362072415,777.4180709181564
3772.2466,1.0537215451166142,928.76775001171
3773.1145,1.0517163134720031,907.6473785674912
3773.9824,1.0493051030220375,840.0379026637867
3774.8528,1.0468547865676892,944.3239909500477
3775.721,1.0448057032155593,936.5027866444206
3776.5918,1.0435124803037623,905.0023870142634
3777.4604,1.0432028851388513,812.7177806790079
3778.3315,1.0438699644047071,855.9127532744936
3779.201,1.045182772945193,856.9713306090564
3780.0703,1.0465051713953277,827.1321335573986
3780.942,1.047193967176414,963.991494320144
3781.8118,1.047080880897161,801.8539611643247
3782.6838,1.0467136440678566,852.1060071494959
3783.554,1.0469815257354258,1035.5025880144115
3784.4265,1.0483749868103027,915.6243278468152
3785.297,1.0505300034362148,861.5305458055947
3786.168,1.0525096438898789,838.999273478042
3787.041,1.053493561332724,708.9137203774492
3787.912,1.05328586980554,998.6111975317903
3788.7856,1.0522729511776194,862.4976418010068
3789.6572,1.0509537243589038,1023.590015868744
3790.531,1.0495026689656861,827.8726327190044
3791.403,1.0477791086304387,793.0106771854953
3792.2754,1.04565139776701,966.9400220994416
3793.15,1.0433116160126314,938.5006399383534
3794.0225,1.0412185513300896,947.6728442147747
3794.8972,1.0396677676353112,953.840408212516
3795.7703,1.0385466291283703,779.9264893736098
3796.6455,1.0374620941105335,819.3078389090706
3797.519,1.0362165644348187,831.826588572052
3798.3926,1.035061711371599,844.3572003791793
3799.2686,1.0344968950450082,923.2996258629255
3800.1426,1.034765072381368,1035.3171486956974
3801.0188,1.0355287229396033,917.6742074151108
3801.8933,1.0360730333104065,827.3171631608682
3802.77,1.035876265417939,871.3481757128386
3803.6448,1.0350206233991364,982.3030995735849
3804.522,1.0341215248909628,853.2726732048575
3805.3972,1.0339223131148614,834.6129176034791
3806.2727,1.0348695443014058,851.2781701636197
3807.1504,1.0369426868217668,956.5987889490831
3808.0261,1.0397192203999719,911.3429273481081
3808.9043,1.0427404292067475,983.838661149013
3809.7805,1.0457857306741707,818.715826396939
3810.659,1.0488983484859946,916.4651943058436
3811.5356,1.0519217430353258,906.1619850311356
3812.4126,1.0542733859541809,772.0782855947118
3813.2917,1.055230940540806,790.3523125038323
3814.169,1.0545895544343886,810.0631630218367
3815.0483,1.05292739718785,1040.506198857176
3815.926,1.051141969568744,804.3365495582643
3816.806,1.0497424282848244,793.1158319360574
3817.684,1.0486815663100482,1061.1970708220638
3818.5623,1.047705703100928,863.8378038774789
3819.4429,1.0467642228482588,963.7736030254592
3820.3215,1.046029657537024,882.6207702455785
3821.2024,1.0456298167023743,919.3129904228205
3822.0815,1.0454599195927143,843.4227389847005
3822.963,1.045126794833596,848.111946410793
3823.8423,1.044033473523233,953.45950891374
3824.722,1.0416137055098451,1010.546248454757
3825.604,1.0376727729506254,911.682207038819
3826.4841,1.032607201059071,884.6248224499398
3827.3665,1.0270977814258409,944.8573265761611
3828.2468,1.0217137515374626,895.8520456279836
3829.1296,1.016494594048462,897.5463588907062
3830.0105,1.0111379091579726,903.1950844555196
3830.8916,1.0052664461964316,945.4666029319264
3831.7751,0.9988008964194265,964.5973717056615
3832.6565,0.9921356574510365,910.1485458320448
3833.5403,0.9859148955661451,1006.9895985546067
3834.4224,0.9809245807451195,1180.997319168196
3835.3064,0.9777300465328105,911.3879628918957
3836.1887,0.9766072561575315,991.1452461678633
3837.0713,0.9775013903467297,1186.6604680788287
3837.956,0.9801848713796432,1016.6383272975422
3838.839,0.9843287150891494,926.3744062294178
3839.7244,0.9896104032718491,927.519256302955
3840.6077,0.9956868970661135,912.4917366360385
3841.4932,1.002326940737145,1081.9046086440649
3842.377,1.0092962971121602,949.7221033183653
3843.261,1.01642479413655,891.3164452801396
3844.1472,1.0235613246458355,988.9406421833
3845.0315,1.0305439275064145,896.7625845061486
3845.9182,1.037294012590483,900.6904303835773
3846.803,1.043620160031791,840.977687274402
3847.69,1.049345913549913,888.4543586736153
3848.5752,1.0543012551939737,753.7182107367404
3849.4604,1.0585627582817096,884.4663168453646
3850.3481,1.0624614143017284,833.9429379865978
3851.234,1.066415006559606,836.4391827948293
3852.122,1.0707276205950549,818.3501426922262
3853.0083,1.0752907832573182,808.860798096779
3853.8967,1.0796810860195702,984.0790521120293
3854.7832,1.0833503075826756,750.158283057623
3855.6702,1.0860548979600342,768.7064916723527
3856.559,1.0879775671561378,829.36446862617
3857.4463,1.0895382800116789,935.1717168720614
3858.336,1.0909995417166156,865.1652105540091
3859.2234,1.0921535227235966,848.7354235009583
3860.1135,1.0924793835019042,796.8585413633773
3861.0015,1.0915502953611433,742.9971965349496
3861.8896,1.0893517257643512,824.1100296555878
3862.7803,1.0861799626490556,921.2201700918876
3863.6687,1.0823617841815112,839.7222874897197
3864.5598,1.0780321475477341,853.5950586398881
3865.4487,1.0733561113266743,803.1398284929619
3866.34,1.0686127766951192,877.6820206596392
3867.2297,1.064208443201193,910.7602812630165
3868.1213,1.060325925249909,943.9259565805382
3869.0112,1.0568481456327954,899.1111785148956
3869.9014,1.0534039687615242,852.2639605419408
3870.7937,1.0496153269186825,885.0912053323634
3871.684,1.0452881014704296,830.79715686224
3872.577,1.0403882923575325,957.919489629191
3873.4678,1.035061605756309,862.0807473175105
3874.361,1.029435368761235,902.4967363168251
3875.2524,1.023667353774653,968.4415490261182
3876.1438,1.0178404270622172,959.0387660732424
3877.0376,1.0119400790640738,1041.4098034484132
3877.9297,1.0058109305444558,1094.634076907711
3878.8237,0.9990880765899627,995.2364660915975
3879.716,0.9915138622215798,1180.1726007265747
3880.6108,0.9830388743767985,1077.0141060778808
3881.5037,0.9739616038612084,1012.790513365857
3882.3965,0.9645552916398515,1079.8685824731251
3883.2917,0.9548807100493493,972.0990859638064
3884.185,0.944882276785175,1118.08087516382
3885.0808,0.9344850423188242,1146.9388486849405
3885.9746,0.9240560153171202,1064.2120818131002
3886.8706,0.9142094721717828,1220.7832506693924
3887.765,0.9057450652653595,1291.4767993194587
3888.6592,0.8992422010456546,1233.8284644938278
3889.556,0.8950698550820768,1257.0362062130253
3890.4507,0.8934513959220771,1481.3271656283607
3891.348,0.894401102579429,1498.4329244553944
3892.243,0.8977249661590594,1387.5201162633791
3893.1406,0.9031358214793997,1155.4435050832647
3894.0361,0.9103628210596806,1287.3066211947407
3894.932,0.9192691260808558,1231.4523759560047
3895.83,0.9296418593773079,1250.7705574624474
3896.7263,0.9409490604681874,997.3879652700867
3897.625,0.9526225225405188,1098.059055901983
3898.5215,0.9640882949236017,1010.632362306982
3899.4207,0.9751545080253922,951.5728894020348
3900.3176,0.9857755792134768,988.2065656447814
3901.2148,0.996233194991761,968.1593587404943
3902.1145,1.0069688088577031,987.3857519687622
3903.0122,1.0183016626547643,1011.832212479902
3903.912,1.0303503427271428,917.3814081107207
3904.8103,1.042767181981092,955.9802601956864
3905.7107,1.0551780049582138,776.9882666466794
3906.6094,1.0672258332914495,840.8945557670977
3907.508,1.078762524482714,784.3655922999453
3908.409,1.0896120877821533,734.9778249340521
3909.308,1.0994625152218969,795.5720645607846
3910.2097,1.1082046754398416,804.6641362781612
3911.1091,1.1159110442247193,761.1332260672523
3912.011,1.1229551025608753,835.9459749420987
3912.9111,1.1296300584818306,811.4386761190374
3913.8113,1.1360616167252813,700.9105516216049
3914.7136,1.1420908948160096,760.4872961007285
3915.6143,1.1473368870408325,710.2376537809623
3916.517,1.1515323798754442,702.5296284964685
3917.4182,1.1546766501448684,725.0486639364266
3918.3215,1.1571333760766387,724.0158985536348
3919.223,1.1593443265709469,697.050126387947
3920.1245,1.1616118896656418,738.4860141812732
3921.0286,1.1640142306419683,693.1130299922406
3921.9307,1.1664815433486861,717.0686761872126
3922.835,1.1689116760275093,712.0386263381586
3923.7373,1.1711203338574137,728.2552271747296
3924.642,1.1728806781133674,749.6534561771414
3925.5452,1.1739498708467573,744.2910660524377
3926.448,1.1742170582608404,648.5851028066556
3927.3535,1.1737686687497946,667.2198305580798
3928.257,1.17285048272771,691.2425051437476
3929.1628,1.1716752107468211,742.6243343921732
3930.0667,1.1702738277829778,679.0984307396974
3930.9731,1.1684895530818793,742.4779745014306
3931.8774,1.1661687695004197,758.0235374184791
3932.782,1.1632714592562434,788.0952842193865
3933.6887,1.1599181699141956,654.3460953142294
3934.5938,1.1563631521394733,777.1972679135804
3935.501,1.1528141122960354,701.8427801303094
3936.4062,1.1493222474338907,642.2516879624972
3937.3142,1.145638114765105,796.7109679491488
