wavl,flux,ivar
3566.9744,4.6352787156566615,67.79018576103147
3567.795,4.6242108331950655,57.34925825107299
3568.6177,4.610412124565567,70.13703823542558
3569.4385,4.596588583947526,58.38034693429327
3570.2617,4.585848931038251,65.1395906114449
3571.083,4.580113258104019,51.27012268769023
3571.9065,4.5787163632981045,86.0914919526509
3572.7283,4.579098862370998,52.39798541197912
3573.55,4.5781820900152175,71.1332657396063
3574.374,4.573478145135342,70.15455804218514
3575.1963,4.5638798696659855,58.24713623550322
3576.0208,4.550147057517255,71.02851534289842
3576.8435,4.534968597474869,85.54603951969587
3577.6682,4.521389895746715,52.20025888388823
3578.4915,4.511122707907358,67.76432107994883
3579.3145,4.503293852571374,57.17957472564455
3580.14,4.4953068466169634,73.89174223441502
3580.9636,4.4851080890259,68.96412530173569
3581.7893,4.47305245432677,54.54621374704598
3582.6133,4.462112058167571,62.87510334067906
3583.4395,4.455425671407602,60.57980768591048
3584.264,4.4538835655960565,53.160381803317634
3585.0884,4.4555875856529354,65.83353284993919
3585.915,4.457931048995809,73.41663965692021
3586.74,4.459683570855983,70.41673774174774
3587.5671,4.461273362673299,68.42600506552542
3588.3923,4.463344422755159,73.49162092948778
3589.22,4.465457157485466,58.4408441716891
3590.0457,4.46602455824088,57.43673760122137
3590.8716,4.463443101597859,90.72126024871633
3591.6995,4.457053249149197,81.18243375011943
3592.526,4.447269237012827,67.26856400228088
3593.3542,4.43498002781476,59.605144138234046
3594.181,4.421512008028281,55.226299184497904
3595.0098,4.408445349345837,58.98384929275409
3595.8367,4.397400328433055,65.69038256370435
3596.6638,4.38907047787551,60.42281502594566
3597.4934,4.38334028433244,61.15243738753603
3598.3208,4.380142048000617,83.24639382693982
3599.1506,4.379765314742166,76.8363734389455
3599.9788,4.382086602183575,89.8405677860709
3600.8088,4.385610991315819,69.54566321685249
3601.6372,4.387997866703438,69.59688223814162
3602.4678,4.3877875812818266,55.08928339839588
3603.2964,4.385270452055592,69.98599836142098
3604.1252,4.381666767649726,73.92935186815097
3604.9565,4.377620112359699,60.14685036102393
3605.786,4.372551424434757,63.57920350068822
3606.6172,4.36508925059585,68.3034507729696
3607.447,4.354335213163709,57.05944491907986
3608.2788,4.340739090999814,76.08426602314198
3609.109,4.32653326741504,81.14567283704947
3609.9392,4.314915963503434,65.47374974827962
3610.7717,4.308981742092505,74.90378181455192
3611.6023,4.31039217252955,74.41200349559524
3612.435,4.318336378061233,83.27047609497971
3613.266,4.329524615129527,72.18033145086159
3614.0994,4.339453882172976,78.72034708239376
3614.9307,4.343894273415506,67.8948112178537
3615.7625,4.340272151654681,77.37896526812067
3616.5962,4.328007645362022,78.12176338731967
3617.4282,4.308759909930338,71.80755793930321
3618.2625,4.285977761843916,72.42571603934441
3619.0947,4.264374144517764,75.17691308524309
3619.9292,4.24804568196931,87.05148839564188
3620.762,4.239561117628965,91.60052019482812
3621.595,4.2392605305084325,68.3016351637843
3622.4302,4.245789342255671,61.82921383647227
3623.2634,4.256567274504162,72.818436610106
3624.0989,4.268577342282318,70.65128232406826
3624.9326,4.278839340751438,77.0002080608978
3625.7686,4.285111530367904,72.52991196537573
3626.6028,4.286017407565743,71.98226052407753
3627.437,4.281266570087547,83.9090594670243
3628.2734,4.271461316551754,82.63103156652903
3629.1082,4.258171783736822,81.59310834087596
3629.945,4.244057277999504,75.58572630532113
3630.78,4.233314613847095,71.09511230914232
3631.6174,4.230339195869636,88.02713455377362
3632.453,4.237074030079734,90.20601072568795
3633.2883,4.25048977381005,90.27861196792261
3634.1262,4.263584601081574,92.7906792462395
3634.9622,4.269594102389886,73.06114641211322
3635.8005,4.266556434220248,69.44715796826718
3636.637,4.257804964067425,80.4284985808783
3637.4756,4.248607864099935,93.34210442567536
3638.3123,4.242259004720942,67.48135430543505
3639.1492,4.238473751429758,77.61442421618175
3639.9885,4.23513214713035,80.22365529615907
3640.826,4.2310101325601925,77.62181567747537
3641.6653,4.226943928384718,84.98938113569278
3642.5032,4.22478227832541,81.63158338044173
3643.343,4.225374819660785,73.42095071644167
3644.1812,4.227819149488516,74.95378890529301
3645.0195,4.230289459090426,83.7453384843714
3645.86,4.2312527654990175,79.54428688446322
3646.699,4.229883718014161,69.70556507997182
3647.5398,4.225737090391739,87.57412768067154
3648.379,4.218596636742817,69.37055594877374
3649.2202,4.2089209585036365,78.32726082387039
3650.0596,4.1986044943829315,66.63231540608257
3650.8994,4.190439759862914,111.7711307617239
3651.7412,4.186633620917583,90.2759798440483
3652.5813,4.187173611859414,87.86984228230897
3653.4236,4.189528010363254,79.71606147042874
3654.2642,4.189950003416181,106.39349752263213
3655.1067,4.185370441979841,71.32805458544354
3655.9475,4.174761497530864,69.6212560534326
3656.7886,4.159293875314878,65.8741998422424
3657.6318,4.1414475763396155,83.20656383798564
3658.4734,4.123832292222733,73.28801091187357
3659.317,4.108088319972307,82.53953732686537
3660.1587,4.095504630067889,75.56218353816699
3661.003,4.087644611142791,92.32883146578817
3661.845,4.08669330448107,81.08717757950029
3662.6875,4.0940800099873895,80.31152259557199
3663.532,4.108974713290314,99.00436260051005
3664.3748,4.127517136638497,77.26592049450839
3665.2197,4.144242056136117,81.76754581007411
3666.063,4.1541108809139615,68.26890835400246
3666.9084,4.154786960523743,75.50160849252406
3667.752,4.147139402547466,85.51055779176805
3668.5977,4.134491602269882,77.01458332580005
3669.4417,4.1211432040879625,75.52529969680727
3670.286,4.110389020721399,80.92268696807797
3671.132,4.103235783307301,80.17624132145772
3671.9768,4.0982257069637,75.22463312417777
3672.8235,4.092575290721692,74.63194953935405
3673.6685,4.08408840738412,77.25845654034211
3674.5156,4.0721850376161,77.80086810636121
3675.3608,4.058179900002685,77.04683569486873
3676.2063,4.044511070525307,88.11630267989314
3677.0542,4.03389244727176,89.33190169579863
3677.9,4.028365409603079,70.29589433716282
3678.748,4.028510847565442,103.7289320888934
3679.5945,4.033580648300505,86.60811289580387
3680.4429,4.041787987174918,72.39541767495842
3681.2896,4.05062802795198,99.1299277955061
3682.1365,4.057663950524348,96.62902920345941
3682.9856,4.061315783032862,101.88133658139594
3683.8328,4.06108222556554,94.09783774677135
3684.6824,4.056868628106277,102.20949011596937
3685.53,4.048367265952882,75.9740304985061
3686.38,4.035495057236869,67.15039051333835
3687.2278,4.019733026120611,83.04987425616271
3688.0762,4.0041665343439625,87.35959660079546
3688.9265,3.9922113578875797,79.38351169977113
3689.7751,3.985613762670458,82.3631600875657
3690.626,3.983258870082057,88.66069784488081
3691.475,3.9820773164391396,86.23476089827774
3692.3264,3.978931058406049,74.21568899000482
3693.1758,3.9724707675866986,87.22160674450019
3694.0254,3.963722846030879,95.80719403895795
3694.8772,3.9553487402907956,80.57826216273152
3695.7273,3.9499926590354075,97.71112196871375
3696.5793,3.948404302215886,100.12625765362291
3697.43,3.9489743962283157,80.1150275110519
3698.2825,3.9488879151758582,94.20205764207192
3699.1333,3.9461673904943924,77.62021222445937
3699.9841,3.9409086421560593,106.47681149709592
3700.8374,3.9350252636718075,73.9136112793629
3701.6887,3.9311634401445423,98.90805670282379
3702.5425,3.9312605216035967,83.87835740217855
3703.3943,3.935493451411098,88.95680526042297
3704.2483,3.9420007433074753,83.57187783648399
3705.1003,3.9478729877592875,68.4931590905116
3705.9526,3.951041053188094,85.68680099572767
3706.8074,3.951117198465292,97.59220047888905
3707.66,3.948574328620861,90.98765484662393
3708.515,3.943217016101526,84.12203178587824
3709.3682,3.933990153160005,70.97965016949094
3710.2234,3.920370453168936,85.58627585216539
3711.0771,3.90411506121377,81.68048517011646
3711.9307,3.8887855424731708,90.06964725147034
3712.7866,3.8774254277651927,98.48291725778307
3713.6409,3.870163891750323,97.92355377773426
3714.4973,3.86369210923453,98.53946653735689
3715.3518,3.8538475849119704,91.05515691666264
3716.2085,3.838744325962687,107.0484294630366
3717.0635,3.820415558242262,100.86079165662909
3717.9185,3.8031217409953486,91.87133383099116
3718.776,3.7905520313772527,91.43124832040208
3719.6313,3.783943519676424,99.12494456006266
3720.489,3.7818158341725225,107.45778927180837
3721.345,3.781477000250248,92.10497587899596
3722.2031,3.780642441976294,98.98151548323307
3723.0593,3.7784388634626653,93.52748778661093
3723.9158,3.775129353248844,82.18932353309076
3724.7747,3.7711184260012764,96.09070798048188
3725.6316,3.766416704118788,79.76786649339167
3726.4905,3.760925736769303,109.29144154393154
3727.348,3.7551673366971254,129.46274960545566
3728.2073,3.750236340002421,102.50346784086068
3729.065,3.7472367423942847,105.08610513815424
3729.9229,3.746451957156601,88.84007959506279
3730.783,3.7469974900738245,108.57529496346861
3731.6414,3.747005411912062,97.02174374418196
3732.5017,3.744620254350626,98.44031198125865
3733.3604,3.739428242394068,90.50394678937015
3734.2214,3.7331244668452563,87.03356502121332
3735.0803,3.728790846149637,87.6578628894428
3735.9417,3.729037072419171,98.46882934149342
3736.8013,3.734725707295967,101.16246483077671
3737.661,3.744709143369955,100.23956061562933
3738.5227,3.7564272971553563,93.07147120209643
3739.3828,3.7666270459421614,98.95396672764628
3740.245,3.772462114949586,112.5112082958922
3741.1055,3.772115196205156,105.55526562004053
3741.9683,3.765226429351349,80.46161726118682
3742.829,3.7527449452585295,100.55549147253916
3743.69,3.736380815804745,69.3167189861538
3744.5532,3.7181018031595086,83.2764862331721
3745.4148,3.700072377142703,109.03794566960995
3746.2786,3.684457483080941,99.6039438297289
3747.1404,3.673737762864973,119.55256431754873
3748.0044,3.669620476438623,103.21208509723418
3748.8667,3.6718107586792086,101.89131230300636
3749.729,3.6774249193372244,96.16679372733604
3750.5938,3.6826308791756017,101.47635590203738
3751.4565,3.6850890978613022,107.50252615001207
3752.3215,3.685112104570876,87.55636445256604
3753.1848,3.684375566137215,101.05295075031931
3754.0503,3.6839760607765784,108.40597544722831
3754.9138,3.683648163170081,94.1486595610014
3755.7776,3.682283183648478,105.87003089460127
3756.6438,3.678732634710394,81.25823914069396
3757.508,3.6725142309037975,119.16245356533851
3758.3745,3.6644134695544968,95.06108728029048
3759.239,3.656829340414145,102.2043782449446
3760.106,3.6525885761985504,121.08034393160818
3760.971,3.6530625423917678,97.67701843146983
3761.8362,3.656886616457472,105.38026447659499
3762.7036,3.6608563812840758,111.0203986037484
3763.5693,3.661973326276182,103.17804505592812
3764.437,3.6590738213730485,90.53011052715138
3765.3032,3.6528540989041955,96.16358744954591
3766.1714,3.644634363020753,95.43292892457015
3767.0378,3.6351124206398726,83.95890095330147
3767.9043,3.6239135659343913,116.60127222447306
3768.7732,3.6106417279184004,92.1544117122103
3769.6401,3.596506763131502,100.25582875138157
3770.5095,3.5844747023819687,101.90777958468776
3771.377,3.5781060998422363,99.18887149552822
3772.2466,3.579177567513157,110.88967544503224
3773.1145,3.5865711502116047,107.00424097691675
3773.9824,3.5967630266185875,101.79264280872276
3774.8528,3.6056129837490687,111.1066982573293
3775.721,3.610259435457956,111.6469624671476
3776.5918,3.610489440389969,116.63697115920127
3777.4604,3.6083045039697623,97.74687860145242
3778.3315,3.606113875626043,85.91061924214942
3779.201,3.6047575434384016,105.42523264696142
3780.0703,3.6030475634878028,103.25482616635068
3780.942,3.5992755097979403,94.16468156847921
3781.8118,3.5931481072873166,120.5716995694928
3782.6838,3.5861711459361385,112.68742138665819
3783.554,3.580457677048971,99.13610981002145
3784.4265,3.5769478418055702,115.91573153938911
3785.297,3.5748454385953456,101.37886070219241
3786.168,3.572096048492203,95.21209006055643
3787.041,3.5665480071526314,109.06937798159746
3787.912,3.5570411672170312,119.47318881555663
3788.7856,3.5437679318944726,112.35193924581927
3789.6572,3.5281668240585766,128.26542852606477
3790.531,3.5117704683412705,115.33041086544561
3791.403,3.4954739794970378,127.62029455323363
3792.2754,3.478823141222413,126.62695234142626
3793.15,3.4606799462402593,115.1133503321174
3794.0225,3.440678700315463,106.94603307657795
3794.8972,3.4198834735587256,122.78429946707232
3795.7703,3.4007770355498583,125.23182880288748
3796.6455,3.3855200588432792,103.96611769558332
3797.519,3.3751129425644613,124.60296900824896
3798.3926,3.3690064921806107,123.5455057915012
3799.2686,3.3660105501660014,130.63483302650013
3800.1426,3.365485689878652,154.75194263778303
3801.0188,3.3682570745899083,122.1198112654802
3801.8933,3.376420546624221,142.79753210351797
3802.77,3.3917667980169086,167.272986635705
3803.6448,3.4136918050470424,123.33160420695124
3804.522,3.43909140592705,99.26484078793561
3805.3972,3.4635466596588533,129.23309414733174
3806.2727,3.4838242778528614,108.11287098129858
3807.1504,3.498447357311028,132.53621821604037
3808.0261,3.5069858616432596,110.35160330238025
3808.9043,3.5093962537406207,92.6045560483133
3809.7805,3.505902791224019,99.82907385478516
3810.659,3.4978928095501334,110.13244425646677
3811.5356,3.4885114131506496,103.70625422639017
3812.4126,3.481854899015932,108.24152260415114
3813.2917,3.481191854232095,120.0462628699395
3814.169,3.4872201040284705,121.86986379001584
3815.0483,3.497894147920271,116.35330126058149
3815.926,3.509792059577774,104.37362192109346
3816.806,3.5200284600810208,106.06402992418107
3817.684,3.526698620621965,114.1725386833409
3818.5623,3.5284500970338364,124.43813696466313
3819.4429,3.523718843195198,105.5543018673447
3820.3215,3.5111783926371376,106.68374656140692
3821.2024,3.4908419112448277,102.51291263756177
3822.0815,3.465141563078601,113.15492805427395
3822.963,3.4379533967306823,120.4234289343078
3823.8423,3.412961196790439,112.30307678520403
3824.722,3.391184475540838,128.1498605219715
3825.604,3.370852356229617,124.21700269321352
3826.4841,3.349238608527014,123.426160392918
3827.3665,3.324622142024638,119.66731463183072
3828.2468,3.2976709485879354,127.03253869454262
3829.1296,3.2699896144276046,137.59456743317196
3830.0105,3.2429489074931452,150.96523379940157
3830.8916,3.2164212771816327,152.15212584549286
3831.7751,3.1895160154640583,131.77553909597478
3832.6565,3.1618812377943564,142.75036635279758
3833.5403,3.1340474694134,149.16043797817716
3834.4224,3.1082930236933817,137.08071117583032
3835.3064,3.0878549895410745,112.84694027491204
3836.1887,3.076217071691069,181.79594650365146
3837.0713,3.0749979862704313,125.83436450773759
3837.956,3.0830100934334728,153.90105388920972
3838.839,3.097056226827779,177.59959665995444
3839.7244,3.114813352564819,160.78784483637418
3840.6077,3.136605964012819,132.94760015463189
3841.4932,3.164831391135641,159.80613682423942
3842.377,3.2003811454098954,146.08007061892266
3843.261,3.24059057811857,124.66041170940483
3844.1472,3.2795852943462327,107.20743302040628
3845.0315,3.311087995558239,138.89854058345074
3845.9182,3.332399950547025,120.07305511173159
3846.803,3.3452017838499706,167.74737377146596
3847.69,3.354653491236903,141.4316855603206
3848.5752,3.3660683762401793,110.43727588094008
3849.4604,3.382306958915854,113.30301340187029
3850.3481,3.402798468507703,100.45934357564434
3851.234,3.4245259168209397,121.19388498308582
3852.122,3.4447096812141815,119.64335519124847
3853.0083,3.462076932437415,109.47249639781224
3853.8967,3.4769950945972976,102.11961311680246
3854.7832,3.489483892530962,98.23063406152241
3855.6702,3.4984615533827235,119.73129133788538
3856.559,3.502733659844977,106.94479649591983
3857.4463,3.503353406559671,103.33368105336413
3858.336,3.504365153055385,133.97345340533758
3859.2234,3.510324882591741,127.832075765877
3860.1135,3.5227447403685956,121.58501534188046
3861.0015,3.5385377742834603,114.75567821944533
3861.8896,3.552198774456223,101.07240912621764
3862.7803,3.5589213508525286,95.32972247419927
3863.6687,3.5564622579269405,119.98293288374751
3864.5598,3.5452480570126705,110.15385695949617
3865.4487,3.5277849103301793,124.69048399527354
3866.34,3.5076326748364126,95.01043733531435
3867.2297,3.488291582409872,113.56422820342806
3868.1213,3.471179279294884,94.49819469818092
3869.0112,3.455415129111078,98.62282004254394
3869.9014,3.4387206718396803,107.70253554512459
3870.7937,3.419054197388619,99.81024887327013
3871.684,3.3952722519821816,128.19524372010682
3872.577,3.366405022755315,113.6759584525903
3873.4678,3.331929733767681,132.58017363799573
3874.361,3.2915849212868538,116.97812845266037
3875.2524,3.246470805531405,114.19157695093979
3876.1438,3.198274294816802,164.01316182768662
3877.0376,3.1489124061367892,150.11217760623222
3877.9297,3.100378057730665,123.08483706863669
3878.8237,3.0535736246719463,145.20137416525193
3879.716,3.0088604433411703,154.43494417470725
3880.6108,2.9652018975598993,156.56231463631931
3881.5037,2.921382713352445,156.40789972765742
3882.3965,2.8760559240845986,190.20446995462382
3883.2917,2.828623833822042,160.32691324462317
3884.185,2.7797209610404345,195.1367080287302
3885.0808,2.7301902255864547,227.32955723835556
3885.9746,2.6819824699929327,190.53373843694516
3886.8706,2.6373454926216766,200.8307457140958
3887.765,2.599711078870035,231.07696238688374
3888.6592,2.572605723582459,191.29973051548004
3889.556,2.55911699850252,210.7213817943408
3890.4507,2.5607035394098516,193.7987979870492
3891.348,2.576264657616274,189.38342297346884
3892.243,2.6026425624756375,128.3905908914005
3893.1406,2.6366098100591406,206.11670406922772
3894.0361,2.6758148042011074,237.0690635105194
3894.932,2.7195541880934653,203.4172229606349
3895.83,2.7677800153484595,185.24586911511304
3896.7263,2.8199002319561504,175.42629238745155
3897.625,2.8750218718639897,176.71901456194718
3898.5215,2.9305122602839213,145.98487338424917
3899.4207,2.9834115302451916,138.22340378424968
3900.3176,3.0306988315661814,131.8030075604982
3901.2148,3.0720570736079815,143.48635443178495
3902.1145,3.1098845151905024,144.47061868260698
3903.0122,3.1477323400633153,179.50848828908678
3903.912,3.188683270477068,126.39239775555524
3904.8103,3.233059971186287,158.95559169263908
3905.7107,3.2790956782889884,130.5682930780945
3906.6094,3.323368304388231,110.88189362063261
3907.508,3.3631325987293414,107.32857141874752
3908.409,3.397257854509529,125.78635956396606
3909.308,3.4262007208045784,105.37208399550644
3910.2097,3.451696034798242,98.08665551562248
3911.1091,3.4751522929702423,118.91548337132254
3912.011,3.4976851640481206,99.31692926867781
3912.9111,3.519817309378572,110.27165886836046
3913.8113,3.542184357293729,104.0558083246171
3914.7136,3.5653225788268874,120.40419889860789
3915.6143,3.5890305097820567,105.26453975981725
3916.517,3.6124976455251456,97.59386086536163
3917.4182,3.634412932491002,99.44650052635284
3918.3215,3.654272590899052,110.3342816313648
3919.223,3.6724838577862986,97.40801415224695
3920.1245,3.690335069577338,97.06019797311082
3921.0286,3.7089542280950187,93.24973204369738
3921.9307,3.7283118745124284,95.15592394964011
3922.835,3.747172302441091,90.04913021091907
3923.7373,3.763107569558879,92.24554396385803
3924.642,3.7737868216750505,100.48945754622876
3925.5452,3.777879482948164,87.23015744731414
3926.448,3.7760526176412217,98.47499066462113
3927.3535,3.7706495566072062,98.40053837659075
3928.257,3.7645647121655057,97.8125065341666
3929.1628,3.759676244036105,98.76120172048472
3930.0667,3.7562053968009623,88.78232353406473
3930.9731,3.7528794288184044,91.6802397377285
3931.8774,3.74777589194975,98.61837341909727
3932.782,3.7390659479534962,111.58305990808927
3933.6887,3.7256622963041237,105.84655127502461
3934.5938,3.707676971321808,103.35154127679215
3935.501,3.6861665534886674,84.48617389742085
3936.4062,3.663147458183998,97.7153863266808
3937.3142,3.6406862888704463,99.34736012190928
3938.22,3.6204805037367613,94.37356703219139
