wavl,flux,ivar
3566.9744,1.755591289192547,389.1515231422694
3567.795,1.755542490384342,395.7118268944268
3568.6177,1.7533456497727353,417.84450332193666
3569.4385,1.7502273598622968,397.7233625437818
3570.2617,1.7468509727809207,384.465197286843
3571.083,1.743081247243908,411.15536841882897
3571.9065,1.7384867176076386,406.5459040405428
3572.7283,1.7331233126686536,378.17635766634453
3573.55,1.7275211043869119,410.91286786962354
3574.374,1.7222252103927072,350.09601686968807
3575.1963,1.7175354682498811,375.0539398212424
3576.0208,1.7135746718844669,358.89493480979763
3576.8435,1.7105650315244776,453.1877389568439
3577.6682,1.70864414608025,401.8736291078383
3578.4915,1.7077449347696714,365.4369467279561
3579.3145,1.7076138026063608,415.41532061129794
3580.14,1.7079432097324272,368.48454249268065
3580.9636,1.7082896080912873,390.55727164124096
3581.7893,1.7080234690934728,362.1370494049059
3582.6133,1.7066747186344364,378.2248978345308
3583.4395,1.7045117622905557,424.3722035832932
3584.264,1.7027115014544258,458.1578526517894
3585.0884,1.7026616786362097,411.93217029776275
3585.915,1.7049848789492057,422.89797034812483
3586.74,1.709007744554417,350.83915748340985
3587.5671,1.7131925638874694,385.66859856566083
3588.3923,1.7159881808348136,358.78649950908795
3589.22,1.716645187639895,450.3881121387331
3590.0457,1.7153524186408597,354.2710005937201
3590.8716,1.712955591338471,362.57270085473596
3591.6995,1.7104254221639548,377.6679912669775
3592.526,1.7084023681997182,390.68093316722076
3593.3542,1.706915498305007,409.09190558327026
3594.181,1.7055592799167858,351.2515208921689
3595.0098,1.7039135512453645,392.85548606254224
3595.8367,1.7019505071934107,387.7903363366506
3596.6638,1.6999475775284107,322.05264313442495
3597.4934,1.698051356893505,376.0533682286044
3598.3208,1.6959141441708117,396.27141911950065
3599.1506,1.6927786880348163,398.47550795854926
3599.9788,1.688127319319573,361.9539805506017
3600.8088,1.682159354194477,331.88490261332566
3601.6372,1.675834666678158,417.69386683247984
3602.4678,1.6701842866380492,424.63227136548437
3603.2964,1.665850074921652,394.62461624609017
3604.1252,1.6629718123599193,439.3143118564369
3604.9565,1.661701863247319,462.991056180864
3605.786,1.66249831693642,394.81079164136804
3606.6172,1.665784752708966,358.13009422197234
3607.447,1.6712180733221023,400.18549250684305
3608.2788,1.6773877216106465,497.6737592927243
3609.109,1.6822421695991658,371.72522267217516
3609.9392,1.6842052853862621,359.9176352737486
3610.7717,1.682879958949911,390.9855821204177
3611.6023,1.6791360467376244,387.0604018184286
3612.435,1.6745248761413631,418.118937849891
3613.266,1.6705816826609288,405.8075283129573
3614.0994,1.6681437623691233,365.8612323553459
3614.9307,1.6671872308522577,406.6097948672249
3615.7625,1.6670178526591457,359.5107582921605
3616.5962,1.6668246879480095,414.9821680430462
3617.4282,1.6661226498870871,389.9668239363517
3618.2625,1.66484471074094,396.4916153738911
3619.0947,1.6631319166094674,376.95078464069456
3619.9292,1.6610707648199126,464.3227540274038
3620.762,1.658764650985756,380.65012107074926
3621.595,1.6565395452893705,441.4964787542527
3622.4302,1.654975282745448,456.5818357499974
3623.2634,1.6544793446943942,459.03965755484944
3624.0989,1.6547598733066178,415.3469680848095
3624.9326,1.6548831470153884,411.93321082167483
3625.7686,1.6539554336141562,397.1830670153981
3626.6028,1.6518543577895908,473.3474659768491
3627.437,1.6492941706806012,421.9466663512293
3628.2734,1.6471777165031636,404.1059464009507
3629.1082,1.6458386965807958,462.9062465581041
3629.945,1.6447984067975794,418.435816807817
3630.78,1.6433125324686328,425.80222407342967
3631.6174,1.6410657651219693,388.2059271276505
3632.453,1.6384425725658482,403.76123118512095
3633.2883,1.636041168556632,447.7525274975324
3634.1262,1.6340243262173444,407.18509811465594
3634.9622,1.631922751369113,413.76999444232877
3635.8005,1.6290398390589882,396.8104718971051
3636.637,1.625146451319673,431.758133950465
3637.4756,1.6206202260284033,427.8367006613252
3638.3123,1.6161511379624351,400.99334510447386
3639.1492,1.612190532080158,442.6405723672814
3639.9885,1.6088609049186913,377.90795296134837
3640.826,1.6061647132500663,429.92730596275254
3641.6653,1.6041037204852313,432.5691773373476
3642.5032,1.6027121065572132,387.4669603153128
3643.343,1.6018856867005125,429.32182299694733
3644.1812,1.6013018953032874,368.8146063988901
3645.0195,1.6004392101112779,432.68986541299853
3645.86,1.5987988836678044,415.849523566731
3646.699,1.5962225059964912,423.39194940876314
3647.5398,1.5930042992918692,400.92280834572415
3648.379,1.5897738317801766,434.5998056302324
3649.2202,1.5871225585388327,376.543435665658
3650.0596,1.5854113958122062,398.449002661304
3650.8994,1.5846417436606473,409.4846361074589
3651.7412,1.5845242634361445,421.67988534724975
3652.5813,1.5845956121682272,465.5658502468805
3653.4236,1.5844055423475278,474.9880399998382
3654.2642,1.5836895738283263,412.04783211054934
3655.1067,1.582438385082819,432.4740048152551
3655.9475,1.5808694374596746,496.12474060004155
3656.7886,1.5792675382553416,444.1931117625039
3657.6318,1.5778268313252306,507.32369829303445
3658.4734,1.5766194816656474,417.26699612792356
3659.317,1.5757067944161682,446.7276446570663
3660.1587,1.5752923139334152,440.5859806739194
3661.003,1.57563899099178,479.2616500802924
3661.845,1.5768626702227369,436.39822245608417
3662.6875,1.5788224589336224,419.7996062070386
3663.532,1.5811932690404822,417.2789930678423
3664.3748,1.5835851388035582,423.5440738872434
3665.2197,1.58568023329826,419.8634287975127
3666.063,1.5872572121129296,469.0833203679107
3666.9084,1.5882708126895606,432.4968452495922
3667.752,1.5888185618750357,431.1038076791038
3668.5977,1.5890929477080926,440.9433925252897
3669.4417,1.5892546455319834,416.2529588428241
3670.286,1.5893262624780247,480.37556890741047
3671.132,1.5891616482696813,424.8234620257116
3671.9768,1.5885803586829352,451.66792619595765
3672.8235,1.5875893483439487,449.93986799550737
3673.6685,1.5864873651844704,494.85380799904567
3674.5156,1.585655475020859,484.0619592869045
3675.3608,1.5852319721012498,447.16149213461114
3676.2063,1.584943396846914,426.7696419671744
3677.0542,1.5843054427617163,478.761395302748
3677.9,1.582991559339066,415.53491367846925
3678.748,1.5810340180659597,416.05146747649206
3679.5945,1.5787652097761207,515.6201763199613
3680.4429,1.5765007973632137,467.4677176690071
3681.2896,1.5743490119084989,440.27210208699296
3682.1365,1.5722048832872808,457.09847374058717
3682.9856,1.5700204066203762,439.928007258232
3683.8328,1.5680360942531069,398.55829078105035
3684.6824,1.5666518915199195,452.6379112021969
3685.53,1.5660864994016181,454.7903759501345
3686.38,1.5660570532235305,396.174016850741
3687.2278,1.5659385595810844,460.7615211228348
3688.0762,1.565263162681471,462.200917547212
3688.9265,1.5641030592930842,528.5507167692118
3689.7751,1.5630037293566974,501.8837935196013
3690.626,1.562572804063989,484.000147428913
3691.475,1.5631623401553074,406.17949575656553
3692.3264,1.5647511150920483,448.4876208222046
3693.1758,1.5669585924387137,411.4298123103237
3694.0254,1.569185964462338,394.7682985953091
3694.8772,1.5708343437212133,570.8356168073879
3695.7273,1.5715600027072691,438.97015513861135
3696.5793,1.5714419145006564,465.83813148352294
3697.43,1.5708955762882344,469.583053403685
3698.2825,1.5704194915696363,425.2219898693484
3699.1333,1.570315945473824,563.9895181645239
3699.9841,1.5705758838390758,449.0076208420007
3700.8374,1.5710097747742802,434.1953464464636
3701.6887,1.571410261879687,423.4819482146031
3702.5425,1.5715522879429695,510.7634394827352
3703.3943,1.5710403254951464,464.3234373845589
3704.2483,1.5693014581434965,420.72187834678726
3705.1003,1.5659225670894303,406.1473849545149
3705.9526,1.5610728783245942,468.34413859051847
3706.8074,1.5556251623745005,429.18831725973223
3707.66,1.5507614887942358,507.50233369784917
3708.515,1.5471231284907445,446.1502107782701
3709.3682,1.5444801185363521,455.94215873893603
3710.2234,1.5419599593020412,370.91946369868595
3711.0771,1.5389004906020751,420.093798950577
3711.9307,1.5353891896818455,493.3057533944194
3712.7866,1.5321316349321703,477.4754212296268
3713.6409,1.529838973190672,505.0569412584165
3714.4973,1.5286387173598897,456.5914726798037
3715.3518,1.5281032097339498,378.93170277186897
3716.2085,1.527648257293018,430.16062432331506
3717.0635,1.527007848781565,434.64855431480765
3717.9185,1.5263501811263709,478.4883657278124
3718.776,1.5260045406014637,406.54724012657914
3719.6313,1.5260722439342238,455.22888023869456
3720.489,1.5263050306536587,437.61505139787795
3721.345,1.5263648720662795,475.6551270765516
3722.2031,1.5261332085074504,467.90492640784896
3723.0593,1.5257107413826105,464.9046502598827
3723.9158,1.5251663721395827,471.4253842178023
3724.7747,1.5244093776237584,480.9135481580992
3725.6316,1.5233377508049155,473.61916757742495
3726.4905,1.5219857990508734,452.6991431814101
3727.348,1.520465203590011,462.6432081093362
3728.2073,1.518719615343753,474.7578640051221
3729.065,1.5165128599934878,475.6584765861931
3729.9229,1.5137041367923931,477.0080311880456
3730.783,1.5106252401730698,475.4448175867218
3731.6414,1.5081257360327949,490.1514413055855
3732.5017,1.5071090492989738,463.79138404269105
3733.3604,1.5080524779593585,515.799662125387
3734.2214,1.5107639281987257,440.23691298510346
3735.0803,1.5144638747430113,445.4594277358398
3735.9417,1.5181097169390274,439.70390567098076
3736.8013,1.5206506761258551,461.3451620566483
3737.661,1.5214250574510446,421.0538694506002
3738.5227,1.5204007612677624,461.51188151101906
3739.3828,1.518250736737035,517.2644058298092
3740.245,1.5160320234219347,504.00535245352614
3741.1055,1.514654487121344,462.8545444467512
3741.9683,1.5143669273219953,487.32892471594784
3742.829,1.5146938377179464,505.96147962979876
3743.69,1.5147623119676903,428.85265885314664
3744.5532,1.5138079966833935,473.18490169036284
3745.4148,1.5115449265223935,413.8303624179141
3746.2786,1.5082256748715788,512.187106439275
3747.1404,1.5045440287957985,454.35653809724676
3748.0044,1.5013421824390791,478.87282102829306
3748.8667,1.4993716940390167,514.0905544188565
3749.729,1.498908989049407,488.27657910369794
3750.5938,1.499592926218814,438.87025412268736
3751.4565,1.5005736185205956,464.39196266310194
3752.3215,1.5010697066775782,590.0681153220212
3753.1848,1.5009243061757305,518.6214206108957
3754.0503,1.50072681684451,454.89015722078244
3754.9138,1.5013404932308672,451.7883628723368
3755.7776,1.5032203464225609,490.3494236725619
3756.6438,1.5060426652667915,541.9749944152816
3757.508,1.5087899074699291,508.809527528455
3758.3745,1.5102694389273896,477.6757148548544
3759.239,1.5096435070281957,401.1844782168625
3760.106,1.5068752175849227,477.510594354675
3760.971,1.5028064907524985,443.17094933754
3761.8362,1.4987303143394186,486.26838448901367
3762.7036,1.4957849191600905,481.59651312298786
3763.5693,1.4945228560229689,505.0177631314591
3764.437,1.4948244932882713,455.4728935860953
3765.3032,1.496148817345317,465.1767488525597
3766.1714,1.4977510099037883,482.93214186267744
3767.0378,1.4987793763872304,492.94729389547945
3767.9043,1.4984289182870085,490.0368411099015
3768.7732,1.4961973989852677,493.32311747122037
3769.6401,1.492247947337402,560.1821292383884
3770.5095,1.4874613250630129,574.4032055019991
3771.377,1.4831914859467643,480.5376531349025
3772.2466,1.4805807171413232,525.5088039038727
3773.1145,1.4800844395444555,549.1182426416701
3773.9824,1.4812621466966929,386.8739660249864
3774.8528,1.4831725333420769,494.25022548069313
3775.721,1.4850447311485397,437.3567508169942
3776.5918,1.486860681071974,467.86361062229406
3777.4604,1.48922239606531,486.718086427829
3778.3315,1.4927144984091731,556.2871915479941
3779.201,1.497204345706638,483.6385070139638
3780.0703,1.5018706041166616,444.4433525675487
3780.942,1.505720310851106,485.3117660582703
3781.8118,1.5080898216011507,505.16766586199896
3782.6838,1.5088290563962008,482.4758638525186
3783.554,1.5080863218865244,438.0326076907443
3784.4265,1.5061730933056892,476.80595525284923
3785.297,1.5035565354479241,487.6067533675003
3786.168,1.5007618812613523,550.5566306364314
3787.041,1.498140737894483,534.8900421451015
3787.912,1.4956387137824907,519.220806236984
3788.7856,1.4927747464854335,432.7708735395906
3789.6572,1.4890528439698398,527.8851551652131
3790.531,1.4843144031732085,453.78932337506313
3791.403,1.4789274450906684,500.561410768992
3792.2754,1.4734613347674883,483.0051854087083
3793.15,1.4683409862000516,480.96854884999436
3794.0225,1.4636961525301695,525.8049332455705
3794.8972,1.459365249198532,468.11464270630444
3795.7703,1.4552068898796702,504.7262580134273
3796.6455,1.4512357254231287,520.2991815933283
3797.519,1.44783992557732,522.5071972455095
3798.3926,1.4456900940444302,570.3080989509566
3799.2686,1.4454600235674393,527.2368650111324
3800.1426,1.4473207427233787,515.364679126092
3801.0188,1.450670973716877,508.8354518429503
3801.8933,1.454395724087722,519.1032531537037
3802.77,1.457597940608165,499.86870117057776
3803.6448,1.4600830280195465,545.6536016585145
3804.522,1.4624014444512203,492.9213432850389
3805.3972,1.46527467689226,513.7666355958261
3806.2727,1.469038662293519,536.4840018357922
3807.1504,1.4733866059712213,500.9566679205296
3808.0261,1.4775666593535937,490.0252661955741
3808.9043,1.4809600364903168,489.7846503097609
3809.7805,1.483454194205248,482.478659133207
3810.659,1.4856863670500207,516.2047110541902
3811.5356,1.488845245133851,468.6006200097659
3812.4126,1.4942343980939576,499.5970783195843
3813.2917,1.5024766382860562,531.971711086192
3814.169,1.5125569962474472,531.0244444228849
3815.0483,1.5217241754753044,509.9583148262928
3815.926,1.5264258664394086,483.0418362473859
3816.806,1.5245221631177035,476.5854778294114
3817.684,1.5166679630316258,491.0848005548311
3818.5623,1.505752881048896,495.78894018227436
3819.4429,1.494810538361481,480.8736462690316
3820.3215,1.4854591469301417,519.0864451218445
3821.2024,1.477611180027683,512.4008184844954
3822.0815,1.4706372822401184,485.4380048667844
3822.963,1.4640753060483167,520.9024181780194
3823.8423,1.4578848802295414,556.5356187740094
3824.722,1.4520271035930277,490.4045075021224
3825.604,1.4463040985779247,527.7122954447767
3826.4841,1.4404480519499097,517.3620680323622
3827.3665,1.4341395448758405,528.5187702997439
3828.2468,1.4271428888240751,502.2898722485265
3829.1296,1.4191542714987428,561.0880793978392
3830.0105,1.4100007159263974,570.5124755008277
3830.8916,1.3996826050639015,556.9419841380171
3831.7751,1.3886039225778288,569.8037802721267
3832.6565,1.3776820733026958,541.6865368108266
3833.5403,1.3679304663242735,598.1709050058707
3834.4224,1.3603727867752642,641.0115684497176
3835.3064,1.3556672597723862,581.5829906368467
3836.1887,1.3541514263060395,601.4782528641854
3837.0713,1.3557147753051193,577.9506397049516
3837.956,1.3598725028258818,606.4977656890256
3838.839,1.3658966930090686,495.95986790307416
3839.7244,1.3732040428658976,548.0968423408908
3840.6077,1.381476806388547,593.4031903597687
3841.4932,1.3907699123226693,528.5399492772352
3842.377,1.401140420228987,535.7921230163054
3843.261,1.4125673894967736,581.2815705828972
3844.1472,1.4248110666568718,489.13728017130063
3845.0315,1.4373584266133994,532.8599107819655
3845.9182,1.4497351106219554,473.88615742664905
3846.803,1.4614003363187869,518.6453005887346
3847.69,1.472111422571165,525.8026787359183
3848.5752,1.4817751291925814,490.0166004945564
3849.4604,1.4905925786001644,482.3019261285682
3850.3481,1.4988800202390753,469.2632803045212
3851.234,1.5068393734853045,492.10526338057184
3852.122,1.5145323610272263,454.77361390132506
3853.0083,1.521655607245801,460.51948357529386
3853.8967,1.5278189074830215,479.9700267244592
3854.7832,1.53268929892159,445.9676201682965
3855.6702,1.5363027665973648,471.85189146311313
3856.559,1.538954447447772,440.4978178568652
3857.4463,1.5409459943786068,513.8255342076168
3858.336,1.5423968149664802,462.830675689421
3859.2234,1.5431888965708798,450.97032395411986
3860.1135,1.5431330123290898,397.25722358716496
3861.0015,1.5420865740851082,448.2832584982841
3861.8896,1.5399912292540188,466.734791690366
3862.7803,1.5368409328935804,449.54173185759475
3863.6687,1.532728281652899,438.3410278462348
3864.5598,1.5278095251449892,454.7003045700993
3865.4487,1.5223503543110217,459.55007039016795
3866.34,1.5164986953727417,482.5930647435461
3867.2297,1.510308454043559,456.6623597595515
3868.1213,1.5036689131492817,442.55473462469155
3869.0112,1.496496978681147,480.68182873110385
3869.9014,1.488688157389665,448.72643252122646
3870.7937,1.4801990293937088,464.47213368621
3871.684,1.4711969836916257,505.56235741149465
3872.577,1.4619098084129045,470.68143612210105
3873.4678,1.4525880050838629,529.2756827443416
3874.361,1.4430929533551766,454.86715358120443
3875.2524,1.4331235247579457,531.8413762364025
3876.1438,1.4223707189132,503.8342053511681
3877.0376,1.4108431210819676,535.5149616488662
3877.9297,1.3989316896458999,591.1764633670426
3878.8237,1.3869105564959407,572.3116152242584
3879.716,1.374782719380708,514.0471033280268
3880.6108,1.3619510484791695,653.9505719490496
3881.5037,1.3477014179796134,606.130637758524
3882.3965,1.3315330465696769,631.4056499612664
3883.2917,1.3136724785918195,609.8387446839439
3884.185,1.295184692292672,606.2035283516327
3885.0808,1.2770970324629425,629.8139712182102
3885.9746,1.260196999649094,628.9488850627946
3886.8706,1.2447151444589462,672.9643220693645
3887.765,1.2312074038527767,702.0126699273352
3888.6592,1.220772257171362,720.57945168046
3889.556,1.2149570515357357,803.0273570127528
3890.4507,1.214987239901825,810.3279654341794
3891.348,1.2209810072360936,734.0169504054346
3892.243,1.2318814308986772,715.6625353030955
3893.1406,1.2461466524282812,722.4650347227915
3894.0361,1.2622332967462602,651.8141677022562
3894.932,1.2792062382577236,623.0714703306818
3895.83,1.296582256754471,659.8192035712848
3896.7263,1.3140123709199558,636.5552771198276
3897.625,1.331509654492158,510.6122606785603
3898.5215,1.3491117073627936,591.5011087223266
3899.4207,1.3671514831729474,550.168105427616
3900.3176,1.385640309504001,581.0944253193682
3901.2148,1.4044007942306094,587.0778843508588
3902.1145,1.4229310372796549,485.1396959070543
3903.0122,1.4405187763203748,492.7749786015207
3903.912,1.4568410552903177,494.128721932492
3904.8103,1.4717704127436209,500.25571132461795
3905.7107,1.4855608918140057,464.68302564897374
3906.6094,1.498373608841606,514.1269921887807
3907.508,1.5103810549011665,474.065184619051
3908.409,1.5217944144722406,462.3537434432306
3909.308,1.5329782696388146,477.02381213865993
3910.2097,1.5445913432865563,443.24884533456697
3911.1091,1.5569996796737724,480.05134803049697
3912.011,1.5701089020687864,454.0338597223055
3912.9111,1.5830935608800025,437.0865397834729
3913.8113,1.5950615190561395,420.0472457823206
3914.7136,1.6055560640769622,378.5502099619447
3915.6143,1.6147328185248921,458.97461970040035
3916.517,1.6232364412732914,407.44698839523176
3917.4182,1.631490809375387,400.78978517640934
3918.3215,1.6394995212821037,408.3425962341121
3919.223,1.6467784519720934,420.2616772462156
3920.1245,1.6528366483999508,361.267242099288
3921.0286,1.6574224859979163,401.65697554752256
3921.9307,1.6606210064894176,331.1113135479886
3922.835,1.662874685739486,375.68852226741683
3923.7373,1.6647648498293435,366.490164393978
3924.642,1.6668357037783152,396.430645738482
3925.5452,1.6693160865206744,366.9706278146628
3926.448,1.6720024255677628,370.09677338806705
3927.3535,1.6742853378913245,365.96537177405276
3928.257,1.6753650371635358,367.7487770195452
3929.1628,1.6746510549797138,391.19686123448315
3930.0667,1.6720501192918265,401.7905934748921
3930.9731,1.667989191087312,357.641401472241
3931.8774,1.6631871940775658,386.4816659638507
3932.782,1.6581745704644644,378.63666219221307
3933.6887,1.6530880377347705,396.7067119716139
3934.5938,1.647794870682743,383.87564054327277
3935.501,1.642082453183256,424.9236707305041
