wavl,flux,ivar
3566.9744,1.7280121284185301,490.9516110096633
3567.795,1.7200452180337444,489.06703065750617
3568.6177,1.711743307425962,505.3035337992838
3569.4385,1.7052269656510184,474.8852558538087
3570.2617,1.7012132800662603,545.2617790953053
3571.083,1.6992800396575176,456.2989479438046
3571.9065,1.6985397923290535,450.17191732134586
3572.7283,1.698272688964953,495.48347708771587
3573.55,1.697913505253443,437.45003402626725
3574.374,1.6968217374737997,525.2903914400963
3575.1963,1.6943374280754406,429.6841345972251
3576.0208,1.690156975421809,463.7252715724943
3576.8435,1.6847392005542499,456.81264221552897
3577.6682,1.679148946224048,501.1215508960237
3578.4915,1.6746230903528836,558.3964226940807
3579.3145,1.6719021507435305,527.7557255187596
3580.14,1.6710162693100556,496.29996946308165
3580.9636,1.6714721878483012,458.8062882173349
3581.7893,1.6726380421809333,530.6190332380139
3582.6133,1.674054744701243,524.6616105726072
3583.4395,1.675559029314722,537.8351674959846
3584.264,1.6771740180073342,542.5657136117719
3585.0884,1.6788835412814063,497.45906705897653
3585.915,1.6803636171217124,512.4563183717522
3586.74,1.681003709240795,535.0017163137514
3587.5671,1.6803505791917257,504.9608943517523
3588.3923,1.6785421195414396,503.16953944372847
3589.22,1.6762539637058087,485.30118771144816
3590.0457,1.6741934336009128,489.36576181266156
3590.8716,1.6725611717078805,535.2801177409432
3591.6995,1.6710981808068128,451.6689695661125
3592.526,1.6695411886279137,495.8197859267614
3593.3542,1.667942589439548,451.2005101778671
3594.181,1.6665939745553418,622.2728070159128
3595.0098,1.6656626827900076,596.4760654642149
3595.8367,1.665067211531768,523.2669332003078
3596.6638,1.6646285819230702,546.1857058152941
3597.4934,1.6643062320571105,539.8627686404026
3598.3208,1.664188776838779,534.2281390903086
3599.1506,1.6642696155927736,510.7920428501185
3599.9788,1.6643376927649942,517.4840814168937
3600.8088,1.664174644957346,523.2211069167513
3601.6372,1.6638359215453786,561.2402233642138
3602.4678,1.6635980737474454,520.4680583360812
3603.2964,1.6635541491783261,428.4102793661646
3604.1252,1.6633269675653104,538.4034865541246
3604.9565,1.6623287674166318,487.4982863788453
3605.786,1.6603664260927942,497.9267519431369
3606.6172,1.6579093976158672,561.5095868051299
3607.447,1.6557863755175446,492.1298434268512
3608.2788,1.654554834950889,596.7010527877171
3609.109,1.6542209125504381,559.1556841839678
3609.9392,1.654333079502712,527.212987130731
3610.7717,1.6542836047023868,498.43472198895404
3611.6023,1.6535502726449811,537.6343844836803
3612.435,1.6518528601394218,536.5542130656565
3613.266,1.6492195894440203,542.4603004857959
3614.0994,1.6458493227620823,520.6758954963741
3614.9307,1.6419933214051794,437.8371727567114
3615.7625,1.637865267056617,484.68585542857824
3616.5962,1.6337607533236747,454.4673798320379
3617.4282,1.6300508943423861,527.1725565124685
3618.2625,1.6268811652170911,532.4450213277722
3619.0947,1.62406117174613,551.9475942349175
3619.9292,1.6211850048418084,497.08113705127937
3620.762,1.6181283255593724,493.1511815361155
3621.595,1.6152428299300583,545.0266245437924
3622.4302,1.6131207574700133,565.0618603480211
3623.2634,1.6120263769969019,471.37738642670644
3624.0989,1.6114965348029562,625.8284350328925
3624.9326,1.6106173611655779,485.94824496254967
3625.7686,1.6087161269056482,578.7133357483434
3626.6028,1.605918994984087,599.9284280729186
3627.437,1.602980326387286,541.9545191552231
3628.2734,1.6006617549449704,618.3176021167554
3629.1082,1.5993061351190048,530.3900300650797
3629.945,1.5989093290219136,500.61824847446127
3630.78,1.5995201446960594,592.4507555874106
3631.6174,1.6013688416170273,485.202223336285
3632.453,1.6045931296763232,538.5754231737918
3633.2883,1.6089101202073959,550.2096605517548
3634.1262,1.613557854615323,524.703039978787
3634.9622,1.617584114772607,596.4872789242452
3635.8005,1.620395711856956,545.6584664323002
3636.637,1.6218998435617087,504.85616417487887
3637.4756,1.6224098578811053,448.54310774609246
3638.3123,1.6222927330244383,480.4498612015527
3639.1492,1.6217760878227505,488.021463923062
3639.9885,1.6209265133743016,502.6122805400391
3640.826,1.6197561273451635,559.1471264745716
3641.6653,1.6182978608030085,529.687107402717
3642.5032,1.6166399571246444,574.200852006282
3643.343,1.6148122829858222,495.82604884360956
3644.1812,1.6127127264000733,517.75763064563
3645.0195,1.6101435089686988,601.4088810717732
3645.86,1.6070794267063302,503.7988028685009
3646.699,1.6039366818442624,472.22303956410065
3647.5398,1.6014837788669967,568.5191180661881
3648.379,1.600508496856764,504.38178459337166
3649.2202,1.6012763880945813,480.356786915369
3650.0596,1.6032588493845794,597.3206211250299
3650.8994,1.6053226760991095,519.5986406085937
3651.7412,1.6062834354110238,587.1438386749014
3652.5813,1.605459236132981,551.9026856621557
3653.4236,1.6028770247137054,469.69704164769234
3654.2642,1.5991000042615104,483.1470360560561
3655.1067,1.5948317928106197,524.0487815180405
3655.9475,1.5907340013477345,514.9072231240359
3656.7886,1.5873707951093319,512.9356331857031
3657.6318,1.5853164626787113,501.65241223090385
3658.4734,1.584959151633082,585.7991236833584
3659.317,1.5860329623539362,620.7719307040312
3660.1587,1.5875270979038971,530.9391191279502
3661.003,1.5883309869373514,445.79613109031527
3661.845,1.588088775648664,614.3395885892933
3662.6875,1.587425221268359,585.5853058958126
3663.532,1.5873176802742102,621.1197302366033
3664.3748,1.5883438319020977,566.7007922236559
3665.2197,1.5903661447962039,575.0286464500963
3666.063,1.5925755475069734,464.7687545369134
3666.9084,1.5937891002624764,497.6673355041555
3667.752,1.5929801449578482,506.51848914465177
3668.5977,1.5900187680615743,534.528578729118
3669.4417,1.5859964684179615,523.0726443003933
3670.286,1.5826433887183327,616.735258526453
3671.132,1.5813002647497336,484.98927014957076
3671.9768,1.5821791890957262,579.8651854999491
3672.8235,1.5843978832417764,521.4934075012827
3673.6685,1.5866068790802212,552.971027654813
3674.5156,1.5877120087641678,470.62054508582645
3675.3608,1.5872487295820554,516.6307193634321
3676.2063,1.5854542149999478,524.6989230317506
3677.0542,1.583038057252266,527.8345947581366
3677.9,1.5808579102856324,565.088081736156
3678.748,1.5795000197098485,590.5965372821537
3679.5945,1.5790996043018886,597.2983942629468
3680.4429,1.5793565006001673,563.3930838373326
3681.2896,1.5797838100452688,557.23102740154
3682.1365,1.5799448535929497,540.2186402355505
3682.9856,1.5795723416782586,551.0862260263015
3683.8328,1.5786191553345372,609.8317909811489
3684.6824,1.5772429974392967,557.5037455148099
3685.53,1.5756818030483049,602.4547513458949
3686.38,1.573943131743105,669.8379688489327
3687.2278,1.5716791375780856,531.900983908977
3688.0762,1.568430007630534,555.8807068608603
3688.9265,1.5642065953858808,552.390457592208
3689.7751,1.5598524661329676,628.0616428755527
3690.626,1.5566505549285026,590.7181264656217
3691.475,1.5555775985278941,638.9120523955869
3692.3264,1.556619780638283,550.3195864339318
3693.1758,1.5588689789517312,540.8447380767989
3694.0254,1.561231224176245,517.1337100376994
3694.8772,1.5631135410110524,580.021196383665
3695.7273,1.5645490203607675,568.770430375635
3696.5793,1.5658134347424901,625.047242288133
3697.43,1.5668841959872821,574.7360381357223
3698.2825,1.5672914233835338,525.9758910055236
3699.1333,1.5663855245662508,606.846610697032
3699.9841,1.5638372792919095,580.8547093392377
3700.8374,1.5599508129349957,479.43288697094295
3701.6887,1.5556267873616882,602.139687064353
3702.5425,1.5518220782972034,622.8573959634656
3703.3943,1.5491186603330633,589.5951676941817
3704.2483,1.5475092731400653,550.8998015839917
3705.1003,1.5467190032346851,573.1149857056296
3705.9526,1.546473687235631,568.4716544929296
3706.8074,1.5465319892294538,707.112521027517
3707.66,1.5465283345009087,627.3516526349464
3708.515,1.5460004804691914,671.1048293248475
3709.3682,1.5446717663086762,524.8890689751262
3710.2234,1.5427036851851539,567.7430166617519
3711.0771,1.5406875901277297,567.0980304560002
3711.9307,1.5392435815289671,600.0096670417894
3712.7866,1.5385090875631913,632.668209343419
3713.6409,1.5378658928008224,550.9118860942959
3714.4973,1.5362281237405844,541.6492002202275
3715.3518,1.5328416064789847,606.4031773059008
3716.2085,1.5279060447306527,569.2165568685929
3717.0635,1.5226522266455833,628.0700041585635
3717.9185,1.5186522703578167,676.649572923272
3718.776,1.5170607758315005,598.2814422277964
3719.6313,1.5181294805235126,571.0064752322388
3720.489,1.5212108985242219,689.8556828065731
3721.345,1.5251378332234085,576.3341133768703
3722.2031,1.5287218505617857,597.9368305099339
3723.0593,1.5310360454701404,560.5784274753247
3723.9158,1.5317093298253928,647.8721757676733
3724.7747,1.5309771405717227,649.2876223101813
3725.6316,1.529537596828766,506.4778139713382
3726.4905,1.5281190716638018,564.194853021333
3727.348,1.527088395740929,502.0782695475343
3728.2073,1.5263174959352177,616.928463579284
3729.065,1.5254200598518903,592.5781533895106
3729.9229,1.524071256903409,575.5611270954847
3730.783,1.5222055530599756,616.9678526535099
3731.6414,1.5200240765638107,575.0831061557516
3732.5017,1.5178454801421495,551.1230238320144
3733.3604,1.5160239982947246,613.9560573034477
3734.2214,1.5148244230378156,610.7675549605086
3735.0803,1.5143607332298703,587.398870229521
3735.9417,1.5144933212917273,642.4459924191226
3736.8013,1.514847475801576,569.4762099180815
3737.661,1.5149493662753968,602.4359064156613
3738.5227,1.5144163806743485,628.1424236923614
3739.3828,1.5130546483026541,569.6910290512634
3740.245,1.510773621263237,705.5488925597823
3741.1055,1.5075374096443201,598.1531227386104
3741.9683,1.5034780507519845,578.8539647059345
3742.829,1.4992909946541355,592.8477155412688
3743.69,1.4962194379062355,696.1352595613029
3744.5532,1.495522363166413,678.4276735566243
3745.4148,1.4976065251650164,645.2566785759715
3746.2786,1.5016618247761269,572.8676883847507
3747.1404,1.5061734369305138,653.6256808186657
3748.0044,1.5099337708482201,583.5106361756864
3748.8667,1.5124529379943341,600.2080049324367
3749.729,1.5137467783731675,637.2132065207439
3750.5938,1.5137872342821699,684.7605870776152
3751.4565,1.5124295206538099,580.6323328949417
3752.3215,1.5097902537344776,630.826543909505
3753.1848,1.5065353933479662,638.3802670937915
3754.0503,1.5035613109003254,634.7160120432405
3754.9138,1.5015279497187,579.1323429358785
3755.7776,1.5006537987769726,604.0473002890704
3756.6438,1.5009925997529954,579.6612024889516
3757.508,1.5025393459192529,557.2393548937883
3758.3745,1.5050116865040422,641.0195838108751
3759.239,1.507639108182513,593.4325511346044
3760.106,1.509451499618239,541.7666276234985
3760.971,1.5097317707128113,578.5474810932227
3761.8362,1.5083395341576564,631.0436041249958
3762.7036,1.5056278527450162,695.7094371225943
3763.5693,1.502260367877051,564.3797712490299
3764.437,1.4989093050320224,622.8934057531458
3765.3032,1.4960118318938018,607.8862023772166
3766.1714,1.4935380456469465,628.5598202821443
3767.0378,1.4912119334842504,545.3308819669938
3767.9043,1.4889352478203393,640.1976683420304
3768.7732,1.4870890562561199,660.9370721299304
3769.6401,1.4863291665078602,636.5307452765171
3770.5095,1.4870462803596514,623.7666695816885
3771.377,1.4890521073442191,600.4724992868771
3772.2466,1.4916627022279918,576.6520434263803
3773.1145,1.493976922468919,574.2879555086323
3773.9824,1.4952537018315486,629.1844565186278
3774.8528,1.495180854873028,630.1220472180912
3775.721,1.4940500658722053,592.0760558134652
3776.5918,1.4926306496273045,623.4199273873512
3777.4604,1.491765378087372,576.8443131094938
3778.3315,1.4918939967927887,585.2857237211458
3779.201,1.4928943295021524,608.2500023557333
3780.0703,1.494230557606046,668.4681785273787
3780.942,1.4952647413903886,605.8445889637547
3781.8118,1.495558915424001,597.3718380899629
3782.6838,1.4950918266786013,580.6161338776307
3783.554,1.4942153809604564,611.815124349199
3784.4265,1.4933613500909617,551.6662978888342
3785.297,1.4927394226553043,678.7323091936321
3786.168,1.4922132587157233,649.844824616983
3787.041,1.4914272101432242,582.7105457223133
3787.912,1.4900277900593786,592.8755707627397
3788.7856,1.4878360746588781,651.3622133111018
3789.6572,1.484965775444492,625.5350928135686
3790.531,1.4817131305694409,627.0890383282715
3791.403,1.4783940775910156,784.1738852324165
3792.2754,1.4750796236816752,608.9905528634317
3793.15,1.471590501123838,610.1946348639706
3794.0225,1.4677188170395525,609.7219372667275
3794.8972,1.463407293176115,645.1386541272798
3795.7703,1.45890282042658,643.2997675317846
3796.6455,1.4545814175662624,678.7636617776049
3797.519,1.4508766145536083,738.7408069958401
3798.3926,1.4481420809877954,730.6640833885389
3799.2686,1.4467024661240178,617.6358093118374
3800.1426,1.4468529853661043,659.0128003198894
3801.0188,1.448722611308545,635.3373640227805
3801.8933,1.4520911082445795,645.8983325341193
3802.77,1.4563542558548237,718.904506247481
3803.6448,1.4606295724693608,703.9216611860794
3804.522,1.4641368683206204,727.5278876076565
3805.3972,1.4663835028314056,708.499746450829
3806.2727,1.4673057418530342,690.7665608986922
3807.1504,1.4671293005664274,640.0278681244713
3808.0261,1.4662164061456453,634.9376991251953
3808.9043,1.4649407086064308,697.8282738655074
3809.7805,1.4636711512261587,622.4358781007625
3810.659,1.462735248589551,673.5889683827339
3811.5356,1.462358746105335,664.8643853453875
3812.4126,1.4625422006638629,619.1901275679828
3813.2917,1.463061681953698,629.3256378708157
3814.169,1.4635913749408367,720.4176322435669
3815.0483,1.463903818699471,685.1569660598085
3815.926,1.4639909836425768,704.9194429880044
3816.806,1.464028526326522,680.964197635269
3817.684,1.4641298087007335,702.2982225422235
3818.5623,1.4640655564532405,673.5089952147321
3819.4429,1.4632488590945263,624.8935481256905
3820.3215,1.4611273888985894,716.8746593810413
3821.2024,1.4576597838109713,644.9599048846684
3822.0815,1.453519569510929,631.2175460766795
3822.963,1.4497004359068268,647.2900681337661
3823.8423,1.4469659762331264,650.1416351900181
3824.722,1.4453282953044777,678.834750166249
3825.604,1.444085390401323,636.796888652149
3826.4841,1.4422447104487512,704.42757860682
3827.3665,1.439010043335392,704.5215613394186
3828.2468,1.4341106598674924,630.9107439837612
3829.1296,1.427748843878122,691.31030465082
3830.0105,1.4205739307042535,702.179361427839
3830.8916,1.4134171604936625,735.5684863551231
3831.7751,1.4071399739518278,627.4018046382814
3832.6565,1.4024509758198855,716.1771279193849
3833.5403,1.3995822386116357,705.153864238833
3834.4224,1.3982674491283096,731.5778428658642
3835.3064,1.3977987029361154,695.8392145895781
3836.1887,1.3974672299313065,687.924662450234
3837.0713,1.397035480631614,703.4199514475021
3837.956,1.3969047798108185,697.9080224461903
3838.839,1.3977981832705237,779.9364818334873
3839.7244,1.4002438785066469,676.1773703010361
3840.6077,1.404245154657646,630.3498424578938
3841.4932,1.4093806871357237,668.084445036986
3842.377,1.4150059788979223,625.6424365740914
3843.261,1.4206090667605298,746.4905965601628
3844.1472,1.4259389479461018,702.4537623274273
3845.0315,1.4309322092521792,721.3392575637371
3845.9182,1.4355869580482283,689.9465878934249
3846.803,1.4396832966388693,690.8602828111615
3847.69,1.4429751565175237,683.6894691139483
3848.5752,1.4454819294131604,593.9292016604846
3849.4604,1.447794055873006,630.7608264898474
3850.3481,1.4508302693721244,693.6109585631384
3851.234,1.4552226254578422,619.3551693628109
3852.122,1.4609122508682884,614.9388739467024
3853.0083,1.467095060087693,655.5205026107448
3853.8967,1.472748654622532,573.9721539826509
3854.7832,1.4769728654719798,756.9063262427786
3855.6702,1.479330100379627,623.1872924485468
3856.559,1.4798466167614446,643.4647160713737
3857.4463,1.478966197522969,646.9451020183333
3858.336,1.477351112468664,650.4283213970211
3859.2234,1.4756356384018983,627.4106205127296
3860.1135,1.4742280299036552,658.5553856543823
3861.0015,1.4733027305016855,591.7599589702971
3861.8896,1.4727633520194414,625.5437288561039
3862.7803,1.4722497897303273,613.3138015623894
3863.6687,1.4712340914340454,607.7641274567034
3864.5598,1.4692260958864396,705.7334937375329
3865.4487,1.4660022717407357,593.2337840845777
3866.34,1.461620426993709,577.1175760201146
3867.2297,1.4564020439169574,711.6985893334829
3868.1213,1.4506815667527502,625.7374810646085
3869.0112,1.444723285546702,655.2434312943427
3869.9014,1.4386486275785613,741.1904305594751
3870.7937,1.4326742867882698,705.8956888317949
3871.684,1.427281804020591,654.9166616694682
3872.577,1.4228959650341555,737.4760309433631
3873.4678,1.4195095188125058,732.7439754911586
3874.361,1.4163387835125707,637.4618249518472
3875.2524,1.4122160025645436,674.4535529570646
3876.1438,1.4062768540305888,690.6284012705272
3877.0376,1.3985392732465458,676.2332485222576
3877.9297,1.3898731977268484,740.8959764387944
3878.8237,1.381176764486021,786.468803997056
3879.716,1.372869861928348,748.0478983838736
3880.6108,1.3647042919492045,709.0618716064895
3881.5037,1.3563499113644564,734.3606773978479
3882.3965,1.347639274243257,777.0551357689737
3883.2917,1.3386410297936893,698.8544599921609
3884.185,1.3295473576282473,795.8842096318269
3885.0808,1.3204032601430744,776.2419308169787
3885.9746,1.3113578054441617,775.3652539434339
3886.8706,1.3026470648305757,823.1324077399399
3887.765,1.2948296220631959,747.0604860282592
3888.6592,1.2885388541105867,917.0011167475247
3889.556,1.2843128285309036,876.5179171880229
3890.4507,1.2824217200274255,865.1300666108356
3891.348,1.2827937044516826,902.6255496854812
3892.243,1.285238031870958,941.9336543752946
3893.1406,1.289689494393526,845.9924561827024
3894.0361,1.2962076371231068,844.6754474021589
3894.932,1.3048160215762339,881.2089751972804
3895.83,1.3151639123880785,781.7662916602609
3896.7263,1.3263626451163737,787.7565665307899
3897.625,1.337501395105721,772.9578827359469
3898.5215,1.3479260169938185,691.2648341612362
3899.4207,1.357686306898829,792.2096967012608
3900.3176,1.367108413338819,743.1032844885774
3901.2148,1.3765996813892956,635.9851331085206
3902.1145,1.386356869072838,658.482286984125
3903.0122,1.3963443349510143,743.1254894565361
3903.912,1.40658589285438,657.6956774305374
3904.8103,1.4170522324852224,670.664969016751
3905.7107,1.4278570181111752,721.2938403061657
3906.6094,1.438995348699913,682.596255968117
3907.508,1.450271832138632,671.7441296731595
3908.409,1.461021827376083,626.8874088670939
3909.308,1.470169070673017,650.6779144795543
3910.2097,1.476947966044173,643.5063431076023
3911.1091,1.4813272239679478,624.8353909968789
3912.011,1.484211143768446,625.2946300109179
3912.9111,1.4867765594697895,718.8316065349013
3913.8113,1.489773852176631,592.6206240851371
3914.7136,1.4931590233077388,622.0309833084386
3915.6143,1.4963392586343949,608.5676429514164
3916.517,1.4987759559331628,606.6551587601889
3917.4182,1.5002701182055898,650.7492179857205
3918.3215,1.500965255746979,589.8117200395416
3919.223,1.5011389291962316,578.3990134406465
3920.1245,1.5011106205362226,602.0424053800193
3921.0286,1.5011748784731116,568.4541127809281
3921.9307,1.5014957559276711,577.1648104918067
3922.835,1.5020345804374877,621.4380445361967
3923.7373,1.5026672741883889,572.504788809848
3924.642,1.5034635760596176,650.1836022615738
3925.5452,1.5047940161350655,651.2731546291382
3926.448,1.5070947386833071,602.5634176473379
3927.3535,1.5104209465670606,595.1895892926362
3928.257,1.514139230744097,588.7583957433463
3929.1628,1.5171521366596643,605.5693014267594
3930.0667,1.5183299337953693,528.6211751223375
3930.9731,1.5170386284356252,598.9260647934908
3931.8774,1.5133716189859667,623.7196410757794
3932.782,1.5081045724176343,625.0647228948936
3933.6887,1.5024013034006192,590.1142783991779
3934.5938,1.497348289098028,670.7186829530174
3935.501,1.4933248555917906,648.3638456589434
3936.4062,1.489892539357533,577.8044412113392
3937.3142,1.4860912724026365,648.8806719577532
