wavl,flux,ivar
3566.9744,3.803220416636394,28.648028253258317
3567.795,3.7930844043254606,47.98313250196322
3568.6177,3.775494245113389,28.144503939142936
3569.4385,3.75255494654614,50.52421887295268
3570.2617,3.726836420437781,48.662074721863455
3571.083,3.70013760825325,36.168627914974685
3571.9065,3.671793955751248,33.61784370485839
3572.7283,3.640228042244326,35.7381726572374
3573.55,3.6048629140036246,24.560331408280682
3574.374,3.5674648793093704,39.81250137717018
3575.1963,3.531445465175527,37.75519784817149
3576.0208,3.4996147923923253,28.51239925350031
3576.8435,3.4746136859165513,28.82554432179653
3577.6682,3.4589922321267332,31.823704379134202
3578.4915,3.4546724550235886,45.35282200611802
3579.3145,3.4596211353806807,37.30749243907676
3580.14,3.466437061208811,35.94332148573371
3580.9636,3.465674060398588,42.278377951229295
3581.7893,3.452885044772056,39.0077106706938
3582.6133,3.4331661775288183,44.390037005495714
3583.4395,3.418648236816266,44.51694981564027
3584.264,3.4211906470801083,56.061959936716974
3585.0884,3.444918001958924,42.36294224917624
3585.915,3.48448960514573,32.50806696836145
3586.74,3.528226206117882,47.411308409625654
3587.5671,3.5645600475754597,45.131843819396195
3588.3923,3.585192467153585,36.93952096323951
3589.22,3.586402552824663,32.040364139152786
3590.0457,3.5679362923632345,30.522192252210676
3590.8716,3.5327087970763857,31.566179327898553
3591.6995,3.4863268265091687,36.86890245784133
3592.526,3.4362304734338203,35.004280296401305
3593.3542,3.388977054895691,34.67098043835235
3594.181,3.350221727217307,44.611810782364444
3595.0098,3.3252089081903837,28.936122709411258
3595.8367,3.320307759335154,39.213077112729195
3596.6638,3.340021231438963,40.282947528586575
3597.4934,3.3826219549816305,55.302321086085485
3598.3208,3.4371522002820765,33.79614478728876
3599.1506,3.487638699306139,59.096318986847564
3599.9788,3.519620823108453,41.7536699319282
3600.8088,3.5278925291603596,37.80175853321542
3601.6372,3.5178735282923257,29.193794922134614
3602.4678,3.5020605268663503,29.253484228484297
3603.2964,3.4933177204076578,35.69344469462262
3604.1252,3.4985325970504046,63.32383175683004
3604.9565,3.5161649034328026,36.736588620468915
3605.786,3.5377071969990537,41.19674562743585
3606.6172,3.552933195219127,34.60872497869101
3607.447,3.5549834947393486,33.869872334390415
3608.2788,3.543950033317803,27.975991062370564
3609.109,3.5268265836450956,27.26813233992824
3609.9392,3.513435507035955,34.337289510468956
3610.7717,3.510159241714853,49.06430879335004
3611.6023,3.5153355921728258,50.81996111191985
3612.435,3.5205150321173364,35.80526992234034
3613.266,3.517307060124743,34.81383271450409
3614.0994,3.504354764306614,31.064915621280576
3614.9307,3.488373309898148,64.59937763503659
3615.7625,3.4779105846180665,39.32303764680191
3616.5962,3.476084277710942,38.71758351130494
3617.4282,3.4786869178993447,33.87177392071617
3618.2625,3.4791961564926273,27.52997483254144
3619.0947,3.4750632389959764,37.00457315984792
3619.9292,3.4690462515690275,43.65479122762226
3620.762,3.465195559201555,52.638664772543635
3621.595,3.4640139140758475,39.17640160230127
3622.4302,3.461590919000675,40.52520114817893
3623.2634,3.4529680395762203,45.39146528278757
3624.0989,3.436467645125567,40.59086214468274
3624.9326,3.415599209651685,32.5443396778439
3625.7686,3.3965422978339457,32.664220270448695
3626.6028,3.3842328348632655,43.8526161534388
3627.437,3.3792421291448327,35.197812092189054
3628.2734,3.378550193278603,27.57508022892365
3629.1082,3.3781667546380056,35.28095025960135
3629.945,3.374820440232046,59.82910719088594
3630.78,3.3654761451751463,47.222697693811696
3631.6174,3.346464514385352,46.87400918868571
3632.453,3.315201459253385,42.845223544608274
3633.2883,3.272989122371925,37.05314997940429
3634.1262,3.2264949293097875,57.696165079121066
3634.9622,3.186017835573796,45.36049043320286
3635.8005,3.159978597802235,44.65893854016762
3636.637,3.151818984761155,37.8499225502347
3637.4756,3.158880106243061,41.01892138074489
3638.3123,3.175093818029655,43.17962817473713
3639.1492,3.194286044091096,57.354660193159916
3639.9885,3.211874475261576,33.991817131585286
3640.826,3.2244437779731716,51.04880678133318
3641.6653,3.2292958893075223,31.745790900199395
3642.5032,3.2245252483436153,38.62720384047549
3643.343,3.210448226996767,37.00533214496252
3644.1812,3.190762857586822,39.09960626276963
3645.0195,3.171664357666278,59.69800528536606
3645.86,3.159097226768213,61.62908684695865
3646.699,3.1553694095450218,41.060590721252645
3647.5398,3.157634304896431,43.669148044616065
3648.379,3.160351579482867,39.23976589808839
3649.2202,3.1595841758181935,52.804319368152164
3650.0596,3.1554629812699675,58.6159494963395
3650.8994,3.150923842248414,41.90178410781768
3651.7412,3.1485785595936804,38.587791813667764
3652.5813,3.1485921835407447,47.95402978207671
3653.4236,3.148387311089014,62.62060337273412
3654.2642,3.143717281983862,40.58688784318218
3655.1067,3.1310482797299537,39.50122062256823
3655.9475,3.1111336276615282,40.60008596896477
3656.7886,3.0905257243951847,40.5852874086574
3657.6318,3.078427264050769,77.95043067744923
3658.4734,3.080019074754327,48.22306554727212
3659.317,3.0921026223356813,42.00131339491004
3660.1587,3.1057797999443304,43.01489309687728
3661.003,3.1136352181131297,34.83236871972556
3661.845,3.114193240276623,41.497103645760404
3662.6875,3.110531854400405,48.041392059676156
3663.532,3.1053098207199517,50.084328076928806
3664.3748,3.098433152416977,39.94234604053851
3665.2197,3.0889760605780374,36.97900846969815
3666.063,3.078248611552621,48.0854362733917
3666.9084,3.069463803896141,49.840851451064054
3667.752,3.0649503281144868,58.8392669821725
3668.5977,3.0637849623209363,68.09014278286935
3669.4417,3.0627151633654313,57.203021657000335
3670.286,3.0590604683152125,56.1883583567058
3671.132,3.0528864117399412,46.347630682402574
3671.9768,3.0462973405915483,57.4309881680007
3672.8235,3.0403772496105237,51.999949470334045
3673.6685,3.0333365836901347,50.50261939029938
3674.5156,3.021653176211273,37.63931774669865
3675.3608,3.0033119271689483,61.85995382403439
3676.2063,2.979428357383165,57.34060232465853
3677.0542,2.953688647163445,80.78141180794674
3677.9,2.9308800490266766,50.28462884276414
3678.748,2.914998197724833,40.64093758520999
3679.5945,2.9087378506221735,62.74239770973566
3680.4429,2.9122729884434397,66.16850388420362
3681.2896,2.9229239165581617,60.119304032494085
3682.1365,2.936132939666987,67.7688283975406
3682.9856,2.9476452794916947,65.38593243759519
3683.8328,2.955096380731315,62.105620425732745
3684.6824,2.9582600466134106,52.54343219458078
3685.53,2.958112269038853,45.67917462798184
3686.38,2.9563722912224857,36.0422676140523
3687.2278,2.955065998231769,49.15223039450986
3688.0762,2.955564411574529,55.15579461839836
3688.9265,2.957462396327504,70.06622664957149
3689.7751,2.9583841686184678,57.01409000883338
3690.626,2.9555214158628473,67.74651688733483
3691.475,2.948022429463116,66.95399789033458
3692.3264,2.938154658865082,53.771689982580945
3693.1758,2.9300983398450455,66.15955395665934
3694.0254,2.9267423909955363,54.203525267962526
3694.8772,2.9275695618483524,61.119561117198494
3695.7273,2.929216128731567,44.34854965689026
3696.5793,2.928488306350589,56.12929152795445
3697.43,2.9248961007763543,38.55098802836563
3698.2825,2.920135122213961,78.69101083055386
3699.1333,2.9153454439368804,57.69458457662621
3699.9841,2.9094583454547243,43.81206643987086
3700.8374,2.900748800378824,57.967940294609846
3701.6887,2.889569429242713,49.59381772221178
3702.5425,2.8787040542505156,47.77834300650418
3703.3943,2.8715610178436966,78.03816705100351
3704.2483,2.869798449849769,45.85018726451716
3705.1003,2.8728729743252566,48.92298939037838
3705.9526,2.8788115388036455,50.69202994396713
3706.8074,2.8855505292005823,53.65051193663484
3707.66,2.891814412750918,58.13277382090085
3708.515,2.897083674493898,57.57455658465745
3709.3682,2.9000649373109626,86.48707713854124
3710.2234,2.8975685458675855,56.608012263427995
3711.0771,2.885401390129468,55.34256438771123
3711.9307,2.8614948292893145,74.62316037436456
3712.7866,2.828587906877373,56.044475065180855
3713.6409,2.794286025189745,57.877907347370915
3714.4973,2.7666216358471165,72.74645989181319
3715.3518,2.7497863131222915,79.47041640245214
3716.2085,2.741583581185841,47.20412431920261
3717.0635,2.736450744620749,50.1718553423553
3717.9185,2.7308801054120737,60.987564086875174
3718.776,2.7270926849382455,75.30304464898582
3719.6313,2.7308739178476364,64.00371543882295
3720.489,2.745366152111002,60.63102646248995
3721.345,2.7668644302812018,41.84398654719204
3722.2031,2.786784594474633,46.08752345607049
3723.0593,2.796698848024505,74.89024344899693
3723.9158,2.792982378605972,50.01592152688738
3724.7747,2.7777027831640866,41.71123148914047
3725.6316,2.757344062161742,52.04111540452572
3726.4905,2.739233993509039,55.71214893464548
3727.348,2.7283677104652595,50.46380383587466
3728.2073,2.725849978345787,41.95811931479159
3729.065,2.730648316423507,56.061699746569744
3729.9229,2.74179523968442,60.91212731960326
3730.783,2.758623193855192,80.18075001651835
3731.6414,2.7787236188000435,80.75918910457364
3732.5017,2.797309992431056,82.36413007059056
3733.3604,2.8091088689122703,53.094013384092484
3734.2214,2.812202523660554,51.12438166466237
3735.0803,2.808849398664085,56.05588609021017
3735.9417,2.8026254500738434,67.65701195906786
3736.8013,2.794720028834225,51.04725479046272
3737.661,2.7834811242544966,59.82246870679041
3738.5227,2.767777096459446,48.6676359290867
3739.3828,2.75042434833535,55.572928225895865
3740.245,2.7372502628782733,69.06801792689002
3741.1055,2.7328945749058757,55.128334983622466
3741.9683,2.736603255626186,75.20872238532453
3742.829,2.742879163704858,60.98503101273629
3743.69,2.74647013132931,51.68058365954209
3744.5532,2.7471212059424754,67.76198112741874
3745.4148,2.7495131458455964,62.282128457009584
3746.2786,2.7584233800750124,57.27724097956556
3747.1404,2.7737043152815977,75.51716232530568
3748.0044,2.789917219095295,51.19378876743974
3748.8667,2.7997429055562546,59.00053937387932
3749.729,2.7983670498276565,77.1708612015381
3750.5938,2.784969548276441,71.2550727057174
3751.4565,2.7623142764369333,60.097965822146385
3752.3215,2.735224079223169,46.4930184035905
3753.1848,2.7098224827598707,62.22304801460277
3754.0503,2.691719645313755,66.69204183369561
3754.9138,2.6846755264517674,45.34359237401289
3755.7776,2.6889657553843787,81.41322227686136
3756.6438,2.701527512777987,72.65203720820216
3757.508,2.716983204533966,50.45117122664255
3758.3745,2.730015604695554,78.33276403553859
3759.239,2.737249518989882,57.400230192833384
3760.106,2.7385065322313116,63.13286678029641
3760.971,2.7361808140664756,82.09545572106258
3761.8362,2.7337839635791177,49.56119394746298
3762.7036,2.734219890401817,71.94565720302835
3763.5693,2.738472480886839,45.806537710312114
3764.437,2.7453242825901114,54.09509982088227
3765.3032,2.752448173427116,56.48700767975489
3766.1714,2.7583613645982608,71.31667052395044
3767.0378,2.7630970733941247,74.67916550586321
3767.9043,2.7670658729505027,64.97437657047324
3768.7732,2.769143073291159,57.97176719620697
3769.6401,2.7664531768192404,64.83400278567125
3770.5095,2.756474336006815,62.57759032349688
3771.377,2.739541523498345,53.07753922651011
3772.2466,2.7187645181670175,65.72122332132523
3773.1145,2.6979282900464994,100.9184126463447
3773.9824,2.678948468799599,77.99839018962953
3774.8528,2.662171345152879,89.36454617678427
3775.721,2.648396539610429,52.58682647480097
3776.5918,2.639719359834123,75.37097581082585
3777.4604,2.6388190753522305,77.60523123743008
3778.3315,2.6465392773135137,71.06026839816516
3779.201,2.660475065310023,55.50188598349063
3780.0703,2.675839600962657,54.65664226718821
3780.942,2.6878835714069598,57.51534262557733
3781.8118,2.693654905733376,65.83877442581417
3782.6838,2.6920559766551952,68.9428616394538
3783.554,2.6829124010611363,64.80380645910536
3784.4265,2.6672803944651764,53.0128496098355
3785.297,2.648486852964126,55.25583544674559
3786.168,2.6308155257139147,102.73692071546039
3787.041,2.616601889842812,68.10082655693859
3787.912,2.6045602964426866,60.224237728816846
3788.7856,2.591367590769062,64.0426689398696
3789.6572,2.575680310699769,58.39840962031247
3790.531,2.5597837715605176,58.92031589152374
3791.403,2.5480430370948524,72.72850740651593
3792.2754,2.542710012841329,65.45749285696016
3793.15,2.5416778685637484,70.72037057668331
3794.0225,2.539948990214275,69.98496908276167
3794.8972,2.5337628132298646,65.38750853861656
3795.7703,2.5235486587827114,76.3386962372831
3796.6455,2.512898458916331,94.1767808917054
3797.519,2.5053001295012236,61.522494736906836
3798.3926,2.5014147540558556,82.85617871223032
3799.2686,2.4991460200727578,60.85016397947578
3800.1426,2.495158154950805,88.11773190903175
3801.0188,2.486319658279719,63.623266361535144
3801.8933,2.471151002239046,80.72500779349144
3802.77,2.4515215666965204,62.58464700730434
3803.6448,2.434429991659294,74.97342191575454
3804.522,2.430086154253023,82.49495141709772
3805.3972,2.44623567603518,130.20329846912637
3806.2727,2.4818061935617393,52.850657127717646
3807.1504,2.526513949878926,80.66209844717724
3808.0261,2.566346796240792,62.832904250864146
3808.9043,2.5913919975325146,69.82474038350357
3809.7805,2.5982472988164065,64.69687119694149
3810.659,2.5894251286714547,67.15229214469156
3811.5356,2.570799881429092,80.07188383298231
3812.4126,2.5496158826723967,59.369990249078086
3813.2917,2.5328887930702724,70.52198042842069
3814.169,2.525761364455485,60.34792827377454
3815.0483,2.529676118539714,58.90279806257431
3815.926,2.5421589840803165,60.7344065582642
3816.806,2.5582255409832166,65.58503594265244
3817.684,2.572171792066826,86.0007797209245
3818.5623,2.5789416093375697,79.86348078520146
3819.4429,2.574372376017872,87.5635254909169
3820.3215,2.55624426361009,63.311103287091356
3821.2024,2.5259020814545865,57.770001784415896
3822.0815,2.4894898829931074,81.95804956323069
3822.963,2.4555648581346694,70.10161104441606
3823.8423,2.4310863784865386,72.39541747374712
3824.722,2.4167998850802586,77.79646089562057
3825.604,2.407615743485899,68.46581373753895
3826.4841,2.397043700814704,74.31608361789512
3827.3665,2.382186652070769,78.23321023004523
3828.2468,2.3656125473508656,87.04271994374697
3829.1296,2.3523702584254673,77.46782519885728
3830.0105,2.345929867056424,81.92973339719336
3830.8916,2.3454528749796104,86.08303708023394
3831.7751,2.346770094275196,127.83870312338007
3832.6565,2.34536743368684,63.27433529921447
3833.5403,2.339248295241325,84.16135909778163
3834.4224,2.3296459013198554,89.0167734843355
3835.3064,2.3191958572146767,117.14295057009997
3836.1887,2.3096662224768516,93.37550878351765
3837.0713,2.3010212087782596,92.19895535746315
3837.956,2.2930194665873107,76.25807140332796
3838.839,2.2873592616324676,82.08508268986213
3839.7244,2.2876437601816604,74.11309172628387
3840.6077,2.296745466344625,98.54862945534312
3841.4932,2.3136934350648284,79.42582068156692
3842.377,2.3332512352020496,57.259127170738736
3843.261,2.349504850136266,68.4091164927755
3844.1472,2.359825738638621,60.15335666575269
3845.0315,2.366036082605827,95.32959619452492
3845.9182,2.3722259628131668,83.09806155262265
3846.803,2.381362553187578,73.42784977729795
3847.69,2.3942258825059985,106.09875239884093
3848.5752,2.4102355447951753,58.933864581487526
3849.4604,2.4286866958569364,82.156619967002
3850.3481,2.448384292501423,68.97233587294436
3851.234,2.4668048617197367,58.374492807149274
3852.122,2.48122854744405,102.32217063588027
3853.0083,2.4904395388302993,51.473504785994464
3853.8967,2.4960837821503654,93.09642275483984
3854.7832,2.5009840132749455,76.08135929243723
3855.6702,2.506201662870524,65.9555182869845
3856.559,2.5094006755285094,76.4894474467582
3857.4463,2.5067292937007917,77.22377206485953
3858.336,2.4966420000877965,72.9732274815994
3859.2234,2.481961711631614,79.3873076218811
3860.1135,2.4679504348707133,72.96650319041437
3861.0015,2.458957572818652,59.249830650988464
3861.8896,2.455842841976677,81.60826351217474
3862.7803,2.45636330981335,70.2211994833789
3863.6687,2.456900355110615,55.52479420660019
3864.5598,2.454486444800424,77.93803690863449
3865.4487,2.448290949297178,62.23591313805297
3866.34,2.439883007322123,72.61690403588848
3867.2297,2.432158357280584,90.7942926416626
3868.1213,2.4271187465583015,74.79351216406317
3869.0112,2.424434145319805,68.22307432475955
3869.9014,2.4213517578363053,65.05014759820317
3870.7937,2.4139818372261694,82.4657922656008
3871.684,2.3992079967395794,69.01005750320334
3872.577,2.3765132399675752,95.89138216709921
3873.4678,2.3495724601480967,63.71374738567136
3874.361,2.32485235787923,82.63860258036107
3875.2524,2.308178959009546,69.10031632957387
3876.1438,2.2999041556259394,56.757931555961065
3877.0376,2.294378719973179,68.63601578941712
3877.9297,2.2843411940448446,72.18569686919696
3878.8237,2.266852402145354,109.42133794456471
3879.716,2.245528317704136,71.7875189777976
3880.6108,2.226370670496533,115.87595241882723
3881.5037,2.2121147510132237,107.08178841138233
3882.3965,2.1995263194912567,109.20808999167672
3883.2917,2.1826168000898196,87.78063480326331
3884.185,2.1577841320685915,91.90201996418509
3885.0808,2.1256357687070233,102.97517548889178
3885.9746,2.089614046243555,123.56931322105737
3886.8706,2.0524792646543046,66.32528148625596
3887.765,2.015982214618794,113.39863275942542
3888.6592,1.9813790301681946,102.89595893589359
3889.556,1.9507612292100185,110.50746656681368
3890.4507,1.9270835569672933,135.46591196714604
3891.348,1.9125877668732816,108.42819272256085
3892.243,1.9085491540543542,114.41160072760646
3893.1406,1.9152445051052567,151.77948067874453
3894.0361,1.9324768300269373,81.5526707979596
3894.932,1.9594120567335975,187.35379455138954
3895.83,1.9941268215553447,105.03797420084099
3896.7263,2.0335879467648224,116.80986455236723
3897.625,2.0753616960342365,120.62633078860412
3898.5215,2.117248730797562,97.32467748807431
3899.4207,2.1572415771005025,81.92840681227327
3900.3176,2.1919684466808844,105.36459209662189
3901.2148,2.2185134043263166,57.4091527817271
3902.1145,2.2360781317971052,87.8125291567296
3903.0122,2.2467887996234883,104.0905673010391
3903.912,2.2543676630026197,98.31712755490472
3904.8103,2.2613004078006385,72.08395070103667
3905.7107,2.2679938224446907,67.09637164860042
3906.6094,2.274086872468423,86.3106406088002
3907.508,2.280597364243851,87.25385478362259
3908.409,2.2901213095997153,74.94667408620572
3909.308,2.3048913403465336,59.191614255570755
3910.2097,2.3250032074714735,79.5162626126285
3911.1091,2.347982319460649,94.45548734102796
3912.011,2.3707663656449927,82.07601651863425
3912.9111,2.3911626286014136,101.9832595434359
3913.8113,2.4090690889915503,102.19239715725217
3914.7136,2.4257766652331205,54.353982118472025
3915.6143,2.442601650143375,66.02675457446712
3916.517,2.460184451302354,73.3735700235678
3917.4182,2.4778145695997735,86.49950336636408
3918.3215,2.493425586212133,79.50804170205531
3919.223,2.5031317110783164,86.04057284360135
3920.1245,2.502565611387144,87.38703921647843
3921.0286,2.4895197605347454,84.63782829950117
3921.9307,2.4670628555300085,59.12788582958044
3922.835,2.4433218469784914,63.518391428085394
3923.7373,2.4278690958144216,82.68392092566023
3924.642,2.425878078096911,64.08022815931673
3925.5452,2.435432157991109,54.9009506598473
3926.448,2.449423757326715,74.0648325406299
3927.3535,2.4609905071433267,64.15916889095303
3928.257,2.4676539321125155,73.76157045794331
3929.1628,2.471493216855739,67.17931022106035
3930.0667,2.4754805236495403,71.33884081882024
3930.9731,2.480434843386802,55.44345783137503
3931.8774,2.4847703036968807,56.59897544586484
3932.782,2.486499917747393,83.09641599087637
3933.6887,2.4847417469003594,60.4508640996126
3934.5938,2.4799699102437,77.81344261229397
3935.501,2.47335887634997,60.69926603933549
3936.4062,2.465981357037995,57.06696473528466
3937.3142,2.4578919212213943,68.4910736154417
3938.22,2.448138749586305,77.11765720515119
