wavl,flux,ivar
3566.9744,4.118008658635039,85.03653933940896
3567.795,4.118919298849381,77.2154754459325
3568.6177,4.109307637580974,79.09306945841303
3569.4385,4.089102566586251,101.54811911148344
3570.2617,4.06175586466975,73.76832783276286
3571.083,4.033553978091706,95.5813517203577
3571.9065,4.010864948044583,94.56511616180609
3572.7283,3.9982036386240924,96.72080609228914
3573.55,3.9962556383727232,80.03019459431187
3574.374,4.002198159780826,87.8448344660761
3575.1963,4.011264876603294,93.53688463412814
3576.0208,4.019173710602231,82.79447692325746
3576.8435,4.023346478396709,102.86176363906146
3577.6682,4.022670280999471,100.61408483755382
3578.4915,4.016509840983388,75.24431880077387
3579.3145,4.00493626279877,89.02977634901755
3580.14,3.9898409285622165,76.41885308429812
3580.9636,3.975298219356051,105.61416989607865
3581.7893,3.965424399284173,92.2703433057403
3582.6133,3.9622912371102768,95.43845580346185
3583.4395,3.9654083789701464,81.52603968637344
3584.264,3.9733826241023142,110.23121160150308
3585.0884,3.9851930763372967,98.7558491507587
3585.915,3.9996057441992647,97.68676009752804
3586.74,4.013673907787904,97.32539560158035
3587.5671,4.02304775575728,107.1198486968298
3588.3923,4.023760504241576,79.33204300116266
3589.22,4.014694478265304,78.88454808823454
3590.0457,3.9983713977035036,94.62055245229605
3590.8716,3.9795541249723354,93.67581784105215
3591.6995,3.9628835528592754,84.67972627850878
3592.526,3.9510080143656054,75.53902868763464
3593.3542,3.9438490662903147,112.73198301985481
3594.181,3.939724424522352,95.16501374591216
3595.0098,3.936520083037916,96.94144550591085
3595.8367,3.9324239532037057,103.76524075585174
3596.6638,3.925882356226582,90.18719020211883
3597.4934,3.916010928384335,105.48285966715417
3598.3208,3.9038474963033942,92.23955568284208
3599.1506,3.8926868472701663,110.4310667374569
3599.9788,3.8867616127709854,114.8801539027527
3600.8088,3.8880775344527296,100.48079279964215
3601.6372,3.894655694194588,111.73746947311706
3602.4678,3.901627130625267,79.92279460518735
3603.2964,3.90448264288991,69.29367177198301
3604.1252,3.902199593760646,85.60117769512313
3604.9565,3.897507862065624,120.1114123207011
3605.786,3.8945086274867307,73.70985667195762
3606.6172,3.8955620811598886,87.29514959861692
3607.447,3.9002893888337975,94.39865955400043
3608.2788,3.906718979057764,72.72864563806823
3609.109,3.9126525158081193,102.90280820238198
3609.9392,3.9163093274356076,110.88096200141348
3610.7717,3.9165830795889045,80.26866909513093
3611.6023,3.913664047433829,100.47844882268373
3612.435,3.9089594043853064,125.83570205482371
3613.266,3.903661891457211,104.48235607946923
3614.0994,3.8971807858290823,88.53403286842656
3614.9307,3.8879015337048077,95.88330337269714
3615.7625,3.875761673315241,93.58571800673475
3616.5962,3.864323663335105,112.9787435304866
3617.4282,3.859831607110412,114.56847587149898
3618.2625,3.867349494490822,119.57234610558321
3619.0947,3.8869158065187994,88.94069082207669
3619.9292,3.9124182022481064,100.67231867623897
3620.762,3.9336362531617945,89.67099030205344
3621.595,3.941369311083055,88.33000851673455
3622.4302,3.931426476105767,70.53393264825792
3623.2634,3.906287432912947,89.85736018155185
3624.0989,3.873072469348362,116.31128530502806
3624.9326,3.840505805555912,105.3738587165953
3625.7686,3.815270112342711,84.28754838806756
3626.6028,3.800942967094297,105.92568821330477
3627.437,3.7976005274351956,86.36688659719287
3628.2734,3.8032328285771206,87.99409832670126
3629.1082,3.8149560875613933,112.03740923186066
3629.945,3.8298559915208212,96.51800005994681
3630.78,3.8448420726768284,94.64137402650107
3631.6174,3.8571193777801502,75.55965985069987
3632.453,3.8647662918924373,85.96744194829901
3633.2883,3.867711792450779,95.99982613148168
3634.1262,3.8672922284716913,98.84560009190695
3634.9622,3.8653014332308517,91.12370078853806
3635.8005,3.863277286170853,107.15676016091763
3636.637,3.862287288039832,110.66439788832704
3637.4756,3.8626010272436844,97.58956453411598
3638.3123,3.863434415276797,126.4476636356959
3639.1492,3.863432795104701,94.07900279506762
3639.9885,3.8619252828998683,93.79545445522166
3640.826,3.8597915241497676,111.25552487749636
3641.6653,3.8587050003774186,86.35606487457147
3642.5032,3.8592580357580974,88.02018441803327
3643.343,3.859702597505071,81.81579761965189
3644.1812,3.856806490931157,86.49972986646429
3645.0195,3.8482747584992776,90.62855576023135
3645.86,3.8345983370467045,90.37005529424897
3646.699,3.8189678700352556,144.03719955211022
3647.5398,3.805065693549237,110.31903511767105
3648.379,3.795402056631109,101.96873632375794
3649.2202,3.7906687725836687,96.32420454087898
3650.0596,3.7906572942284993,92.25961069848945
3650.8994,3.7947105221329345,94.0250261213385
3651.7412,3.801370588702222,108.57691151707628
3652.5813,3.8076692597031325,99.70994934395327
3653.4236,3.809784062381098,80.00490431232411
3654.2642,3.80487624868985,80.1085752995691
3655.1067,3.7928166230604776,84.30870719618947
3655.9475,3.7762264595334063,96.48906379118321
3656.7886,3.7587684631393357,94.80187113377582
3657.6318,3.743675996074355,109.50671160861616
3658.4734,3.7331605496558056,121.33296800689388
3659.317,3.727976161137851,107.942149057999
3660.1587,3.7276365592475513,100.30263739780386
3661.003,3.730852903597233,84.21957429694685
3661.845,3.736282542421639,115.91818318077073
3662.6875,3.742771214185123,132.98801218716233
3663.532,3.749128650138926,125.40661105532756
3664.3748,3.75437997632234,103.39578474774744
3665.2197,3.7585794064290297,113.25209041173417
3666.063,3.7627205345315136,94.32044664420768
3666.9084,3.7676565411935705,104.97739048174586
3667.752,3.7727414105499317,124.60708688872292
3668.5977,3.7759531626133596,113.08984398476902
3669.4417,3.7754162249930796,111.01728062334327
3670.286,3.771283137146116,108.73794572943139
3671.132,3.7657997965339565,95.02926140557247
3671.9768,3.76130074673926,103.30104742854299
3672.8235,3.7578992033629874,136.94620397312502
3673.6685,3.7537173531199355,113.57648858566242
3674.5156,3.747294375394808,107.5762655460434
3675.3608,3.7395822060446093,104.35481393864487
3676.2063,3.7329108120374546,125.44259282151972
3677.0542,3.7283950812125055,123.18697740130547
3677.9,3.72463487053382,104.91857196408888
3678.748,3.719048188165998,98.16178343082072
3679.5945,3.7106087975386646,120.3484200746705
3680.4429,3.7009792190307653,110.99319718699239
3681.2896,3.693416968032058,109.31745829719333
3682.1365,3.6900243509234056,107.90434122729732
3682.9856,3.689931613702632,81.24826324271838
3683.8328,3.689512043464703,100.61435335021127
3684.6824,3.6846928062134805,95.38413835192021
3685.53,3.673847281272827,99.96387496292976
3686.38,3.6591028506388765,116.39834048874437
3687.2278,3.645424904146047,125.10162296644253
3688.0762,3.63727158992108,113.02114834196132
3688.9265,3.635706098734613,106.53668037517717
3689.7751,3.6376620408350706,120.29771519417464
3690.626,3.638228123748178,115.8832027138156
3691.475,3.6340802132663437,149.9199575136253
3692.3264,3.625468620169676,109.89706731545762
3693.1758,3.6158785096307664,103.88481084149575
3694.0254,3.6098595691532256,131.4187876220063
3694.8772,3.610734386427362,100.60105573912546
3695.7273,3.6187948341610885,120.74570438194793
3696.5793,3.6310152447301998,92.86381453995459
3697.43,3.6423843244333756,98.55537011975704
3698.2825,3.648441606370196,101.91242971628726
3699.1333,3.6470527723140482,91.34587579970095
3699.9841,3.6390899873693985,91.81739981371145
3700.8374,3.627492241356886,123.47668202848038
3701.6887,3.61559352523366,99.22865979031488
3702.5425,3.6050493376138606,106.62922744746143
3703.3943,3.5955527873843436,118.85079506008779
3704.2483,3.5858991092412147,118.52058985105917
3705.1003,3.575952034928525,107.73908508899932
3705.9526,3.5669595573761756,131.96264405793042
3706.8074,3.560517617867547,110.7449373581309
3707.66,3.5571955035967684,94.57504923686027
3708.515,3.5562035571756234,142.24010963335766
3709.3682,3.556561614889338,101.07590957855778
3710.2234,3.5581532000768914,108.07312613081145
3711.0771,3.56147799066305,118.7812340617658
3711.9307,3.566313096493498,113.41954878944497
3712.7866,3.5709514375419324,117.2805265297947
3713.6409,3.5731790821735396,97.91866649413984
3714.4973,3.572361825405326,107.54646716949954
3715.3518,3.5702654934020783,107.1400081897304
3716.2085,3.5696590978294704,116.13195954563955
3717.0635,3.5719076436153823,134.37534950684375
3717.9185,3.575678553511842,86.46038114695239
3718.776,3.577766706731713,112.52382837512572
3719.6313,3.5751573320735313,122.41608519381275
3720.489,3.5668878513226274,93.43640476161973
3721.345,3.5545481396164607,117.17793872666901
3722.2031,3.541099052460799,122.70038045590053
3723.0593,3.529511974673984,147.811907282755
3723.9158,3.5216180769748604,96.28184020257993
3724.7747,3.5180908093616443,140.94580430229385
3725.6316,3.5184899203906785,142.18609693544704
3726.4905,3.5213778187950977,111.99521746607289
3727.348,3.524964583955662,124.11123087009719
3728.2073,3.527967808617688,139.50470269092025
3729.065,3.529802775240677,101.82007649589954
3729.9229,3.530218685251371,152.9988544619881
3730.783,3.5289430908560484,111.46737386098894
3731.6414,3.5256693210709527,116.27325783836444
3732.5017,3.519790723505601,121.1212220525277
3733.3604,3.5101238446525476,121.79125367511834
3734.2214,3.495326112864941,130.28288154476803
3735.0803,3.475892820631409,103.30718050144203
3735.9417,3.4553818877480293,111.21967784779356
3736.8013,3.4397759228301408,119.36175915261394
3737.661,3.433358225336619,117.42966803047666
3738.5227,3.435452266657677,119.56143066875939
3739.3828,3.440844779025843,94.3029860985119
3740.245,3.4442390853768865,127.61376364819772
3741.1055,3.44437206729201,128.68874202149792
3741.9683,3.444077274528585,128.33476428556392
3742.829,3.446573732482116,138.7055074732316
3743.69,3.451975012995949,131.25608522024183
3744.5532,3.4571796131283357,104.11132006898733
3745.4148,3.4586464888714876,114.81993350518896
3746.2786,3.455325812152163,120.38459463809211
3747.1404,3.449040785242123,154.40538271245327
3748.0044,3.4424983548764825,111.90280136658603
3748.8667,3.4372120965887722,90.80994738302049
3749.729,3.4328973056262932,106.55259918684825
3750.5938,3.4288217172761084,122.19230689596736
3751.4565,3.4255071204004857,115.10845871971817
3752.3215,3.4249768376906,118.38579418854964
3753.1848,3.429214237903845,134.1162639350822
3754.0503,3.438005300053411,131.25188849899033
3754.9138,3.4482539004520314,104.29090540440231
3755.7776,3.45583014831057,135.50656938086465
3756.6438,3.458022582143332,127.93210698192252
3757.508,3.4547557881337543,115.47805709829663
3758.3745,3.447886850435853,112.71014147216916
3759.239,3.439697221389879,122.98783526017134
3760.106,3.431660779431523,136.7282999886143
3760.971,3.4243115013461547,137.7023981479368
3761.8362,3.4174245089477515,119.5365345413745
3762.7036,3.4105441580255573,117.24895063211987
3763.5693,3.403266582851112,136.61436949882906
3764.437,3.395169660346699,122.19983808824489
3765.3032,3.386020615146192,121.33477332200165
3766.1714,3.3758279602105477,155.08969607949282
3767.0378,3.3650954274093383,150.4585724366198
3767.9043,3.354599218484286,119.02877265535398
3768.7732,3.3452154675887695,115.49223473543236
3769.6401,3.337667965822301,143.76662177850514
3770.5095,3.3320439518319755,164.1082997953661
3771.377,3.3278303697840816,110.70542102398971
3772.2466,3.323999346080658,137.56033159121216
3773.1145,3.319587141877364,152.13878625440466
3773.9824,3.3143234801562453,120.47965427280342
3774.8528,3.30923735410828,149.91259721499569
3775.721,3.3065248724317486,134.14157798343368
3776.5918,3.308267502462785,133.60663735496618
3777.4604,3.3151336429707343,139.00336214186447
3778.3315,3.326164859830084,135.63399439226384
3779.201,3.339413728674406,143.16377672277878
3780.0703,3.3527877545720965,140.77125037203646
3780.942,3.3641208563941376,130.31628741443066
3781.8118,3.3712560550681516,121.18436958016
3782.6838,3.3728447872248437,114.76051412226812
3783.554,3.368846502180268,123.46580038100599
3784.4265,3.3605521848168056,125.1735832837793
3785.297,3.3501726271476566,121.11457808220288
3786.168,3.3401393116035316,115.5379785091938
3787.041,3.332435475655171,141.07847366585744
3787.912,3.327638196956,113.04071510837971
3788.7856,3.3242204686372157,124.3213236515385
3789.6572,3.3195317289410613,145.96727936316546
3790.531,3.3117493294682765,113.40379877306499
3791.403,3.3012633571240904,160.09130624664482
3792.2754,3.289646826135578,140.11732224242863
3793.15,3.2776214011435836,128.10782576911242
3794.0225,3.2643038115924856,148.84089999214328
3794.8972,3.2481858287197216,142.1168062655581
3795.7703,3.2291344521933834,142.50130469784477
3796.6455,3.208697805142727,143.52476852020487
3797.519,3.189793348648965,133.11402487223066
3798.3926,3.1753909500839947,149.7570323113611
3799.2686,3.1678396074788933,142.34225958256374
3800.1426,3.1683748184832132,179.02399688039898
3801.0188,3.176961832296912,141.11567332764574
3801.8933,3.1925934838286976,149.2747537543494
3802.77,3.2136060935038855,136.1534363068053
3803.6448,3.2373315490047663,126.36372780019157
3804.522,3.2606352488156887,124.52793718355473
3805.3972,3.2802824532579384,124.92509433795139
3806.2727,3.2944645906599597,148.52402299496268
3807.1504,3.3032721898651873,107.10594056742103
3808.0261,3.3085320913946914,131.76720256411986
3808.9043,3.3129629472278164,135.55558625867246
3809.7805,3.318755318856203,118.53038956526137
3810.659,3.326776082565957,128.81279062107686
3811.5356,3.3363341256628574,142.24882676432654
3812.4126,3.345841011283507,118.0926529568208
3813.2917,3.353547699598168,149.8900662971146
3814.169,3.3581697035136777,133.1357151978177
3815.0483,3.359290765828923,132.4455438636183
3815.926,3.357114958314078,121.72218427836275
3816.806,3.3520714689152844,134.42548102232902
3817.684,3.3445011093113006,163.21641507572343
3818.5623,3.334544377208976,108.6910775600111
3819.4429,3.322374233129783,151.17641600419566
3820.3215,3.308603862915938,123.53052951746977
3821.2024,3.294094535633024,126.62629734686726
3822.0815,3.2799060814681966,129.23479465851125
3822.963,3.2666679085911547,143.16894441080026
3823.8423,3.254583605684637,138.59360014260992
3824.722,3.2430462807421065,155.18360337895493
3825.604,3.230548865181373,133.99870392883355
3826.4841,3.214745556465018,157.03740039985263
3827.3665,3.192761948670893,126.44082729227715
3828.2468,3.16277494747761,128.05587826000522
3829.1296,3.1248768327051475,157.54859374554587
3830.0105,3.0819029124574904,152.04708715614598
3830.8916,3.037533811962636,177.2431071163895
3831.7751,2.9947838740590926,158.27184937456227
3832.6565,2.9555687435538305,143.14501850135736
3833.5403,2.9205784532890164,182.38928314014615
3834.4224,2.891202643679267,203.2088892157352
3835.3064,2.869399835657048,159.0832732033605
3836.1887,2.8577016516660683,142.55392530803388
3837.0713,2.8576062999040897,180.39643714799706
3837.956,2.8686343478014766,173.11489340691156
3838.839,2.888160203998039,154.6542708884735
3839.7244,2.9131353455307307,177.63223684267487
3840.6077,2.9415440435022826,182.9310008549861
3841.4932,2.9732508390518926,190.62708440581832
3842.377,3.0083203599936326,174.75851455720286
3843.261,3.0461515795291234,148.17978583017234
3844.1472,3.085002731674913,121.10438943996246
3845.0315,3.122360856272816,144.4019117659517
3845.9182,3.1563416871934438,135.2951821843489
3846.803,3.185524724842551,149.8759097904379
3847.69,3.2102260536995835,131.28449986061585
3848.5752,3.2324631217896385,120.22656674771864
3849.4604,3.2558021548855076,145.66827292200543
3850.3481,3.2832005310069863,121.27200837813244
3851.234,3.3145393717545866,130.63645483795386
3852.122,3.3466194525878645,113.54978672323543
3853.0083,3.3743979217141353,122.26961893146714
3853.8967,3.394405268659405,112.25655744627612
3854.7832,3.4061042279038665,118.84588926929553
3855.6702,3.411992977418065,123.23072457224278
3856.559,3.4155011173725884,116.25849454357503
3857.4463,3.419078546876765,113.36815690742559
3858.336,3.423580225807172,123.7548264690802
3859.2234,3.428816900500689,119.03676788055482
3860.1135,3.434485789208707,117.50896312321794
3861.0015,3.44021463480099,111.94664400073992
3861.8896,3.445252408842289,112.79928770575629
3862.7803,3.4481705041959834,118.86493107264195
3863.6687,3.4472626367326424,126.39792379965095
3864.5598,3.4413570723371354,115.60844570426667
3865.4487,3.4303089486289644,119.20294733310321
3866.34,3.414620906146419,152.11111470120034
3867.2297,3.395041486512027,103.33932966011626
3868.1213,3.3719958537291292,127.84491228485678
3869.0112,3.346158994671582,111.884708628523
3869.9014,3.318452493063818,133.3665020695002
3870.7937,3.2900375642917017,117.8859323135834
3871.684,3.262066814325498,138.68518068237776
3872.577,3.2349198182110124,135.00102524139712
3873.4678,3.20874988218344,140.37348538770658
3874.361,3.1829834690507695,137.2852499571928
3875.2524,3.156715506761509,130.23416098046968
3876.1438,3.128199375590231,180.20354704344214
3877.0376,3.095306993728706,147.79758876021847
3877.9297,3.0565489720216283,146.2019547173968
3878.8237,3.011316204351057,166.46845735039759
3879.716,2.9609068112694366,120.82408118951798
3880.6108,2.9074514400693734,154.87990141853885
3881.5037,2.8538781676326943,173.4986543812973
3882.3965,2.8018987798862507,183.88371289808003
3883.2917,2.7516280638584334,253.1528559371162
3884.185,2.7020013078949,193.66046786785012
3885.0808,2.650589914680319,203.22035583002815
3885.9746,2.595684905607991,246.8755856506607
3886.8706,2.5364624492608954,239.79485571693974
3887.765,2.4750505242249004,252.92813805423998
3888.6592,2.416256517239107,221.9455796321392
3889.556,2.367523500155764,295.0763157822159
3890.4507,2.337328497303087,293.84473723982853
3891.348,2.3312862749104806,286.8505659292855
3892.243,2.350261977675855,275.22880599167075
3893.1406,2.3904014349094806,297.57950029736134
3894.0361,2.445085790136043,270.74042130305327
3894.932,2.5081103790097914,290.4846033245911
3895.83,2.574681961329638,206.01996627595682
3896.7263,2.64093027390799,222.5619523101426
3897.625,2.704864017624902,201.83550765067426
3898.5215,2.7650032246514424,169.55675443656273
3899.4207,2.8215282621209106,169.38000190420206
3900.3176,2.87457625721606,236.27128391745035
3901.2148,2.924845242418834,165.63689409514058
3902.1145,2.9728357008375137,146.74574868713134
3903.0122,3.018541066918112,158.08352370250128
3903.912,3.0621600904236197,156.49299583512672
3904.8103,3.103030728547978,157.29900571050578
3905.7107,3.1405082501357717,145.52935424438388
3906.6094,3.1740224026512607,122.9041297932788
3907.508,3.204532880035355,120.28111819874968
3908.409,3.234315536053048,145.25335472434566
3909.308,3.2656645005955407,133.67118310320876
3910.2097,3.2998872555665564,137.3916242449926
3911.1091,3.3359125531896825,118.02690929504381
3912.011,3.3713604990957298,134.83425918264385
3912.9111,3.4031251589764206,121.83911203700565
3913.8113,3.4293879623783123,119.56340093875677
3914.7136,3.450136957895148,126.04742981938415
3915.6143,3.46676846700818,116.40371843930762
3916.517,3.4813140846561383,110.11555202809079
3917.4182,3.4950813069255426,112.97046658321302
3918.3215,3.5085244365823045,123.54835534539788
3919.223,3.5212698215698377,122.6935344442363
3920.1245,3.5328806680367113,119.20753108481222
3921.0286,3.543211643132109,114.28614535146762
3921.9307,3.5525008968292,117.98051375912765
3922.835,3.5613329050590905,111.58864432909914
3923.7373,3.570086191739934,126.49249576119745
3924.642,3.5788768466824266,102.554550330267
3925.5452,3.587398520824776,120.18511923208023
3926.448,3.5951665073404464,99.07920194580808
3927.3535,3.6016544013237315,100.23292914326167
3928.257,3.6065268847934315,115.9279271245347
3929.1628,3.609825678338504,102.42653186683144
3930.0667,3.611313156736471,120.6995090891681
3930.9731,3.6097075287965956,100.89746108847821
3931.8774,3.6027819457380077,109.45006296064415
3932.782,3.588992009110653,100.16031516395688
3933.6887,3.5694262331072837,101.09529950078951
3934.5938,3.5482519596060067,120.69296403495056
