wavl,flux,ivar
3566.9744,2.689364016656628,44.426963687062795
3567.795,2.6942293781993265,47.64601880448221
3568.6177,2.6931761849924927,60.194836716791144
3569.4385,2.6873233512940087,45.26504041514217
3570.2617,2.6790521691954994,70.21763899277754
3571.083,2.668821838521687,45.39212031467776
3571.9065,2.6541185428265717,47.877719628712896
3572.7283,2.632839517114932,50.85086217125765
3573.55,2.607292495138744,37.76382188776625
3574.374,2.5849114782514695,62.488539575205756
3575.1963,2.5741794384652392,69.94710763560013
3576.0208,2.5786387725025364,58.571524780030686
3576.8435,2.5950628638682187,66.22898002116193
3577.6682,2.6165432037437077,65.80522899284354
3578.4915,2.6368580086089994,36.40505001981493
3579.3145,2.65294126035895,60.187746228101275
3580.14,2.664251992493431,31.359990006682914
3580.9636,2.671550383548944,55.506780710960435
3581.7893,2.6764183117862927,64.07772252357731
3582.6133,2.6804229092308054,45.20875610036802
3583.4395,2.6844356354355194,36.03787622616133
3584.264,2.688317267729649,41.13892612670835
3585.0884,2.6914068518299263,49.15980717013103
3585.915,2.692893271810576,62.83133319469448
3586.74,2.69190913599315,45.92303049738106
3587.5671,2.6876939912007307,130.15153301980746
3588.3923,2.679985697083362,69.49541045901736
3589.22,2.669202394423201,80.97704936495197
3590.0457,2.656604263493402,61.767250327660264
3590.8716,2.643877095093666,49.85435203183322
3591.6995,2.6326783508805485,48.170457360816165
3592.526,2.6239487536675696,39.82471697502238
3593.3542,2.6174048801984013,47.81879573460065
3594.181,2.6121263889373636,51.259931863343056
3595.0098,2.6071448476395065,49.23479819423703
3595.8367,2.601804177787743,64.1829769420563
3596.6638,2.5955896326251664,34.503956948741845
3597.4934,2.5883548734076682,51.70511180551117
3598.3208,2.5807939354855827,52.64498032292858
3599.1506,2.574078587183952,71.13364928836626
3599.9788,2.568854288795346,51.99900259035702
3600.8088,2.564119975048755,64.72438441142903
3601.6372,2.557972027285127,49.962891746472515
3602.4678,2.549588994608537,54.28441222832847
3603.2964,2.5408770905563376,45.219356416905
3604.1252,2.5356404465722404,38.67999057011286
3604.9565,2.5373070249346728,56.21503782994585
3605.786,2.546692094428886,54.63716930131772
3606.6172,2.5615324670100557,53.19914543143309
3607.447,2.5778462699071865,83.40802526582101
3608.2788,2.592790324867547,55.209567983819746
3609.109,2.606212324007361,97.1779138203529
3609.9392,2.6201306422370285,50.880157353466835
3610.7717,2.6359982814795124,89.92687775961534
3611.6023,2.6526050764870317,50.27277182135697
3612.435,2.666699371009627,75.78174706639058
3613.266,2.6746554289514775,57.070003905973714
3614.0994,2.6744854697997673,75.45316701310878
3614.9307,2.666346149843256,55.5565567047978
3615.7625,2.6523089701928466,59.413355930580884
3616.5962,2.635812211774662,52.74772500962825
3617.4282,2.621071274595227,72.85606255033662
3618.2625,2.611567923920616,55.481510629799274
3619.0947,2.608870065786542,44.09713984206628
3619.9292,2.6119321324470732,62.446401543343704
3620.762,2.6178389178207517,67.26883471342099
3621.595,2.622883540308723,62.86829612544353
3622.4302,2.6234441697962705,70.68521578464596
3623.2634,2.617243700373986,49.54902929485622
3624.0989,2.605017636311052,45.407675154439026
3624.9326,2.5910676318799224,71.97379029563614
3625.7686,2.580484165893921,72.68791030453627
3626.6028,2.5750468771897292,58.97668128403276
3627.437,2.5712108882726663,28.83442955841276
3628.2734,2.5632236896736673,43.22252265576273
3629.1082,2.548346428844487,50.311381295356796
3629.945,2.5290159459213157,53.86769818551717
3630.78,2.510774628690328,49.84111033934568
3631.6174,2.497775673393974,76.42017553758602
3632.453,2.4908195839940075,58.6264575448244
3633.2883,2.487766130109982,92.43380704267692
3634.1262,2.4858743579350406,47.351084741624696
3634.9622,2.4836717576412126,63.28326092123053
3635.8005,2.4814322475150123,47.37152757215788
3636.637,2.480082552149591,61.11259769086348
3637.4756,2.4792585017185034,57.88808137175224
3638.3123,2.4766551493112297,50.99667997772648
3639.1492,2.469822158865015,53.58780854177888
3639.9885,2.4590427608735292,62.649445090509666
3640.826,2.448344866803304,71.88849731471964
3641.6653,2.442778506552032,97.90658755256214
3642.5032,2.4448555024500256,44.3686795838891
3643.343,2.453196760127664,61.93031490596131
3644.1812,2.464563759156572,44.6075487348764
3645.0195,2.476782689384577,73.36434760292364
3645.86,2.489557403556458,87.81218168524804
3646.699,2.503220709976482,40.06516692791213
3647.5398,2.5175619583304933,59.66923426914488
3648.379,2.5310454563916194,44.852109429480855
3649.2202,2.5412031078961084,95.02678413082401
3650.0596,2.5450137621838174,58.48044932699888
3650.8994,2.540054509227373,71.26933449840467
3651.7412,2.52535720024603,51.106056150250296
3652.5813,2.502291209487756,64.5007137296044
3653.4236,2.4745205587873302,49.107265344988235
3654.2642,2.4479180781001344,75.41220012549554
3655.1067,2.428605187781162,68.32890067552307
3655.9475,2.421143323458357,71.82056293806428
3656.7886,2.4263353932355796,47.174316840309025
3657.6318,2.440944608765199,85.90457960772669
3658.4734,2.4588473078132664,41.151161853152914
3659.317,2.4742636738022576,117.15003350934074
3660.1587,2.4846199974602956,84.69456305615104
3661.003,2.4917555072694206,48.80925375972984
3661.845,2.499355849355845,119.11280369445313
3662.6875,2.509091958745507,54.268259742285544
3663.532,2.51851768366704,81.42624467909383
3664.3748,2.5230971757432026,43.20071344508177
3665.2197,2.5205809141453868,90.65180414057632
3666.063,2.513143090988427,81.09208041680476
3666.9084,2.5055613354884647,64.17555535478247
3667.752,2.501713171004661,58.26735556454303
3668.5977,2.502449260596192,59.82920126883306
3669.4417,2.5062144141824443,93.70503484031505
3670.286,2.5106968483954746,53.47665038674648
3671.132,2.514039302095454,63.14550847759786
3671.9768,2.5151939943399273,74.53370337643389
3672.8235,2.5138198305421264,64.11922274188947
3673.6685,2.5099868775292418,45.204993818808596
3674.5156,2.5041846447767435,43.4834074627287
3675.3608,2.4977667612063517,44.955744569672135
3676.2063,2.492742163221535,102.70708723024494
3677.0542,2.490668770182235,76.50542999829382
3677.9,2.491496831191536,56.71683129412563
3678.748,2.4939014938312147,65.14462844675066
3679.5945,2.49670547164382,71.45306446508488
3680.4429,2.4993763260900077,54.32748837676938
3681.2896,2.5008560307885075,53.33604938355825
3682.1365,2.4987842465435746,52.167929708700086
3682.9856,2.4907570325530424,41.26812565740866
3683.8328,2.4767095780591304,46.23849102402569
3684.6824,2.458958191782869,61.69118980203155
3685.53,2.4398534220884813,57.63540297250271
3686.38,2.4191429968558125,58.3524665046519
3687.2278,2.395513278959755,55.564567435682484
3688.0762,2.3695672177779827,193.36443548387587
3688.9265,2.345300568869162,94.93596093774528
3689.7751,2.3279359428409476,174.73237752751857
3690.626,2.320626806356026,57.60865040662168
3691.475,2.3241979701872584,60.33538883542521
3692.3264,2.3381856210300995,78.40399479269811
3693.1758,2.360999441832289,110.49504865907811
3694.0254,2.389232790905786,63.0547168541102
3694.8772,2.4178092375759945,80.74973858412822
3695.7273,2.441920955200342,71.27461351561115
3696.5793,2.45973892877661,78.66081718686554
3697.43,2.4721612197264733,68.89707391171633
3698.2825,2.481118535259429,74.263780364518
3699.1333,2.487230755722576,48.108093683720064
3699.9841,2.4897245522034224,47.63952180494731
3700.8374,2.487970411496143,64.07968029987025
3701.6887,2.4829420728315754,83.6949608182747
3702.5425,2.476723126593524,63.59425745711813
3703.3943,2.471156858928787,110.73697654384301
3704.2483,2.4673000386819983,56.930247308148836
3705.1003,2.466058677391616,75.07854934712422
3705.9526,2.4678148605964805,61.44393826551753
3706.8074,2.471018009244998,60.04120179468224
3707.66,2.471702724441861,60.71303992456016
3708.515,2.465748271725613,48.72925262485704
3709.3682,2.4520706873134537,79.6968628688296
3710.2234,2.433394379043858,103.58714129700205
3711.0771,2.414167317699897,69.4597380846058
3711.9307,2.3973018494690663,68.26089445559042
3712.7866,2.3833743521129542,51.11162420542413
3713.6409,2.372370315442689,78.53810982459557
3714.4973,2.3653542254983124,59.636291043405905
3715.3518,2.364469111967325,64.72115511832017
3716.2085,2.370595785644771,106.11532575655545
3717.0635,2.3817090284675766,50.75936509024353
3717.9185,2.394056491072315,60.03229093466789
3718.776,2.405032981278221,62.936038597429885
3719.6313,2.414450765577679,93.4644565147697
3720.489,2.4230791039760775,89.23995597124566
3721.345,2.429977936505266,96.00195377449893
3722.2031,2.4326424247759815,75.5661881697783
3723.0593,2.4296207360230295,66.36436179376113
3723.9158,2.422833467838466,57.886829373473404
3724.7747,2.416485270792924,90.46328775162327
3725.6316,2.4135926717135843,68.22007904478745
3726.4905,2.413226263240825,76.50382873592704
3727.348,2.4113014157211654,78.10906921427757
3728.2073,2.4039487774634907,92.46882930106024
3729.065,2.390874719645654,69.54627542817217
3729.9229,2.375943069263181,53.653807321698665
3730.783,2.364893090063977,55.97513901200054
3731.6414,2.361762037377419,88.40489815158328
3732.5017,2.3661947081403194,50.786707526450435
3733.3604,2.373818811697747,48.69444240512948
3734.2214,2.3793276534246885,61.736162484692336
3735.0803,2.3799678855159017,95.52154783557476
3735.9417,2.376915847266945,55.14918461774168
3736.8013,2.3733668922545887,91.6590790242017
3737.661,2.371501774009181,65.98891162036318
3738.5227,2.3711300657265477,59.41666060388266
3739.3828,2.370479816251248,58.87991698787062
3740.245,2.3676234837500063,40.32531402556094
3741.1055,2.3612692322225413,102.97633408480588
3741.9683,2.3507719731463768,59.950805027194455
3742.829,2.336229398269672,114.8472015844493
3743.69,2.318428588455673,103.33772859534845
3744.5532,2.2990368932538194,70.3311700123431
3745.4148,2.2806948226456814,118.38916943348138
3746.2786,2.26610640801166,78.21243302291863
3747.1404,2.257427391089803,83.75930734218908
3748.0044,2.2552683214698397,75.68606719331075
3748.8667,2.2586997755901845,64.62564052047153
3749.729,2.265660776528939,143.51501551722797
3750.5938,2.2738377201997655,71.84377369589996
3751.4565,2.2812514041222687,78.60523575072665
3752.3215,2.286747780286296,74.44502504616747
3753.1848,2.2900484472166904,66.18177719297559
3754.0503,2.2919909256371866,76.30103121989205
3754.9138,2.2942236197589563,65.91988162750494
3755.7776,2.298247216906066,66.16589704224967
3756.6438,2.3041708812043087,63.74020053254729
3757.508,2.3105114891193304,46.4882642728194
3758.3745,2.3157931349141254,47.134208039108685
3759.239,2.3200056379870255,57.739823654942
3760.106,2.3243487138749317,75.24006482426087
3760.971,2.329254608225543,64.71047763577491
3761.8362,2.333563171173386,84.33062940651845
3762.7036,2.335833621582842,75.6768649835125
3763.5693,2.3363142427909334,61.09285577105888
3764.437,2.3370890587537745,78.99824635210067
3765.3032,2.339925269127153,55.15637129482907
3766.1714,2.3440711448630864,57.22574171014867
3767.0378,2.346174907160553,53.80927346798899
3767.9043,2.3425353684468773,86.52207481467909
3768.7732,2.331444114498563,78.69508011504618
3769.6401,2.3142533843532944,37.482009101342236
3770.5095,2.294531793867617,110.92458522175988
3771.377,2.276978245179432,105.14320395543663
3772.2466,2.265431845790598,102.16440869959801
3773.1145,2.261712770190771,62.882822780593514
3773.9824,2.2648960808233447,85.32889311708537
3774.8528,2.27220252124953,80.92808837638512
3775.721,2.280126605872932,113.02583636667336
3776.5918,2.285470757914878,54.688238934085334
3777.4604,2.285868895537124,104.21987167484006
3778.3315,2.2808503396700606,53.18764179259912
3779.201,2.2727234694891685,68.59263338940026
3780.0703,2.2661842571769903,59.714555569460636
3780.942,2.266299875811471,68.48058987724751
3781.8118,2.2757409776547703,100.96355686863596
3782.6838,2.2931787167669215,57.452538488208944
3783.554,2.313757021668238,82.24700222330407
3784.4265,2.3318328194844176,82.71407235076188
3785.297,2.343138286532444,51.1894321882714
3786.168,2.3461508456137645,70.92694154962952
3787.041,2.3412872571309182,55.92502957163053
3787.912,2.3298537967853106,75.91075588997053
3788.7856,2.3133462055664586,74.09746424494166
3789.6572,2.29392951111373,69.12092606293896
3790.531,2.2744145938756013,70.46935114105126
3791.403,2.257926048784824,81.85509200894438
3792.2754,2.246058669347727,83.44417827466773
3793.15,2.2378613060892745,116.69460849980668
3794.0225,2.2303138429640277,61.32352835087466
3794.8972,2.2204430514417264,59.84346924772257
3795.7703,2.2080370752003287,99.57316162929396
3796.6455,2.1960888272801182,70.23140195425299
3797.519,2.1888025253896988,83.08104240092261
3798.3926,2.188209114607576,95.41757138301709
3799.2686,2.193014064327487,98.94277860578893
3800.1426,2.2000162717698193,75.1519990799058
3801.0188,2.2065697122834385,99.47552186951559
3801.8933,2.2115312395501183,65.38711925896716
3802.77,2.2149668667816194,80.20332456688647
3803.6448,2.2174547870077728,45.404478228140945
3804.522,2.220034828810244,65.55048518794214
3805.3972,2.2241467603832614,72.68655767108773
3806.2727,2.231242553726854,59.01467439009761
3807.1504,2.2420387256109056,46.511514370858166
3808.0261,2.2559973445947548,89.76273289072338
3808.9043,2.2718561265243014,71.57921766253763
3809.7805,2.2881876467774482,77.3955187072963
3810.659,2.304476569715312,86.510300719101
3811.5356,2.321054818282775,68.24328445373295
3812.4126,2.338695573118954,103.73784943524835
3813.2917,2.357159726993178,68.341429398125
3814.169,2.374085398270621,71.78576038140764
3815.0483,2.3857537047077697,50.655835533567824
3815.926,2.3886028672021427,59.71702368824833
3816.806,2.3812373648915637,69.64863442786188
3817.684,2.365115889395691,69.7003244672578
3818.5623,2.3438444860242553,63.29352618185939
3819.4429,2.3215820873379878,55.63069885285668
3820.3215,2.3016720260431622,79.26160206773045
3821.2024,2.2855371886976075,84.66608521471628
3822.0815,2.2733798097793456,74.15859987908951
3822.963,2.2644555877680603,69.50396536856803
3823.8423,2.2573565791671353,79.16055219746154
3824.722,2.249785430490429,63.998987546052874
3825.604,2.2392254099475166,66.41296056644873
3826.4841,2.224149415396774,47.95154717248994
3827.3665,2.204375722812486,92.45329285216093
3828.2468,2.1808424557342483,95.34215846341763
3829.1296,2.154386818788601,72.13145003900914
3830.0105,2.1259088875412053,84.92725204130966
3830.8916,2.0961176396248486,105.05979816432925
3831.7751,2.065808811042777,73.48452518408796
3832.6565,2.036105483212351,51.03344159939212
3833.5403,2.008148824221506,107.49800168475187
3834.4224,1.9840106484701865,146.28412576533853
3835.3064,1.9660739499253737,98.1284557849703
3836.1887,1.9568391008431933,74.43469853432819
3837.0713,1.957845036206388,125.88401289057867
3837.956,1.9690558931864877,108.42934107552139
3838.839,1.9882419926192885,102.62454810621944
3839.7244,2.0119425958560564,85.66828955725413
3840.6077,2.0371059829009965,78.73689897704419
3841.4932,2.0630254072704637,97.26378044698404
3842.377,2.0903720146414475,104.01707280234696
3843.261,2.1196669969054502,71.92560015928323
3844.1472,2.1500165626461287,51.19426895809654
3845.0315,2.1796159520304674,66.49991543082663
3845.9182,2.2075207001611585,108.31544738768886
3846.803,2.233365964162723,95.94554666360068
3847.69,2.2574303170480396,67.91002004481854
3848.5752,2.2799935890264154,63.02054576244181
3849.4604,2.30189869247963,81.27975415419232
3850.3481,2.3240574101806404,56.37886820415085
3851.234,2.3464468606545337,75.75384446880128
3852.122,2.36829153190283,91.34206618202731
3853.0083,2.3882915139757754,69.43578021759978
3853.8967,2.4054546370585927,55.0871868048907
3854.7832,2.418282387269268,68.45175057885054
3855.6702,2.4247916618921797,57.42254839506825
3856.559,2.423323297402149,65.59633065268682
3857.4463,2.414318960401247,61.41072991405667
3858.336,2.4008601302747206,115.46776971004425
3859.2234,2.38738785837964,78.4494019056023
3860.1135,2.3768993238538045,83.1847413952588
3861.0015,2.369514662310088,98.35144643971918
3861.8896,2.3628729352421924,81.21033772609304
3862.7803,2.3546112242785036,62.263099536492156
3863.6687,2.3444851706714895,74.15559216148895
3864.5598,2.3341839151599566,84.68696417881408
3865.4487,2.3256136509843186,84.32075201913884
3866.34,2.318781803279266,90.49090401317726
3867.2297,2.311706837503243,64.54003242035729
3868.1213,2.301545333133697,53.544509687204396
3869.0112,2.2862656475336447,74.66784047641667
3869.9014,2.265351992646762,74.45183387441135
3870.7937,2.24005586586466,67.25164442694255
3871.684,2.2134837627032335,75.46535652856583
3872.577,2.1893051709203095,84.32416926463944
3873.4678,2.170345901921165,124.43621518946456
3874.361,2.1562469260788455,93.35271372966179
3875.2524,2.143787955156395,89.83016135398813
3876.1438,2.1289352936857657,90.5960284545654
3877.0376,2.1097325198831327,84.6289838353743
3877.9297,2.0872743907628672,82.15467561471571
3878.8237,2.0637322574122616,80.54010163802877
3879.716,2.0404930055411628,98.25867252543065
3880.6108,2.0170046267979216,125.6969324589964
3881.5037,1.9920138178089801,75.55180039962502
3882.3965,1.9643726463140876,93.60884893398848
3883.2917,1.9338380766505805,113.20441598292814
3884.185,1.9013726301596008,123.2443856014242
3885.0808,1.8681443126429402,218.7845304735669
3885.9746,1.8354849848388288,110.37831174759636
3886.8706,1.8040074992017074,93.47356577213347
3887.765,1.7749137514109723,139.5144802928784
3888.6592,1.7507043473337027,101.02538730895513
3889.556,1.735588073136869,143.7836629674427
3890.4507,1.73375342834808,184.39522585043622
3891.348,1.7465241252410983,164.56102081992157
3892.243,1.7712814204234468,93.9806089720849
3893.1406,1.80318686091248,139.63407280715896
3894.0361,1.837205402299388,156.79181196022395
3894.932,1.870157897607795,124.83370101879318
3895.83,1.9007274784126649,60.105253869403626
3896.7263,1.929226979896719,97.9546917077938
3897.625,1.957798991007302,100.97329984986082
3898.5215,1.9884206886534832,89.70291788249065
3899.4207,2.0214982339018563,87.6465998973263
3900.3176,2.05455477691774,92.91880293060265
3901.2148,2.0845919459594606,70.6649749689292
3902.1145,2.1103790432602905,83.32407770161335
3903.0122,2.1333145096059503,97.48487131417458
3903.912,2.1566100869303546,78.76510096317506
3904.8103,2.182805283609621,79.4894362567966
3905.7107,2.2131440215168925,76.18889897438801
3906.6094,2.2473322684096475,68.67851494829526
3907.508,2.284518603105916,66.21220424936145
3908.409,2.3231836660546716,71.72432567314588
3909.308,2.3606716369256526,85.61810079801742
3910.2097,2.3943768119729896,69.1431009835122
3911.1091,2.4224755263651327,48.13769888974378
3912.011,2.4455415041290594,65.00818666031361
3912.9111,2.465417669809061,54.66275730673823
3913.8113,2.4841095001062605,73.01850356988561
3914.7136,2.5025832770019547,60.37244123794665
3915.6143,2.5206115755440193,75.7205668411153
3916.517,2.53733749440285,73.05529824336054
3917.4182,2.5510810358663845,70.21905615295154
3918.3215,2.560011101112083,65.72009837471431
3919.223,2.5629756638900107,62.89853486294542
3920.1245,2.5606825165428164,70.72285640356046
3921.0286,2.5556559333199167,54.89983275151962
3921.9307,2.551471299303438,52.14251776960476
3922.835,2.5515508560018825,52.15713483068342
3923.7373,2.5581411687737434,67.32382555154331
3924.642,2.571343331120255,49.38316547604618
3925.5452,2.5883860893167197,61.98142309821662
3926.448,2.604294729358539,54.68844737004026
3927.3535,2.613660191138202,54.997879353708
3928.257,2.6129025472884098,65.45528252041134
3929.1628,2.6018541513844546,54.68327249343376
3930.0667,2.583476891734357,53.805201594868116
3930.9731,2.5622805087567144,66.16164387189042
3931.8774,2.5435878317130305,74.64897463161515
3932.782,2.533110022988369,62.65110215262606
3933.6887,2.5370606191610863,50.469359015564365
3934.5938,2.559740606517006,88.96081635583073
3935.501,2.5989453645918257,49.06073136299314
3936.4062,2.6421473449018786,81.78748258355614
3937.3142,2.6704692256836866,61.08287972466313
3938.22,2.668586745864266,69.86757275134968
