wavl,flux,ivar
3566.9744,0.509914538424636,1600.4368038072103
3567.795,0.5090221309871257,1529.219277148013
3568.6177,0.5090496606053937,1332.7398312564044
3569.4385,0.5092216063631616,1094.0030538413646
3570.2617,0.5086761911387354,1575.856041902398
3571.083,0.5070729566072761,1300.2949013829202
3571.9065,0.5046544538885942,1260.4788309301966
3572.7283,0.5019236606775982,1612.1614146416084
3573.55,0.49932362576719946,1193.7675898400132
3574.374,0.4972789153156695,1651.1352148889257
3575.1963,0.4962871201349353,1714.7987980497396
3576.0208,0.49668957185028795,1641.2718856684883
3576.8435,0.4983230323324584,1557.846292333284
3577.6682,0.5004564121537731,1472.203737265582
3578.4915,0.502208966268156,1183.3406556987247
3579.3145,0.5031600030740667,1357.2458876878857
3580.14,0.5035172147865246,1532.3953396702059
3580.9636,0.503782410405796,1617.5722934322055
3581.7893,0.5042691753608731,1369.214050999336
3582.6133,0.504848126289812,1744.9730409240992
3583.4395,0.5050638855689037,1497.0895853208951
3584.264,0.5044621286493366,1030.3046240676197
3585.0884,0.5029177483032883,1179.3640773787376
3585.915,0.5006991736110653,1336.558068184332
3586.74,0.4982708222617334,1745.1587625285947
3587.5671,0.4959716818529982,1696.0028251796252
3588.3923,0.4940176884209087,1238.9710423824447
3589.22,0.4926519802725818,1253.9005186653878
3590.0457,0.49226472366500923,1276.0262952538
3590.8716,0.4931084253779323,1967.4804638268013
3591.6995,0.49495675609213347,937.2864173151042
3592.526,0.49704080799350037,1067.6211764717368
3593.3542,0.4984600632450146,1600.0924686022881
3594.181,0.49862712232501616,1428.071795407226
3595.0098,0.49748077481355163,1460.0410364581096
3595.8367,0.4953732047799291,1344.032653611431
3596.6638,0.4928575432404424,1402.113561830084
3597.4934,0.49057239092387395,1090.360166456103
3598.3208,0.4891816887320424,2342.8094909263314
3599.1506,0.4891553973085145,1623.3219238730096
3599.9788,0.4905067168295382,2044.8162480868627
3600.8088,0.4926153186442721,1569.246346012336
3601.6372,0.4944269693315207,1559.7581832092292
3602.4678,0.49507038996495245,1123.909062378405
3603.2964,0.49438113908121994,1496.851414176273
3604.1252,0.4929502753101103,1496.6211151203133
3604.9565,0.4916027521838296,1590.5456370752172
3605.786,0.4908372356000913,1814.375645010904
3606.6172,0.4906429126498066,1683.6170224619864
3607.447,0.49076699993531725,1220.792024252665
3608.2788,0.4909616631028634,1324.9510763621706
3609.109,0.4909680251190854,1676.2322838594591
3609.9392,0.49041643283850817,1323.2328635209594
3610.7717,0.4889553459281118,1365.519304027513
3611.6023,0.4866019492824987,1666.4211779019631
3612.435,0.48385827046615876,1917.717441991235
3613.266,0.4815153416648958,1565.3364033106054
3614.0994,0.4802441355089056,1427.4370347967763
3614.9307,0.4804258557100728,1348.4041478505526
3615.7625,0.48204972255874656,2939.9151252685097
3616.5962,0.4846813110711099,1636.239693336785
3617.4282,0.48752885702215737,1396.1122418947589
3618.2625,0.4898290244976799,1294.498052271056
3619.0947,0.4911287998188627,1646.323822777055
3619.9292,0.49131864495956457,1692.5154139806257
3620.762,0.4903966568610076,1403.2581808455498
3621.595,0.48845731546417276,1189.6941474173937
3622.4302,0.4858704819773564,1642.8394720605775
3623.2634,0.4833124219860406,1370.1161098579882
3624.0989,0.48136273234565147,1426.2693311121177
3624.9326,0.48018165656825074,1362.1615540805183
3625.7686,0.4794865161673589,1291.568221960594
3626.6028,0.47888599737581594,1652.9916188614832
3627.437,0.47812575566499843,1648.8124569344225
3628.2734,0.47715890362971475,2055.6551274587187
3629.1082,0.47612837201448216,1358.551460335175
3629.945,0.47528174388164524,1607.59574505713
3630.78,0.4748063587296681,1410.7126898762658
3631.6174,0.4745742847506074,1846.3129612735338
3632.453,0.4741205393936848,2009.4540436106302
3633.2883,0.4729816566030887,1303.0825247716723
3634.1262,0.47115315188778295,1494.3214768076077
3634.9622,0.4691990945218359,1637.741358031637
3635.8005,0.4677633702001804,1334.8997794780316
3636.637,0.4670158596917864,1698.2606871316677
3637.4756,0.4664908188215391,1569.3641265019864
3638.3123,0.46556631543652,1771.805709023834
3639.1492,0.46403086731661475,2042.2320646648325
3639.9885,0.46220021081374846,2080.042925188334
3640.826,0.46053495768322994,1343.7448048452914
3641.6653,0.4591772831779522,1783.4437341060734
3642.5032,0.45795119452774935,1872.5281719995967
3643.343,0.4566252872183433,1327.8487200392008
3644.1812,0.45517842639282075,1570.2764325373548
3645.0195,0.45381336173262665,1571.691191270821
3645.86,0.45287114531192135,1593.7704235228916
3646.699,0.4526799220895493,1895.8230909234387
3647.5398,0.4533280572902504,1472.7939128344346
3648.379,0.45450215988970555,1488.172077498541
3649.2202,0.4555933953325108,1568.5187492697594
3650.0596,0.4560825809194522,1246.0788972479925
3650.8994,0.4559631954629521,1409.5216288715578
3651.7412,0.4557592524352918,1906.8232059928412
3652.5813,0.4561419926425641,1855.4710128565873
3653.4236,0.4574540943578106,1561.6515205928279
3654.2642,0.45949280774699397,1938.4003180292566
3655.1067,0.46166757533248015,1353.2234280198165
3655.9475,0.463285510966671,1816.2167580989196
3656.7886,0.46386729812970706,1518.9476087231103
3657.6318,0.4632391444407838,1467.7235309381838
3658.4734,0.4614874650554416,1781.011849112981
3659.317,0.4588376040790825,1637.408216055235
3660.1587,0.4556584526137559,1911.1299693058481
3661.003,0.4524478365438077,1649.9575442776068
3661.845,0.4498382234427756,2616.084405111595
3662.6875,0.44837567096891773,2182.0905656796513
3663.532,0.44840927138807996,1646.5216775307179
3664.3748,0.44999136933093775,1801.1074970704908
3665.2197,0.45280755318671484,1794.9190907355642
3666.063,0.4560941891473694,1630.1780601557246
3666.9084,0.45884194089304825,1255.1023229878597
3667.752,0.4602046373073345,1440.0909848905394
3668.5977,0.4600277901450817,1863.6757290615205
3669.4417,0.45890856189720436,1928.8068680074243
3670.286,0.4577634570341372,1951.7820341185477
3671.132,0.457175659015091,1610.7832866204008
3671.9768,0.45701443323109653,1651.683487337802
3672.8235,0.45658488590943375,1346.3256976118018
3673.6685,0.4552010820268508,1828.396109760973
3674.5156,0.4526923184238065,1925.4723560782963
3675.3608,0.44954087418001837,1742.467214675057
3676.2063,0.4465511995440245,2370.101696214897
3677.0542,0.4444574943676984,1943.0214335007265
3677.9,0.4436323737828068,1844.6977624247695
3678.748,0.443945200087911,1731.6491306003365
3679.5945,0.44490660735688903,1538.696618692805
3680.4429,0.445975230705901,1701.796472043719
3681.2896,0.44683767031401617,2172.610137037399
3682.1365,0.447489987689998,1598.0816234898753
3682.9856,0.44807944690801,1488.231738554375
3683.8328,0.44871008305478605,1262.224023821039
3684.6824,0.44935642786739965,1499.2342885922299
3685.53,0.4498620282046067,1350.5973261663719
3686.38,0.4500112611710756,1742.2466182883375
3687.2278,0.4495851062522816,1476.9636354768306
3688.0762,0.4484496289016895,1278.5407150759108
3688.9265,0.4466821460841502,1605.1568712556789
3689.7751,0.444676426669545,1132.7844416225514
3690.626,0.4429926144555979,2211.235680858979
3691.475,0.44206896611714136,2055.469386280038
3692.3264,0.44195508263877953,2213.4550011843367
3693.1758,0.44239566945753667,2170.3766956524933
3694.0254,0.4431060319817184,1719.8442609847016
3694.8772,0.4439877706721183,1792.1617981261993
3695.7273,0.44510932591556857,1640.062131386163
3696.5793,0.44655164770545314,2023.2883119152702
3697.43,0.4482035351032118,1743.4484703105131
3698.2825,0.4497057430370657,1803.46145440784
3699.1333,0.45053057099968247,1754.1214615415688
3699.9841,0.4502660567008733,1576.7966760409856
3700.8374,0.44885911769299175,1504.321870363261
3701.6887,0.4467014286603859,2121.138729997436
3702.5425,0.4443985978582154,1662.5279058164956
3703.3943,0.4424785567615876,2123.6460581663537
3704.2483,0.4411344839940794,1870.9032161745806
3705.1003,0.4402938509804413,1975.029808284824
3705.9526,0.43978537928912437,1599.2919568424945
3706.8074,0.43948551115428297,1718.336335979922
3707.66,0.43928109026672907,2339.741685019758
3708.515,0.4389846638602401,1455.2966239652544
3709.3682,0.43840098711677244,2297.7469479017823
3710.2234,0.4374960287198002,1780.726623523642
3711.0771,0.43648049737644484,1706.3335009092254
3711.9307,0.4356364153802242,1782.1656979680322
3712.7866,0.43505731602473885,1420.8332441532932
3713.6409,0.4345543528027592,2365.4006295475892
3714.4973,0.4338291581167897,1767.6087365458727
3715.3518,0.4327835494323943,2207.251057619692
3716.2085,0.43162565675752906,1587.0312189566139
3717.0635,0.43074081342295567,2202.9141551597254
3717.9185,0.43044463968398033,2250.758854003952
3718.776,0.4308861438165053,1769.6514590671977
3719.6313,0.43203583766626363,1174.1868392488773
3720.489,0.43369157074608744,1993.340646588115
3721.345,0.4354801339170219,1608.087818619267
3722.2031,0.4370443614901195,2529.046054505781
3723.0593,0.4382539222286789,2238.9516503267987
3723.9158,0.43929036410721795,2589.237097489615
3724.7747,0.4403761883398122,2139.396809286196
3725.6316,0.44142729347748944,1595.8885853086863
3726.4905,0.4420259961071653,1501.7627696941422
3727.348,0.44174056007162965,1369.691019745257
3728.2073,0.44052209183002344,1722.4741862100766
3729.065,0.4387771839869081,1757.2881474957742
3729.9229,0.43704803117503127,2061.7170137739663
3730.783,0.43564076657000733,2210.891732429942
3731.6414,0.4345063803174975,1718.2966132624908
3732.5017,0.4333998788287044,2120.3163318672923
3733.3604,0.43218818971603956,1628.2313618510436
3734.2214,0.4309821456835347,2446.741810298865
3735.0803,0.4300862312118603,2019.8537991860067
3735.9417,0.4297393060439374,2026.844197380122
3736.8013,0.42989500436042144,1919.4043755456148
3737.661,0.4301827765912947,2189.6936464098685
3738.5227,0.4301702267560323,1981.9863396542462
3739.3828,0.42969892302976054,1833.303248270031
3740.245,0.4289475152619766,1646.3182786180962
3741.1055,0.4281581877361542,2293.073967958781
3741.9683,0.4273552794350808,1534.9942348362792
3742.829,0.42644629623222186,1821.7013959581388
3743.69,0.42550435037989476,1827.1389844585933
3744.5532,0.4248473982517164,1817.9677907157607
3745.4148,0.42476236339738777,1983.8870072345796
3746.2786,0.4251837776097421,2207.429464230397
3747.1404,0.425709824177378,1916.7340700356076
3748.0044,0.4259558929540428,2078.9041350211023
3748.8667,0.4259287098491014,1686.5281949387402
3749.729,0.42609117021707577,2509.8751483635606
3750.5938,0.4269843325281826,2926.9207623902485
3751.4565,0.4286905100218516,1943.1551093606638
3752.3215,0.430691516693809,1657.3821585438534
3753.1848,0.4322594738576407,1948.96792693989
3754.0503,0.4330916851300178,1849.5279977917032
3754.9138,0.4334958511441613,1705.8517667051306
3755.7776,0.43406991281881235,1833.4380400575144
3756.6438,0.4351861479373364,2071.424469710496
3757.508,0.43673136929448914,1558.8030326217051
3758.3745,0.4382443265143401,1922.8714031706645
3759.239,0.43918503479907006,1465.556983383295
3760.106,0.4392129190522757,1700.966395906573
3760.971,0.43829293609386266,1845.7872933009446
3761.8362,0.43667148746113166,1861.69091751083
3762.7036,0.4347262036410987,1895.752301188743
3763.5693,0.4328203170000953,1900.8289785620107
3764.437,0.4311752490303406,1819.8340775455908
3765.3032,0.42988937026976975,2024.9194308530616
3766.1714,0.42894582987336566,1808.6637999426778
3767.0378,0.42825830367385365,1761.6763297237069
3767.9043,0.42763433126418965,1851.7679632690183
3768.7732,0.42674482557480636,2081.030556591344
3769.6401,0.4251978017555076,1806.4738188160827
3770.5095,0.42274614213132283,2088.2877039849404
3771.377,0.41956792290190986,1831.1178286642773
3772.2466,0.41624090664913627,2738.2658603961236
3773.1145,0.4135174364570205,2910.4951279470465
3773.9824,0.411885259008862,2739.9898177054793
3774.8528,0.41137769754763853,1788.1857428363824
3775.721,0.4116348899493346,1694.1530149042917
3776.5918,0.4121688374592921,1624.7985098722766
3777.4604,0.4126721704962926,2024.7391205725023
3778.3315,0.4132021426810148,2685.717086806669
3779.201,0.41408624327780824,2262.3107329819723
3780.0703,0.41561822272280713,1581.4532618989795
3780.942,0.41776540633015735,1802.820081586114
3781.8118,0.42013347962147507,2067.2205389377955
3782.6838,0.42226916914388957,2760.290146528306
3783.554,0.4239062868198519,1540.8274670888518
3784.4265,0.4250575131373901,2084.7856227682273
3785.297,0.4258043694350521,1849.7237406863512
3786.168,0.42610227496288416,1986.2379981590366
3787.041,0.42570242696133737,2145.4338573956693
3787.912,0.42431784668420164,2126.652054665002
3788.7856,0.42188707416575894,1948.7733468961967
3789.6572,0.4187717696189011,1845.4880028510672
3790.531,0.415586651577902,2129.990977723439
3791.403,0.41289818693486274,2223.897112242509
3792.2754,0.41090641739141354,2121.384434783216
3793.15,0.4095243309191754,2216.9552034368417
3794.0225,0.40863335332712747,2191.037296327684
3794.8972,0.4082053002546391,2088.4420719802793
3795.7703,0.408245020937689,2588.9842507391463
3796.6455,0.40866590361802346,1909.6716893335315
3797.519,0.40928853608791044,2204.7989555282015
3798.3926,0.40991673357092423,2398.648443489179
3799.2686,0.4103961579132849,1840.2253815364916
3800.1426,0.41067520939111335,2121.1357141647645
3801.0188,0.41088662336092224,1871.4730606551243
3801.8933,0.41131178436201893,2248.656877931966
3802.77,0.41218353959000364,1745.7276072839343
3803.6448,0.41344055112645556,2270.280196361153
3804.522,0.41471335124044056,1664.9652977087121
3805.3972,0.41553503050958973,2553.9535936978605
3806.2727,0.4156731566387316,1827.2864109098016
3807.1504,0.4152728196375693,1783.3462146922889
3808.0261,0.41477291968558716,1865.125562611926
3808.9043,0.4146137453477574,2129.366143037848
3809.7805,0.4149488636724354,2314.7848707911476
3810.659,0.41556581376442775,1666.6554742751691
3811.5356,0.4161121170340752,2427.9285525494647
3812.4126,0.4164638914198576,2082.888427516714
3813.2917,0.4168790481443766,1766.88750339043
3814.169,0.417768704567776,1948.1339156429403
3815.0483,0.4192891794629897,1942.307708986876
3815.926,0.4211214252313726,1527.6122358326238
3816.806,0.42269599782306794,2274.441632267501
3817.684,0.42354252411605686,1854.9992010415845
3818.5623,0.42351957287014874,1699.6927013700283
3819.4429,0.42275192496717673,1908.5428194626659
3820.3215,0.42153003569479375,1772.959284201061
3821.2024,0.42022257519789125,2037.478940471629
3822.0815,0.4191960419268474,1966.6200020841493
3822.963,0.41862358012649825,2206.564024870529
3823.8423,0.41836794049631704,1962.5311228183127
3824.722,0.41800816646141054,2519.679065052487
3825.604,0.41703744121844,1912.6419585893743
3826.4841,0.41510391793293927,1935.065829550558
3827.3665,0.4121421446839361,1953.1088765298232
3828.2468,0.40842478726690484,2521.203943150895
3829.1296,0.40438842628667937,2163.5750451339222
3830.0105,0.40050955426649976,2628.502517797584
3830.8916,0.39706584892556385,2228.5493601459575
3831.7751,0.39409940068417376,2029.0117551255894
3832.6565,0.3914967858151363,2342.7539525119487
3833.5403,0.3890905644294636,2214.1059981405238
3834.4224,0.3868590275976358,1979.4980506084537
3835.3064,0.3849205970613383,2544.810569366841
3836.1887,0.3834969799977434,3176.19619089663
3837.0713,0.3827726436111846,2685.9935546367196
3837.956,0.3828553015986632,2253.2924577281983
3838.839,0.38377662459745676,2236.4182048062157
3839.7244,0.38551847954504737,2123.4088243496103
3840.6077,0.3879939811644364,2226.367622164791
3841.4932,0.39107963790349587,2880.1743583711436
3842.377,0.3945995741036196,1959.1445471706409
3843.261,0.3983924194260286,1989.3926248105442
3844.1472,0.4022667208093482,2223.4100111000475
3845.0315,0.4059255086948442,2116.549534474622
3845.9182,0.4090384859442586,2174.741103670281
3846.803,0.41127453402954806,1867.3134382445262
3847.69,0.41250997610722,1851.196516641838
3848.5752,0.4128984351695497,1662.0988223356408
3849.4604,0.4128836302842673,2464.0849630633843
3850.3481,0.4130241770347083,1981.0934717830737
3851.234,0.413761021258977,2412.196325118828
3852.122,0.4152692499316818,1972.0550008436087
3853.0083,0.4174615658649996,2008.105398130724
3853.8967,0.4201419376650581,2253.148046073238
3854.7832,0.4230351063122107,2160.4539162295364
3855.6702,0.4257964473313659,1749.6002086391081
3856.559,0.4279927892552169,1769.6901573042003
3857.4463,0.4292536052381222,1998.1763272844285
3858.336,0.42950781806340244,1940.600455692916
3859.2234,0.42901104459879913,1938.4089064755276
3860.1135,0.4281710441837855,1727.309705272722
3861.0015,0.42729705136027873,2117.8263136274686
3861.8896,0.4264614880007016,2140.54455033309
3862.7803,0.42558472253777585,2015.2449367095312
3863.6687,0.4246070972017904,2516.632374736416
3864.5598,0.42355358327401793,1978.089053993851
3865.4487,0.4225070174529761,2319.994621826191
3866.34,0.42151434338299015,1841.4701292376753
3867.2297,0.4205973959969708,1791.046980275745
3868.1213,0.4197389354634799,1753.1721993790557
3869.0112,0.4188480803633146,2746.1886462815855
3869.9014,0.4176998835758819,2137.572006456082
3870.7937,0.41602070668363567,2021.3566670562748
3871.684,0.4137160900029396,1954.1051699471102
3872.577,0.41098811063245727,2288.001248694102
3873.4678,0.4082676085395811,2309.267444355598
3874.361,0.40584519740953184,1827.0128429500617
3875.2524,0.403668129988758,2429.2675896524097
3876.1438,0.4013289644356928,2470.240630024477
3877.0376,0.3983567326031607,2266.1865368868225
3877.9297,0.39455254297800607,2039.7766646190787
3878.8237,0.39007987131269417,1968.0016123771297
3879.716,0.3854043213619674,2819.39347174213
3880.6108,0.38091693057101855,1992.2351835139025
3881.5037,0.3767646489186465,1914.2375301928328
3882.3965,0.3727840372498281,2629.6957634851165
3883.2917,0.3687645512384644,2259.805093067804
3884.185,0.3646825336289743,2635.989578711914
3885.0808,0.36062057978756135,2859.6441124823705
3885.9746,0.35670384407011524,2347.8091963533025
3886.8706,0.35296842208013895,3109.004541929232
3887.765,0.3495353342900073,2699.3494151276223
3888.6592,0.3466442478453304,3834.7753683813366
3889.556,0.3446065171406015,3993.523834767575
3890.4507,0.34364966345701886,2699.7687733228886
3891.348,0.3438277844657033,3233.79367074559
3892.243,0.34514310369838225,3568.290556019124
3893.1406,0.34765541363830116,3214.180317246277
3894.0361,0.3513813453940627,3654.469164327429
3894.932,0.3561257441598397,3633.197775870107
3895.83,0.36136262679874687,2168.8197366551262
3896.7263,0.36637215506681603,2621.0718976261937
3897.625,0.3707126560668716,2450.1445730289897
3898.5215,0.37439511667239395,2266.345864385038
3899.4207,0.377939529491427,2577.2958021935415
3900.3176,0.38211868860745163,2163.0227789322953
3901.2148,0.3879421350093321,2331.1321706939502
3902.1145,0.3964988931308628,2367.0298583058916
3903.0122,0.40826242465251655,2525.8273973288274
3903.912,0.42225713103885326,1983.279934847916
3904.8103,0.43549476136570875,2141.306075620573
3905.7107,0.44442568743808203,1215.8051147194208
3906.6094,0.44702713870136107,2422.5512268632674
3907.508,0.4442962306024643,2000.3875031178254
3908.409,0.4392588122284251,2034.0872940697595
3909.308,0.43489519237841995,2114.710036436508
3910.2097,0.432641945293783,1914.7426936922523
3911.1091,0.43254387398350963,2408.847372395434
3912.011,0.4339849548274904,2016.7394597254513
3912.9111,0.43619954101285446,1844.7381362264823
3913.8113,0.43844515900289965,2039.6191500189163
3914.7136,0.44018437716587927,1738.5052460771522
3915.6143,0.44130998293590223,2185.7435747320783
3916.517,0.44216224016468264,1686.603161995354
3917.4182,0.44314910214033454,2100.3933849793593
3918.3215,0.444367472308885,1945.014057776324
3919.223,0.4455375117732101,1582.4815979419473
3920.1245,0.44635164616660605,1602.2802467237607
3921.0286,0.4468151845949265,1693.7581205410459
3921.9307,0.4472834973628035,1611.1271950925332
3922.835,0.4481987626029995,1605.0784711093518
3923.7373,0.44974834330825925,1567.942088785732
3924.642,0.45171638254819235,2014.1945396942115
3925.5452,0.4535172630144092,1848.7443313440656
3926.448,0.45448496188861404,1732.5943373046266
3927.3535,0.4541983110750231,1839.02925346376
