wavl,flux,ivar
3566.9744,0.827700573140035,884.4363371773046
3567.795,0.8256287213821992,874.5343646591976
3568.6177,0.823408432204113,622.3070286552107
3569.4385,0.8206910775227549,769.3358233889803
3570.2617,0.8173922193142301,646.7463091200541
3571.083,0.8138875441872496,807.4327251689873
3571.9065,0.8108773018018859,796.2837254741471
3572.7283,0.8091109839383087,705.7696970192106
3573.55,0.8088572797861575,888.0980256253679
3574.374,0.8096750903613057,926.0705247000362
3575.1963,0.8105793988608944,899.3198346436423
3576.0208,0.8105648217461517,759.8230219821969
3576.8435,0.8091271440371246,966.1699296263633
3577.6682,0.8065334677430966,826.7949967145158
3578.4915,0.8037064368988275,1335.4632845598642
3579.3145,0.8016779765451454,858.4244087823445
3580.14,0.8010318595858186,701.8574559720554
3580.9636,0.8016969583460273,750.8017390655014
3581.7893,0.8032063395758875,733.532182971131
3582.6133,0.8051223037883142,1244.7234364521476
3583.4395,0.8072580019992898,1018.0659963163674
3584.264,0.8095479952271256,968.877752003934
3585.0884,0.8119041580124866,738.4202366075344
3585.915,0.8140882703730131,828.5433969242533
3586.74,0.8156303213653718,716.15802757311
3587.5671,0.8158840651690229,803.1445145664467
3588.3923,0.8142531458323645,977.004352102939
3589.22,0.8106516200361047,851.7320095731843
3590.0457,0.8058956385064511,889.5312646448959
3590.8716,0.8014844526687773,811.2297169005291
3591.6995,0.7989031704196426,1082.5356286483827
3592.526,0.7987898524917523,991.9412957790738
3593.3542,0.8005680688764975,1104.5356857069216
3594.181,0.8028853261642293,778.0275945772177
3595.0098,0.8045323855854641,677.2696444241085
3595.8367,0.8050870108889956,935.4657436740778
3596.6638,0.8048503853492254,844.3771356199421
3597.4934,0.8041177363386743,738.0278241030027
3598.3208,0.8026760015274839,597.5786618193513
3599.1506,0.8000587935927888,787.5501828730361
3599.9788,0.7962896135330514,834.0030453999753
3600.8088,0.7920635372274609,1051.0106257506825
3601.6372,0.7882574807556859,1117.3172235235593
3602.4678,0.7851930612170717,934.8838799527155
3603.2964,0.7826684605059524,647.9680623356925
3604.1252,0.7804731548334958,1193.9142671249688
3604.9565,0.7789568778775504,928.8056270176714
3605.786,0.7790223965310064,1031.3968268995327
3606.6172,0.7815071266523493,1006.0740083765517
3607.447,0.7864034228143878,936.4211086817443
3608.2788,0.7925536507313875,629.7452707504551
3609.109,0.7980198048370205,693.4896934345064
3609.9392,0.8011486212249364,791.9410383515074
3610.7717,0.8013579857541483,839.3623666084377
3611.6023,0.7993606385443693,749.5910805438066
3612.435,0.7966310226206557,748.9320289896949
3613.266,0.7945138518713745,858.02759413422
3614.0994,0.7934743083078649,932.1691581287744
3614.9307,0.7930969656363586,925.4373677013754
3615.7625,0.7926309602034883,911.5876394326648
3616.5962,0.7915576799936169,849.211997574858
3617.4282,0.7896766611742239,1078.0313430571255
3618.2625,0.7868726889680382,765.6441554507626
3619.0947,0.7831564243736688,834.6193074975628
3619.9292,0.7788858474855145,1321.2419107788048
3620.762,0.7749376064311586,953.1301876845021
3621.595,0.7722927957821906,908.4236121304726
3622.4302,0.7715495229013452,849.8917090384961
3623.2634,0.7726386503326484,965.605819438515
3624.0989,0.7749368535524295,973.9735510184746
3624.9326,0.7775942637624177,797.5071781328968
3625.7686,0.7798776498727265,828.8962264837472
3626.6028,0.7812322204741452,806.9053327128055
3627.437,0.7812778401989153,1189.4151647900476
3628.2734,0.7798587768310724,778.1691595595095
3629.1082,0.7773585265596954,1126.7180160272108
3629.945,0.7748075970418421,742.2114118041773
3630.78,0.77346925463404,1012.7239515604497
3631.6174,0.7739758127969191,1040.851286803658
3632.453,0.7758933886965552,861.0747092791728
3633.2883,0.7780773802623863,912.3230587132105
3634.1262,0.77947540412748,1321.2278924585023
3634.9622,0.779665167601672,808.4398187750812
3635.8005,0.7788732218716393,779.9542656268861
3636.637,0.7776185777162008,1299.3126105735944
3637.4756,0.7763578605021344,928.416378666186
3638.3123,0.7753528856242803,921.1018671768936
3639.1492,0.7746803527954698,1024.0198447608493
3639.9885,0.774353172995999,994.6541264162636
3640.826,0.7743920342376478,1023.024361698065
3641.6653,0.7747950542547192,673.8906907219251
3642.5032,0.7754476160008363,1121.7865502968073
3643.343,0.7760948544851596,871.7705687537693
3644.1812,0.7764578540291742,746.6058742401559
3645.0195,0.7764621220637481,900.2737357741429
3645.86,0.776326582267551,1011.3678357311427
3646.699,0.7763984547682945,1138.3437869480028
3647.5398,0.7768611585529055,924.9667068013996
3648.379,0.7776227848602584,925.5284260741864
3649.2202,0.7784866645756322,1161.3322291960292
3650.0596,0.7793279553144656,887.6314160033778
3650.8994,0.7800638309895288,917.5852132972547
3651.7412,0.7804218294870764,766.1438278572468
3652.5813,0.7798402352884802,1009.1498127453037
3653.4236,0.7777006742145186,775.561662560241
3654.2642,0.7738053823001306,745.4490067538452
3655.1067,0.7686633615019012,981.5282293747437
3655.9475,0.763462483547499,1125.955911653919
3656.7886,0.7595619284354067,801.2036482855242
3657.6318,0.7580639351523463,1116.420336476119
3658.4734,0.75950662801931,1128.0817625020338
3659.317,0.7637147652437214,920.4671157056032
3660.1587,0.7697609001080191,751.0683321947831
3661.003,0.7761916213296437,965.2663963218108
3661.845,0.7813285280207132,1249.0957641795612
3662.6875,0.7839691437326415,887.242439523249
3663.532,0.7838006846611303,649.3861399670957
3664.3748,0.781558265574393,823.3977030103978
3665.2197,0.7786307823874559,819.2397784556458
3666.063,0.7763763990114326,963.2000554307418
3666.9084,0.7754799308829398,794.1822100724015
3667.752,0.7758854822915953,877.1715180549711
3668.5977,0.7771377893667666,1175.165820427571
3669.4417,0.7787507060686453,686.4495922227409
3670.286,0.7802688999073412,906.8434530646684
3671.132,0.7811240449361151,897.7097101181096
3671.9768,0.7807085620059409,689.5397805099215
3672.8235,0.7787662759498041,1127.0898585492905
3673.6685,0.775711964505357,1029.0412650210992
3674.5156,0.7724130114621245,923.9519246664961
3675.3608,0.7696221004004828,874.6892481988535
3676.2063,0.7674300534637318,1268.2707503163185
3677.0542,0.7653861023412036,934.7517003977201
3677.9,0.7630828166895643,1230.9391566438728
3678.748,0.7606361819165447,888.219162402495
3679.5945,0.7587599802701537,843.2989740240303
3680.4429,0.7582648982002484,1119.1818050228298
3681.2896,0.7594891968188571,1066.0474392590227
3682.1365,0.7619353305550315,825.256000778065
3682.9856,0.7643862968129795,922.7026333024946
3683.8328,0.7654325837909703,730.9640748504476
3684.6824,0.7642487177874876,805.1596450227244
3685.53,0.7610626447999013,1188.035722420838
3686.38,0.7570084245491833,740.3780000554646
3687.2278,0.7535431209852725,915.7138967112282
3688.0762,0.7517031759610715,949.0275213182232
3688.9265,0.7518256483975875,1087.159160675201
3689.7751,0.7536137527430895,984.5070229919155
3690.626,0.7564334797088101,958.4085543791787
3691.475,0.7595134142535124,924.532068393618
3692.3264,0.7620520100751654,1033.8942179039109
3693.1758,0.7631924822235516,852.1377869332492
3694.0254,0.7622661095107426,792.6127407784429
3694.8772,0.7591610171034863,768.8657517009096
3695.7273,0.7546610906173713,822.5756635492576
3696.5793,0.7501436733587199,1099.3644186316776
3697.43,0.746852030515579,780.1912626962884
3698.2825,0.7451211614065453,885.0407618373839
3699.1333,0.7444540744201947,927.281253167859
3699.9841,0.7441740798709293,1111.510755543538
3700.8374,0.7440406749066125,1104.3976057012458
3701.6887,0.744249458927544,1152.221979486347
3702.5425,0.745057893241491,1095.1820118201479
3703.3943,0.7464966761219439,814.5014787817939
3704.2483,0.7483146817636177,948.1438210021406
3705.1003,0.7499650106838398,926.6595841637752
3705.9526,0.7507559544400771,1025.517641614958
3706.8074,0.7501550321328002,961.7613564454532
3707.66,0.7481709185337931,1158.358838394879
3708.515,0.7454022554804571,866.5177136654365
3709.3682,0.7427302947735587,1127.5908964165897
3710.2234,0.7407904157739719,1027.48443125423
3711.0771,0.7397478517235785,1160.3742177064187
3711.9307,0.7393742902659926,996.9978622537795
3712.7866,0.7393808731115702,895.2956661240098
3713.6409,0.7396178674873675,932.7479368071823
3714.4973,0.7399914387446026,959.7605239722302
3715.3518,0.7402648111690061,998.9146769375618
3716.2085,0.7401065857685508,934.5559048049834
3717.0635,0.7394360205634194,1009.8792464836012
3717.9185,0.738683804700619,930.6088339759054
3718.776,0.7385508879574584,835.6803981916752
3719.6313,0.7393706636796695,1147.8101031333879
3720.489,0.7406705867509545,841.5031639739989
3721.345,0.7413927468199729,1105.7831185329587
3722.2031,0.7406407218747753,1018.3586559305451
3723.0593,0.7382878811275412,990.5146064152655
3723.9158,0.7350011461475731,1255.6696007530904
3724.7747,0.7317734118606887,1265.9736893189545
3725.6316,0.7294319996881785,922.7575714659209
3726.4905,0.7283313124656959,960.0155526566364
3727.348,0.7284362810378625,1257.1106238646703
3728.2073,0.7294715029920196,1005.9971742407831
3729.065,0.7310769399818321,1069.501878573428
3729.9229,0.7329156405873644,1517.9147031634575
3730.783,0.7346950623171413,1189.6125684115502
3731.6414,0.736127287646483,1162.6870566404743
3732.5017,0.7369596283704076,1220.4489555918217
3733.3604,0.7370460014237533,1200.2271709310953
3734.2214,0.7364538191144449,985.8434412905714
3735.0803,0.7354072626867079,943.8696991489866
3735.9417,0.7340888742848867,973.4314473195025
3736.8013,0.7325390452711014,993.7259218271291
3737.661,0.7307065456081087,1208.5072985518038
3738.5227,0.7286104499290729,980.9195726755039
3739.3828,0.7264312994332502,1020.6691742354292
3740.245,0.7244418569368332,1051.3659577821425
3741.1055,0.7229756181077643,894.9066897342608
3741.9683,0.7222850884499978,1126.2075017179454
3742.829,0.7223902833545927,1415.1292007678005
3743.69,0.7229590383659414,1261.667708148037
3744.5532,0.7234939697184327,817.1412519245869
3745.4148,0.7236735975577762,812.5430816722592
3746.2786,0.7234963947834104,1298.5743176821597
3747.1404,0.7230565614723787,879.72446139961
3748.0044,0.722302235528972,985.0379656682712
3748.8667,0.7211371404190596,996.2777777598716
3749.729,0.7196848819694005,1148.2402479321072
3750.5938,0.7183159692961061,1267.3983038511963
3751.4565,0.7173532028436815,1132.5146909718255
3752.3215,0.7167788992281481,900.3463505176505
3753.1848,0.7163261588216255,1000.9174616669587
3754.0503,0.7157263786653354,1038.0464254305311
3754.9138,0.7148580513176661,955.35621599379
3755.7776,0.7137350285725081,1129.23190617496
3756.6438,0.7125574849296088,1006.4881117189204
3757.508,0.711800012518372,1033.9633475154114
3758.3745,0.7120540812305342,867.758428172775
3759.239,0.7136540083298188,1090.7946599467602
3760.106,0.7164059309810603,1017.5988796581073
3760.971,0.7196460005736498,1014.1885099060551
3761.8362,0.7225747795550519,1210.4679454558325
3762.7036,0.7244520114176636,1098.6651041247114
3763.5693,0.7247619796885,1024.7295982734793
3764.437,0.723504511821347,1070.7057313997402
3765.3032,0.7213798010902872,1008.3211761264223
3766.1714,0.7195337944132412,1435.260749181063
3767.0378,0.718908387606723,1058.8001491301225
3767.9043,0.7196260491951507,1033.4720831885668
3768.7732,0.7210494112743199,860.483278633276
3769.6401,0.7223921237116633,1064.6383302835034
3770.5095,0.723376700964132,883.077033390064
3771.377,0.7242557543991963,865.5578007115371
3772.2466,0.7252985772965305,1069.8453042843958
3773.1145,0.7262419237724275,938.3447937673576
3773.9824,0.7263501663059518,892.6680258944241
3774.8528,0.724996512270447,863.8981656495307
3775.721,0.7222620069226257,956.856281486995
3776.5918,0.7189211198981698,1205.0068791418644
3777.4604,0.7159647710647821,903.0994700527712
3778.3315,0.713965391353874,1081.7859293577042
3779.201,0.7129855461703543,1040.7782331137093
3780.0703,0.7128246911808158,927.0900684493265
3780.942,0.7133927467247043,1335.1697533278234
3781.8118,0.7147610026193055,1383.0173739617305
3782.6838,0.7169241499998096,863.5149368799068
3783.554,0.7194960545085188,1286.889974568407
3784.4265,0.7217469559869344,963.4288471608678
3785.297,0.7228700255565185,1026.8896389479687
3786.168,0.7223793802657049,893.9994019771398
3787.041,0.720201071713832,959.5561072983284
3787.912,0.7166028554269986,1027.284955431353
3788.7856,0.7120582226290266,1050.6690026794872
3789.6572,0.707330401851731,1059.0930628851086
3790.531,0.7033283563706682,1121.3849667768732
3791.403,0.7008787666759884,1175.6302574194576
3792.2754,0.7002577904086837,1237.7496377060777
3793.15,0.7010489458582794,1092.8747549241332
3794.0225,0.7022860205742447,1155.2585228735284
3794.8972,0.7028914435872099,1161.0743949536457
3795.7703,0.7021686900684843,1161.2096792368122
3796.6455,0.700184147001195,1184.178285622529
3797.519,0.6977790137610436,1022.6077755407903
3798.3926,0.6960739843488386,1180.3816355223964
3799.2686,0.6958364233370685,1102.1892319498513
3800.1426,0.6971527871979404,1037.065199365895
3801.0188,0.6996292276027984,977.902823337929
3801.8933,0.7027572817941881,1289.4318045709404
3802.77,0.7060735765145281,1249.1082041870443
3803.6448,0.7089720252227142,1141.7520628386249
3804.522,0.7107816743954463,1032.531150597897
3805.3972,0.7111079341710967,1061.7388085705009
3806.2727,0.7103068444987789,1245.195004959233
3807.1504,0.7094674127825913,1053.7481206845234
3808.0261,0.7099052933806103,1007.293068218038
3808.9043,0.7124591744054459,972.5828911034824
3809.7805,0.717027125417111,1148.2137950587046
3810.659,0.7226433474536235,996.0997898642095
3811.5356,0.7278350004829764,953.7184472923713
3812.4126,0.7312491330384068,962.4198873799535
3813.2917,0.7319724559750022,963.8287457234184
3814.169,0.7297092867280244,369.1077416124806
3815.0483,0.7248757414807178,1337.1467357528004
3815.926,0.7186533089097342,982.0021609060113
3816.806,0.7126475288873907,1136.994451793706
3817.684,0.7083666389805257,1112.9668424965325
3818.5623,0.7064637239471084,1252.3854319545928
3819.4429,0.7065218438614579,1301.2328727768881
3820.3215,0.7073523392400158,1026.9044349487137
3821.2024,0.7076978393318037,983.3624235796052
3822.0815,0.706846893520893,1127.3953894850652
3822.963,0.704792408405854,1055.2516027637084
3823.8423,0.7019330883417185,1081.2089789145643
3824.722,0.6985804516856319,1265.3690058256586
3825.604,0.6947363365715996,1023.1907260949406
3826.4841,0.6902606918294711,1016.429171237261
3827.3665,0.6851038959000041,1176.1937782959744
3828.2468,0.6795584131128135,1183.6618494448044
3829.1296,0.6740633238626098,1219.2858918038803
3830.0105,0.6690611476729371,1282.3296146546554
3830.8916,0.6647005548322287,1195.735990123056
3831.7751,0.6608237663506495,1168.8528691320814
3832.6565,0.6570710927096162,1345.2430701972855
3833.5403,0.653018782597897,1266.7321581541203
3834.4224,0.6485554739406872,1117.3810453058252
3835.3064,0.644022232208354,1486.628239729455
3836.1887,0.6401981452634029,1700.9954323061843
3837.0713,0.6378459713525833,1235.6008491754187
3837.956,0.6374036031404196,1291.5334018139142
3838.839,0.638967005328273,1188.1963286869186
3839.7244,0.6425184835333144,1284.9051667549852
3840.6077,0.6479859185814936,1135.0212268707594
3841.4932,0.655164970234055,1217.2784024905502
3842.377,0.6635045777608414,1202.0445557220708
3843.261,0.6723099831657459,1226.7875906727893
3844.1472,0.6809127232572831,978.152614720669
3845.0315,0.6887576829082525,1069.296640013701
3845.9182,0.6956010589233743,1155.7667142266723
3846.803,0.701376890175032,1057.1452640108623
3847.69,0.706286017655998,1144.7960705146174
3848.5752,0.7105485589579256,1004.305901208859
3849.4604,0.7143354354269447,979.5591009686549
3850.3481,0.7177058067774851,1038.763568220514
3851.234,0.7206982654363302,833.1082970731412
3852.122,0.7235125804773291,1187.687625873943
3853.0083,0.7264345102497669,1016.3566051528476
3853.8967,0.7297361083860026,1027.5786457970844
3854.7832,0.7334400326037093,1175.2694577845643
3855.6702,0.7373226266888471,1071.508614042181
3856.559,0.7410131222764742,855.2741371293113
3857.4463,0.744175930241851,1030.8183576052375
3858.336,0.746654928402245,1154.3592850039088
3859.2234,0.7483503025673778,849.742770067877
3860.1135,0.749182864596549,982.6466176684479
3861.0015,0.7491131433350321,940.1068765101837
3861.8896,0.7483123630082333,895.8106510872116
3862.7803,0.7471905169489046,970.5962147260941
3863.6687,0.7462234898755183,1027.769020780978
3864.5598,0.7456299132086236,1138.8652240099893
3865.4487,0.7452265398582353,893.7851062837498
3866.34,0.7445267939874116,999.2070652889194
3867.2297,0.7430429073474171,1002.4796597198655
3868.1213,0.7405140438409344,1206.0611691730533
3869.0112,0.7369654746259021,880.6984616932878
3869.9014,0.7324799787972552,1067.9170474464659
3870.7937,0.7269501073627496,884.2509630210616
3871.684,0.7200848395090186,1050.880501181683
3872.577,0.7116191442536487,1203.2078542399233
3873.4678,0.701903621693968,817.6080463791111
3874.361,0.6918873886194216,1100.8675588327517
3875.2524,0.6828854666599218,1341.223978855566
3876.1438,0.675702271528515,1175.9488590935136
3877.0376,0.6702647072564505,1191.0470554825297
3877.9297,0.6657617345651209,1371.6071038339514
3878.8237,0.6610655640491044,1370.5141912552326
3879.716,0.6553493188608387,1229.0137350533596
3880.6108,0.6482706083267518,1242.004429012691
3881.5037,0.6400460854139016,1558.1257042089417
3882.3965,0.6311167869376805,1299.1974045114703
3883.2917,0.62194739942388,1517.5630205742068
3884.185,0.6129493803466529,1434.8060962578127
3885.0808,0.6042427562522185,1553.7881365668497
3885.9746,0.5958490898354157,1639.4087695094609
3886.8706,0.5876785437192421,1230.7313321489096
3887.765,0.5799194086496244,1650.2130518544545
3888.6592,0.5730259446356822,1404.2861267463863
3889.556,0.567642030305064,1906.401914357224
3890.4507,0.5643795343485467,1756.4133789575835
3891.348,0.5635889320152274,1827.771884439415
3892.243,0.5654495221928285,1750.9809886320454
3893.1406,0.5700122815735861,1620.7058810633648
3894.0361,0.5770987101130517,1625.2538747472033
3894.932,0.5862575966553392,1779.7210588612706
3895.83,0.59673701652929,1679.0827674048637
3896.7263,0.607558764078466,1443.2393114183299
3897.625,0.6180208944383754,1389.9104186979778
3898.5215,0.6278029784838158,1365.4582178690816
3899.4207,0.6372393349851418,1391.7355203005811
3900.3176,0.6468006773066773,1127.3066873869989
3901.2148,0.6568052229885274,1292.67777468596
3902.1145,0.667095833210724,1220.6411588150752
3903.0122,0.6771314108763951,1048.1460228754725
3903.912,0.6865368389258988,1102.5424796825603
3904.8103,0.6951525368271543,1036.7533587501405
3905.7107,0.7031536842394093,999.1641032635082
3906.6094,0.710720573337811,1199.6109522335091
3907.508,0.7180131396431698,1168.7556902204328
3908.409,0.7250533441184912,917.818158072833
3909.308,0.7317099931425762,985.2605228538683
3910.2097,0.737944906959856,1070.8405993002566
3911.1091,0.7438137446844084,867.8853576022843
3912.011,0.7495421186223727,1123.6919932150813
3912.9111,0.7552137722558219,796.6259962805015
3913.8113,0.7607579632692072,1026.6577192689856
3914.7136,0.7660231579951642,981.6440038782592
3915.6143,0.7709201709369764,1041.9128924673485
3916.517,0.7755225462379404,830.5886781976972
3917.4182,0.779834640043964,796.9855600077749
3918.3215,0.7837765354986341,792.9420513456075
3919.223,0.7872118913179854,903.5007679214452
3920.1245,0.7901988431782682,868.8557535336365
3921.0286,0.7930094112249008,766.5319934590248
3921.9307,0.7959568674204405,838.9708785651195
3922.835,0.7992065819726171,711.9435195255975
3923.7373,0.8025934412145589,822.351402640507
3924.642,0.8057540787342393,814.9790189463641
3925.5452,0.8082615547851224,784.7322565940136
3926.448,0.8098342454872333,1046.2103562377729
3927.3535,0.8103479199051712,725.8835208149154
3928.257,0.8098081869803885,759.7491238295023
3929.1628,0.808321794355759,850.3636871575484
3930.0667,0.8060570119839259,837.6320553310859
3930.9731,0.8031701947724132,824.5148957417327
3931.8774,0.7998736349625548,897.6037148892486
3932.782,0.7964641958258122,859.5081418761997
3933.6887,0.7933408756409336,922.3241458153767
