wavl,flux,ivar
3566.9744,3.6551809679231506,213.34961332724419
3567.795,3.6511837440679087,217.99569375201796
3568.6177,3.6470179926227018,218.91775089475814
3569.4385,3.6421334453280645,209.83752856773367
3570.2617,3.636303825317478,198.32438843042559
3571.083,3.629984165217747,221.16234695160142
3571.9065,3.6240387031556027,232.7500117796
3572.7283,3.6194339327338563,213.29521538868894
3573.55,3.616808847009123,223.66264803535265
3574.374,3.616431983326721,223.27372115994558
3575.1963,3.618113635228298,222.94942683003873
3576.0208,3.621106835051939,223.12718821333974
3576.8435,3.624223658045052,226.270545982667
3577.6682,3.6263530666194628,209.89136495479192
3578.4915,3.626844080472527,245.59109912906354
3579.3145,3.6255630332413773,218.90596430222763
3580.14,3.622634972604635,224.3495134877244
3580.9636,3.6184180408230344,209.2899692917102
3581.7893,3.613564028535749,216.2056600416785
3582.6133,3.6089917556482716,215.4863603330782
3583.4395,3.605348334700358,225.7933917075781
3584.264,3.602649897538646,218.09037767708935
3585.0884,3.6002520201511476,205.88913548228777
3585.915,3.597338438628808,228.34939193995027
3586.74,3.5934306668430653,218.97881316351052
3587.5671,3.588561471318722,236.2581943127228
3588.3923,3.583278725178678,203.52140055367826
3589.22,3.5782767899130885,236.82107612432006
3590.0457,3.5741628951833047,231.1455928443075
3590.8716,3.571127183288526,224.77841519022607
3591.6995,3.568954162913677,233.67657993293378
3592.526,3.5671866354789357,215.6707469609268
3593.3542,3.5654325231068267,239.64203301711055
3594.181,3.563814871194811,228.99890775998713
3595.0098,3.563151459986415,234.5974755345202
3595.8367,3.564579913716967,227.58426399652024
3596.6638,3.568534540271795,228.77622900827754
3597.4934,3.57389660803401,234.53271568816172
3598.3208,3.57813862678219,201.43282183122795
3599.1506,3.578809803743259,219.42234876912136
3599.9788,3.5749609469763226,219.79101034292594
3600.8088,3.5675512161696608,219.77360449661035
3601.6372,3.558651745418572,229.24602971161914
3602.4678,3.550072444071253,237.1824175631648
3603.2964,3.542694663986848,229.1024086138352
3604.1252,3.5362375001095594,226.85069793174475
3604.9565,3.5298615611732784,220.07462234604054
3605.786,3.523042549015736,209.7650676077602
3606.6172,3.516061350968326,236.70211542736433
3607.447,3.5100304911291684,245.84410561486402
3608.2788,3.5060351331691666,239.6410481536048
3609.109,3.504407533815097,224.9129630524573
3609.9392,3.5043878559322748,233.24220810102594
3610.7717,3.504583496122608,224.36013775639424
3611.6023,3.503706972167788,228.13190700587742
3612.435,3.5011548072277106,240.59496003955755
3613.266,3.497172485750731,234.109632884655
3614.0994,3.492583858815197,239.427173281528
3614.9307,3.488418047566436,223.99307572413502
3615.7625,3.48528212370701,238.42364490323507
3616.5962,3.4829486424282474,237.6541902838407
3617.4282,3.480335094865354,242.17565312920934
3618.2625,3.4760623072296695,244.66968858949193
3619.0947,3.4694302477522583,231.4307009536038
3619.9292,3.460930262816074,234.3557034411879
3620.762,3.4522536706909013,254.0722009706997
3621.595,3.4454340550877154,256.7184413165098
3622.4302,3.4420087460303623,256.3909633840043
3623.2634,3.4423345779376815,261.387143606694
3624.0989,3.445369865870112,266.56394334935425
3624.9326,3.4491381847981977,263.32444986179456
3625.7686,3.4516586729825827,246.41012627042062
3626.6028,3.4517083584810138,220.29913136531155
3627.437,3.449148928683734,228.3952543659771
3628.2734,3.444653271876757,259.96701202376653
3629.1082,3.43938832567071,234.56103781480704
3629.945,3.4346096460164084,242.87415961524874
3630.78,3.431316861770823,250.04803074709156
3631.6174,3.429584629737239,245.865088198012
3632.453,3.428308936856867,237.29515510897878
3633.2883,3.4256591131878387,242.13335542403868
3634.1262,3.420283441808889,250.82208115467623
3634.9622,3.412423894946741,244.8627760506128
3635.8005,3.4038013977540538,265.0189615995272
3636.637,3.396611953473179,242.07411576920944
3637.4756,3.391968374590858,237.55604442367186
3638.3123,3.3894702700483754,253.782206608256
3639.1492,3.387694675073266,269.4457085621955
3639.9885,3.385296938629803,263.2578183884695
3640.826,3.3816792187292957,291.04180482423556
3641.6653,3.3769456185826696,261.2757234972362
3642.5032,3.3716687773670095,252.37513232559917
3643.343,3.366549634533404,246.82529028890775
3644.1812,3.362244371391417,273.2767759437129
3645.0195,3.3590060036414244,260.1592305662379
3645.86,3.3565780394709814,252.63711274466095
3646.699,3.354307753299859,261.98681604958443
3647.5398,3.3514036881349067,264.72811498552835
3648.379,3.3473277209885355,268.71024755382075
3649.2202,3.341961718124651,258.0698894705181
3650.0596,3.335636014690006,253.81591323373567
3650.8994,3.32878265393057,251.232917128173
3651.7412,3.321805637976251,259.9747500652574
3652.5813,3.315143513338156,267.919888179012
3653.4236,3.3091855358964724,281.7952235989061
3654.2642,3.30429997305684,256.0804370353059
3655.1067,3.300710568600815,248.21181443594782
3655.9475,3.298699517233332,269.7463194212847
3656.7886,3.29853109261385,266.79454331279345
3657.6318,3.3002084412149153,258.45862133738336
3658.4734,3.3032173399254368,268.5119284661666
3659.317,3.3067344696510665,251.37290327685906
3660.1587,3.310002225041399,259.83500635683265
3661.003,3.3126012803872356,245.5981488512228
3661.845,3.3142778451800448,272.35230914831146
3662.6875,3.3148239702501647,258.8063779879859
3663.532,3.314073916754501,248.19295454989043
3664.3748,3.312094655689587,256.7538298822448
3665.2197,3.309205771266787,274.34074177591356
3666.063,3.305800276548903,276.06245425756794
3666.9084,3.302033489361318,277.30808577689925
3667.752,3.297869022791608,259.4223932606345
3668.5977,3.2932652328973893,282.36788359033426
3669.4417,3.2885429105414863,260.37083423616207
3670.286,3.284414195940683,287.8432935957915
3671.132,3.281916641338753,241.80770162480195
3671.9768,3.2820541150775373,267.4751555278303
3672.8235,3.2850269566732333,273.14962852530834
3673.6685,3.289427263760744,281.2151830766468
3674.5156,3.2923635956151527,263.26956653299357
3675.3608,3.2909268935589013,170.7273756940439
3676.2063,3.284227643006666,285.3649626115485
3677.0542,3.2740068766574497,275.9106223851575
3677.9,3.2635115026706396,283.2977686958522
3678.748,3.255264670206801,294.4959901494636
3679.5945,3.2501123843217643,291.36843605439435
3680.4429,3.247370959390653,272.3283853232201
3681.2896,3.245988644467459,274.8514692059052
3682.1365,3.2452322954158213,282.83312862494296
3682.9856,3.2447224805130537,281.6441018148636
3683.8328,3.2441339015262254,276.77605009474524
3684.6824,3.2431307571133763,278.4874792564566
3685.53,3.241559256331443,271.94214807960446
3686.38,3.2394744138799494,266.2509236741861
3687.2278,3.2370288451576585,289.2008924516228
3688.0762,3.2344141811758833,275.50358282270616
3688.9265,3.232092325739202,278.6330856211571
3689.7751,3.230897755195093,284.8118153133966
3690.626,3.2315951972877466,295.2556954240006
3691.475,3.234187393223323,281.34851498944806
3692.3264,3.2376237000968167,263.2712838796144
3693.1758,3.2402507841167765,266.3167157180661
3694.0254,3.240766763080826,281.2563362950098
3694.8772,3.238776798533495,266.9064389502103
3695.7273,3.2348154512874987,267.5203311658263
3696.5793,3.2298825507644233,288.72797857899553
3697.43,3.2249885092405215,288.1211884985328
3698.2825,3.220684825733501,287.2598104809787
3699.1333,3.216995752613345,280.5685028209743
3699.9841,3.213550902850162,288.8991112888862
3700.8374,3.2100111869612404,273.95780759407273
3701.6887,3.2063775435201456,272.24471687180414
3702.5425,3.202888761971501,299.25184588799914
3703.3943,3.1998677278298016,299.8283913730177
3704.2483,3.1975021327585327,286.2316770464178
3705.1003,3.1958831008367232,294.0305444214552
3705.9526,3.1949312099119145,300.6373126688579
3706.8074,3.1943340955508917,276.0481398999634
3707.66,3.193538487446822,294.02069887917764
3708.515,3.1919046920786736,301.3822715463911
3709.3682,3.1889883057060295,313.17414318714805
3710.2234,3.184725119795379,314.2232825212774
3711.0771,3.179564260905224,292.1908581140109
3711.9307,3.174281212350158,297.5055211519442
3712.7866,3.169642195935073,303.06061893495723
3713.6409,3.16608657971288,292.10959992409903
3714.4973,3.1635221781839653,281.5415271738317
3715.3518,3.161574050573204,308.7816064210288
3716.2085,3.1598661136399486,285.54528045746576
3717.0635,3.1583081219153546,271.5251001393908
3717.9185,3.1570378688528753,289.64852978971965
3718.776,3.1561523224384493,310.9002003508768
3719.6313,3.1554762963733394,287.7559026417203
3720.489,3.1546561223121445,299.4602603723383
3721.345,3.1535170460172632,301.2686782520884
3722.2031,3.152206415470921,297.6959219780225
3723.0593,3.1510559864988053,280.58811693593924
3723.9158,3.1503256284698606,307.5066534084674
3724.7747,3.150071051095327,298.28930412040876
3725.6316,3.1500526717344406,285.8195707671961
3726.4905,3.149772147510266,294.3455617837869
3727.348,3.1487622068796504,265.339419336023
3728.2073,3.1468837729286,301.3260030382028
3729.065,3.1443004685505604,297.2817170845408
3729.9229,3.141167436990593,296.376667997721
3730.783,3.1376580184020293,299.5237269077213
3731.6414,3.1344612058276438,314.9499172961541
3732.5017,3.132957728465159,326.0148505775266
3733.3604,3.1344788590200725,297.0303052625102
3734.2214,3.138809826072665,342.234258891587
3735.0803,3.14346012793225,308.8508795142091
3735.9417,3.144982309990693,290.95189402965127
3736.8013,3.141328903182305,314.3817230045287
3737.661,3.133257343935362,333.53884141710796
3738.5227,3.123373492652097,298.36392121903754
3739.3828,3.1142181929943207,305.90522887844094
3740.245,3.106898659975168,281.6992188094036
3741.1055,3.101466314815525,318.4331903891662
3741.9683,3.097608758206413,301.23248958141306
3742.829,3.095259971811326,307.23212473340544
3743.69,3.094468173074406,294.282575504609
3744.5532,3.0951390872136018,292.57602037438056
3745.4148,3.0968244302131307,285.89152802265903
3746.2786,3.0988196379036412,309.36129351439047
3747.1404,3.100431252535929,317.70192731901176
3748.0044,3.101305300419106,296.73401393318835
3748.8667,3.10154338317744,303.0106033307153
3749.729,3.1016327532446,301.0472553504066
3750.5938,3.1020851079729734,322.9527423604901
3751.4565,3.1029370195966735,316.0924968728262
3752.3215,3.1035125090440823,299.54181805234055
3753.1848,3.102782741171563,292.9728423812499
3754.0503,3.1001533940278767,292.42054917109283
3754.9138,3.096001819593973,345.15006054408434
3755.7776,3.091416120922915,316.19723787409475
3756.6438,3.087483562444565,324.7124454605269
3757.508,3.0847052247788223,319.8782266711387
3758.3745,3.0828108075615686,311.7437462031579
3759.239,3.081151941645749,326.6988650662835
3760.106,3.0791376348650585,315.0236286648069
3760.971,3.0765559962861837,312.5148939240842
3761.8362,3.073481102309943,309.3900483328027
3762.7036,3.070059862311503,317.9270874844418
3763.5693,3.066448822886439,313.3993552398194
3764.437,3.0628653243558888,316.4493082385272
3765.3032,3.059706733949743,310.0864381163944
3766.1714,3.057324574105778,319.3098782392337
3767.0378,3.055802019401359,325.43862616484046
3767.9043,3.0548246714477796,309.93780594811534
3768.7732,3.0538472717588228,310.5238824039624
3769.6401,3.052311429537782,315.12240348767915
3770.5095,3.0497876427783224,319.4458755115864
3771.377,3.046184940202287,317.96361791959515
3772.2466,3.0419025432447193,321.0115218037458
3773.1145,3.0379353869842247,300.112643577307
3773.9824,3.035495021030673,327.20493330255306
3774.8528,3.0354654762672757,310.72743299433824
3775.721,3.0378927428352585,343.6617325164033
3776.5918,3.0419429745883635,320.2809233014466
3777.4604,3.0462832550977907,304.6487406346202
3778.3315,3.0497348286016224,302.08876171532125
3779.201,3.0515204097555735,320.6892371242351
3780.0703,3.0513207088493077,313.6429587228217
3780.942,3.0491916821537144,321.13462276168104
3781.8118,3.045739250729682,304.36228655964516
3782.6838,3.042148651781187,320.63330179302704
3783.554,3.0398069932096843,288.62805059008423
3784.4265,3.0394618302340866,312.1809503960525
3785.297,3.0407977007295854,302.1836912774814
3786.168,3.04268909695609,318.7216001976623
3787.041,3.0438664789749237,290.4674776507098
3787.912,3.043390676263164,327.2266296314559
3788.7856,3.040851604539418,322.39800943909404
3789.6572,3.0364654597592464,320.32608442720567
3790.531,3.031024043749875,309.0670808577458
3791.403,3.025652920735237,302.9513079262654
3792.2754,3.021071176813632,307.8792595534811
3793.15,3.0170724688239865,329.76643988790795
3794.0225,3.012649237878789,323.3175979795262
3794.8972,3.0067123131936317,346.1841952656043
3795.7703,2.999040085407983,330.1197877043168
3796.6455,2.9904541691549555,321.47821324997636
3797.519,2.9825434590431126,315.57796480483233
3798.3926,2.9767700834852073,340.0663387510915
3799.2686,2.9738321441192004,324.8969385088411
3800.1426,2.973371645988566,323.8491933451459
3801.0188,2.9742099296131266,324.93870459230544
3801.8933,2.9750930872838874,335.5209403844152
3802.77,2.975408118448695,331.5216363838409
3803.6448,2.9754023516445556,346.7153351833925
3804.522,2.9758136920845204,347.4350257121207
3805.3972,2.9772237672561013,312.013374214351
3806.2727,2.9796749320009903,341.55570912943136
3807.1504,2.982752728901744,321.1108190989738
3808.0261,2.9858744444381946,335.7031848098718
3808.9043,2.9885511897945,359.46188954815466
3809.7805,2.9903402194771944,313.79962364210473
3810.659,2.990870925184092,312.1599397362133
3811.5356,2.9899133488637535,323.682061963988
3812.4126,2.9875710996257068,339.98067919366497
3813.2917,2.9843603534629146,340.636144288026
3814.169,2.981153045565017,333.7027802530493
3815.0483,2.978853982455304,321.0297374562997
3815.926,2.978070333749415,331.0565519812346
3816.806,2.9787037267865517,406.67405092533807
3817.684,2.9798333285882403,309.0761178363992
3818.5623,2.98006381747062,327.4627067938394
3819.4429,2.978228437581722,343.9430622398073
3820.3215,2.9739985655405157,354.4251498556331
3821.2024,2.9678931859128297,351.04275267936566
3822.0815,2.960971644247337,318.4843377618895
3822.963,2.9542875081543727,334.52213261690486
3823.8423,2.9486359049742186,329.9515467476169
3824.722,2.9441749248007323,336.75058878250746
3825.604,2.940455361624123,337.43998986808015
3826.4841,2.9367554492983805,355.2557495995564
3827.3665,2.9324351124274046,331.7807159264467
3828.2468,2.9271706149046373,338.4742119640341
3829.1296,2.9207755062974106,339.75392303642474
3830.0105,2.9133001365490556,333.70903430041403
3830.8916,2.9051307445191057,320.38890451459525
3831.7751,2.8971612065292214,345.6181702211801
3832.6565,2.890595443465106,339.4128159321249
3833.5403,2.8862137348181633,378.97299198486996
3834.4224,2.8840142984014676,352.0195562130575
3835.3064,2.883200056150799,376.3898362869467
3836.1887,2.8829154156626395,334.4955610357775
3837.0713,2.883064147547761,330.52012431731424
3837.956,2.884634514923298,347.1707283117811
3838.839,2.889099304741039,350.43799095836715
3839.7244,2.897224151921419,373.00981651082327
3840.6077,2.907903838172028,353.1433534088259
3841.4932,2.9183465874206065,339.934851961073
3842.377,2.9254089698796393,211.8625359934261
3843.261,2.927780067814536,342.31594148574317
3844.1472,2.9267318802838598,347.76532239517996
3845.0315,2.925081904387142,334.3056586296138
3845.9182,2.925178319138369,317.5249348680981
3846.803,2.927671368036099,358.2160589179607
3847.69,2.9316976529559398,347.1049661850899
3848.5752,2.93584963497775,320.2674338019975
3849.4604,2.93917146827812,350.86597168315365
3850.3481,2.941497372144931,330.75210940317226
3851.234,2.94319806050708,345.562552403088
3852.122,2.944719898482749,340.01539719455167
3853.0083,2.9462014886553956,338.0570551822541
3853.8967,2.9474682379914947,323.91206361407916
3854.7832,2.9481471609309793,346.08477294023754
3855.6702,2.9478633631091973,344.66350238784753
3856.559,2.946402336889081,316.83453658309844
3857.4463,2.943890378256206,330.19399679364955
3858.336,2.940806330504535,330.98324094365944
3859.2234,2.9378732474525995,356.8200049176558
3860.1135,2.935722803848863,318.6877282323544
3861.0015,2.934671808180507,350.883869713982
3861.8896,2.9345022660054285,329.59896366065664
3862.7803,2.934528189064533,352.0698549494814
3863.6687,2.933911750330612,325.4553261694396
3864.5598,2.9320953378777874,350.1964880759844
3865.4487,2.929015767135213,366.10364981486055
3866.34,2.9248860139231114,348.1399791525687
3867.2297,2.9199540602423624,345.8046706796774
3868.1213,2.9142751002617153,344.77989170755274
3869.0112,2.907793660273628,321.2216112123645
3869.9014,2.900360162834008,338.06670883068443
3870.7937,2.8919500856015694,346.5230983975106
3871.684,2.8829101505026156,367.51889891183856
3872.577,2.8737617860564284,374.734595968692
3873.4678,2.865071782458597,362.73639513651347
3874.361,2.8570120826567993,348.6526214783664
3875.2524,2.8494939200954272,361.7147800313803
3876.1438,2.8421088192006274,357.4004127747923
3877.0376,2.834207697113899,337.72005121580236
3877.9297,2.8250010280334816,382.55518527146006
3878.8237,2.813697754348795,351.01886016450004
3879.716,2.8001691724638276,400.2791744907605
3880.6108,2.7851037700067347,383.9746674671254
3881.5037,2.770040806560712,402.24179490935745
3882.3965,2.7564134997343515,370.27861448916616
3883.2917,2.7449730269545007,389.82878542033086
3884.185,2.735654337706821,389.3723696271497
3885.0808,2.7276543873601966,404.9882746841983
3885.9746,2.720107641122841,386.7183935379145
3886.8706,2.712355689145021,411.85476327029215
3887.765,2.704340151497461,393.9176587026535
3888.6592,2.6965073129853794,392.1704670390029
3889.556,2.689700159595526,398.06819799304714
3890.4507,2.6849678526510172,391.7035856938366
3891.348,2.683205060350201,404.16777494950475
3892.243,2.685023675555166,408.758356100676
3893.1406,2.6905907294351095,424.1724285997652
3894.0361,2.6995416252171744,408.21556001970936
3894.932,2.7111495990377303,403.82484176691986
3895.83,2.7245583576524224,395.5207154014572
3896.7263,2.7389855652923636,406.829924037797
3897.625,2.754139713683784,396.99190492578
3898.5215,2.7697869423045516,377.87012556174614
3899.4207,2.785696757300586,375.28282005957226
3900.3176,2.8010937992313623,356.94669695364195
3901.2148,2.8151415595808316,362.6230771401957
3902.1145,2.827246234522523,363.6055180927386
3903.0122,2.837347069260871,352.0538911507633
3903.912,2.846090508348079,356.9002317673892
3904.8103,2.8542285314770024,368.87479452996774
3905.7107,2.862307708498725,367.92965339270836
3906.6094,2.8703897105687846,357.8335241640271
3907.508,2.8784661847924564,345.43905778445475
3908.409,2.886748138421649,357.0392226521496
3909.308,2.895563361126701,354.69029102025513
3910.2097,2.9051367019839196,316.1848427362794
3911.1091,2.9152072276510523,352.3501401612073
3912.011,2.9253753680233348,333.0143135104386
3912.9111,2.9351539020531003,366.30215285019125
3913.8113,2.9441156875689116,338.5412624875841
3914.7136,2.9516550453889683,330.1633053685663
3915.6143,2.9570456018745466,329.82529934119816
3916.517,2.960000461335622,331.1099467778908
3917.4182,2.960910294430273,336.1400094216259
3918.3215,2.960714035130709,330.1274368763665
3919.223,2.96039661223453,339.8713053914627
3920.1245,2.9606926829633595,336.8921220095056
3921.0286,2.96207702489513,357.404207005659
3921.9307,2.9647578482107098,332.39656534542416
3922.835,2.9686148269566055,339.67332216242204
3923.7373,2.973123496240131,303.8914954718338
3924.642,2.977591407262141,331.94531126005796
3925.5452,2.981330080046732,346.31504248612805
3926.448,2.9838611341045223,322.16030940474576
3927.3535,2.984866070772056,326.8588932884208
3928.257,2.9841294207320046,336.2895438438141
3929.1628,2.981550209918233,325.9384334051481
3930.0667,2.9772233467278046,347.2322398767941
3930.9731,2.9714738597173582,340.861829293396
3931.8774,2.9649247155384386,336.3185433698048
3932.782,2.9581904675420994,344.4087976449126
3933.6887,2.951638692054696,346.9060766588053
3934.5938,2.94532766810902,353.96428076434375
3935.501,2.9390615109064075,342.0650212394795
3936.4062,2.9326809372509697,340.885075928796
