wavl,flux,ivar
3566.9744,5.567196911119937,21.76527832199672
3567.795,5.563865663175644,24.903955831050713
3568.6177,5.55116181707517,25.066027016792713
3569.4385,5.535207673455819,22.96032825988857
3570.2617,5.520978402885702,23.569265703109423
3571.083,5.510263590879957,23.544759382873217
3571.9065,5.501495254596971,23.561456176669694
3572.7283,5.491800702348357,23.126950684713837
3573.55,5.479023135712166,22.425383788316747
3574.374,5.46306150251256,22.65554529456451
3575.1963,5.446001145399,22.10775108287882
3576.0208,5.430795145365041,24.61619842778116
3576.8435,5.419991283753541,24.476118847332213
3577.6682,5.413902727217534,24.94499910347955
3578.4915,5.4100441319077515,23.81253059902635
3579.3145,5.403993109765506,21.32367753642899
3580.14,5.392027679591926,25.350849706718215
3580.9636,5.373992090860004,25.115511183412234
3581.7893,5.353935775009457,26.668229131018023
3582.6133,5.338548075585623,25.311011268899694
3583.4395,5.333351262872137,26.996495741021896
3584.264,5.339955990905453,25.440695311205573
3585.0884,5.355287240192117,20.258149649066596
3585.915,5.373489607349683,23.008231103092363
3586.74,5.388460596413325,28.074555522392362
3587.5671,5.396319298763975,22.300540710242828
3588.3923,5.396025997964303,24.629393519372897
3589.22,5.389028546736173,32.09855663006963
3590.0457,5.378012366616573,23.927210800101573
3590.8716,5.3656338608195036,22.349880254734092
3591.6995,5.353787993040152,24.100081045381575
3592.526,5.343012435286126,27.002439239020063
3593.3542,5.331704493481239,23.489602360125375
3594.181,5.316662397993899,23.64504232841705
3595.0098,5.294802818224037,24.21246905711711
3595.8367,5.266050665588974,26.024049597732386
3596.6638,5.234122125381636,25.91620375594617
3597.4934,5.205365605274664,25.40981907785463
3598.3208,5.186052417675267,25.062397161711765
3599.1506,5.178961040923486,27.50826300688278
3599.9788,5.182498934537404,28.204875203278032
3600.8088,5.19155893523066,27.81959913429535
3601.6372,5.200194121671933,20.88969112417612
3602.4678,5.2043694624735535,28.18035145223539
3603.2964,5.2032931940279274,22.482642538974655
3604.1252,5.19946142298163,23.79672152491717
3604.9565,5.197136285029975,34.91997631163987
3605.786,5.1999111864778245,27.513083471471948
3606.6172,5.208610572081322,27.075214311642107
3607.447,5.221179617227445,22.944860997384666
3608.2788,5.234670151403171,30.567793470085245
3609.109,5.24689705024293,26.48256495187124
3609.9392,5.2568252106546085,23.69804293183053
3610.7717,5.2635118739961015,26.018532108571762
3611.6023,5.2656582494543835,24.95985462914076
3612.435,5.262328593622892,25.726561575024338
3613.266,5.253647572985307,27.199073887565447
3614.0994,5.240738049718346,28.997740683655703
3614.9307,5.2253570846850845,25.838804544461965
3615.7625,5.209170054507073,25.93300917129356
3616.5962,5.19342966225357,26.02043249815143
3617.4282,5.178573513625028,24.699993371201277
3618.2625,5.163547069593311,25.206942509741168
3619.0947,5.146282129570087,28.234582265368044
3619.9292,5.124755961171097,27.383177827200395
3620.762,5.099379569403228,29.245296625077863
3621.595,5.073512483918418,27.117508852112255
3622.4302,5.0520002828548005,30.49597981365114
3623.2634,5.038323539550835,33.37049409114237
3624.0989,5.032482060370814,26.906239706857185
3624.9326,5.031968662810981,27.153579268845746
3625.7686,5.0335944880581245,29.316437357543833
3626.6028,5.034960784848282,30.781435478269927
3627.437,5.034918835048433,24.627282223183062
3628.2734,5.033395956024018,25.758395748268825
3629.1082,5.030563044219501,30.57864703403975
3629.945,5.025435884875484,25.926802023722015
3630.78,5.015598343412546,26.108446621725545
3631.6174,4.998986626001082,24.602852503098955
3632.453,4.976807397814389,31.11926999545739
3633.2883,4.953623552822139,31.1049440315713
3634.1262,4.934579801445339,30.000961205979515
3634.9622,4.9220874836104445,26.29982933614777
3635.8005,4.914353009855302,32.21169524873499
3636.637,4.907235350688949,24.22611430259582
3637.4756,4.8965662108275,26.71023763387948
3638.3123,4.8802435430721,33.97687936171209
3639.1492,4.858766809789213,29.629736801669672
3639.9885,4.834780420334598,32.82080629727226
3640.826,4.811957548128148,33.23236595271876
3641.6653,4.793156848462618,27.310836354421127
3642.5032,4.7802171820007695,32.78980731031651
3643.343,4.773968061718871,32.4013100731852
3644.1812,4.77480202323356,31.24967452995101
3645.0195,4.782091342285914,32.78333383914859
3645.86,4.793347164606158,31.277356936557414
3646.699,4.804120032955256,35.11645335912106
3647.5398,4.809969341731354,34.49694434105736
3648.379,4.808713433174043,27.372990629761283
3649.2202,4.801410245586139,33.82221277409182
3650.0596,4.791133725027622,31.51358168973928
3650.8994,4.780923321305379,29.700813140919557
3651.7412,4.7728389062765135,28.934933036500514
3652.5813,4.767934364722667,34.91103083833239
3653.4236,4.766088304151189,33.04331856000321
3654.2642,4.765869896851817,29.253815356000324
3655.1067,4.764797793983789,32.14197452355689
3655.9475,4.760501452525661,32.51318939268875
3656.7886,4.752003668172532,27.887203117743496
3657.6318,4.7401759045154845,33.28182900555532
3658.4734,4.727027232328508,33.93548316346062
3659.317,4.71388767347973,30.713258246101418
3660.1587,4.700665951723973,35.7845123877004
3661.003,4.686381144381967,32.570687166768714
3661.845,4.671229875776956,32.73407458032636
3662.6875,4.6571867197165595,30.583065929644125
3663.532,4.647085881310205,40.024556238525406
3664.3748,4.6426140737487485,30.09424339524099
3665.2197,4.642972497193668,32.480059544639815
3666.063,4.645353078301251,32.273576117968304
3666.9084,4.646452524950181,31.30519834184155
3667.752,4.644132958589973,35.1407538680966
3668.5977,4.638365687409469,31.69479576728519
3669.4417,4.631122627623741,32.61735273314189
3670.286,4.625256925173616,34.61261185870113
3671.132,4.623118927964555,40.7894212688308
3671.9768,4.625299074112845,34.050459242377904
3672.8235,4.630127131645838,35.035806886789224
3673.6685,4.634291756937176,32.20657484953609
3674.5156,4.634375900362399,33.52479362186219
3675.3608,4.628294122265907,32.47772555169347
3676.2063,4.616044459416701,32.28851163839814
3677.0542,4.599487366072373,36.65788942917543
3677.9,4.581798469136985,32.27638454408914
3678.748,4.566186224451585,34.12971268412093
3679.5945,4.5553424578855495,30.922312216858757
3680.4429,4.55051475739028,33.892047963147306
3681.2896,4.551355923459446,33.245575760979385
3682.1365,4.555848362235972,34.25616925825962
3682.9856,4.5608628140385425,34.87812070739213
3683.8328,4.56311265234459,33.81678129500839
3684.6824,4.560523690007662,32.929454317537356
3685.53,4.553211091637477,35.30016947467757
3686.38,4.54343403683409,34.190173215197575
3687.2278,4.534403784503891,38.00123924737041
3688.0762,4.5281647627778,29.293862244419422
3688.9265,4.524468740340283,33.60287760336905
3689.7751,4.521227812041332,37.14309942787385
3690.626,4.516200698762024,31.16209522077737
3691.475,4.508731452467707,30.074863454955665
3692.3264,4.500041234324494,35.012081561693215
3693.1758,4.492211001346908,42.49765413963774
3694.0254,4.486178466626126,39.568623984575645
3694.8772,4.480707737717006,31.408982435641555
3695.7273,4.473037007895296,35.27405969949746
3696.5793,4.46067084026582,35.58789675025403
3697.43,4.443218725972102,33.11327036573783
3698.2825,4.422643573843094,36.801080980627155
3699.1333,4.402797089185051,36.268238562406246
3699.9841,4.38772466134965,34.757323845858956
3700.8374,4.380187539451763,37.401472759184365
3701.6887,4.380338826482084,38.32951218557374
3702.5425,4.385346881421254,37.595021681824456
3703.3943,4.390617485473231,33.60556299663202
3704.2483,4.391913030797769,37.089384075573356
3705.1003,4.387070552817845,33.7864908408678
3705.9526,4.376663161774429,41.07234334079922
3706.8074,4.363263331675187,35.14488561471378
3707.66,4.349990466144355,39.07164170295986
3708.515,4.338525274695658,36.94148965698256
3709.3682,4.328634293875921,38.72350126265883
3710.2234,4.318825695804595,44.741019360017184
3711.0771,4.308318339260634,34.040815516709166
3711.9307,4.297901698035515,40.570838063521975
3712.7866,4.289252069556644,38.83525662541108
3713.6409,4.283393406973234,35.588651472762166
3714.4973,4.279579922485478,43.00832328683935
3715.3518,4.27579043030076,40.529702453015055
3716.2085,4.269916762284347,42.4693150832569
3717.0635,4.261169712292685,39.29322965539783
3717.9185,4.250519087417661,40.51073730582964
3718.776,4.240052418767339,41.778515827736314
3719.6313,4.231778203554809,41.708829671355645
3720.489,4.226623550291764,33.8755057288401
3721.345,4.224712183156471,44.233740298358434
3722.2031,4.2255947345449165,37.717804674379245
3723.0593,4.22802933101937,42.780463079129916
3723.9158,4.2296325370040515,35.55945842936486
3724.7747,4.227598944681632,31.567362338176828
3725.6316,4.220569008160015,39.655401676748
3726.4905,4.2098637215691435,35.1371754376645
3727.348,4.198828926694948,40.11345355370093
3728.2073,4.190405218287918,43.29394190941446
3729.065,4.185470717243862,43.5441862203941
3729.9229,4.182751090305808,38.15991866236349
3730.783,4.180327425093867,40.95871564566546
3731.6414,4.176972148235228,41.79610112709684
3732.5017,4.172419535987025,40.455021563641445
3733.3604,4.167006567025448,41.75945443483387
3734.2214,4.161217830277266,37.586620189678904
3735.0803,4.155658127701047,44.112412618461256
3735.9417,4.150785985939942,42.4061976156268
3736.8013,4.146873634984123,41.43671932995021
3737.661,4.14408499684114,48.016742550560316
3738.5227,4.1429033318555835,36.5277513399472
3739.3828,4.144078360551769,37.93441354750105
3740.245,4.147796750075062,41.252881271646146
3741.1055,4.152752692227182,36.704858025428685
3741.9683,4.156346905119486,42.22625223620029
3742.829,4.156011925006536,39.85445384168453
3743.69,4.150783334188328,41.46481678990488
3744.5532,4.141484145160388,49.641071053955564
3745.4148,4.129820666961258,49.22172787968178
3746.2786,4.117051838896113,40.78153109733226
3747.1404,4.103866112605563,46.29326071757587
3748.0044,4.090575220535982,43.8877320866476
3748.8667,4.077835544016447,41.006879101431856
3749.729,4.066468765537513,49.740014791577536
3750.5938,4.057167135895736,43.39108230929303
3751.4565,4.0501849882058645,43.68819128125699
3752.3215,4.045241202045049,37.190815308206574
3753.1848,4.0420502366649105,44.1184690454541
3754.0503,4.040381624560409,47.70476213918804
3754.9138,4.039822397942627,45.21335208878383
3755.7776,4.039472669489491,50.05060577351419
3756.6438,4.038164305030332,51.70305957476061
3757.508,4.034998678452507,42.37632136713052
3758.3745,4.029793840161462,41.527342633576964
3759.239,4.02335459038811,43.58182675570919
3760.106,4.01710310410208,45.26301320738829
3760.971,4.0123136679704166,42.96858004018007
3761.8362,4.009023810064947,46.825533660624245
3762.7036,4.005985735945687,42.52140310960011
3763.5693,4.001722903701812,44.3992567932093
3764.437,3.9957115599004434,44.90003113951877
3765.3032,3.9886541370318698,43.1058144610201
3766.1714,3.981536057191472,45.5444833404347
3767.0378,3.9749420057119877,46.4505288406549
3767.9043,3.969021437518406,43.68149500238151
3768.7732,3.963989762162614,47.41858018776062
3769.6401,3.960101084533018,45.495174160826686
3770.5095,3.957002621961687,39.2000440895632
3771.377,3.9537119450630884,45.93405735816284
3772.2466,3.9493358425481246,44.44219126509973
3773.1145,3.943950387683943,45.76437623072972
3773.9824,3.938269543266647,47.39638033597545
3774.8528,3.9325713405280376,50.706726613350185
3775.721,3.9262641923811725,46.19323622234864
3776.5918,3.9186742570559017,41.50665922976995
3777.4604,3.910505776837769,48.72489728989309
3778.3315,3.90378784944514,45.97934822821422
3779.201,3.900633141938329,48.80316905949065
3780.0703,3.901503322608903,45.82654206691562
3780.942,3.904774295976499,48.03792877237387
3781.8118,3.9074503045060123,46.024932645644185
3782.6838,3.9066322528485187,42.04141245115937
3783.554,3.9007936256298925,48.74000389089796
3784.4265,3.8902425293659437,43.28053055077289
3785.297,3.8766870595933725,47.23486238167586
3786.168,3.862006554627031,47.68761571774235
3787.041,3.847729902609234,47.593009744580264
3787.912,3.8353787442090823,45.5467696265547
3788.7856,3.826529428813773,46.762588581147625
3789.6572,3.822495393239808,48.76524355574746
3790.531,3.8230657787480196,46.77396279020296
3791.403,3.826125991968371,47.98045243850952
3792.2754,3.8284296568787335,48.40833592766139
3793.15,3.827061757739957,49.55249207658976
3794.0225,3.820653429122395,49.01033615250929
3794.8972,3.809762420899327,51.2859904986366
3795.7703,3.79658021040529,49.006720363891425
3796.6455,3.7836959006248474,47.818387581221984
3797.519,3.7731110938868024,53.71581924102142
3798.3926,3.7653972363706725,49.267411202851285
3799.2686,3.7599660585720747,50.00263167322465
3800.1426,3.7558030923769437,49.431795012202166
3801.0188,3.752195340896989,47.07661747009558
3801.8933,3.749256622247897,61.47753901695588
3802.77,3.7475210061533937,48.774051155788584
3803.6448,3.747142097273754,55.37459682398736
3804.522,3.747477771648769,51.870033822755865
3805.3972,3.7476902214589245,48.60643794484371
3806.2727,3.7475353840169348,49.19793273947804
3807.1504,3.747263122739956,48.814894133578655
3808.0261,3.7467418085648925,54.67705665316243
3808.9043,3.7449735384345217,46.09769911762531
3809.7805,3.7408055426211066,47.34635091777785
3810.659,3.7341354619900504,54.103982984396225
3811.5356,3.7265084229649132,53.963656714850686
3812.4126,3.7202132080462107,56.914029920151776
3813.2917,3.716856689337336,57.67793923204193
3814.169,3.7164759656430633,49.868301024233595
3815.0483,3.71783244296913,48.202351139742944
3815.926,3.719421553679369,52.12554442234531
3816.806,3.720033400470873,54.07663187165682
3817.684,3.71857449417828,49.179663468203046
3818.5623,3.7139665205085914,49.412547718910005
3819.4429,3.705606963392091,51.78450183165917
3820.3215,3.6940701281369654,50.89658367624586
3821.2024,3.6808056431429894,59.655000096090525
3822.0815,3.66744329305461,55.44957537501797
3822.963,3.6547556076397956,53.98112897268508
3823.8423,3.642746784464665,58.16384479749475
3824.722,3.630809512968189,58.68098948552547
3825.604,3.6182583237221357,55.746806721381304
3826.4841,3.6047588470533607,54.67651556550485
3827.3665,3.5902947965580783,55.40410753853136
3828.2468,3.575325055594518,55.502817175365685
3829.1296,3.5600856837887687,66.41185150345689
3830.0105,3.544468303931668,62.547099884668185
3830.8916,3.5278862411612373,57.340261194508784
3831.7751,3.510182557800504,57.240768122000084
3832.6565,3.492643348555158,57.77843146319541
3833.5403,3.4776876355420416,60.83167655853907
3834.4224,3.4680319505828545,59.97290733398584
3835.3064,3.4648057899118103,60.769154802986
3836.1887,3.466861108837131,54.56806276227614
3837.0713,3.471286051335096,58.165544735476246
3837.956,3.4751244916348307,66.11947670252005
3838.839,3.4770096305831375,56.69898873780855
3839.7244,3.477768615384608,56.479503202109086
3840.6077,3.4794271794911196,60.11626498414024
3841.4932,3.4835913166339063,60.98651407121275
3842.377,3.490418620607686,60.023503462848865
3843.261,3.498973986196765,54.36052293553919
3844.1472,3.5081654612594044,56.251635547304126
3845.0315,3.5172287834146276,60.72063456652586
3845.9182,3.5257875529418063,61.28304736767359
3846.803,3.5334598156049024,55.649067067706824
3847.69,3.540147315375518,58.225903342110776
3848.5752,3.5461635930347604,58.06315987804574
3849.4604,3.552194934086488,59.300241462384655
3850.3481,3.5585998763832696,65.80827419704912
3851.234,3.564841208720668,56.47697449667813
3852.122,3.569855015467281,52.670908580518024
3853.0083,3.5727078893252617,50.90252710347056
3853.8967,3.573198930069015,57.444689615073514
3854.7832,3.571797831384027,56.16046408285638
3855.6702,3.5693975686240553,61.057778435450246
3856.559,3.5668811914333767,59.190167897720904
3857.4463,3.5645559500636796,54.11621650734029
3858.336,3.5617685692292667,55.796458714729816
3859.2234,3.5573851545411688,50.76859599563865
3860.1135,3.5507482080318495,55.96001391810159
3861.0015,3.542538066550029,59.50061205184468
3861.8896,3.5345238365162923,58.471742109731736
3862.7803,3.5287701504632523,58.02595410937172
3863.6687,3.526652036403557,56.424800474014525
3864.5598,3.5279914290013044,55.116681968501034
3865.4487,3.5308661202258267,51.39252299224707
3866.34,3.532155130920358,56.81842954437551
3867.2297,3.528767505457617,55.120629988183246
3868.1213,3.519035055725291,57.719219241408105
3869.0112,3.503452121046759,51.98259815729537
3869.9014,3.483990101276839,65.50877448488744
3870.7937,3.462716449432737,61.021164923935046
3871.684,3.4409053225011323,54.76449608520797
3872.577,3.4187454839648317,63.686195851422355
3873.4678,3.39655040181898,59.316961166342196
3874.361,3.3748066094399802,70.13713739327281
3875.2524,3.354411605887284,62.587729485148586
3876.1438,3.3359238377392755,62.38789414920626
3877.0376,3.319573047996814,95.21295134324572
3877.9297,3.305274341648742,64.88935268840537
3878.8237,3.292145121410243,62.73747157207562
3879.716,3.278710485577788,63.28048598310219
3880.6108,3.263146709320272,68.72767758090824
3881.5037,3.2443243372146813,62.449149004673586
3882.3965,3.222013116735201,64.47733578596045
3883.2917,3.196800207450025,70.70806882858574
3884.185,3.1698720831569402,73.56481594461457
3885.0808,3.1421748403183876,75.47772617530339
3885.9746,3.1147064048847977,81.22821838883414
3886.8706,3.0880167407124346,73.30896875646418
3887.765,3.063169036547329,77.2098611972465
3888.6592,3.0419568734885605,81.97814855706896
3889.556,3.0270550381598174,83.36039950854287
3890.4507,3.020975132327861,89.27701395836007
3891.348,3.024421174098592,70.88080015985813
3892.243,3.035900051131138,82.29926645363092
3893.1406,3.0525136356029474,80.2474374313467
3894.0361,3.0710765932118407,76.3851558654203
3894.932,3.0896083775110155,78.52113063225171
3895.83,3.1077663260424764,75.93946738787696
3896.7263,3.126395220971419,73.8255842985389
3897.625,3.146903714725636,72.52294231339268
3898.5215,3.169964239234822,74.89368138649392
3899.4207,3.1954909212963973,66.23965117029246
3900.3176,3.222102729476111,101.72557720097203
3901.2148,3.2478819338033142,63.90969851689202
3902.1145,3.270870677286591,56.43343988675192
3903.0122,3.289873233887139,64.23678417737379
3903.912,3.3053014311531554,68.69341529607028
3904.8103,3.3183411824751503,64.96464838593184
3905.7107,3.3302603038547716,63.5220312622273
3906.6094,3.3415543540547703,64.4149856328435
3907.508,3.3522151597054926,68.47378252221372
3908.409,3.362121377729375,64.9400767398981
3909.308,3.3713532164832607,59.884916862720516
3910.2097,3.38034137317695,66.80000903184244
3911.1091,3.389306070991189,65.02891694489031
3912.011,3.3980787857675674,64.37091612669289
3912.9111,3.4060662780297575,52.58934096523089
3913.8113,3.412994512748153,72.77157972256997
3914.7136,3.419290661738165,64.44797286249633
3915.6143,3.425826829682655,66.05742213481598
3916.517,3.43327409069454,61.49512186439321
3917.4182,3.441332379813766,60.400779437200285
3918.3215,3.448858665235883,57.02784419952361
3919.223,3.4544125159334738,59.19049152828968
3920.1245,3.4571483863722894,63.668241455309726
3921.0286,3.45700095887585,67.87134078884237
3921.9307,3.4545170770507014,62.423704374376044
3922.835,3.45072352857171,58.136081230903294
3923.7373,3.4472323722233424,64.09574921746584
3924.642,3.4459033334796474,61.83992143319147
3925.5452,3.447985076392784,64.91013590551758
3926.448,3.453203869906001,62.418344162133764
3927.3535,3.4598130652543677,61.68819332403652
3928.257,3.4653660865762754,57.88473200959573
3929.1628,3.4678078573082582,59.53801842510181
3930.0667,3.46590579951952,57.39299929713706
3930.9731,3.459348622453904,55.49293903974703
3931.8774,3.4487389351718165,56.07569026578115
3932.782,3.435367963952994,61.14272120460556
3933.6887,3.4208693534914505,57.95308183857985
3934.5938,3.4067502658384656,71.82286582041002
3935.501,3.3938107737651437,63.25071065700889
3936.4062,3.38253199625575,67.51779326255473
3937.3142,3.3731329127723977,57.94566420380415
3938.22,3.365586347842886,65.68395101783734
3939.128,3.3587484100411844,58.94931478770286
