wavl,flux,ivar
3566.9744,9.156901472875811,12.383669126181603
3567.795,9.12960535949058,13.685162371543864
3568.6177,9.092407007105226,11.462471301948947
3569.4385,9.056923516371603,11.928525454154274
3570.2617,9.031225896541278,13.57030224109343
3571.083,9.016610680461184,10.243045363606374
3571.9065,9.007357353630644,12.408530663403448
3572.7283,8.995834279307612,12.971471997105024
3573.55,8.977978462944543,11.757341694993388
3574.374,8.955568202155243,12.9879532762324
3575.1963,8.934243910616342,13.168136380685423
3576.0208,8.918986249793731,13.504536533898111
3576.8435,8.911368296677795,12.703193506841043
3577.6682,8.908818905297064,13.799453733033928
3578.4915,8.90693421353683,12.960986853605041
3579.3145,8.90239042698232,13.940357956481526
3580.14,8.894215171574853,12.943987620450997
3580.9636,8.883021814374356,10.639268542501938
3581.7893,8.870261325294264,13.707288700056292
3582.6133,8.85955883666846,13.515820821570726
3583.4395,8.85721689427622,18.11916062440157
3584.264,8.869599379507973,12.960059138837396
3585.0884,8.89774077760708,16.298990820045834
3585.915,8.934245423170715,13.761462706365842
3586.74,8.965257816978015,11.150473123390835
3587.5671,8.978124008122132,12.576586887393326
3588.3923,8.967636260555235,13.11104600456366
3589.22,8.93754865298208,13.518951878083822
3590.0457,8.896391682938981,11.921053222497143
3590.8716,8.8513069640943,11.573813157465153
3591.6995,8.805990049007425,13.632823500241027
3592.526,8.762939005131322,13.00404041607183
3593.3542,8.725419581301203,12.08413959340168
3594.181,8.697731957940416,15.571989975980427
3595.0098,8.681318882867163,14.286626870940742
3595.8367,8.672843915109489,12.419041253696362
3596.6638,8.665361942385235,13.596700501357777
3597.4934,8.652891472631326,12.480227174232379
3598.3208,8.63377434209976,13.613740615948457
3599.1506,8.60947765261659,13.515548816813618
3599.9788,8.581213555106167,14.649728708050048
3600.8088,8.547599184332816,15.133475735541259
3601.6372,8.508435751527834,9.843520193075468
3602.4678,8.469707301209862,13.60717317989348
3603.2964,8.44504181426977,17.383070084094165
3604.1252,8.447709400150904,19.9338759521324
3604.9565,8.481535181627526,15.206875651157626
3605.786,8.537332010674993,13.441066460322205
3606.6172,8.599195710785315,13.01260518818185
3607.447,8.651770630626029,11.879563388986863
3608.2788,8.685756311972327,12.121560894412397
3609.109,8.697877358942213,15.707782510327702
3609.9392,8.690663566853672,12.288088481618649
3610.7717,8.670596322647924,12.14130947025374
3611.6023,8.64607747542264,12.92548734995748
3612.435,8.624138475737379,13.411744140284139
3613.266,8.608691794991682,13.754095800311246
3614.0994,8.599666443972168,16.28941862548646
3614.9307,8.594183526172806,15.877090175156916
3615.7625,8.587614206306569,14.230390749530192
3616.5962,8.574777987642223,14.812615934045208
3617.4282,8.55165774633913,13.222062598978138
3618.2625,8.517484820521558,12.43071381113039
3619.0947,8.476735887586724,18.68277911292274
3619.9292,8.437148011801355,13.64398488558556
3620.762,8.406247552551216,18.834829303010377
3621.595,8.38651084754641,14.20204682431204
3622.4302,8.37461097702856,14.340014219016078
3623.2634,8.363886329927082,13.84132564153594
3624.0989,8.348087471923748,17.406503535065514
3624.9326,8.32454028336471,15.82744771645305
3625.7686,8.294583130606092,16.129278685015464
3626.6028,8.262883471174094,12.535951417541057
3627.437,8.234703720412394,16.076641097709075
3628.2734,8.213843964964235,13.70070536199565
3629.1082,8.201864524660854,13.830784158734733
3629.945,8.198278856265159,15.978364864040014
3630.78,8.201267736929578,25.38073681582873
3631.6174,8.207395432540821,13.48115497466841
3632.453,8.212265396663714,14.732571822687454
3633.2883,8.21338827919731,12.34254391832532
3634.1262,8.212684053988136,17.319277168946943
3634.9622,8.214988333194025,16.33970961150852
3635.8005,8.222410372935347,16.798363406824976
3636.637,8.229905973117077,16.94590108535168
3637.4756,8.227602322146316,12.167485494740633
3638.3123,8.208242377846469,17.919818130975155
3639.1492,8.17300257685627,14.723328960089878
3639.9885,8.130574106332784,16.876442295622486
3640.826,8.091781409562635,16.649749516843617
3641.6653,8.062955320870639,20.480892239177777
3642.5032,8.044256923099525,14.766585024307112
3643.343,8.031055450617055,17.71125651577148
3644.1812,8.018802512041761,17.455406408074904
3645.0195,8.00657259955983,19.199222179455106
3645.86,7.99697358256055,15.399236824871739
3646.699,7.992508638397365,17.40334568061819
3647.5398,7.992195206292102,15.992981571052953
3648.379,7.9918794771060435,15.801443954055276
3649.2202,7.986990778795251,16.860591865281812
3650.0596,7.975111377726395,14.674313315595496
3650.8994,7.956555721254642,17.269298520637548
3651.7412,7.93370016459983,12.159846845754927
3652.5813,7.910208680719977,15.893898958017202
3653.4236,7.889532437045768,15.954422675351408
3654.2642,7.873676803363625,16.06445243281888
3655.1067,7.861632953610255,13.774098367976405
3655.9475,7.850601966205433,17.594795237875648
3656.7886,7.838683288200258,14.077247585119288
3657.6318,7.827133873226287,18.694706419318212
3658.4734,7.819762683827765,17.675443178205175
3659.317,7.820029916846066,15.979638875198905
3660.1587,7.828808669094916,18.817659345476
3661.003,7.844136062285432,15.870025275190503
3661.845,7.862826234934963,16.088858513658465
3662.6875,7.883183200888835,17.541132652814483
3663.532,7.905866579744171,16.394583903352046
3664.3748,7.932103392045782,15.697081670745938
3665.2197,7.960886498695904,16.007837217829703
3666.063,7.9866463166744595,16.691561787197028
3666.9084,8.001303427527901,19.113104170777827
3667.752,7.998419809153301,15.740485422153952
3668.5977,7.977651104996587,18.014609644628035
3669.4417,7.945092047612217,18.506749455252084
3670.286,7.908956706700588,16.58636085619077
3671.132,7.874911591305719,15.858122179708198
3671.9768,7.844995338369563,14.630461466078305
3672.8235,7.819456034272717,14.001028420654395
3673.6685,7.79969136190022,15.721462164468228
3674.5156,7.787530676065563,17.755482852472277
3675.3608,7.7831093199259,20.0088315660864
3676.2063,7.782956036426011,15.199043733525992
3677.0542,7.781476475824593,14.22939634947074
3677.9,7.774751448323819,15.898581462181737
3678.748,7.763560230695719,17.712198527107738
3679.5945,7.7527253997307914,16.69314393680333
3680.4429,7.746538967415936,15.53184458047949
3681.2896,7.744612861380384,17.957211252742788
3682.1365,7.741344520017564,17.644991563052933
3682.9856,7.729731654961746,16.051367618487912
3683.8328,7.706355788706013,16.608223065214542
3684.6824,7.6732850697501584,13.850463036125925
3685.53,7.6368315164862,21.366014347842423
3686.38,7.60355154098082,17.4535708945091
3687.2278,7.578838572798571,18.150140153523523
3688.0762,7.5662603062452805,18.310456738620097
3688.9265,7.568058205701213,19.536410961038555
3689.7751,7.583979499809986,18.238873648729445
3690.626,7.610372587833727,17.933228393974368
3691.475,7.6407495829483,15.691970408570745
3692.3264,7.668734445037282,16.147081768454864
3693.1758,7.689871524200384,19.3315710242974
3694.0254,7.702881381877905,16.786442734333157
3694.8772,7.708943502818959,16.059727344951934
3695.7273,7.710656509371196,16.196768080675138
3696.5793,7.710555065903264,15.122559177623579
3697.43,7.709734639290912,19.082741197758473
3698.2825,7.707779495964501,18.321299997318686
3699.1333,7.7038061131595335,19.900497019829945
3699.9841,7.697261652663818,18.330838217805145
3700.8374,7.687634756574396,16.99900880649526
3701.6887,7.673822251688265,18.134530429811893
3702.5425,7.654041765590542,16.2097259416856
3703.3943,7.627398520986642,15.282312547748043
3704.2483,7.5945510790362025,18.19829955905531
3705.1003,7.557911694409482,18.6549558226583
3705.9526,7.520157517236885,18.664587875930053
3706.8074,7.484382989069094,18.576577564174197
3707.66,7.454807871012449,18.68820331902038
3708.515,7.435120837170831,21.2108952642778
3709.3682,7.426539663097261,19.332331371253296
3710.2234,7.425977104027092,18.41585120463015
3711.0771,7.427610798967971,18.887578202494808
3711.9307,7.425489745493218,17.698983736025472
3712.7866,7.415370128424941,16.686585066496736
3713.6409,7.3961147471604525,20.117795750986637
3714.4973,7.37077715772481,15.030963188861131
3715.3518,7.346580016646172,21.14653315488007
3716.2085,7.330901782186394,17.624773412207496
3717.0635,7.326952278234033,18.241307810477082
3717.9185,7.332069849159642,20.10798262797007
3718.776,7.341147347893662,20.8564034939482
3719.6313,7.35078414531324,19.574935545410252
3720.489,7.360568189099042,25.26508360039821
3721.345,7.370593765588406,18.505331262327086
3722.2031,7.379335029648611,17.430773443946894
3723.0593,7.383830695209529,19.470689818066653
3723.9158,7.382048841748319,21.115610867120644
3724.7747,7.3741929602307685,19.020853078508196
3725.6316,7.362131282671156,17.043187516760185
3726.4905,7.347398150043615,17.558764264646513
3727.348,7.330390437684905,20.356110502046068
3728.2073,7.310982845958152,21.68926981734596
3729.065,7.290488142079626,21.217375437282904
3729.9229,7.271814001105939,18.237940822043477
3730.783,7.257879447692426,19.50150484082581
3731.6414,7.249228572788454,21.270328577099097
3732.5017,7.243183427579247,19.76522588750435
3733.3604,7.236182917171687,18.156034937901595
3734.2214,7.226734849670019,17.763524996119326
3735.0803,7.216477676480927,18.569952873618114
3735.9417,7.207591188052455,24.41362707052211
3736.8013,7.199599940201733,20.667650522455254
3737.661,7.188479082608228,20.832039931268344
3738.5227,7.169827737397025,19.09663719682451
3739.3828,7.143464615896697,17.943656026655926
3740.245,7.114548850249229,20.104306191560713
3741.1055,7.0906452138115865,23.383979894626485
3741.9683,7.0757520976613995,18.7128809971614
3742.829,7.067935245253596,19.253252679720703
3743.69,7.0612092802701625,22.646158014133704
3744.5532,7.05071744771617,18.234249009127918
3745.4148,7.036507327030788,23.41653281181572
3746.2786,7.022898689065273,23.149077518281615
3747.1404,7.01467195005959,23.9296939355494
3748.0044,7.012977002216973,23.56701723592831
3748.8667,7.015474153318419,19.04854229525384
3749.729,7.019909425484582,22.3481435646614
3750.5938,7.027180890937024,17.593440342586803
3751.4565,7.04008680189604,21.94714288753821
3752.3215,7.059440726613065,23.065688285358554
3753.1848,7.081282913391525,21.841133925020145
3754.0503,7.098203187532348,21.15480053872421
3754.9138,7.1015563560269745,21.778947600051403
3755.7776,7.083605516358882,14.825173543191523
3756.6438,7.039461323924859,19.396152731147907
3757.508,6.972460078556773,19.552724386090876
3758.3745,6.8979134911566025,18.756898326287207
3759.239,6.841342403175178,19.805992465921488
3760.106,6.8240615873953185,22.259009203547954
3760.971,6.849544820929084,21.12696367780746
3761.8362,6.9009140628095365,20.471021214033037
3762.7036,6.953986063053889,19.144556112545864
3763.5693,6.99152306828292,22.165450364376976
3764.437,7.00877372707711,23.037181242557068
3765.3032,7.008306201367076,17.24857899003163
3766.1714,6.995019191460258,19.462329350713183
3767.0378,6.9743181245634736,19.725551620349457
3767.9043,6.951392590023325,22.401517110263036
3768.7732,6.929774486161382,22.01936429309488
3769.6401,6.910520635047798,20.608067247846556
3770.5095,6.892643624719164,24.75940336830437
3771.377,6.875112182833745,27.192861224107435
3772.2466,6.857247620077798,24.221503308063625
3773.1145,6.839082736737644,23.27707911471122
3773.9824,6.821327830116938,25.380584285660166
3774.8528,6.806000247358157,21.078980414020997
3775.721,6.796446865527526,23.07870061020668
3776.5918,6.795897600007521,21.312912008367377
3777.4604,6.80600982198572,23.162994492453148
3778.3315,6.8258677818441855,20.915593976072113
3779.201,6.851827813332311,19.6344591063308
3780.0703,6.878650127867706,20.000057789415596
3780.942,6.90092151122647,20.049034791624397
3781.8118,6.914639427407794,23.838235436217936
3782.6838,6.918582515569457,19.101422938116823
3783.554,6.9137495846071575,22.376387604548697
3784.4265,6.902157845853131,20.840073349713727
3785.297,6.8858345737926925,18.749618640644695
3786.168,6.866405402304102,20.659308701573927
3787.041,6.8454725359834026,20.258620797170337
3787.912,6.824983132631586,19.548659970414494
3788.7856,6.806575743934842,21.205854710178663
3789.6572,6.791405942591993,19.62613755804998
3790.531,6.779350913507069,21.338560763343875
3791.403,6.769042836404688,21.913286715131765
3792.2754,6.75766773701762,21.585239639547023
3793.15,6.741830513912467,26.868021177664822
3794.0225,6.7196108148708165,22.89834226854743
3794.8972,6.692415282610522,20.39977329233269
3795.7703,6.665798550116707,22.591196440802648
3796.6455,6.646677454363281,26.597894785419328
3797.519,6.639912865755195,22.97780788723637
3798.3926,6.645450506725095,20.98009912807473
3799.2686,6.658968117313381,19.442479095333336
3800.1426,6.6742063663882725,24.65649691206839
3801.0188,6.685868059775376,22.335379774282885
3801.8933,6.690821427237942,23.123919494437672
3802.77,6.68836177225922,20.930972857738734
3803.6448,6.6794262276824705,20.17992587374065
3804.522,6.6657546797909655,16.80423548201996
3805.3972,6.649502829184075,22.397249464764986
3806.2727,6.632525588336029,23.2681262493243
3807.1504,6.615970931887053,18.924644368779845
3808.0261,6.60048293197757,24.25789397247725
3808.9043,6.586848733299836,26.09279837475325
3809.7805,6.577078695411295,20.935419633551835
3810.659,6.573666925314267,26.497177537920116
3811.5356,6.578209487782344,24.736380140030644
3812.4126,6.5899608256364015,23.078895708930087
3813.2917,6.605642268783972,27.757694776642353
3814.169,6.620228372964024,27.635125513345454
3815.0483,6.6291971624523125,22.654953029304345
3815.926,6.630499067717377,21.10262677193734
3816.806,6.625451302533781,24.951421072608014
3817.684,6.617108760966223,22.06604356069218
3818.5623,6.6076084162648145,23.369502491588364
3819.4429,6.596937587462227,20.69362307538306
3820.3215,6.583998845612012,25.17068708570975
3821.2024,6.568106881023341,19.674320457833176
3822.0815,6.549845403725214,21.59173450428216
3822.963,6.530065185732319,23.570170769180695
3823.8423,6.509370838866277,24.98351506983311
3824.722,6.4878287768041805,22.420744105544212
3825.604,6.4655688600213725,28.044830474647423
3826.4841,6.442934983962142,22.487232276145285
3827.3665,6.419699115906911,23.40487671228807
3828.2468,6.395752841280086,24.4260418908631
3829.1296,6.3716576059000065,24.015712962338757
3830.0105,6.3493277578331035,23.90307852389979
3830.8916,6.330097533830468,25.795218578121162
3831.7751,6.313241026332257,25.933863463016735
3832.6565,6.296595131244417,28.81380583071308
3833.5403,6.278757693230613,26.38718642232627
3834.4224,6.261003079709364,29.335511920068164
3835.3064,6.245576649239514,28.15496193847284
3836.1887,6.233104435283588,28.32866818904723
3837.0713,6.221325482738294,24.21622214293041
3837.956,6.207612457713357,26.25086718393786
3838.839,6.192910625817266,29.758716025332223
3839.7244,6.18280562144211,30.603292018040715
3840.6077,6.184459963528644,30.656806988716603
3841.4932,6.201258792231455,25.83993896402454
3842.377,6.230257275859418,27.0120584666798
3843.261,6.264643354300613,24.295030401818835
3844.1472,6.2982268023405785,28.06170185336309
3845.0315,6.327980789510756,23.718052730643034
3845.9182,6.354144808430762,21.45016602504015
3846.803,6.37753340946055,21.37307662965326
3847.69,6.398514363963899,26.839923252560162
3848.5752,6.416404396346139,24.674626749007814
3849.4604,6.430508664405523,20.652437718616493
3850.3481,6.4406682423118635,26.13742322423963
3851.234,6.447382830532536,24.190004750365013
3852.122,6.451547053775674,23.1851857597203
3853.0083,6.453594566754559,29.515950817471726
3853.8967,6.45312246121662,20.54753143048716
3854.7832,6.449102648691105,27.696521453996652
3855.6702,6.440836162917913,24.202693768266187
3856.559,6.4289529991070635,22.34167273615892
3857.4463,6.415800383222433,23.970119209035932
3858.336,6.404455910112433,26.163489552867503
3859.2234,6.397418484396016,26.090928384913465
3860.1135,6.395081788806576,25.304250292143585
3861.0015,6.395642855768615,23.438221089763257
3861.8896,6.39601466448583,26.27214618704502
3862.7803,6.393247696176402,24.878279449839987
3863.6687,6.3854983620200665,25.488216459805535
3864.5598,6.372267948296787,25.835259329805595
3865.4487,6.354612536681923,27.360206440573542
3866.34,6.33464238869528,26.023272738989377
3867.2297,6.314987511017654,24.20885765100674
3868.1213,6.297005133721301,27.14037996255268
3869.0112,6.280113647982681,23.828585647964907
3869.9014,6.26212017748995,24.091611892616726
3870.7937,6.241112185431689,28.1126598446441
3871.684,6.216886352343422,26.71699789610617
3872.577,6.190300937780237,25.699189513330463
3873.4678,6.162716035935941,26.960832796093968
3874.361,6.135020047971087,23.20959322782389
3875.2524,6.108218678089246,27.117991900927887
3876.1438,6.082645004175064,30.486680158779617
3877.0376,6.057511944507093,25.62748844275965
3877.9297,6.031236603423207,28.782829741775085
3878.8237,6.002192879831079,30.33824575766996
3879.716,5.970027202752926,27.996517209027726
3880.6108,5.934509944449259,30.697024953863604
3881.5037,5.89474675590777,28.193853469565255
3882.3965,5.848441929355177,32.09411738498734
3883.2917,5.793891223962342,31.58601068777467
3884.185,5.732898643873859,29.255923327850237
3885.0808,5.670416263471877,37.45387610843841
3885.9746,5.613498131214806,32.625158888634914
3886.8706,5.566744464126621,34.09282145426981
3887.765,5.531492845358443,33.30187452035341
3888.6592,5.506148651125063,32.619038240318055
3889.556,5.4891431976828065,33.81123197056294
3890.4507,5.480551755158812,31.22893193054695
3891.348,5.4813761665635905,41.95669478685732
3892.243,5.4923253826230125,33.53217558960861
3893.1406,5.513303249695066,30.685890626469142
3894.0361,5.543775824642264,29.186036555327682
3894.932,5.583477646768127,36.490906797696155
3895.83,5.631343326525642,29.91986107461275
3896.7263,5.683706539036289,31.86486193667131
3897.625,5.735516533453365,31.268800665327635
3898.5215,5.781837346841413,29.680547644301008
3899.4207,5.821326962110711,29.156470150946948
3900.3176,5.85555499183049,24.38329202256179
3901.2148,5.887909085614907,26.610139267217573
3902.1145,5.920995107526118,27.30370046281193
3903.0122,5.955599284038539,29.1469457303925
3903.912,5.992045081330282,29.993811120748106
3904.8103,6.030624084341383,30.43215639545607
3905.7107,6.072144638037845,29.439294653879003
3906.6094,6.116013148047625,25.79172495360091
3907.508,6.159899952721524,24.307679622146615
3908.409,6.200183666632984,25.80530215384508
3909.308,6.233760524267656,23.52019342073766
3910.2097,6.260455469739802,24.4796746720273
3911.1091,6.282256477808817,24.032465792058655
3912.011,6.301830843604744,24.858471658933723
3912.9111,6.320012408337153,23.658339247968847
3913.8113,6.335788978625428,23.4775646335522
3914.7136,6.347370257691036,25.92345498241263
3915.6143,6.353574977676708,24.04027135832561
3916.517,6.3547911809815725,24.062132728004578
3917.4182,6.352870525988532,26.135685921903992
3918.3215,6.350243639436456,25.908918468159463
3919.223,6.348303865777664,27.52304806491198
3920.1245,6.346369207422004,22.176827793405298
3921.0286,6.3427367251163,26.626363011311
3921.9307,6.337250919596103,27.798758555335105
3922.835,6.33276792259728,26.170970748719572
3923.7373,6.333854488695874,25.830308732063752
3924.642,6.343395527997969,24.436284456722124
3925.5452,6.360019593212684,27.214049616574638
3926.448,6.378557134472242,24.376119474084383
3927.3535,6.3928635456608,23.424988247249214
3928.257,6.398782308921597,27.71820541701944
3929.1628,6.3957493046512255,23.028389377014154
3930.0667,6.385688579790522,24.043172405361727
3930.9731,6.370655241248945,27.970640116453808
3931.8774,6.351370506138003,24.77227584056929
3932.782,6.327429214541907,23.36201192730377
3933.6887,6.299390970108038,27.621005071626925
3934.5938,6.270310236342903,33.481904815377824
3935.501,6.244428377165587,27.282959534744464
3936.4062,6.225380737488806,28.04890545903131
3937.3142,6.214080213249702,28.14486291423607
3938.22,6.20880553604027,25.361043839480352
3939.128,6.205606508120421,25.50738184053148
