wavl,flux,ivar
3566.9744,0.1813999497916144,5213.2614008477285
3567.795,0.17672449768749793,9399.735539189047
3568.6177,0.1725824300775005,9250.211503736964
3569.4385,0.1696067389904882,7589.801732789654
3570.2617,0.16813162177836966,4231.816591686408
3571.083,0.16800291311607063,5386.173963610583
3571.9065,0.1685865517386999,9408.818452524723
3572.7283,0.16915266360215447,3743.3435957247843
3573.55,0.16935925662656906,5021.7700686286325
3574.374,0.16948570058067478,8260.686786964876
3575.1963,0.17023021208584063,4043.461699723422
3576.0208,0.17220821967878325,5412.045996913771
3576.8435,0.17549608726982793,6610.010805422756
3577.6682,0.17958660227455334,8527.702476805614
3578.4915,0.18359055372506242,4720.249335019422
3579.3145,0.18666409031348039,3874.2571334541994
3580.14,0.1882564703091267,4420.9237154206485
3580.9636,0.18814423001026537,5531.263881129385
3581.7893,0.18630436951276694,9694.119786389536
3582.6133,0.18280428317115108,6746.432675736644
3583.4395,0.1779319318193677,8071.765171397683
3584.264,0.17257465133183159,7181.594039478311
3585.0884,0.16817591618301655,7597.529877822519
3585.915,0.1662648188258546,6961.89757214036
3586.74,0.16769609379336622,5694.228165139891
3587.5671,0.1721485804591468,9232.980258372389
3588.3923,0.17821978656879242,5478.49304717313
3589.22,0.18415388493626247,4772.119591181617
3590.0457,0.18855051376148227,3122.7002783129856
3590.8716,0.19101889833837657,3933.873454259807
3591.6995,0.1921191815623637,4483.564394301831
3592.526,0.19291774952913054,5780.866061807562
3593.3542,0.194357218273781,6643.043284950859
3594.181,0.1966950013647213,3836.4653943191247
3595.0098,0.1993570951574142,3463.3969389794797
3595.8367,0.20120900848711154,3476.277622017865
3596.6638,0.2012108021455062,8500.148873007827
3597.4934,0.19889113212066503,2807.2252652402003
3598.3208,0.19455169271831624,5784.616060595086
3599.1506,0.18905654638576688,11648.943735088436
3599.9788,0.18359910774855456,4321.824807608893
3600.8088,0.17922341331525202,4832.343619780425
3601.6372,0.1765514727561839,7735.881746560965
3602.4678,0.17555205697805967,7395.906170898463
3603.2964,0.17577156726846183,4754.197583316628
3604.1252,0.17671368982075078,3276.272822449184
3604.9565,0.17813423608905676,5188.69845518821
3605.786,0.17996396336551954,5244.189388740257
3606.6172,0.18209511326220937,2879.1286470421405
3607.447,0.18422867873722903,4200.92256889789
3608.2788,0.18600795761490924,2314.5660728399134
3609.109,0.18714106866995373,5562.198642415643
3609.9392,0.18746908764798415,3454.2536885351647
3610.7717,0.1869113801518114,3689.62996337117
3611.6023,0.18552375340183985,3619.1066712144016
3612.435,0.18365208509285672,3974.2499766278993
3613.266,0.18205797390518302,3848.1588771684137
3614.0994,0.18165437982557053,8366.799606333745
3614.9307,0.18293213476009787,5149.773389624016
3615.7625,0.18543815028975874,8043.338982263424
3616.5962,0.18791288307886642,3481.22011789666
3617.4282,0.18908461743983307,4423.534109094405
3618.2625,0.18859943223414208,5495.025294303978
3619.0947,0.18725400718838797,8148.984081735894
3619.9292,0.1864127270871449,8583.158552639776
3620.762,0.18707535377413614,5004.251568311727
3621.595,0.18922553605085327,5123.430689110989
3622.4302,0.19188551235289536,5421.0932433227135
3623.2634,0.19369693011685035,2379.02435334683
3624.0989,0.1937557512419632,5512.056090213761
3624.9326,0.192099061532478,3224.8559830123254
3625.7686,0.1896197346448502,4785.144522351053
3626.6028,0.1874291299902105,4014.1043118117545
3627.437,0.1860506958463109,3456.558258437214
3628.2734,0.18511633522337229,3331.8160525154194
3629.1082,0.18369392520972508,5367.814816534136
3629.945,0.1809523868901895,4937.291238941421
3630.78,0.17674719851010023,11938.304810371556
3631.6174,0.17163285843206058,7157.444457506378
3632.453,0.16655248417630952,6707.299062927187
3633.2883,0.16221880904164118,3838.5553999609765
3634.1262,0.15888496178754052,5058.591631608695
3634.9622,0.15651020411881644,7164.742694813242
3635.8005,0.15502244907290275,6485.640367878357
3636.637,0.15449368845056236,4533.468310271386
3637.4756,0.15495675592166733,5049.2194322435535
3638.3123,0.1562430466998296,7506.344936284221
3639.1492,0.15798743139744215,6361.571228347208
3639.9885,0.1597233365568422,5529.963981678043
3640.826,0.16094066411232466,8139.992245693016
3641.6653,0.16123183280490017,4587.91474424001
3642.5032,0.1604543495277284,8090.647115606377
3643.343,0.15880758747081364,9255.668554380072
3644.1812,0.15667494871387558,9109.655115164634
3645.0195,0.15437413662819718,3897.07854175363
3645.86,0.1521481759829952,7748.423057602349
3646.699,0.15034492548209075,5270.011147673688
3647.5398,0.14945339521422427,6187.188059145649
3648.379,0.14996939060112685,7299.1819177498655
3649.2202,0.1521218267080791,5344.41672042333
3650.0596,0.1556654946738628,4762.911237287816
3650.8994,0.15984966867664355,4995.048170531789
3651.7412,0.16349463977021467,5137.370104593127
3652.5813,0.16528873572752098,5061.187697316363
3653.4236,0.16437650798307996,8013.860255274487
3654.2642,0.16085118613237454,6840.447733145255
3655.1067,0.15582700150192869,7619.589515811083
3655.9475,0.15097656313489005,5291.520540717391
3656.7886,0.14765305681724636,5328.391078751713
3657.6318,0.14637831011008728,8239.395413928518
3658.4734,0.1468463141087163,9535.340588838048
3659.317,0.14835812284197378,8848.11158145857
3660.1587,0.1503012808648129,6697.573540381698
3661.003,0.15235814808099102,5848.462071536302
3661.845,0.15433875426470534,6464.455103188096
3662.6875,0.15599243591137743,5530.1925290367
3663.532,0.15691249422236142,6468.15102195101
3664.3748,0.1566767738898916,6171.551373250502
3665.2197,0.15505970432670046,3395.4015533422653
3666.063,0.15218495998126064,6963.635266944317
3666.9084,0.14857606928642833,5037.522965051979
3667.752,0.14518312266064207,9124.891344898857
3668.5977,0.14305965840149804,5894.897911306893
3669.4417,0.14293527366111228,11309.022896671497
3670.286,0.14482013688600395,9400.505615990174
3671.132,0.14813216717992891,14207.01573120051
3671.9768,0.15208189164913088,5902.885683251276
3672.8235,0.15605380672830085,5582.2158526023095
3673.6685,0.15959383882733424,9234.156461554
3674.5156,0.16238704601695278,8078.188453586166
3675.3608,0.16415247764555127,6429.652521912017
3676.2063,0.16470240235781194,6017.8438972063195
3677.0542,0.16394953861127937,6471.185010334656
3677.9,0.1620192861960956,7120.331158018679
3678.748,0.15928678800681711,6454.343024359434
3679.5945,0.15627217404214044,6638.749375252222
3680.4429,0.15328964032614598,9053.851845745192
3681.2896,0.15035811098282045,9366.8690944883
3682.1365,0.1474316597902948,6587.7761518812495
3682.9856,0.14487472550069205,7296.005136584499
3683.8328,0.14355570204048868,15489.5408960506
3684.6824,0.1442639582863734,9150.947560401646
3685.53,0.14696824015505836,10080.864486297498
3686.38,0.15055948035788894,8330.020213399284
3687.2278,0.1533259667705003,7816.137703558835
3688.0762,0.1539327285541612,4955.490590337748
3688.9265,0.15205443558241838,11135.727276627076
3689.7751,0.1484534752159198,8365.225904235327
3690.626,0.14443692972081126,9843.727261171267
3691.475,0.14125224653813695,7449.834570746127
3692.3264,0.13958413359804067,10170.869521118975
3693.1758,0.1395057149399304,4038.991942179864
3694.0254,0.14060652692620504,9502.61649254676
3694.8772,0.14232464354796107,5760.634199717007
3695.7273,0.1442604500428617,6588.411296606181
3696.5793,0.1463771398825694,5281.2032480247235
3697.43,0.1487986776336844,9189.308087679376
3698.2825,0.15146193405712663,7592.65057674667
3699.1333,0.15389756794604798,5748.1947899499655
3699.9841,0.15553406981192702,7496.914232043379
3700.8374,0.15612173405646418,4243.371812813135
3701.6887,0.15589186418496212,5571.117327289153
3702.5425,0.1552996299264379,7645.432598894894
3703.3943,0.15464547850290758,4367.794499927169
3704.2483,0.15392734931547128,7058.25919405792
3705.1003,0.1530050499551359,6326.154038063312
3705.9526,0.15184176508473127,5784.542149193199
3706.8074,0.15065840122997037,6409.921977214782
3707.66,0.1498769924562753,8460.765508970264
3708.515,0.14983267834290503,7940.065832523418
3709.3682,0.15051357559234285,7881.073122117324
3710.2234,0.15154298054565055,6016.956281477962
3711.0771,0.1524739379648744,5299.401601734811
3711.9307,0.15315477743738803,9655.785408843585
3712.7866,0.15379947194696247,7120.552190304599
3713.6409,0.15473952924705997,5913.639609566107
3714.4973,0.15613241545460188,8812.536241351538
3715.3518,0.15781766664422545,6627.008425333619
3716.2085,0.15941733764195787,6631.968392642652
3717.0635,0.1604776922752574,4973.802028699958
3717.9185,0.1606793300064419,5755.423508316612
3718.776,0.1599474643392687,4401.518897029884
3719.6313,0.15846834812548963,9247.260859796059
3720.489,0.15655814542649105,6393.321382870764
3721.345,0.15456543210809734,8241.80997759517
3722.2031,0.15278287443129474,6454.446930044273
3723.0593,0.15143497126457606,6416.062393619304
3723.9158,0.1505732904759613,6102.790383668616
3724.7747,0.1500827313561268,9753.749735969726
3725.6316,0.1498188932021844,7046.713763550148
3726.4905,0.14978625895852946,7632.339325399099
3727.348,0.15016459177826316,11316.200088984904
3728.2073,0.15111296986459352,7680.159605687694
3729.065,0.1525301259633431,6280.920099398
3729.9229,0.154018300328709,8076.316894031898
3730.783,0.15506189105743606,6305.778838989887
3731.6414,0.15530163448271075,6049.069608239596
3732.5017,0.15472618768983293,10371.034029516475
3733.3604,0.1536325075826151,7698.728115397353
3734.2214,0.1524293936875333,5809.585528564255
3735.0803,0.15145836836302656,5448.147052163841
3735.9417,0.1508614153046383,9110.775513272521
3736.8013,0.1506105069883164,7795.197538403051
3737.661,0.15062400314629834,6512.031631100008
3738.5227,0.15092199070244883,7684.410081778484
3739.3828,0.1516188242926238,7127.289241344989
3740.245,0.15276298940260244,7856.324603211932
3741.1055,0.15420289029839934,5404.247925569683
3741.9683,0.15567548177289242,6383.812869914675
3742.829,0.15690493074602077,4738.8273979829555
3743.69,0.15764460698780636,8074.840662833786
3744.5532,0.15762235338160768,7528.801061625936
3745.4148,0.15659317146381252,5788.050025009574
3746.2786,0.15448326260823605,5066.81044465599
3747.1404,0.1515772535254091,6855.972640889642
3748.0044,0.148568932214961,6434.923110901561
3748.8667,0.14648081980563854,9489.479492679126
3749.729,0.14620861303586502,7936.749191405115
3750.5938,0.14807584590352219,7120.043071351491
3751.4565,0.15161438666491156,7910.067232830151
3752.3215,0.15585348283292944,4931.3213225656355
3753.1848,0.15972395453299806,6471.183198240584
3754.0503,0.16247937027757522,9558.387949824915
3754.9138,0.1637862785323858,9131.49184704732
3755.7776,0.16378521774412128,7150.882585659703
3756.6438,0.16293097545640498,6270.874312980383
3757.508,0.16173878454144244,9049.16578813854
3758.3745,0.160505957799039,7848.053611050329
3759.239,0.15929486091387515,7075.320522943996
3760.106,0.15807509926434057,5663.782687411611
3760.971,0.1568828058213116,8310.321760400624
3761.8362,0.1557757555123443,6176.592279138489
3762.7036,0.15476452267022345,5652.440775507127
3763.5693,0.15382704188086233,5306.436326704109
3764.437,0.15298155942759736,7590.315683780287
3765.3032,0.15234126578766846,5781.514823037063
3766.1714,0.15202232403192886,9217.29907787149
3767.0378,0.1520328259023444,4269.219394675818
3767.9043,0.1522330103517682,5846.874180049946
3768.7732,0.15243735937638964,7177.946050049556
3769.6401,0.15258099869240138,5913.735611778746
3770.5095,0.15283074012255346,7481.382763958554
3771.377,0.15349005836978497,6925.27011499291
3772.2466,0.1547248653068227,8466.117058257463
3773.1145,0.15629860167068288,13570.166473895704
3773.9824,0.15764119082741238,4426.869553153283
3774.8528,0.1582290964157417,4758.939155548523
3775.721,0.15800136218769673,6474.055622965402
3776.5918,0.15742630941873503,8983.544867932782
3777.4604,0.15712769666240906,8203.538806050503
3778.3315,0.1574330758450643,6731.043308309339
3779.201,0.15826689332780938,6723.925364935489
3780.0703,0.15936272297985232,4102.708863043478
3780.942,0.16043931231376943,3926.7208356691817
3781.8118,0.16115438043770214,6060.474709478734
3782.6838,0.16110511142145362,8107.339032067461
3783.554,0.16005853155025615,10249.462037800782
3784.4265,0.1582643223506261,6546.717245699891
3785.297,0.15646405334481026,7133.991820152201
3786.168,0.1554040015400229,7503.100537266557
3787.041,0.15529607719368052,7654.457317871306
3787.912,0.15564539498553373,7306.483496865792
3788.7856,0.15563830673323142,8495.893294433665
3789.6572,0.15477216946021694,6839.883647901792
3790.531,0.15322390715329792,6614.841761492752
3791.403,0.1517128322063203,5918.943091261832
3792.2754,0.15093825611571815,6366.9706631305025
3793.15,0.15107496474088597,6151.184643857791
3794.0225,0.15167407633260052,4341.428541396581
3794.8972,0.15207454288001543,8403.705724640893
3795.7703,0.1519427766375943,10078.432043948254
3796.6455,0.151488032143229,6635.715125633946
3797.519,0.15121812148044236,4749.094154795507
3798.3926,0.15150130978227488,6443.839547997332
3799.2686,0.15230168233121427,6632.729806898326
3800.1426,0.15324198676937198,8219.471951128999
3801.0188,0.15398613748607154,5940.901186153373
3801.8933,0.15456287997938153,7269.750703202179
3802.77,0.1552843131367045,6841.7394063388065
3803.6448,0.15621945870542375,6835.975400953012
3804.522,0.15686886642299613,3725.5600762783315
3805.3972,0.15650453647159338,8519.624841449422
3806.2727,0.15494037451630588,2921.662284341759
3807.1504,0.15283874799504082,8354.927743417938
3808.0261,0.15123857646902586,10078.545365234613
3808.9043,0.15073360115616039,10652.572688093733
3809.7805,0.15119569092019153,8684.620181187847
3810.659,0.1521175249376397,6633.223054951162
3811.5356,0.15312816281656555,8060.365889674384
3812.4126,0.15419477241059512,8191.76142813718
3813.2917,0.15545550756897988,7742.9926397142335
3814.169,0.156980364191344,6411.762990899643
3815.0483,0.15870341799409615,7778.518776804296
3815.926,0.16042358314176136,5664.091487163982
3816.806,0.16187455294869335,7307.686156709406
3817.684,0.16273872003972092,4184.755174609817
3818.5623,0.162781471198356,6081.460393724034
3819.4429,0.16199731205106957,5290.771581982875
3820.3215,0.16067980732645845,5554.545104214635
3821.2024,0.1592421951778164,7873.851433953638
3822.0815,0.15797489118602978,5490.478457418172
3822.963,0.1569203238395317,8925.35376826902
3823.8423,0.15603505450910715,12958.315017248198
3824.722,0.1553605768647474,8302.49506812369
3825.604,0.1550530251196207,5939.890768080695
3826.4841,0.15524252271789096,6166.023118184522
3827.3665,0.155916229916351,5537.393667342674
3828.2468,0.1569343704312934,6722.678668033972
3829.1296,0.15809587311736567,9787.322318730676
3830.0105,0.1590769471473578,8694.331894903144
3830.8916,0.1593785607665687,8957.089181786374
3831.7751,0.15842294264052395,6174.086725110244
3832.6565,0.1559132093966116,5769.95366637535
3833.5403,0.1521160523196753,8836.381805684994
3834.4224,0.14788535081426438,6399.3874630879955
3835.3064,0.144243495385446,5485.21965253956
3836.1887,0.14201264688998516,8299.180534107272
3837.0713,0.14150388971287622,10714.964283378586
3837.956,0.14254693499007365,8614.654769496052
3838.839,0.1446722033471352,7482.268016148944
3839.7244,0.14742430489460803,6728.174548541812
3840.6077,0.1504980637370915,7789.749376528611
3841.4932,0.15368468303211236,6387.4022610847005
3842.377,0.15657130678542946,10273.770185214471
3843.261,0.15854862404593828,5506.44226088848
3844.1472,0.15911163698410896,6900.979984085689
3845.0315,0.1582905728733337,8364.734166008426
3845.9182,0.15672826942578416,4636.6668637229795
3846.803,0.1553170436372888,8053.464694996939
3847.69,0.15469466725599676,6434.532430405978
3848.5752,0.15502619233195525,8512.70036047301
3849.4604,0.15605269475784256,4606.533402259222
3850.3481,0.15731803276491563,5383.728939099818
3851.234,0.1583847608406186,5227.933997729286
3852.122,0.15901762647149464,7724.02999385215
3853.0083,0.1592018220572652,5313.022018236822
3853.8967,0.15908898246668063,4359.7081098491635
3854.7832,0.1588985939597208,6691.289060333107
3855.6702,0.1588261424435685,4986.421803418116
3856.559,0.15894367487288488,6495.161996393277
3857.4463,0.15915407482723654,5786.544367034191
3858.336,0.159311404777089,5561.175601290556
3859.2234,0.15943952019768992,6102.282554557141
3860.1135,0.15981194625022915,7763.356942719333
3861.0015,0.1607336892032473,5405.754127035527
3861.8896,0.16223525977710976,6536.3127165149435
3862.7803,0.16398843214140327,4827.047957992814
3863.6687,0.1655033243762,5889.8576942184645
3864.5598,0.16643906659653693,7714.906252862882
3865.4487,0.16667769299719104,7334.622746475741
3866.34,0.16627604706474503,6200.194356636634
3867.2297,0.16538065516220088,7614.372666594272
3868.1213,0.16419741119701517,5487.782075028438
3869.0112,0.1629715086718923,6692.233908914144
3869.9014,0.16190227719224065,4481.482802088581
3870.7937,0.1610992490523554,4837.594541244362
3871.684,0.160589405742737,7558.145620644601
3872.577,0.1603292954062536,5367.473299949621
3873.4678,0.16020959000076754,5428.349288908225
3874.361,0.16002064661058182,6312.891724251125
3875.2524,0.15947557752262728,7319.180357089433
3876.1438,0.1583335294021902,6436.5897249258705
3877.0376,0.15658138143926958,7831.407732124209
3877.9297,0.15454463264113885,5352.0217337727645
3878.8237,0.15273857853463038,7720.097926266236
3879.716,0.15161742578078427,7034.514771924733
3880.6108,0.15128504944698729,6956.186714208601
3881.5037,0.15142978937657847,6718.711091790262
3882.3965,0.15147908082711808,6540.754090633638
3883.2917,0.15092726731326894,5391.316824662903
3884.185,0.1496051762679589,8861.911175469877
3885.0808,0.1476679859335141,10140.151305789837
3885.9746,0.14537615013023816,13331.464525118634
3886.8706,0.14282545975525107,6449.573114480911
3887.765,0.14001043395057552,8493.199229310185
3888.6592,0.13704084581537754,7920.935553285116
3889.556,0.13433614319363435,10209.9885094113
3890.4507,0.13249948175257756,9935.179788713465
3891.348,0.13189039760277996,15457.511459469291
3892.243,0.13241074811642292,8441.09737829318
3893.1406,0.13363567998817275,7146.59135718908
3894.0361,0.13517960936855983,8469.383520839143
3894.932,0.13692253014930936,10215.657433237899
3895.83,0.13886440926175164,9422.122038611455
3896.7263,0.14087496911372543,9134.286552507609
3897.625,0.1427626016769495,10331.262058954038
3898.5215,0.14452051905464042,5701.404337311524
3899.4207,0.14648782628069296,9934.199313175783
3900.3176,0.1490264710080487,11737.021365817356
3901.2148,0.15216625807586603,7646.199516112019
3902.1145,0.15555208728671016,7837.351494779596
3903.0122,0.1587523424204216,8104.87566391079
3903.912,0.16161309956061817,5983.610963004148
3904.8103,0.1641456288554099,9871.205039892593
3905.7107,0.16632895015166782,4830.121727372735
3906.6094,0.1679888857800404,5914.904252760246
3907.508,0.16900731500696695,5551.673663381397
3908.409,0.16946979070469284,8892.428957733662
3909.308,0.16960796164706754,5806.581228833877
3910.2097,0.1696045592488772,4341.95993808688
3911.1091,0.1694702678493633,5678.609500264138
3912.011,0.1691058781841883,7058.059730380192
3912.9111,0.16848732629478305,6339.826780916567
3913.8113,0.16782729312463776,5398.077259620986
3914.7136,0.16756020007382347,4024.1205760502617
3915.6143,0.16806434147362617,5975.955555542559
3916.517,0.16931129401335385,5668.301136976028
3917.4182,0.17079790949360932,7485.278265990885
3918.3215,0.17190317940763117,6047.324759561283
3919.223,0.17231121279718672,4251.307585514859
3920.1245,0.1722110561830782,5733.1173453397705
3921.0286,0.17211902321708283,7375.975005944762
3921.9307,0.172520444200787,5973.755324185398
3922.835,0.173527449220739,4275.916228448237
3923.7373,0.17475502661825698,5994.0268183707885
3924.642,0.17554423340109196,4348.661739426464
3925.5452,0.17534105231941585,5338.094728929781
3926.448,0.17400536909016423,5536.8507370781335
3927.3535,0.17181318540303236,7380.358106138918
3928.257,0.169327589872579,5297.095558716891
3929.1628,0.16720035295392757,6187.034828237795
