wavl,flux,ivar
3566.9744,1.5092366436027407,268.2633257324708
3567.795,1.5100190182468292,225.14351308045357
3568.6177,1.5089970169799383,209.46520339009302
3569.4385,1.5057510792054019,246.66808234451244
3570.2617,1.501177833371954,219.80536601565896
3571.083,1.4969929515722038,204.28944420816254
3571.9065,1.494407697117698,249.4893072967929
3572.7283,1.4933568220345328,227.89395596661672
3573.55,1.492693921271308,260.90978900126385
3574.374,1.4912168581797332,226.0434085317163
3575.1963,1.4885487966080426,283.45681959535443
3576.0208,1.4852633195566132,225.4759418010847
3576.8435,1.482441947531722,292.29363004338626
3577.6682,1.4809878142182513,254.07444757978567
3578.4915,1.4812917776309174,279.4308089066758
3579.3145,1.483184917394297,213.39338487387852
3580.14,1.4861718916236937,263.76271947142453
3580.9636,1.4896452024216533,251.43079274808963
3581.7893,1.4931472157190455,228.25703154872048
3582.6133,1.4964127634300117,271.36013291324036
3583.4395,1.4993375670231934,285.7323088434393
3584.264,1.501688044811074,207.99619697149046
3585.0884,1.5030518451300514,226.5185059551053
3585.915,1.5029999051858556,239.14497554920112
3586.74,1.5013877699256317,247.91066594529056
3587.5671,1.4985015125992536,248.73664828621713
3588.3923,1.4951024487724998,241.23612499920193
3589.22,1.4922960349820928,248.49832610371544
3590.0457,1.4912870445894932,280.6591345822073
3590.8716,1.4927595090482475,227.75747814767172
3591.6995,1.496414307744226,259.4923560136129
3592.526,1.5008938549875774,255.98371160410238
3593.3542,1.5043863378148834,236.9995273329388
3594.181,1.5053924690265779,275.2983940469893
3595.0098,1.5034040226616365,311.06668002979364
3595.8367,1.4990204020768825,253.69056145385963
3596.6638,1.4935508520621048,262.63361368579666
3597.4934,1.4884535364593225,194.3480056814543
3598.3208,1.484936267963909,264.81241941777495
3599.1506,1.4835551725028584,301.1983759986621
3599.9788,1.4840166008909785,300.94011479083053
3600.8088,1.4850865516397134,249.45520746808742
3601.6372,1.485154050501727,232.6667565141371
3602.4678,1.483345256049728,280.3601652398585
3603.2964,1.480409246519325,252.75993197028453
3604.1252,1.4785038616986719,263.617842827861
3604.9565,1.4799643899173764,243.3185172823552
3605.786,1.485661173703611,388.885731281875
3606.6172,1.4939636658635709,247.26127538286462
3607.447,1.5009520074505027,245.23701343962554
3608.2788,1.5024992882966366,255.42089932210504
3609.109,1.49681403507796,263.8515696878591
3609.9392,1.485611257318221,235.15219862273878
3610.7717,1.4726687305719632,276.47470718825804
3611.6023,1.4614417668151836,275.7027032190736
3612.435,1.4534224839471381,244.83327849962268
3613.266,1.448692195918172,246.00526501434825
3614.0994,1.4468079027161698,287.0333043205412
3614.9307,1.4474587162320642,270.20810975444044
3615.7625,1.4502858461013362,224.8766488889452
3616.5962,1.4545182365856335,295.9665351289922
3617.4282,1.4587927026940657,246.8310646034085
3618.2625,1.4616174099647794,242.82640697568021
3619.0947,1.4619900819399931,258.6244901044207
3619.9292,1.45982320344052,262.4532785291278
3620.762,1.4557476888639016,252.05389252564328
3621.595,1.4506630977848152,273.3595190179295
3622.4302,1.4455324479399643,264.2280533679679
3623.2634,1.4414659348588053,239.71477031397734
3624.0989,1.4395882241400522,265.94514647206177
3624.9326,1.4407249190629947,250.21087487868422
3625.7686,1.4448369033295128,338.20723222193345
3626.6028,1.4508202179743812,268.9870364834968
3627.437,1.4570614104946789,246.7850918540043
3628.2734,1.4623261063217805,271.47888612665173
3629.1082,1.466302322699317,247.9934103219029
3629.945,1.4694923146274712,259.93564043046507
3630.78,1.4724234718442688,256.02248300695027
3631.6174,1.4752043414808789,295.33893394157275
3632.453,1.477567165543101,253.08634476061548
3633.2883,1.4793623976841956,290.3626406606646
3634.1262,1.4807241150733974,232.32590657616447
3634.9622,1.481793239020759,230.60128471285904
3635.8005,1.4823837281617804,250.60259922861525
3636.637,1.4820169015206088,232.01581078008059
3637.4756,1.4804222008535721,271.3411845838865
3638.3123,1.477966836378505,330.5704341204043
3639.1492,1.4754921380133346,270.8543686841677
3639.9885,1.4737219036963436,229.49868900218365
3640.826,1.4727915490930088,234.2299864599173
3641.6653,1.4723059363253912,276.70866443784547
3642.5032,1.4718856526787663,227.06812725734397
3643.343,1.4715604813650718,294.0320394469334
3644.1812,1.4716956721876167,265.2226280698753
3645.0195,1.4726073579145589,226.15025190807845
3645.86,1.4743274506005655,271.36050382225415
3646.699,1.4765985505404353,310.83988476247816
3647.5398,1.4789753503033283,275.3338126366659
3648.379,1.4808593544605253,247.63064313473444
3649.2202,1.4817744598006302,247.13615290861455
3650.0596,1.481705366235928,240.0754656955756
3650.8994,1.4811943162698353,198.24300894865107
3651.7412,1.480854928446975,224.5152790000433
3652.5813,1.4807255478350667,267.5772124953003
3653.4236,1.4801250473849068,224.02328008448495
3654.2642,1.478251704017705,237.91759881954692
3655.1067,1.4749217973737725,247.36895786571742
3655.9475,1.470790446781872,271.19589753962833
3656.7886,1.4667948243325564,256.73617849662173
3657.6318,1.4635175137833825,238.4804289731726
3658.4734,1.4609753098110154,273.9066849043924
3659.317,1.4588168921949765,238.15888484079625
3660.1587,1.4566971821886634,243.700780066275
3661.003,1.45430574456021,253.57997352111147
3661.845,1.4513615768474006,221.48340514920167
3662.6875,1.4477604446892454,234.2471680233108
3663.532,1.4440126359090788,297.8871927127922
3664.3748,1.4413823930529464,267.1320247955231
3665.2197,1.4412665995044207,261.8710575431887
3666.063,1.4442466859368261,260.6470069659322
3666.9084,1.4494347208218463,299.507991055365
3667.752,1.4546265054774286,248.6926729340424
3668.5977,1.4573861020681564,239.4470014359432
3669.4417,1.4561842722203144,295.38773162720855
3670.286,1.4511627755760186,246.8307246148778
3671.132,1.443934559821223,246.1830333314603
3671.9768,1.4368053172304072,289.920183961789
3672.8235,1.431621346204389,293.3323306480803
3673.6685,1.4291777372740273,250.81759664088707
3674.5156,1.4291229272157695,268.3050250235903
3675.3608,1.4305228183178988,262.8047986162393
3676.2063,1.4324726501858527,279.5328851150625
3677.0542,1.434446296560949,220.0125412357804
3677.9,1.4362035803795299,254.47906689014565
3678.748,1.4375543612122963,217.58187084225204
3679.5945,1.4382587211228886,268.94578916574943
3680.4429,1.4383550151058977,254.95304517891094
3681.2896,1.43840516389552,246.87613325284678
3682.1365,1.4391873659943133,266.018946685038
3682.9856,1.4409443944014895,247.12407755254316
3683.8328,1.4429278940779413,255.13993256287085
3684.6824,1.4438699337503254,259.2544840386701
3685.53,1.4429573348325138,264.33616093003224
3686.38,1.440507612385036,226.92542025271257
3687.2278,1.4377256722025993,191.78168286921317
3688.0762,1.4357664889670714,272.29284243159225
3688.9265,1.4350198448611466,266.27171397874304
3689.7751,1.4350831802614614,229.03274836453622
3690.626,1.4353061418030049,266.76926208851086
3691.475,1.4353119428942895,267.5686635967974
3692.3264,1.4350586292801157,320.50797585482815
3693.1758,1.434585411215456,263.1158691133738
3694.0254,1.4338933351011232,261.47687583674275
3694.8772,1.4331582019095852,315.63579845176423
3695.7273,1.432950062373988,247.13765333722037
3696.5793,1.4339942200456093,300.69455858896055
3697.43,1.4365633912524212,267.7852582241846
3698.2825,1.4400978114447398,258.64958537697987
3699.1333,1.443377080528229,257.2997089440635
3699.9841,1.4451710583807307,285.3974525868822
3700.8374,1.444731518002553,289.11791548704855
3701.6887,1.4420403869824527,288.6502909307857
3702.5425,1.4377228384685703,277.07599676982267
3703.3943,1.432771145071192,304.62124211752666
3704.2483,1.4280660407658297,259.1796758607862
3705.1003,1.4242677992853008,301.9780177819783
3705.9526,1.421792308079207,231.21837560490664
3706.8074,1.4208784306531514,257.5011181129837
3707.66,1.4213895956228848,309.25360326341024
3708.515,1.4226889984727806,296.0127642063968
3709.3682,1.4239514411705931,261.92193622754206
3710.2234,1.424744836731237,288.1970307963573
3711.0771,1.4252275693463128,250.17659856269609
3711.9307,1.4257769199186252,275.99946765686553
3712.7866,1.426443810262131,257.06003786365216
3713.6409,1.4268119775755599,270.4035739598098
3714.4973,1.4263346526994531,354.99046051997504
3715.3518,1.4247736873513683,252.29934270001178
3716.2085,1.4224436132826095,242.62971140240737
3717.0635,1.4202065201766991,269.1743860034265
3717.9185,1.4190705771393823,330.8650605702307
3718.776,1.4195926877991496,290.57964018272327
3719.6313,1.4213844407119227,241.67532443943955
3720.489,1.4232605139985928,265.8280470352928
3721.345,1.4239663562820686,264.1304820588804
3722.2031,1.422984793648992,269.59442580652814
3723.0593,1.4207733148525221,254.7120462607637
3723.9158,1.418365943966864,257.9376386356565
3724.7747,1.41669078094195,296.5980692014095
3725.6316,1.4160589234872445,279.35484467865376
3726.4905,1.4161115975808503,301.1354758314634
3727.348,1.4162576455424993,290.4960302929108
3728.2073,1.4161044634088065,274.625293728441
3729.065,1.4155535996109925,338.20521721521845
3729.9229,1.4146352903028252,292.69944699666354
3730.783,1.4134026624801286,266.6321283347718
3731.6414,1.4120115609163908,290.25079210573676
3732.5017,1.410774137049735,279.89545673755856
3733.3604,1.410103216304193,261.4628147700804
3734.2214,1.410306247375877,293.0909654628705
3735.0803,1.411412364249624,277.6991564679281
3735.9417,1.413083847303793,296.27108993971433
3736.8013,1.4146352617719384,268.8719931826011
3737.661,1.4152506980223047,242.72987002509404
3738.5227,1.4142519945009278,255.95130311782256
3739.3828,1.4113751352666386,267.4191657155887
3740.245,1.4069147525395562,254.21431736817425
3741.1055,1.4018227102735594,300.493923729384
3741.9683,1.3974676388905098,289.55828459795754
3742.829,1.3952479292818554,262.85402248368695
3743.69,1.3958691463726411,323.3792851481845
3744.5532,1.3990409812047904,281.05867577001567
3745.4148,1.4036637625988975,285.4134085018909
3746.2786,1.408507711780355,302.8609468594346
3747.1404,1.412568829675898,282.3604181183864
3748.0044,1.4151428954329168,299.7991414164077
3748.8667,1.4156788796367714,242.99428682852025
3749.729,1.414056135244015,291.12456664255376
3750.5938,1.4108560587353163,268.0026316221347
3751.4565,1.4072698751209303,306.80659237095534
3752.3215,1.404389264001344,306.3936570297063
3753.1848,1.4026750920385276,271.75297808057786
3754.0503,1.4019431596875642,337.6712657458943
3754.9138,1.401927780328283,286.8766792190119
3755.7776,1.4026503568105255,317.1274319763471
3756.6438,1.4042823119020826,301.53259766311504
3757.508,1.4066835031085339,251.3638830550902
3758.3745,1.4091922382133206,273.06457852937075
3759.239,1.4107392261367815,267.2806438122321
3760.106,1.410315545270305,264.2795676823939
3760.971,1.4074871401240172,272.1776047868949
3761.8362,1.4027724786148017,269.4291033793753
3762.7036,1.397490044516081,337.1258312145237
3763.5693,1.3930926606489074,303.20697659964566
3764.437,1.390298463808257,326.06051592833387
3765.3032,1.3889598915612313,265.2732452619338
3766.1714,1.388491210401274,282.82270266095696
3767.0378,1.3884903880401573,299.8841433342602
3767.9043,1.3889091283180044,289.3391317105979
3768.7732,1.389817520633958,300.89553953113904
3769.6401,1.3910767225918828,296.59798039934503
3770.5095,1.3922441273642128,308.5210158161782
3771.377,1.3926570830735747,265.9877173025088
3772.2466,1.3916433840844895,339.58288757839034
3773.1145,1.3887548322680505,261.5580471976287
3773.9824,1.384104384714116,268.328509071059
3774.8528,1.378690149278089,249.8342940494015
3775.721,1.3743180660838652,233.07945159426606
3776.5918,1.3726118220466987,278.9955429328713
3777.4604,1.3740156115200424,250.57420849465112
3778.3315,1.377529473985734,252.68569897661146
3779.201,1.3815215111602757,268.9668546881541
3780.0703,1.3848104712487808,299.10819959297515
3780.942,1.3870785721939218,291.3494730376471
3781.8118,1.38868596412645,284.6465195204121
3782.6838,1.3902851675756187,276.28127335662987
3783.554,1.3922326030996766,310.9235466262503
3784.4265,1.393958003547133,338.72205856461267
3785.297,1.3933955044452628,234.798887003396
3786.168,1.3868488240113666,282.20892915293496
3787.041,1.369228817588449,307.4592009855863
3787.912,1.3357086054312985,274.4550084909659
3788.7856,1.2850416951016104,288.18077432757644
3789.6572,1.2252799669328545,279.7532190132521
3790.531,1.1740895187915987,287.85029214632067
3791.403,1.152070794280034,61.90232789858619
3792.2754,1.168674080521313,277.11633159658925
3793.15,1.2154226740928842,245.74895651246894
3794.0225,1.2711757589323862,285.69778046207074
3794.8972,1.316715215936374,251.38685757756733
3795.7703,1.343525694487028,330.98399766036255
3796.6455,1.3543973095446558,303.39749905952203
3797.519,1.3568588847858418,313.8972219369756
3798.3926,1.3577107537358544,337.0452562152255
3799.2686,1.3604736164246942,299.3156164276395
3800.1426,1.3656841961420347,276.3549558511424
3801.0188,1.3723130711934572,280.03705391971664
3801.8933,1.3788559148411512,272.8983007392516
3802.77,1.3840171198353277,304.0405011569818
3803.6448,1.386843122664118,277.2450171893526
3804.522,1.3870607566131132,264.0039292087865
3805.3972,1.3852919167878488,251.81431155190924
3806.2727,1.3829799842353185,280.8584190879414
3807.1504,1.381694917202099,344.45713987402723
3808.0261,1.382246623879149,304.13303541198275
3808.9043,1.384350781105389,264.4267066924092
3809.7805,1.3872090431588688,316.3832703849714
3810.659,1.3904224588156933,269.595224791454
3811.5356,1.3941915594423917,343.6438533601225
3812.4126,1.3987925129734948,283.47801654764066
3813.2917,1.4038671683088386,279.0024207769283
3814.169,1.4083047705093303,248.7249457244006
3815.0483,1.4108908233388702,266.44646654916716
3815.926,1.410904336892329,278.40541343303533
3816.806,1.4084629581577024,245.88122617705523
3817.684,1.4044076144806128,274.9662404934802
3818.5623,1.3999134179292498,278.17801927087504
3819.4429,1.3960347080838922,295.0655275114974
3820.3215,1.393332888445569,282.9806190292602
3821.2024,1.3916099677837572,278.8998462894103
3822.0815,1.3900597759998667,292.05520574453374
3822.963,1.3876090432272281,302.899192710637
3823.8423,1.3835101912932473,276.0917460041039
3824.722,1.3777807137681652,261.3966673727305
3825.604,1.3712311422451682,278.7426003608003
3826.4841,1.3649180488690866,326.81013880256063
3827.3665,1.3591502730709528,276.77970500611065
3828.2468,1.3532213352523697,279.9117877710847
3829.1296,1.3458340677400724,308.8081607874752
3830.0105,1.3363066675941615,277.5996777547274
3830.8916,1.325161821037563,331.454189141669
3831.7751,1.3139453502446723,323.17766308843494
3832.6565,1.3044268243440442,332.46187879894535
3833.5403,1.2976222767389685,300.0965273079061
3834.4224,1.2938441287720528,354.7859855362815
3835.3064,1.292922863310458,326.1632909483464
3836.1887,1.2946540374795275,282.05033310773314
3837.0713,1.298912549158869,365.7510663295723
3837.956,1.3056118023739967,311.1736654927264
3838.839,1.3144413031518167,306.47833316773125
3839.7244,1.324759180585152,317.76226855164606
3840.6077,1.3353502873234533,305.6784639612022
3841.4932,1.3447963705776083,300.6732397524433
3842.377,1.3517238620247358,303.06738335644474
3843.261,1.3553699381779534,307.99606737200196
3844.1472,1.3556657611492022,330.2344735468454
3845.0315,1.3533391485289938,313.4164334589397
3845.9182,1.350133686273138,300.116216066275
3846.803,1.3489385046659377,278.546937254631
3847.69,1.3529363813564377,268.8927785435609
3848.5752,1.363777700253068,299.05454613565826
3849.4604,1.3802281530245621,275.58199274648143
3850.3481,1.3987611217650882,311.07200395702705
3851.234,1.415470544138176,274.1115980072892
3852.122,1.4281887621052116,259.5741459295239
3853.0083,1.4365058236961228,259.19522043811253
3853.8967,1.441331270059496,247.33145210965384
3854.7832,1.4439664116523399,251.2479207974743
3855.6702,1.4457134618833551,251.34049501591164
3856.559,1.4475115194885655,234.4723859696221
3857.4463,1.4497709005746295,269.38426633052694
3858.336,1.4524132050044118,253.53333691913323
3859.2234,1.4549686629827487,262.6996872702381
3860.1135,1.4568403573889634,247.75901929149776
3861.0015,1.457525524812864,246.34618042976857
3861.8896,1.4568761712413003,301.4407926891897
3862.7803,1.455077288031664,252.50742903921767
3863.6687,1.4524622448005406,317.10024838787103
3864.5598,1.4492315055457137,251.18087252521406
3865.4487,1.4454201097266886,294.1412178803829
3866.34,1.4409080752106322,243.99957267077198
3867.2297,1.4356380486303286,253.5578098918575
3868.1213,1.4296277015400283,275.5407298164181
3869.0112,1.4230650699731795,305.8863500126543
3869.9014,1.4161727154857915,234.36101789148367
3870.7937,1.4091889721074806,294.43921253848896
3871.684,1.4023593304880533,272.9508335083634
3872.577,1.3956906554757929,272.89332228074636
3873.4678,1.3888908910692495,293.44149215309375
3874.361,1.3811552826269493,302.1312917131909
3875.2524,1.371556428611464,294.37213971452246
3876.1438,1.359463999596986,257.5133369709459
3877.0376,1.3450388855001938,302.37652660602777
3877.9297,1.3293511829186806,332.01903091627867
3878.8237,1.313628872301923,364.9481150356653
3879.716,1.2989295069167008,303.51348760834685
3880.6108,1.28562270106904,334.64967299385
3881.5037,1.2736784583807452,316.7675704596012
3882.3965,1.2625491127063249,346.70608910240054
3883.2917,1.2514349169473313,443.50692106160994
3884.185,1.2396490571045344,358.12482636450943
3885.0808,1.226711340982525,426.4234655583403
3885.9746,1.2127431805856326,385.8678394073748
3886.8706,1.1982876363896204,434.40117718721694
3887.765,1.1846629923019896,432.5157909082557
3888.6592,1.1737558916591961,462.1426574902515
3889.556,1.1677329519793835,445.10749866709165
3890.4507,1.1681805711592637,470.8854735402401
3891.348,1.1751592232294268,433.55142009174193
3892.243,1.1871184204488205,303.56947818599014
3893.1406,1.2019578523067926,351.86595915122064
3894.0361,1.217946879350382,384.4240425678294
3894.932,1.2343655003315022,385.9765633461455
3895.83,1.250866330674265,357.4559684459529
3896.7263,1.2667769544965921,358.95964450903296
3897.625,1.2814932263900174,316.0057032250483
3898.5215,1.2947685005410359,377.5543391028619
3899.4207,1.307298532583369,294.2192520986701
3900.3176,1.320026927158114,316.8760509677171
3901.2148,1.333734719930232,290.172844225621
3902.1145,1.3486368606280246,304.0089678036516
3903.0122,1.3643479998209667,331.25112624694435
3903.912,1.3802208493498462,290.56112824865863
3904.8103,1.395055120964183,270.58142293581153
3905.7107,1.4076121681611804,274.5561754140458
3906.6094,1.4170542805705744,285.0789461950976
3907.508,1.423841036013783,290.7248550672729
3908.409,1.4296735313505053,300.6023333059572
3909.308,1.4366508678098704,346.82580792152544
3910.2097,1.4461493394923988,299.9254095904669
3911.1091,1.4578634252873504,261.8920644578706
3912.011,1.4701807390160437,276.33655872322885
3912.9111,1.4810425161248664,262.42631976794115
3913.8113,1.4893451574286158,218.07201380019077
3914.7136,1.4953429058047951,237.99535448477147
3915.6143,1.5001873655383955,261.2373567762102
3916.517,1.5051070909301991,238.77396859858314
3917.4182,1.5105931253904863,246.74275277518126
3918.3215,1.5163358419004984,235.67224735333255
3919.223,1.5215073808099395,281.277372242215
3920.1245,1.5254500948722882,249.07797816696367
3921.0286,1.5280680641981983,263.1951166753106
3921.9307,1.5298365727982848,254.36819733384675
3922.835,1.5314478251866068,232.13701340533106
3923.7373,1.5333154452448652,260.5009754550527
3924.642,1.5355035565319248,222.0981183153191
3925.5452,1.5379439203884693,244.1204121861897
3926.448,1.5406642896177993,232.55551813165232
3927.3535,1.5436348668589848,220.00571760598885
3928.257,1.5464863019104538,223.788150905202
3929.1628,1.548621071662335,242.4660020185862
3930.0667,1.5495145062539724,227.7961187500606
3930.9731,1.54896329405462,244.91243212863256
3931.8774,1.546959995962194,230.4008650718095
3932.782,1.5435468395374805,221.65754829667839
3933.6887,1.538938381496232,195.2042887931233
