wavl,flux,ivar
3566.9744,0.7066738324392916,590.382770417229
3567.795,0.7060750343229297,448.4984906106284
3568.6177,0.7058829471977348,701.8414753889875
3569.4385,0.7060422852226468,589.1055423477674
3570.2617,0.7064970452637734,965.981515615661
3571.083,0.7070877723233945,526.3083818043456
3571.9065,0.707635992720475,450.84803428367
3572.7283,0.708104468921886,611.2753894669302
3573.55,0.7085902878729264,643.7232094746164
3574.374,0.7091262922804957,825.3235001724349
3575.1963,0.7095990074817654,600.000838965229
3576.0208,0.7099062168702361,525.4837334397587
3576.8435,0.7100949910353258,1542.3075949894564
3577.6682,0.7103205855668532,1050.6390647634935
3578.4915,0.7106982710591264,443.37840069005904
3579.3145,0.7112252063885744,709.898050410575
3580.14,0.7117708962306556,1307.9240239990472
3580.9636,0.7121304247064905,804.0311857095564
3581.7893,0.712227243616489,848.0747449296022
3582.6133,0.7123217901618766,609.8172156346124
3583.4395,0.7129209275766821,661.1995042361738
3584.264,0.7142802634334747,759.9655054400398
3585.0884,0.7159702493014823,428.777056861986
3585.915,0.7169973029124078,1234.368460652129
3586.74,0.7164279760320069,609.4833762779358
3587.5671,0.7139929582908258,604.5107158787637
3588.3923,0.7102305047288862,610.4969476286087
3589.22,0.7061456521267692,485.31163881183954
3590.0457,0.7028495741116235,774.5413251937838
3590.8716,0.7011229874907859,484.7783700727692
3591.6995,0.7012297039407631,1281.9187092758916
3592.526,0.7028358702586947,659.9700922191363
3593.3542,0.7052023458778619,946.188714437534
3594.181,0.7075782265054275,726.8118031262666
3595.0098,0.7095858218329887,845.7510802369732
3595.8367,0.711097380840683,589.9717279469753
3596.6638,0.7118269607398064,617.8159408139438
3597.4934,0.711110941741419,440.17540483744915
3598.3208,0.7084098708855022,530.1927420331074
3599.1506,0.7039958000572762,569.3382429167505
3599.9788,0.6990663353531631,950.5704167680319
3600.8088,0.6949039547820735,494.46150616767324
3601.6372,0.6921478000296546,847.8815898309351
3602.4678,0.6906153430787728,583.0315359458853
3603.2964,0.6897759948691684,1138.1358387851888
3604.1252,0.6890959080267358,763.7037079758618
3604.9565,0.6882094837536693,1224.1650896681308
3605.786,0.6870468593482852,504.69509412340324
3606.6172,0.685900972013689,731.9151617832288
3607.447,0.6852959871997371,1100.7551288481948
3608.2788,0.6856367981006004,1116.7832693222417
3609.109,0.6870075677215965,608.3168738309375
3609.9392,0.689230384939287,1167.7173354398064
3610.7717,0.6919598959253166,785.8579058058066
3611.6023,0.6945535215408124,1289.4108706455847
3612.435,0.6960020988917267,699.0068788835763
3613.266,0.6951749397439153,605.5499052141638
3614.0994,0.6915729339280384,578.1542334613945
3614.9307,0.6859828576575558,735.9865095377436
3615.7625,0.680284941307015,712.5362478652247
3616.5962,0.6765148655838505,743.9002168000148
3617.4282,0.675746525420133,1237.1777946676366
3618.2625,0.6775936756340366,739.0340485835247
3619.0947,0.6807317465526204,724.1612010531878
3619.9292,0.6838811902303445,690.8145087076965
3620.762,0.6863690658957875,755.0997518358329
3621.595,0.688093953344188,1431.7830096500647
3622.4302,0.6890846360166285,624.3510707299256
3623.2634,0.6893190708591792,710.0216095766706
3624.0989,0.6888599582013292,888.0173042922899
3624.9326,0.6878840275302551,576.4857776056181
3625.7686,0.6864157081627612,864.2766569907553
3626.6028,0.6841465227433347,997.9982564159724
3627.437,0.6807393612976219,705.5032203151908
3628.2734,0.6765244677199448,782.2848977822258
3629.1082,0.6728198138206346,634.1057400715754
3629.945,0.6711314148312422,1019.0286474912053
3630.78,0.6719171204570353,759.9230213593097
3631.6174,0.6740076709837478,558.38259378357
3632.453,0.6755037974896231,695.5783318097372
3633.2883,0.675369821582871,891.2117614849474
3634.1262,0.674132991777658,855.3463248443568
3634.9622,0.6732616409075104,822.1702604061626
3635.8005,0.6739717205961019,757.3068172562998
3636.637,0.6765870192046802,733.8396920620887
3637.4756,0.6806522679030204,1044.9399983141727
3638.3123,0.6852784806239074,1080.8577563653494
3639.1492,0.6895605465759891,896.3242043675125
3639.9885,0.6928010789099399,710.2489820034907
3640.826,0.6946045928818249,1069.76934696553
3641.6653,0.6948452507022314,788.1839111115008
3642.5032,0.6934718958295409,645.4101063358095
3643.343,0.6905189328919262,729.24211580631
3644.1812,0.6863629389829415,1110.1253473276213
3645.0195,0.6819079870659075,526.576207531357
3645.86,0.6784640440504409,865.6893826101729
3646.699,0.6771760158855287,1204.150111818373
3647.5398,0.6783048890237194,947.9756636851795
3648.379,0.6810590520520203,1121.7115330754814
3649.2202,0.6840824330771876,767.1676066949028
3650.0596,0.6861766805263282,673.7232927550884
3650.8994,0.6868745970743453,696.074271391262
3651.7412,0.6864479167746922,1427.9930015550538
3652.5813,0.68556222176046,798.3179089736268
3653.4236,0.6847371998860285,1278.7061716579867
3654.2642,0.68397658484479,672.6138824151062
3655.1067,0.6827811876458296,754.7328726689093
3655.9475,0.6806001740666893,766.9613469196578
3656.7886,0.677330344919681,1003.381772088317
3657.6318,0.6735190547481105,683.1420543564466
3658.4734,0.670137861169948,653.3382932995812
3659.317,0.668001360887206,861.7815538581033
3660.1587,0.6674119483814883,661.2543704016765
3661.003,0.6680315048607987,939.0610358267957
3661.845,0.6690270775780699,1043.807542071437
3662.6875,0.6693378367397109,956.0776395058939
3663.532,0.6680951906653272,776.4432545253771
3664.3748,0.6651593943919527,795.3664134291782
3665.2197,0.6612917477684911,797.22830249925
3666.063,0.6577635401154622,714.9958531523212
3666.9084,0.6555154055755398,571.6374400185597
3667.752,0.654767060721481,883.8680716706237
3668.5977,0.6551623276996288,1258.9816721490943
3669.4417,0.6562484591445137,1073.0207610985167
3670.286,0.6577077783532755,986.7902779551215
3671.132,0.6592808651292488,598.4551833511082
3671.9768,0.6606687134706288,1268.4498769470588
3672.8235,0.6616868423547069,904.5932233740232
3673.6685,0.6624362573811098,693.0876243236469
3674.5156,0.6632379201413272,909.0185508407643
3675.3608,0.6642262192682261,694.7936309058725
3676.2063,0.6650622763894221,869.0352209369845
3677.0542,0.6650862222757934,1276.8334206365516
3677.9,0.6638470834068715,832.801335827392
3678.748,0.6615329271134327,644.9304266886902
3679.5945,0.658985003586091,622.4913751717476
3680.4429,0.6572076811750402,993.7270273488105
3681.2896,0.6567867608724147,996.2988245266823
3682.1365,0.6574957715788007,600.7129830879969
3682.9856,0.6584902187153477,735.3484280923014
3683.8328,0.658902043595835,700.2660567922752
3684.6824,0.6584385305635304,731.5930966709586
3685.53,0.6574997194927499,1121.5364550829925
3686.38,0.6567884576196809,562.8649691304288
3687.2278,0.6567584654798899,1032.2157056681938
3688.0762,0.6572823029534814,1249.8760479268178
3688.9265,0.6577934294551062,687.9074353128613
3689.7751,0.6577344589753943,869.4641325490082
3690.626,0.6569745810427462,799.9518783669348
3691.475,0.6559159527312839,955.110412789988
3692.3264,0.655306896517533,942.2182266968638
3693.1758,0.6559423631555961,845.323670472742
3694.0254,0.6582520904022785,819.46220605209
3694.8772,0.6619161830853767,802.6377470208349
3695.7273,0.6657390132259023,886.207793971772
3696.5793,0.6682328560170318,885.5654070788853
3697.43,0.6684658807001057,740.6108147575067
3698.2825,0.6666397868782324,932.1925532581831
3699.1333,0.6638034349702655,582.730960522036
3699.9841,0.6610472431407438,861.7387383025825
3700.8374,0.6589549626128625,670.5492138396055
3701.6887,0.6576199693301957,781.0198274651683
3702.5425,0.656877101671777,1070.5016555339987
3703.3943,0.6564937637958858,1069.2686194805915
3704.2483,0.6561822066191894,874.6847305949298
3705.1003,0.6556911615970685,867.44161820943
3705.9526,0.654949355069872,727.0921053588822
3706.8074,0.654109219229656,861.2711752132376
3707.66,0.6534021235653779,947.1900383855155
3708.515,0.6529252060683867,1131.4458542565437
3709.3682,0.6526371558589438,1106.294809359991
3710.2234,0.6525415389161324,880.9115306411412
3711.0771,0.6528744086530415,1031.486279989442
3711.9307,0.6540101583650296,836.3842557802404
3712.7866,0.6561085172350626,1116.9753040217297
3713.6409,0.6587766111965317,869.0341961509188
3714.4973,0.6611749495610508,568.0426306566127
3715.3518,0.6624141367903335,909.2613838168088
3716.2085,0.6620390479810466,1088.8006846279493
3717.0635,0.6601596416155039,762.155217752597
3717.9185,0.657301092463361,1269.800370328904
3718.776,0.6541271819153942,760.4482233017463
3719.6313,0.6512722500517568,851.2963151800107
3720.489,0.6491945977365021,1075.035866124985
3721.345,0.6481874523470145,841.7235404788412
3722.2031,0.6482879994686821,1023.3559494091483
3723.0593,0.6492732142452798,961.2644162991122
3723.9158,0.6507455702301843,975.5191559028094
3724.7747,0.6522872031969442,970.8098128152569
3725.6316,0.653558006249834,1322.0695468092995
3726.4905,0.6544058056522478,714.5429106224129
3727.348,0.6548936815331177,978.672316540265
3728.2073,0.6552042776392754,912.5657044834836
3729.065,0.6553377794962842,777.2558700454208
3729.9229,0.6549250553242677,730.5310565821892
3730.783,0.653417985467013,662.2548661006084
3731.6414,0.6505736451495296,819.1666359113207
3732.5017,0.6467120712027246,817.9085220870849
3733.3604,0.6425868980669976,900.3501182667897
3734.2214,0.6388763624875083,1000.6831734791996
3735.0803,0.6359524389577442,766.645977200506
3735.9417,0.6338568476549428,782.9444868262091
3736.8013,0.6325863792231374,933.8488133975936
3737.661,0.6321412895616073,1174.8517567656354
3738.5227,0.6324414171447126,1162.4268338941633
3739.3828,0.6332117753880463,720.1519511693572
3740.245,0.6340505908006886,948.7566418184616
3741.1055,0.6345984929431231,932.9250711284158
3741.9683,0.6346902145870755,809.0277694380286
3742.829,0.6343547450663507,1238.5721093681864
3743.69,0.6337211315275654,971.9271288014926
3744.5532,0.6329061933302939,693.6762385913283
3745.4148,0.6319978468768147,830.5873197675015
3746.2786,0.6310913627301258,1309.9522078658065
3747.1404,0.6303434970968259,1286.5724283788895
3748.0044,0.6299211971464461,1106.8017768753082
3748.8667,0.6299336520662497,843.2298793852754
3749.729,0.6303627888166171,867.9164712900053
3750.5938,0.631081204080867,911.1394374884238
3751.4565,0.6319717459136148,1030.313847398793
3752.3215,0.6331475813030482,572.7765361772905
3753.1848,0.6349918503713133,1462.7359049195425
3754.0503,0.6378914639232904,647.2570327715881
3754.9138,0.6417356715335099,769.1803910132073
3755.7776,0.6457881174363594,901.7303781790363
3756.6438,0.6489986395830752,580.3851393262821
3757.508,0.6505325482430094,1004.5228300747406
3758.3745,0.6501741844563124,1105.7817375870284
3759.239,0.648320167596713,986.610935303345
3760.106,0.6457949998930376,836.3953851843773
3760.971,0.6435988574573924,1214.517471127885
3761.8362,0.6425008207168912,717.4347362248976
3762.7036,0.642738965179475,751.002242021302
3763.5693,0.6439320067113212,878.5923819016296
3764.437,0.6453110435391635,1147.0565317553737
3765.3032,0.6460421546741594,798.5710396261981
3766.1714,0.6455141828152802,875.2474067607043
3767.0378,0.6435416002994455,939.348435318082
3767.9043,0.6404887734323574,724.1831142873036
3768.7732,0.6371786542562654,1014.8184910735248
3769.6401,0.6345723532729632,1063.4859950142925
3770.5095,0.6332497187155388,956.1132591620632
3771.377,0.6331714407663428,1059.299129817855
3772.2466,0.6337056939123805,761.113537132611
3773.1145,0.6339600188703727,890.482420621227
3773.9824,0.6331948913497882,817.5043572853426
3774.8528,0.6311556597469574,1067.3044229523227
3775.721,0.6282639767363845,745.0116292349467
3776.5918,0.6254456933184606,1439.9352343185835
3777.4604,0.6237308882376893,1173.1513464601364
3778.3315,0.6236468829881667,835.8484492454118
3779.201,0.6249782363434122,1016.6756653628291
3780.0703,0.6269824467405076,1390.8769326448696
3780.942,0.6289573590259785,1436.2529465392108
3781.8118,0.6306904205745526,1315.1658151690817
3782.6838,0.6325423556719945,1360.780523602537
3783.554,0.6349993136144265,945.3237937840838
3784.4265,0.6381146375733681,844.679722267832
3785.297,0.6411470782527957,1159.6230480375386
3786.168,0.6429313465257003,1014.1727119381395
3787.041,0.6426452779685975,687.0929897283419
3787.912,0.6404917953030589,908.162818374152
3788.7856,0.6376288719689966,955.278929222464
3789.6572,0.6354305168623718,700.0356745411311
3790.531,0.6345538173019662,1047.5557853356704
3791.403,0.6346146422766681,675.1835237493228
3792.2754,0.6345311687322761,851.740333319327
3793.15,0.6333053856699266,960.207757829429
3794.0225,0.630690750522364,1069.638253945937
3794.8972,0.627293211451444,850.3138397846186
3795.7703,0.624179593035156,1134.9518087145989
3796.6455,0.6221941999061203,855.843543290442
3797.519,0.6216250365472694,1088.1536602171936
3798.3926,0.6222294228924705,1014.8497895190734
3799.2686,0.6236143102817743,918.580994859915
3800.1426,0.6255343752034199,881.0181407407727
3801.0188,0.6279421010261459,1072.6917079746654
3801.8933,0.630699803614955,1119.2608237704983
3802.77,0.6334130702887667,746.4346749231016
3803.6448,0.6354946217844254,734.4952841898361
3804.522,0.6365121180651034,910.0765911306544
3805.3972,0.6363010550749826,783.5967239718154
3806.2727,0.6349134291078354,1011.1722736762238
3807.1504,0.632580518616698,677.1583288863164
3808.0261,0.6299142807031688,929.5145005409619
3808.9043,0.6279068764900286,884.8942116839327
3809.7805,0.6275392369743766,3171.7133825347446
3810.659,0.6290899089706098,1009.5033428901434
3811.5356,0.6318978144553797,889.8975493344781
3812.4126,0.6348062140940319,1047.8799578846701
3813.2917,0.6368322475397676,754.7827984581248
3814.169,0.6375592145675112,725.8631145733976
3815.0483,0.6372028811123028,972.9941716048136
3815.926,0.6364188184743057,1100.0225499817136
3816.806,0.6359488007916937,1390.817189185677
3817.684,0.636141812766589,1003.8098476420889
3818.5623,0.6366462079361312,1157.0536469218796
3819.4429,0.63663313877246,815.7738326715851
3820.3215,0.6353990238618096,767.6927911305828
3821.2024,0.6328083830253601,1006.6655069205265
3822.0815,0.6292681232430932,774.4287255614117
3822.963,0.6253448933370663,863.0583677771695
3823.8423,0.6215875356526362,1102.9818736667658
3824.722,0.6184122438331321,1360.510977508463
3825.604,0.6160726313166606,946.189279499606
3826.4841,0.6145311159115054,1028.307692228653
3827.3665,0.6133769563600822,719.6830190451934
3828.2468,0.6120249773585075,854.9530727122377
3829.1296,0.6099242228999896,1102.8235807189426
3830.0105,0.6067157620107471,860.1257911393312
3830.8916,0.6022240878761388,853.593186866194
3831.7751,0.5965241299287966,733.3682053618069
3832.6565,0.5901232664211087,1001.4675302935639
3833.5403,0.5838855053278657,1311.1317177794176
3834.4224,0.5789730263975509,1189.8555200660207
3835.3064,0.5764490214676556,1095.7519966712696
3836.1887,0.5772534174903566,1434.3980438167894
3837.0713,0.5824678918992072,1162.8228367207296
3837.956,0.5938421422992716,833.547563071313
3838.839,0.6133942231428249,831.5131465128056
3839.7244,0.6417317573265616,857.9925080388432
3840.6077,0.6748918487630844,1064.0638044202115
3841.4932,0.7040481745966642,1197.6673723239253
3842.377,0.7187568758068968,55.87686975853816
3843.261,0.7139940372944416,1111.5689258539214
3844.1472,0.6934369811731944,1083.4204073277324
3845.0315,0.6669321926010413,664.7492927744158
3845.9182,0.6436168597283066,1213.715619900497
3846.803,0.6280207070735783,741.9743321009341
3847.69,0.6199889165220911,1027.0554901773748
3848.5752,0.6177200831610196,1044.448851080591
3849.4604,0.6195945335942021,824.1764619257073
3850.3481,0.6245628531976961,880.6692074390982
3851.234,0.6315769008547228,846.0818080933207
3852.122,0.6394628479708478,1015.6044062902126
3853.0083,0.6470442579684261,878.6097558086515
3853.8967,0.653637635419903,958.8643314492768
3854.7832,0.6590237808215932,627.2656769326859
3855.6702,0.6633708929238981,1170.4581631747194
3856.559,0.6668616346215835,502.5622002738379
3857.4463,0.6694907086633878,887.211533710934
3858.336,0.6711455229687477,636.5916277576749
3859.2234,0.6717627916872635,711.235557124598
3860.1135,0.6715175769620432,863.9188416427547
3861.0015,0.6707353063647392,808.8704312700752
3861.8896,0.6696040137997196,965.0693186960794
3862.7803,0.6679543999166424,977.8626084798311
3863.6687,0.6654732430435719,754.5675790002022
3864.5598,0.662217957031162,764.1506099280792
3865.4487,0.6589926791135335,832.6373994287021
3866.34,0.6568527367165201,725.0629432855442
3867.2297,0.6562051002378414,836.0594266146428
3868.1213,0.6562068316580472,632.2282309612965
3869.0112,0.6552628837109139,913.4755220399111
3869.9014,0.6521524671238609,681.3019497987514
3870.7937,0.6467437877207456,983.474530854726
3871.684,0.6398195241354933,1060.1245677651127
3872.577,0.6322540962215809,839.5581518467931
3873.4678,0.6247372723798976,951.6129363826998
3874.361,0.6177382173631013,1050.9766560690766
3875.2524,0.6117758142933631,1023.8722036655281
3876.1438,0.6070924543024565,687.5352165354863
3877.0376,0.6033973158546317,893.8931981979381
3877.9297,0.5998821194234523,899.4914393805221
3878.8237,0.5955477583004225,1162.9853107058132
3879.716,0.5897307675672534,1262.451922317452
3880.6108,0.5822597979663965,973.9306636267403
3881.5037,0.5735950407113842,1271.650153667966
3882.3965,0.5646161582445351,961.1718476989693
3883.2917,0.5563571310095403,1132.3655555280545
3884.185,0.5495087549233251,1304.9652501805424
3885.0808,0.5437861876603761,1640.2256319376477
3885.9746,0.5381562724732629,1527.5502013946655
3886.8706,0.5314815482093692,1505.0656703109862
3887.765,0.5235330146131905,1118.3784561931109
3888.6592,0.5152427644046993,2337.191868991431
3889.556,0.5083292020474128,1394.5619524197334
3890.4507,0.5045328342154827,1659.4340906347732
3891.348,0.5047886487330813,1301.9925459182793
3892.243,0.5090059232939635,1397.8933692851574
3893.1406,0.5162735402357913,1272.8960287214652
3894.0361,0.5252549904133397,1243.0213776530143
3894.932,0.534804201846736,1494.9267978364278
3895.83,0.5442343167439609,1053.489310991039
3896.7263,0.5533031007406359,1102.5623288904812
3897.625,0.5621787022809235,1559.3864417719399
3898.5215,0.5709458424289636,1271.2482451097533
3899.4207,0.5795960610986193,1128.505974432585
3900.3176,0.587899801303984,923.558232115297
3901.2148,0.5957672691609395,1060.4950196633195
3902.1145,0.6032479650064366,1193.157412581396
3903.0122,0.6103396067667732,961.668455986216
3903.912,0.6169340307379791,908.6914648137673
3904.8103,0.622741003137467,1117.5366770620424
3905.7107,0.627706166378491,993.8186351144822
3906.6094,0.6321744209376021,1064.6052208159526
3907.508,0.6368937016376001,1098.1612919260729
3908.409,0.6425977943105907,1189.9712895173898
3909.308,0.6495780640053697,851.7954901203872
3910.2097,0.6576747558301699,737.8741802859943
3911.1091,0.6662989123870143,997.1826364497224
3912.011,0.674796246768978,797.7701840472907
3912.9111,0.6824494526176416,859.1324882435655
3913.8113,0.6887873463909154,741.138068568202
3914.7136,0.6936747167052449,850.0356181054236
3915.6143,0.6973170754968565,634.4555305238268
3916.517,0.7001897302893028,780.046979596027
3917.4182,0.7027417994411433,592.3846260514805
3918.3215,0.7052675222452592,680.7497080194138
3919.223,0.7077979779708679,784.9430757189048
3920.1245,0.710188751856249,1149.724677381934
3921.0286,0.7121928525363583,915.6933540769596
3921.9307,0.7135570297518586,733.1979488130464
3922.835,0.7141772108967932,565.7977222061963
3923.7373,0.7141705274469022,742.3218914331594
3924.642,0.7138592642125526,908.0585184713237
3925.5452,0.7135873215367189,679.9843835258481
3926.448,0.713513459426542,697.0150204480373
3927.3535,0.7135677474171311,600.930517128365
3928.257,0.7135911039811565,622.3112299730437
3929.1628,0.7135055408752063,613.0245387084856
3930.0667,0.7133444129040803,900.6892147481817
3930.9731,0.7131434027924369,800.4157699284494
3931.8774,0.7128487232342481,698.5604453568327
3932.782,0.7123414377336181,671.5406378629765
3933.6887,0.7115349381140359,791.4237692044286
3934.5938,0.7104235278980243,783.6547855645078
