wavl,flux,ivar
3566.9744,5.4698574514691956,152.63443592435644
3567.795,5.459822437671681,155.82039725527443
3568.6177,5.4463882160885,145.2465602460351
3569.4385,5.4326887432482,144.5044832088672
3570.2617,5.421221525083765,145.18445453163034
3571.083,5.413402285477118,151.89710803030275
3571.9065,5.408767740874476,160.17971330182885
3572.7283,5.40536531733539,148.62934686182496
3573.55,5.400923049711795,144.0240113120774
3574.374,5.394399300053959,154.32112727029667
3575.1963,5.386539476135504,154.0404897961472
3576.0208,5.378801805889484,158.09198577080463
3576.8435,5.3720029275656005,152.08800954671236
3577.6682,5.365469741472899,155.19207615872787
3578.4915,5.357696622402943,159.2348429609381
3579.3145,5.347526955678617,155.69675142105817
3580.14,5.335336103985688,155.15872679635538
3580.9636,5.3235531049155895,156.32724039707546
3581.7893,5.315705399371307,157.74242786001005
3582.6133,5.314976666577749,161.99723774196954
3583.4395,5.3224724171715145,162.4208493327129
3584.264,5.3364582253360195,157.15574076684914
3585.0884,5.352902626236057,140.29990244126432
3585.915,5.366899278238792,159.66968492461368
3586.74,5.374350027954745,152.33430435019565
3587.5671,5.3736324568854315,154.26649308838233
3588.3923,5.36587224114675,156.7158407450148
3589.22,5.354017042595323,158.75855915993534
3590.0457,5.341300722520218,157.2170037122987
3590.8716,5.329677419502406,159.9418656632131
3591.6995,5.319649052757099,155.78686559088337
3592.526,5.311091256747867,159.3376573526435
3593.3542,5.304076101885265,153.9880641083568
3594.181,5.2991770451875935,160.36598374917682
3595.0098,5.296594976453123,160.552363269714
3595.8367,5.2954796686446794,145.42937305572286
3596.6638,5.294051487070506,156.97215645723847
3597.4934,5.2907037929504765,156.03317823910493
3598.3208,5.285147986468462,152.13171175455005
3599.1506,5.278635159887673,149.8019179018428
3599.9788,5.273331849607911,168.1473455653354
3600.8088,5.270959535062372,165.7742654685365
3601.6372,5.271978642959157,162.63669116132408
3602.4678,5.2755287338706855,159.1625102326298
3603.2964,5.279950736660422,151.9527929282017
3604.1252,5.28335259372138,150.85012459489627
3604.9565,5.284020375699573,152.6668565640989
3605.786,5.28103705141916,162.65640051202098
3606.6172,5.2747867485189275,160.42511098848007
3607.447,5.266773211905936,156.4824903292294
3608.2788,5.25851645537882,150.9424922917547
3609.109,5.2506394133763745,163.68139585674624
3609.9392,5.242523833947875,156.94305029750623
3610.7717,5.23303097596978,154.52420220741527
3611.6023,5.221510151206678,156.99575686106633
3612.435,5.208156967779426,166.80640635657016
3613.266,5.194170068809735,161.54878461456775
3614.0994,5.181041819304321,178.81500904422614
3614.9307,5.170199942659103,166.53164556498072
3615.7625,5.162265696876332,156.30248425586788
3616.5962,5.156992535741532,164.03485702924485
3617.4282,5.153465627870774,172.85266429816204
3618.2625,5.15053596389348,163.86832037374748
3619.0947,5.147381326721419,170.18393894183865
3619.9292,5.143581817311178,180.79912937442484
3620.762,5.138968069475794,172.43846673635102
3621.595,5.133383108124804,169.19144569702138
3622.4302,5.126870511995811,170.3885846124166
3623.2634,5.1199543421467775,155.33027830466045
3624.0989,5.1133034487595825,168.4014082337481
3624.9326,5.107332587712026,174.01296284693476
3625.7686,5.101908373321796,176.01558485042483
3626.6028,5.096839116294855,182.31698430698353
3627.437,5.092126748664796,168.7102756795896
3628.2734,5.087822469838174,173.68592182876228
3629.1082,5.083665336140504,168.01113567267174
3629.945,5.079030503334696,166.6874954939196
3630.78,5.073457583859654,176.06317303351443
3631.6174,5.066838586791683,177.48120265431672
3632.453,5.059381903546637,165.43751266358532
3633.2883,5.051266902549385,167.07935757113566
3634.1262,5.042718493949239,173.18690713168127
3634.9622,5.034208688897516,182.54985068133453
3635.8005,5.026181928043426,178.90559074025956
3636.637,5.018963542325861,183.05061063498664
3637.4756,5.012506588418975,174.08517996139466
3638.3123,5.006708657908279,189.0025350079898
3639.1492,5.0015349608209005,178.66034062901247
3639.9885,4.997175453015364,174.48541268913448
3640.826,4.9939149849760796,175.06558343706496
3641.6653,4.991710540612627,172.74030061372213
3642.5032,4.990060172726562,176.9662856310437
3643.343,4.988253443784113,169.6247212301042
3644.1812,4.98596590683956,188.8647208666216
3645.0195,4.983422965086489,185.7535810227267
3645.86,4.981003448868863,176.11458752593023
3646.699,4.978753703630912,179.97623737446781
3647.5398,4.976359313713277,179.3010639819055
3648.379,4.973730185284605,180.3456781834997
3649.2202,4.97140996220645,180.93714426120874
3650.0596,4.970351660184481,191.6969192213811
3650.8994,4.970973851558065,182.45116857084068
3651.7412,4.972477857069652,172.2132848788143
3652.5813,4.973049234432225,180.79426016438086
3653.4236,4.970938599466372,173.7697325055286
3654.2642,4.965573888713355,176.66685701152286
3655.1067,4.957903533015884,180.71798620887213
3655.9475,4.949906707075846,166.99101971982992
3656.7886,4.943329942086975,173.12408452513054
3657.6318,4.938797311321544,192.84485926206588
3658.4734,4.935788478255229,182.3997505871745
3659.317,4.933397987774019,172.57993947741255
3660.1587,4.931256580049525,186.1581744621431
3661.003,4.92958615711716,180.92733341417735
3661.845,4.928677102590058,178.52556081659296
3662.6875,4.928393102705699,182.8240027661673
3663.532,4.928311756425215,189.40191386657125
3664.3748,4.928157780198965,182.89377542127352
3665.2197,4.928031508343731,179.77104856617737
3666.063,4.928240202988823,177.58651545454094
3666.9084,4.928934176119534,174.81912970504294
3667.752,4.929820818102893,176.332621623738
3668.5977,4.930136433463227,182.42694307468233
3669.4417,4.928883838811033,188.6486354681178
3670.286,4.92532158505672,180.27900350398474
3671.132,4.919444254369084,186.09757395056974
3671.9768,4.9121860398261274,182.74565572350923
3672.8235,4.904848294439512,177.6215182409238
3673.6685,4.898344306241384,198.9727462103249
3674.5156,4.89259432855756,176.65605043099285
3675.3608,4.8869954961706785,182.4209296574551
3676.2063,4.881086058488901,186.32148391703168
3677.0542,4.8749391076317625,188.26862152867594
3677.9,4.86888216611307,189.79751701983878
3678.748,4.86288352032539,186.3851273532307
3679.5945,4.856677077508053,183.4085122789771
3680.4429,4.850176792687509,185.81694655492979
3681.2896,4.844043329052775,189.0527451925081
3682.1365,4.839394649755211,208.06436706846247
3682.9856,4.837176952766653,178.47382177366484
3683.8328,4.8376470895265395,193.47127367946743
3684.6824,4.8403672100829365,194.86014534225117
3685.53,4.844470215991343,188.12182374020253
3686.38,4.848841825016706,187.75551675460525
3687.2278,4.852116200030567,190.4100266783643
3688.0762,4.853050105935246,179.7846747037831
3688.9265,4.8509793859619235,180.69638138656626
3689.7751,4.846168824827793,189.99447158155903
3690.626,4.839565376852379,191.8838793019729
3691.475,4.832323380998471,188.3716902372721
3692.3264,4.825235194618902,188.42127181904905
3693.1758,4.818802752766699,192.44551254595174
3694.0254,4.813377057858028,193.24712616092705
3694.8772,4.809387024151906,181.4932892806282
3695.7273,4.80712061982628,202.29058355772145
3696.5793,4.806207436988237,202.42611300920433
3697.43,4.805471317118895,194.7263703778433
3698.2825,4.803310599449923,186.780448634472
3699.1333,4.798557952308021,181.5509293882198
3699.9841,4.79114285829505,200.5243577154613
3700.8374,4.782118159979858,199.71268594501365
3701.6887,4.773136750351606,196.09168752054882
3702.5425,4.765456278006746,201.35929097449477
3703.3943,4.759599874453217,193.44559836946905
3704.2483,4.755270709772638,196.54790173298457
3705.1003,4.751944744735246,193.1164474877852
3705.9526,4.7492130103657875,200.22497362780834
3706.8074,4.74686629496455,191.66484642506177
3707.66,4.74468923092784,192.34552024590093
3708.515,4.7422899093654,197.78105029450373
3709.3682,4.739246162463975,194.52614103508736
3710.2234,4.735247633005301,198.70567208269085
3711.0771,4.7303111830876325,193.1952367755219
3711.9307,4.724791834426912,193.1843976839864
3712.7866,4.719270727497336,198.58291346736792
3713.6409,4.71429925352543,209.83165003978962
3714.4973,4.709970352201057,207.87784387717565
3715.3518,4.705948815396611,196.53203960514972
3716.2085,4.701731812560807,192.75267684280868
3717.0635,4.697242236586402,201.99231078345016
3717.9185,4.692974477638184,202.30444649268816
3718.776,4.689717888746663,194.59927967261115
3719.6313,4.6880253565170085,209.6449755344763
3720.489,4.687787454579453,188.41462552252014
3721.345,4.688227100136753,198.6443747506608
3722.2031,4.688020548076855,191.58354448318053
3723.0593,4.685549571392712,201.13592227441754
3723.9158,4.67945530322542,212.41184935223006
3724.7747,4.669484633843612,197.71206706059354
3725.6316,4.657223696733227,198.81472695122292
3726.4905,4.645462286120166,206.80396164381548
3727.348,4.6368548309728705,208.33267110088045
3728.2073,4.6323030282911235,200.67953432846429
3729.065,4.6309317399624454,207.12660256559374
3729.9229,4.631118146491565,211.53258092457233
3730.783,4.631716271797982,203.67698691591687
3731.6414,4.632332053566223,214.65353025164228
3732.5017,4.632881331285542,205.4603766922956
3733.3604,4.633142542489086,207.50601625212417
3734.2214,4.6328264737129,198.0779595043929
3735.0803,4.631971843922558,204.76922806715922
3735.9417,4.631107302114972,207.93809015081325
3736.8013,4.630820184392207,205.44961151476753
3737.661,4.631001339095387,211.7688696826089
3738.5227,4.63066668541987,200.19310337670413
3739.3828,4.62874024236739,199.6445049746192
3740.245,4.625083344257404,199.5690418178664
3741.1055,4.620707710952354,209.40696325242075
3741.9683,4.616855653695119,218.0765812414844
3742.829,4.61417353762039,208.10127038360275
3743.69,4.612572724391935,209.04294164645583
3744.5532,4.611780834846181,210.58144999738883
3745.4148,4.611586089225083,193.03358296001707
3746.2786,4.611559498303482,205.80870596250904
3747.1404,4.610883003251985,210.2151646421802
3748.0044,4.608752186453733,200.3670358150205
3748.8667,4.605047566410644,199.947874203618
3749.729,4.600448136715217,210.36967239383426
3750.5938,4.59590630932077,207.12839881316086
3751.4565,4.592114308571817,212.27325264213954
3752.3215,4.589318619556584,216.95263657521878
3753.1848,4.587590169041377,208.31903841285325
3754.0503,4.586829241242877,215.40475282790658
3754.9138,4.586692810032825,207.98636425985177
3755.7776,4.586637077045696,219.37594664856755
3756.6438,4.586178027033638,210.82256477222836
3757.508,4.585016231919212,224.37924336231427
3758.3745,4.582911903877628,216.24228402370164
3759.239,4.579685251194186,205.24955090838753
3760.106,4.5754039819503625,201.94160801370614
3760.971,4.570549424671531,226.45265189834367
3761.8362,4.5655574630667575,209.37668063270726
3762.7036,4.560327811596094,222.03082989377023
3763.5693,4.5543364899989625,217.06236124563134
3764.437,4.54729954882803,214.66313109826567
3765.3032,4.539898189813649,215.49276331921183
3766.1714,4.5334666063294,213.46782152675738
3767.0378,4.529314723968417,211.5218222409817
3767.9043,4.528025910650446,204.7522914853447
3768.7732,4.529354528340376,223.77776120078917
3769.6401,4.532177223019394,218.99842995480412
3770.5095,4.534664782081559,216.0969335090154
3771.377,4.53494632498878,219.71824066709118
3772.2466,4.53224476854609,212.05949695788004
3773.1145,4.527412109754037,212.61673145804568
3773.9824,4.522240020922283,208.71397486549395
3774.8528,4.518241705485601,220.51524230973467
3775.721,4.515994086092679,210.41417881198853
3776.5918,4.5152221219582716,228.7066772204146
3777.4604,4.515349834631554,220.6848404395396
3778.3315,4.515821680694394,218.42813283947174
3779.201,4.516251184982469,214.65757866507062
3780.0703,4.516555674618064,220.04108863176762
3780.942,4.51708325134025,212.2283500473026
3781.8118,4.5184469614124385,225.88759838673752
3782.6838,4.5208798254492795,211.503929827779
3783.554,4.523452463332041,214.505091560185
3784.4265,4.524118988484716,196.25894275792444
3785.297,4.520833565882484,201.80679858328085
3786.168,4.513066129650978,221.8510975452037
3787.041,4.502277194293113,220.3480222718885
3787.912,4.4910903669522515,213.53219033402908
3788.7856,4.4815353606806,225.72353767114737
3789.6572,4.474298357719963,222.03314139569486
3790.531,4.468730406718122,216.79916067276523
3791.403,4.463859582602001,227.17996235962536
3792.2754,4.459062312477813,221.93765950527936
3793.15,4.454401314610546,220.08803692656042
3794.0225,4.450546097921072,214.6104011305602
3794.8972,4.448297800542012,219.75354620882436
3795.7703,4.447985614316273,232.10941299640666
3796.6455,4.448776616593697,231.71839403347184
3797.519,4.448707837099282,217.28304074087072
3798.3926,4.445724925463721,227.7936732233853
3799.2686,4.439026268836128,227.23171634852702
3800.1426,4.429669984226815,232.46802954571424
3801.0188,4.419711881848805,219.95928368499546
3801.8933,4.411123345400768,239.17068983140862
3802.77,4.404889257056382,226.45532864248102
3803.6448,4.401162289462324,230.27506920674037
3804.522,4.399514162686886,223.41054665651353
3805.3972,4.39933086228829,232.43808175086673
3806.2727,4.400010996544053,219.64110097139928
3807.1504,4.401281652870663,225.70265893876993
3808.0261,4.403391969937022,217.08330612309607
3808.9043,4.406910867052038,231.3107959517214
3809.7805,4.411996628680952,228.63259010579827
3810.659,4.417954613968004,226.5278451160711
3811.5356,4.423406907036156,211.11017965380435
3812.4126,4.4271881350244255,236.27937356487521
3813.2917,4.428829909201911,217.52314205358465
3814.169,4.42841373486411,219.19382804831358
3815.0483,4.426129766075562,223.92435851854327
3815.926,4.422063236669151,222.3568300389201
3816.806,4.416244923972314,235.81858762970762
3817.684,4.408883455217154,228.87322383622535
3818.5623,4.400379166872393,221.62650012378168
3819.4429,4.391309999291903,230.04237818799453
3820.3215,4.382300485513405,227.42405722385718
3821.2024,4.373585909365525,219.07441253489242
3822.0815,4.3651575717807924,231.5583917680068
3822.963,4.356899648110216,229.13545763827395
3823.8423,4.3489956108976315,253.56010643622406
3824.722,4.341696928062072,234.66196551849308
3825.604,4.3350722592616275,226.4736112052418
3826.4841,4.32883787629602,250.15937654556734
3827.3665,4.322264417717759,227.53060724122253
3828.2468,4.314491438246797,256.7568148295962
3829.1296,4.3046717352077355,252.72172020543692
3830.0105,4.292435869892251,243.72335108697354
3830.8916,4.277925497028052,250.97203611100733
3831.7751,4.261819573815878,240.54474077754116
3832.6565,4.245271767896659,246.0983718355356
3833.5403,4.229352397362553,250.63665279930552
3834.4224,4.215192455452706,244.64835669362313
3835.3064,4.2036262843898955,247.86276636141417
3836.1887,4.195382780975724,247.41806686501755
3837.0713,4.190780244533814,238.55492662915321
3837.956,4.189719376092536,249.96196554983436
3838.839,4.191773685409763,265.60700083556077
3839.7244,4.196554522156721,244.20599590602657
3840.6077,4.2039603977259326,250.65869097656818
3841.4932,4.214172144933331,238.8103393908849
3842.377,4.227147150601172,248.68479560971957
3843.261,4.242509648344262,242.31007433351317
3844.1472,4.259582472625668,245.22013164770348
3845.0315,4.2774472404393515,240.31729902358492
3845.9182,4.295237968959505,238.15780319699704
3846.803,4.31169436575401,236.04525155745515
3847.69,4.325680450159208,237.78138995062363
3848.5752,4.336445541893453,234.43863710185542
3849.4604,4.344318037376686,252.35253631346507
3850.3481,4.350467152842277,227.93972985026846
3851.234,4.356198136169219,238.3147742007424
3852.122,4.362328571993023,236.81048135064856
3853.0083,4.368777690848826,227.4050502401657
3853.8967,4.374990436069426,231.0138542081457
3854.7832,4.380391574674402,223.2136865818937
3855.6702,4.384791510585403,231.60473368647826
3856.559,4.388171292485904,228.19839748863413
3857.4463,4.390405906632073,228.77213874746954
3858.336,4.391274196585682,232.8805743849325
3859.2234,4.3905640248180555,225.84108205268805
3860.1135,4.388138949348358,220.5217845485583
3861.0015,4.383927850172022,221.0489939716079
3861.8896,4.377954414321045,218.3897870792364
3862.7803,4.370474483919348,230.87625922676995
3863.6687,4.362049512686766,233.47843886291963
3864.5598,4.3531772718752855,243.25872245229965
3865.4487,4.344168061310647,229.8701939123237
3866.34,4.334801551803801,247.11430354070458
3867.2297,4.324638801251941,220.7146550682377
3868.1213,4.3132099274013465,235.4311879045546
3869.0112,4.300555394132673,253.17820229510477
3869.9014,4.287113745440255,250.9209223823658
3870.7937,4.273438399478349,253.9722269194136
3871.684,4.259882973399507,249.65825171445329
3872.577,4.246338556931206,239.69010975546928
3873.4678,4.232829883171565,247.75073007821763
3874.361,4.2194186737770165,255.3480477635538
3875.2524,4.206094492357806,243.7115650763965
3876.1438,4.191999741965872,258.28407602581547
3877.0376,4.175561241481286,245.03600726174994
3877.9297,4.155502912071692,245.44760462701387
3878.8237,4.131544176019657,256.5547839168757
3879.716,4.104871784240951,262.81030999909507
3880.6108,4.0769339910420195,273.3574758160635
3881.5037,4.048995386590701,276.7239287317125
3882.3965,4.0214007911225425,274.9149965169837
3883.2917,3.994053459378159,273.3916804803932
3884.185,3.966946942209926,283.90314109873003
3885.0808,3.9397997642335536,266.98143547246246
3885.9746,3.9127522446188725,281.745247073896
3886.8706,3.886203163318311,310.0087810065876
3887.765,3.8616057942001962,286.147038630865
3888.6592,3.8409500634626283,310.94773742153995
3889.556,3.826406942615364,309.7860868941163
3890.4507,3.8196831958434356,317.65311600155803
3891.348,3.8212273744930334,310.32542447876244
3892.243,3.8302344231226093,307.6498259659075
3893.1406,3.8451681963793813,286.04448143147624
3894.0361,3.8644300108128244,283.9095030522551
3894.932,3.8872305729944165,290.9022175317098
3895.83,3.913473549579161,286.4211358352741
3896.7263,3.9429083519748294,294.7692404927346
3897.625,3.974924896582404,290.76619181206337
3898.5215,4.007812942318164,271.72475722602456
3899.4207,4.03994878869117,271.5985281361714
3900.3176,4.070010165397725,268.23990872405955
3901.2148,4.098160610547668,273.11224405631293
3902.1145,4.125501820895781,252.94129454062488
3903.0122,4.152985231426688,255.2226662222929
3903.912,4.181023631312463,246.75451865597591
3904.8103,4.208810611863663,254.2448909512154
3905.7107,4.2352795377749715,256.4241820734209
3906.6094,4.25924001935761,246.39011093080308
3907.508,4.28013830551077,230.05712457103328
3908.409,4.2979787143591315,236.14962166505066
3909.308,4.313206151808315,238.10781939752025
3910.2097,4.3268711200280014,228.38540185181554
3911.1091,4.340088583650093,232.61392138063138
3912.011,4.35396426423117,234.36309876018123
3912.9111,4.368973649596171,237.93354060660437
3913.8113,4.384942651482747,222.144086155952
3914.7136,4.4009146067762455,235.42281832460841
3915.6143,4.415307060625386,222.07951736037776
3916.517,4.426836994903847,225.3860096656089
3917.4182,4.435058911844372,224.04319049444274
3918.3215,4.440827192074034,220.6501596443265
3919.223,4.445650881297365,222.75673043802874
3920.1245,4.450934503321161,227.73627075644845
3921.0286,4.457344458066657,225.85443347016258
3921.9307,4.464710654321968,207.09156599700324
3922.835,4.472428607370237,224.28211167358302
3923.7373,4.479610670610653,223.87426274947506
3924.642,4.485401542803648,211.54413505802788
3925.5452,4.489112372397063,213.11871407730425
3926.448,4.4906965170123065,210.51213344449658
3927.3535,4.4908451006653465,224.63983540985657
3928.257,4.490585606142154,224.0423897417828
3929.1628,4.490476370748659,221.57664493136946
3930.0667,4.490050694961893,215.18502547152997
3930.9731,4.488024829858265,220.78186163549492
3931.8774,4.483166518032243,214.5613480485654
3932.782,4.475071149567061,223.90971840641748
3933.6887,4.464342129612629,224.41599595112888
3934.5938,4.452221729929094,228.68197351043787
3935.501,4.4396907751745935,222.84233170638237
3936.4062,4.4271464262198466,217.66984394491777
3937.3142,4.414153590388105,220.75216282794096
