wavl,flux,ivar
3566.9744,2.5579973692071847,390.6851971046682
3567.795,2.554850105885118,374.5430633148026
3568.6177,2.5532546175423323,339.9101274374427
3569.4385,2.5517735133594313,355.95763749204485
3570.2617,2.548968631666955,369.2306346897786
3571.083,2.5444389593211443,393.7470761066489
3571.9065,2.5389891280000816,359.7447278158202
3572.7283,2.5341016362582844,340.0191191316568
3573.55,2.5311285352669635,365.80823536169544
3574.374,2.5309927072862246,401.45941854962103
3575.1963,2.5339734108094807,373.81600753720113
3576.0208,2.5394661238189977,368.2321251097429
3576.8435,2.5459853817384537,357.2550900749963
3577.6682,2.551920556090937,418.67808744779506
3578.4915,2.5562968903637224,407.7060715766652
3579.3145,2.5591279751752234,365.496750057711
3580.14,2.560879337745929,334.29792288829486
3580.9636,2.561851796699274,388.09135111627904
3581.7893,2.562065777642424,365.40508489516094
3582.6133,2.5614326065519486,364.3160529511831
3583.4395,2.559866571256212,345.9293179346902
3584.264,2.557314281515448,338.0085899011486
3585.0884,2.5538935800961635,341.77574592474474
3585.915,2.5500966835427517,382.149952541298
3586.74,2.5466908190912125,364.0623418284149
3587.5671,2.544115412863869,402.4946515470912
3588.3923,2.542086494278077,365.11140717911
3589.22,2.5396959258661305,375.234859568021
3590.0457,2.5360953517006997,380.07276142332285
3590.8716,2.530909798444006,390.5235382982357
3591.6995,2.5242166527335197,361.0343017921473
3592.526,2.516464912248432,378.04214790356656
3593.3542,2.508444166285149,416.18970915679137
3594.181,2.5013206111058683,415.28553420582676
3595.0098,2.49588452703715,376.69900824687534
3595.8367,2.49200579281962,375.40423752860295
3596.6638,2.488730060679356,386.6053276044919
3597.4934,2.4853965765795896,375.38833338294387
3598.3208,2.482467009481368,405.6960388139937
3599.1506,2.481057887632433,387.5895020036151
3599.9788,2.481775287872597,371.4132027376157
3600.8088,2.483974392574339,383.65082568280747
3601.6372,2.4862617571568864,358.933537079037
3602.4678,2.4876392103267757,433.87040514598
3603.2964,2.488097065518825,353.4885568226674
3604.1252,2.4883728675611776,414.04633446543045
3604.9565,2.48928107337867,368.56084665569097
3605.786,2.4912902535548698,411.98719396305785
3606.6172,2.494509998237897,402.44851524416606
3607.447,2.498730874365835,377.6930676258279
3608.2788,2.5034112990798953,370.1704235426361
3609.109,2.507477015037501,412.5345906605678
3609.9392,2.509475502137582,389.25084895587736
3610.7717,2.5079920295531415,400.48085807958955
3611.6023,2.502341849678169,374.8378913347626
3612.435,2.4929610199281447,369.1613616898961
3613.266,2.481481037429386,391.0042479197391
3614.0994,2.4701167157857693,399.9062527838176
3614.9307,2.4611633557142154,425.42583420827253
3615.7625,2.4559900274874336,402.6459319293083
3616.5962,2.454450643685909,420.96905500039367
3617.4282,2.4546943688284375,398.99254976609654
3618.2625,2.453991207582193,401.692685906504
3619.0947,2.450287865688793,424.0551970494714
3619.9292,2.4433290386027466,383.7350994653328
3620.762,2.434655553803191,379.3733230165806
3621.595,2.42637180393003,467.28118768140615
3622.4302,2.4199292048486325,444.8782881260689
3623.2634,2.4155647430482965,363.28296783962
3624.0989,2.4124918558114667,426.27086185030254
3624.9326,2.4099123755118095,461.0423961011901
3625.7686,2.407843298577444,396.6556221729959
3626.6028,2.407259868632368,398.39956694498346
3627.437,2.4090890231129802,391.5114532984345
3628.2734,2.4129797097906454,442.41401709452396
3629.1082,2.4169557029332878,401.2893377139202
3629.945,2.4186008686854064,367.1891705861781
3630.78,2.4166147104686835,394.906599009392
3631.6174,2.4114465473330444,418.7077310992564
3632.453,2.4044655326299886,395.9348524956136
3633.2883,2.396433893106803,400.00033085840556
3634.1262,2.386846721293826,430.7132947206807
3634.9622,2.374702544270068,359.8188688294996
3635.8005,2.3597103327322833,394.38289672666804
3636.637,2.343457808779647,431.5396806337798
3637.4756,2.3286952819562194,504.72553685539975
3638.3123,2.3180703070367055,442.98804507496664
3639.1492,2.312312270183934,440.1970699921961
3639.9885,2.310025157429296,430.6644221149207
3640.826,2.308730241512223,482.8569414648369
3641.6653,2.306510706228682,461.76316850352424
3642.5032,2.303092339048857,479.0878676048965
3643.343,2.29954250729652,467.155011880133
3644.1812,2.2971549684637793,467.89241369928277
3645.0195,2.2963480651253536,455.8034009028363
3645.86,2.2964663076264182,415.4827675295947
3646.699,2.296233768305526,511.9551539818771
3647.5398,2.2943505415750693,462.56831298132244
3648.379,2.289936337226521,431.077163427062
3649.2202,2.2828494296545707,429.53151974939965
3650.0596,2.274032543517225,465.4255137818756
3650.8994,2.2651551670372316,477.67434248641797
3651.7412,2.2578340238653656,428.7638481626687
3652.5813,2.252882336470478,467.6731688177261
3653.4236,2.250208474682914,438.3292375843799
3654.2642,2.249541244446527,456.8564368148213
3655.1067,2.25083091994987,497.11216514391384
3655.9475,2.2540416899087212,409.28922786013624
3656.7886,2.258613403085213,424.2936846132907
3657.6318,2.2633062084067452,580.2013565980333
3658.4734,2.26671120008373,442.5323048641156
3659.317,2.2681880954441187,467.5268417129565
3660.1587,2.2682034017945334,461.0566477102967
3661.003,2.267883021158524,490.2313510858275
3661.845,2.2681195539974492,471.75015978137054
3662.6875,2.2691241742242596,483.0307626751138
3663.532,2.270668215030445,465.6917359294781
3664.3748,2.2724098698075794,470.4999902667788
3665.2197,2.2738222386360993,449.5439764893804
3666.063,2.273862150279544,485.47131163691654
3666.9084,2.271145934631741,434.11426780417264
3667.752,2.2647724046020468,492.2172879658258
3668.5977,2.2551134060927733,441.3635943633394
3669.4417,2.244084388674561,433.39283186158076
3670.286,2.2342665618156095,449.19297355103197
3671.132,2.227786023397693,490.3656634190906
3671.9768,2.225382926926776,476.9749136149332
3672.8235,2.2262037984537058,449.9379374970789
3673.6685,2.2285842097730697,456.0380345075972
3674.5156,2.23104328938833,448.9240290765477
3675.3608,2.23274700280537,470.0196066750352
3676.2063,2.2333905023096423,511.38035186790756
3677.0542,2.232830907986857,449.14905817285614
3677.9,2.231006605435498,512.0962885148564
3678.748,2.2280628480981974,482.05523460330437
3679.5945,2.22456029120023,453.66009859585455
3680.4429,2.2214008707975608,478.18699266867907
3681.2896,2.219506955454536,572.5755824249356
3682.1365,2.2192385213501113,476.6083423618367
3682.9856,2.220229024072933,443.50848200214665
3683.8328,2.221661566866709,491.31109965422434
3684.6824,2.222644106746699,499.47547655716363
3685.53,2.222288677698899,515.2324201890848
3686.38,2.219906934443303,481.26677483583387
3687.2278,2.215596145280985,496.5097944618655
3688.0762,2.2106418215305115,504.1981587060319
3688.9265,2.2070654300718995,525.900270732132
3689.7751,2.206401585146278,486.2652294160534
3690.626,2.208750930878807,473.49758565102053
3691.475,2.213025284888472,547.911386336464
3692.3264,2.218000687449139,478.14683472239074
3693.1758,2.2230300487773302,501.93686964805255
3694.0254,2.2280854020535004,553.5911679157006
3694.8772,2.2331341891193497,481.89804644657886
3695.7273,2.2376180232556386,539.3791542983261
3696.5793,2.240559144640473,539.9425786139465
3697.43,2.240981598440618,494.60708404682293
3698.2825,2.2385169913453336,477.95237126478344
3699.1333,2.233661080717292,489.4225302069296
3699.9841,2.227504140956465,469.14434946728403
3700.8374,2.221070643226589,532.3766792936485
3701.6887,2.2147821658441535,497.2018019209745
3702.5425,2.2083666866614853,505.59214054488336
3703.3943,2.2017112077616137,507.3074795395923
3704.2483,2.1954039685638325,532.5269718653849
3705.1003,2.190710783417104,580.7224128879418
3705.9526,2.1886169864958225,506.94853689931
3706.8074,2.189193365680677,547.2192724170911
3707.66,2.191565487564919,556.63930011436
3708.515,2.1944333543534613,486.8687187313608
3709.3682,2.1964941021298596,484.95879412881976
3710.2234,2.196700397189746,478.75347785588946
3711.0771,2.1944070556551467,477.4470205977236
3711.9307,2.18966764200346,536.7226291990369
3712.7866,2.1833799876047704,545.0027187951424
3713.6409,2.177087902221884,508.6974057369629
3714.4973,2.1721627073695218,519.7912783009391
3715.3518,2.1692702722431676,561.8209735298294
3716.2085,2.168280570306474,522.2550854681648
3717.0635,2.1688946158651725,548.5583870293433
3717.9185,2.171104833015749,531.4320669462782
3718.776,2.1750914161235437,524.9340029452887
3719.6313,2.1805772467362,456.90481926726267
3720.489,2.186481211291112,517.2015697410535
3721.345,2.1910292240746445,506.9528286535792
3722.2031,2.1926188805878875,538.5784387272672
3723.0593,2.190657877792093,519.4405687471196
3723.9158,2.186043495986491,498.33200859662435
3724.7747,2.1807077038365614,549.3978747436574
3725.6316,2.1765748884715115,585.2080744863542
3726.4905,2.1744217199162637,541.4213226665717
3727.348,2.173673074383151,507.0222023026059
3728.2073,2.172930839162562,525.4580720058315
3729.065,2.170906555475748,510.5272554306236
3729.9229,2.1671025218253743,507.03116288837896
3730.783,2.162032041192443,503.6261248884023
3731.6414,2.156996273517775,534.4613200459257
3732.5017,2.1533252575344375,574.3934068380677
3733.3604,2.151697259388735,527.3994926418179
3734.2214,2.151748887857255,516.8196375492461
3735.0803,2.152405045408878,571.73274293456
3735.9417,2.1525330758057413,513.4451563019039
3736.8013,2.1515125902564876,528.5194427388718
3737.661,2.1494450525323763,510.47442868935315
3738.5227,2.1469038610832336,576.2224737255885
3739.3828,2.144400176404435,563.2539302813022
3740.245,2.141892594642848,568.7876672159084
3741.1055,2.138981992330622,529.6752325640815
3741.9683,2.1354823120741475,534.5213448532718
3742.829,2.1318251377471813,555.9560154179416
3743.69,2.128641439319612,519.4698327806129
3744.5532,2.126242429901743,511.93278761004655
3745.4148,2.124633521161325,487.0465850819361
3746.2786,2.12397144022228,523.0596909829068
3747.1404,2.1248753498812776,551.4834578380319
3748.0044,2.128059779964806,574.9172002667495
3748.8667,2.133629235387076,583.07602442191
3749.729,2.1407651215065595,520.6487930869657
3750.5938,2.148003741487929,504.4959702074518
3751.4565,2.153792244590133,563.797695251545
3752.3215,2.1571006477620305,501.9349682547428
3753.1848,2.1574628026217897,592.004101554354
3754.0503,2.155026538315352,553.8734595805514
3754.9138,2.1505649465816945,477.43809828205974
3755.7776,2.1453003881115444,528.7902768961429
3756.6438,2.140378141177703,544.914547916007
3757.508,2.1362970205674254,537.7107484680033
3758.3745,2.1327472320770515,543.2477050951936
3759.239,2.129279684187623,583.1368528780414
3760.106,2.1258965560521577,553.21585395571
3760.971,2.123199976280299,527.0295413010869
3761.8362,2.1217382256838553,595.6260691509857
3762.7036,2.1213289703007527,593.4719598410909
3763.5693,2.1209318432111814,594.4550593921598
3764.437,2.119328019777473,553.8162468936453
3765.3032,2.1160378741722914,527.1776234189546
3766.1714,2.111581172665819,535.1702710684731
3767.0378,2.1070368156835046,582.2701757463545
3767.9043,2.1033047841919346,555.3318465155039
3768.7732,2.1008365804641644,550.0776022974679
3769.6401,2.0996677830983947,570.9698066812732
3770.5095,2.09934260891507,575.0839195686542
3771.377,2.098850975799902,578.9354926186397
3772.2466,2.0969011860006637,569.5032007421188
3773.1145,2.092786466502267,573.3842218138916
3773.9824,2.087165865196739,625.8669752586599
3774.8528,2.081974621671091,605.4301748693413
3775.721,2.0793928375588875,559.4365067153178
3776.5918,2.0805296207464257,593.3136262432567
3777.4604,2.085030094466362,628.3927769081356
3778.3315,2.0915792793121746,538.5347870139857
3779.201,2.0985579847309226,529.4229718588539
3780.0703,2.104532030345742,582.9049188734062
3780.942,2.108332780802821,559.4117156046627
3781.8118,2.1092559102556123,565.308856308455
3782.6838,2.107406141210228,597.0902579707459
3783.554,2.1036711192701003,538.1192517480379
3784.4265,2.0992451634181117,580.6456792705426
3785.297,2.0951480190977056,685.1876484289177
3786.168,2.0919036803556774,567.057771342937
3787.041,2.089653223743523,582.1623910980278
3787.912,2.0882992182736286,586.2481275630028
3788.7856,2.087513711625702,569.0949208776249
3789.6572,2.086810925100737,560.240673304997
3790.531,2.085733179860846,553.1579239320006
3791.403,2.0841454953658674,623.2855836765127
3792.2754,2.0822515906359844,591.4761434700833
3793.15,2.08027004050836,606.8348177901969
3794.0225,2.078109445801109,592.8238798424387
3794.8972,2.075427003095686,617.1406078057648
3795.7703,2.0721167731017567,611.7302507775933
3796.6455,2.068473885367085,625.7539660330565
3797.519,2.064951389576033,634.711829779503
3798.3926,2.061721119212264,635.3883966112858
3799.2686,2.0587388079262148,678.5080078548447
3800.1426,2.0561378467278457,620.5866484844449
3801.0188,2.0543610430673653,561.8216986051184
3801.8933,2.0539122318788183,598.831824562744
3802.77,2.0548054562857736,617.6175764100248
3803.6448,2.056406720284342,585.5853784140617
3804.522,2.057988133431762,595.8611780644475
3805.3972,2.0594954801290406,634.0605194266423
3806.2727,2.0616635077667906,612.6885499312855
3807.1504,2.0651458227459454,600.4044477608675
3808.0261,2.069611186347229,625.0784650176399
3808.9043,2.0739256419508885,629.4591831197182
3809.7805,2.0769804721586365,622.3460556880838
3810.659,2.0784159732415763,596.1004501729292
3811.5356,2.078473861290321,611.3337073350935
3812.4126,2.0776301475526404,654.0043025020061
3813.2917,2.0763566926600556,624.7104749009944
3814.169,2.075035057990598,642.4114426542806
3815.0483,2.0737565306584345,597.827091911272
3815.926,2.072247085162894,679.5529200226315
3816.806,2.0700644825129766,614.280103880733
3817.684,2.067048625336295,651.3483007401396
3818.5623,2.063505197541764,643.8361359218313
3819.4429,2.0600116740232086,617.1209465054865
3820.3215,2.05703304006798,705.5847688630353
3821.2024,2.054595639367336,614.6434808306175
3822.0815,2.0524084970599294,598.5563887138717
3822.963,2.050068456565775,627.6005577730062
3823.8423,2.047269092967583,614.9925073459334
3824.722,2.0437504497081957,642.3550719309773
3825.604,2.039273423972879,672.4026235807553
3826.4841,2.033778752747895,625.5649086762023
3827.3665,2.0275346946336943,615.5777172486321
3828.2468,2.021323927962569,614.0211053982546
3829.1296,2.016050068101437,699.6799340174873
3830.0105,2.0122861885105054,621.1412336104319
3830.8916,2.0097700300034753,664.9962689960399
3831.7751,2.007606262890598,644.518249705912
3832.6565,2.0049394478964566,656.3371589056976
3833.5403,2.0015993325484542,646.3872812309794
3834.4224,1.9983343131809548,704.3941065323305
3835.3064,1.9962936613081381,654.8339661135649
3836.1887,1.9963264195048023,653.1318605529663
3837.0713,1.9984878571629872,672.2459070250587
3837.956,2.0022006882319334,531.7819957187234
3838.839,2.0067142679665086,634.5679157688966
3839.7244,2.0115409980737935,648.8246100151464
3840.6077,2.0163815728628522,661.8667724749736
3841.4932,2.0210392708734064,725.2681434365822
3842.377,2.0252966667644516,656.6270330022071
3843.261,2.0291100751249007,629.7292900358947
3844.1472,2.032615295198544,632.6794199266793
3845.0315,2.0359372107646934,661.8604284099522
3845.9182,2.03902268335364,653.3709109643611
3846.803,2.0415332677841787,644.1017261782379
3847.69,2.0430755569459675,614.7945150252318
3848.5752,2.0434001467229943,633.6843822576977
3849.4604,2.0425823533642333,746.8193170375254
3850.3481,2.040978584329547,624.0879158485104
3851.234,2.039088606732519,616.0363990413359
3852.122,2.037352507364329,686.9643209914085
3853.0083,2.036062326859925,709.7144322773369
3853.8967,2.035207201266556,630.8748456115668
3854.7832,2.0344005731848758,669.0436798818178
3855.6702,2.0330016655930097,648.6510340676681
3856.559,2.0305638060568483,626.7233920686408
3857.4463,2.027262876574922,663.5807012143958
3858.336,2.0237903634453156,672.5531963453094
3859.2234,2.020880563628007,663.4115484034891
3860.1135,2.0187474305755195,644.0100818382876
3861.0015,2.01709189451395,658.9383397774536
3861.8896,2.015398197961297,686.4931937155931
3862.7803,2.013334891946089,665.2686206951726
3863.6687,2.010931635047822,713.3642049261564
3864.5598,2.0084609774816524,654.873123156961
3865.4487,2.006281117419162,677.5622642152979
3866.34,2.004586915497655,646.179813081461
3867.2297,2.0033740013240955,574.8780235804999
3868.1213,2.0024874156474306,652.1214686309204
3869.0112,2.0017927472233787,669.6261805401914
3869.9014,2.001217564495928,708.5635897025791
3870.7937,2.0006676076996994,667.7791969783198
3871.684,1.9999102980196128,700.5662177393712
3872.577,1.9985791661007875,707.7651034662911
3873.4678,1.9963827069576645,652.3130210311533
3874.361,1.9933195730681357,661.2661863743352
3875.2524,1.9898472837967092,653.3537961781902
3876.1438,1.9867386972443242,660.8106109303549
3877.0376,1.9847838232280897,686.3468244135703
3877.9297,1.9843124999157338,707.5106301182975
3878.8237,1.9847041735152402,705.4090067010845
3879.716,1.984360059280126,698.4174385127602
3880.6108,1.9813717079516613,685.8807143200949
3881.5037,1.9746918929377661,689.509966765633
3882.3965,1.9648680261081568,682.7373462667714
3883.2917,1.953742354861841,739.114123090344
3884.185,1.9434286530457263,728.0562165470338
3885.0808,1.9350403998781562,662.4965573897099
3885.9746,1.9285935193865544,733.4835019201066
3886.8706,1.9233627490648875,721.7368835021637
3887.765,1.918799815751822,725.6607157857048
3888.6592,1.9149324481224592,723.6388227668031
3889.556,1.9123032744572641,704.1974743816709
3890.4507,1.9114298940888599,753.6764953689291
3891.348,1.9122348195860654,712.6468022839941
3892.243,1.9140083753693067,747.2853628409039
3893.1406,1.9158694035161135,688.7708523571766
3894.0361,1.9173005991865935,730.6949819005496
3894.932,1.9184249485220428,797.533534375203
3895.83,1.9197653711156768,754.8162699130048
3896.7263,1.9217526260387716,702.9623247725697
3897.625,1.9244243405135657,723.5167949592196
3898.5215,1.9275413685584806,772.9848029471872
3899.4207,1.9311512977305911,744.8674632301877
3900.3176,1.9358116223250255,668.1503662303702
3901.2148,1.9423019812192028,714.8088343483538
3902.1145,1.9508754570232096,727.6627225458967
3903.0122,1.9607618491697534,726.8338870562956
3903.912,1.9706060705345894,711.8531388925192
3904.8103,1.9790292843548245,663.5748781743606
3905.7107,1.985399519236074,667.117666662353
3906.6094,1.9898498078981883,668.1194367060625
3907.508,1.9931119023389623,657.1102301441872
3908.409,1.995987440499019,729.468353167311
3909.308,1.9989143649973116,673.8003828670177
3910.2097,2.0018410969516562,645.5382682957328
3911.1091,2.0043190603915786,681.2447127625468
3912.011,2.0059003336045103,663.7541575745422
3912.9111,2.0063891433597867,698.6190791620152
3913.8113,2.0059478250933016,640.7879766726196
3914.7136,2.004959027361806,701.4524387044232
3915.6143,2.0038748145191123,647.3699217652792
3916.517,2.0030580503545132,673.5832628690542
3917.4182,2.002666010977677,694.2610134945197
3918.3215,2.0025637806431935,661.0362141120933
3919.223,2.0024232821325594,693.9536860892605
3920.1245,2.0019728317961465,672.6657172518368
3921.0286,2.001235632820502,687.9561497870073
3921.9307,2.000574171775443,674.1903852106142
3922.835,2.0004701857980254,702.7395405609273
3923.7373,2.00120337800005,712.8221065478408
3924.642,2.0026251616871313,689.3005986204283
3925.5452,2.0042000105879545,687.1135495190204
3926.448,2.005337570195764,654.9745722460634
3927.3535,2.0056898016805724,762.8322837755272
3928.257,2.0051654777068153,676.6226837698964
3929.1628,2.0036560423866887,692.032248293273
3930.0667,2.0007839374152865,718.7186372141564
3930.9731,1.9959657080572097,721.9791107287462
3931.8774,1.9889883090577005,677.3834720433008
3932.782,1.9805062485710063,652.2518151408018
3933.6887,1.9721947919403289,669.649216318333
3934.5938,1.9661844038311616,823.5624572128562
3935.501,1.9638273277244418,720.2301361917632
3936.4062,1.9649266410597181,704.6788025968785
3937.3142,1.9677717863065722,664.222003173875
3938.22,1.9701604816466713,713.9900095739656
3939.128,1.9707076754873107,703.2437012118778
