wavl,flux,ivar
3566.9744,3.2198106468062915,113.08164400419317
3567.795,3.200135993696608,108.05068914200643
3568.6177,3.179819200609804,102.77645159191444
3569.4385,3.165613368480933,158.80957592612438
3570.2617,3.1601323818850977,125.65718006801147
3571.083,3.162082319215693,92.83202399293651
3571.9065,3.168183803238437,102.95250153851308
3572.7283,3.175330521143641,108.17096054260914
3573.55,3.181521286047195,140.6140546532762
3574.374,3.1855797223479545,107.89346408099534
3575.1963,3.1868829828978367,127.88413443385483
3576.0208,3.1855666866846426,98.341829165113
3576.8435,3.1823438362478607,115.13518813135613
3577.6682,3.1775683282407665,142.93827558506575
3578.4915,3.17052334440092,187.12494006862522
3579.3145,3.1601908827425564,147.80402960440745
3580.14,3.147504734233933,94.30190829596482
3580.9636,3.1369350637899602,153.14068627408207
3581.7893,3.134685196444911,133.05736591683694
3582.6133,3.1448529712670243,126.21933763925672
3583.4395,3.166444752433293,92.6109349526369
3584.264,3.1936998841624145,101.86688177480328
3585.0884,3.2196160464663977,145.53016462644047
3585.915,3.2388451349651803,127.34205419366893
3586.74,3.24845910161136,140.64687329228357
3587.5671,3.247503918729219,104.32607948250113
3588.3923,3.236052958892532,93.77311546926106
3589.22,3.215293957510058,127.19896786232334
3590.0457,3.1885250960264395,112.43589968398464
3590.8716,3.161170655612143,131.064575573921
3591.6995,3.1398046419378196,115.13260871206461
3592.526,3.1296412351757317,111.13214612297946
3593.3542,3.1318715991427037,100.81662843113462
3594.181,3.143683525215553,130.5325019804938
3595.0098,3.160431101068,153.59372970248003
3595.8367,3.1775721024603567,143.35588433395617
3596.6638,3.1912028552436666,91.0718503275536
3597.4934,3.197174458209147,113.90380409526038
3598.3208,3.191607863788483,125.1762548726221
3599.1506,3.1732211783200213,84.7634863252841
3599.9788,3.1455063757928383,96.6596901732035
3600.8088,3.1159806728290307,117.88994737891049
3601.6372,3.0936112005041365,162.72548923762153
3602.4678,3.084929282448173,111.06716095191383
3603.2964,3.0924527337343832,91.33115849405462
3604.1252,3.1144804356692393,111.10166490816815
3604.9565,3.146550356137705,122.15181891889924
3605.786,3.1828207131888315,104.12422903971901
3606.6172,3.218398342036548,108.92029775215535
3607.447,3.249723890464082,155.58226789195683
3608.2788,3.2751665962047625,114.62166901806431
3609.109,3.2939268229288796,150.1684251575425
3609.9392,3.3056503470998484,116.34372197434939
3610.7717,3.3094903833943854,100.97928099059563
3611.6023,3.3042774929704217,115.55287598129118
3612.435,3.2900181763185774,94.43098056972438
3613.266,3.2697898530311664,109.3402119116759
3614.0994,3.2492832656184496,108.7275880834978
3614.9307,3.2339739295062975,108.40992148395486
3615.7625,3.2250297379944866,122.13860803828096
3616.5962,3.2186924973945232,100.68058175320417
3617.4282,3.209248241036537,167.65970880196778
3618.2625,3.1930706976566223,90.62042351383512
3619.0947,3.1707853528559355,113.15752620446268
3619.9292,3.145815433444337,104.5894705550828
3620.762,3.1221016732875366,146.08218117702353
3621.595,3.1014518983852675,116.79818180452212
3622.4302,3.083186357049086,136.88958704949025
3623.2634,3.065646899779696,120.89679095783319
3624.0989,3.0479246609976154,134.81163820581332
3624.9326,3.0307537094025725,120.1867370585463
3625.7686,3.0146556471528756,130.55392957837685
3626.6028,2.998700117556728,138.56898796101856
3627.437,2.980945984114034,139.6425575048426
3628.2734,2.9612063828300883,119.63328780994726
3629.1082,2.943379810920535,119.17670687905402
3629.945,2.934757127141169,125.55882053373742
3630.78,2.9433153044529394,117.64698630330452
3631.6174,2.9736854329246425,170.18113478584803
3632.453,3.023940905955726,138.98033543685312
3633.2883,3.0857057378635573,123.8638240703411
3634.1262,3.146849321752157,143.058865768387
3634.9622,3.195347996290739,94.80255464225962
3635.8005,3.224198047533599,110.46984286968902
3636.637,3.2318859580204315,95.85378083847782
3637.4756,3.221940067520842,107.10073712100609
3638.3123,3.2005062968762235,106.93145997015903
3639.1492,3.174188708091309,108.72791177001946
3639.9885,3.148657829329276,122.54910536317824
3640.826,3.1281096249638893,91.34520190358876
3641.6653,3.1143111661190677,112.99229016988431
3642.5032,3.1067253273047553,100.34613546500799
3643.343,3.1028878808294453,129.96048452913124
3644.1812,3.100387096695017,100.58345193180295
3645.0195,3.0987235206624786,149.14579254933642
3645.86,3.0995591550784938,101.05614424871449
3646.699,3.1048678569358388,157.32211439385463
3647.5398,3.114960437926139,137.92796895568577
3648.379,3.128024285682258,103.56054530385019
3649.2202,3.1411545552127023,128.95650445731533
3650.0596,3.1506700366919125,97.87198887835345
3650.8994,3.1525183405294612,136.7719597289806
3651.7412,3.143615206415343,114.43933930696016
3652.5813,3.125070886579773,102.14137126992074
3653.4236,3.1035373333088203,132.42700420445533
3654.2642,3.0882636384640563,157.36571343705418
3655.1067,3.0843704297985304,118.71839263117735
3655.9475,3.0894332651972762,86.34221151787207
3656.7886,3.0962095271364305,96.51077848329612
3657.6318,3.0988628165832623,128.01533043210924
3658.4734,3.096334023909662,158.330143889776
3659.317,3.090925326018273,115.40939872483811
3660.1587,3.0852298068138126,97.4301041812249
3661.003,3.080764549577889,132.95370229827768
3661.845,3.078493202510539,122.02259415859282
3662.6875,3.079047053791965,119.86774931178367
3663.532,3.08253522674967,126.37630647696932
3664.3748,3.0884698989929915,102.71954824923404
3665.2197,3.096033676452626,105.40943458291555
3666.063,3.103657585879374,106.65953663770354
3666.9084,3.1087930644909716,105.03634695218247
3667.752,3.108903287980555,99.71751804277902
3668.5977,3.1038017891951526,145.1191102630277
3669.4417,3.0964593498749613,149.2754548338411
3670.286,3.0907482324901676,117.68830625892086
3671.132,3.088243173327231,167.2416527601909
3671.9768,3.087172396782253,102.88779626707091
3672.8235,3.0842310412313734,106.65851339571077
3673.6685,3.0772845631614723,133.91629587931465
3674.5156,3.0666026651939178,117.81536452856257
3675.3608,3.054596508538875,113.93534635996865
3676.2063,3.0443201311415153,150.56903447221464
3677.0542,3.0380510500129265,101.21902978579394
3677.9,3.036190962232048,97.02329669583739
3678.748,3.037016952958166,128.29447972713027
3679.5945,3.0377699253516783,137.75109114745817
3680.4429,3.0363255055217513,141.14867306056934
3681.2896,3.032540639386312,150.1044814526923
3682.1365,3.028313336425559,156.87965325019417
3682.9856,3.0262682329357333,140.6245234038809
3683.8328,3.027995948159015,120.18099860495815
3684.6824,3.033179107678113,157.5265425670783
3685.53,3.0401039527046105,188.6361855011812
3686.38,3.0469344923689974,108.13959339268284
3687.2278,3.0522848570745067,91.05926051521476
3688.0762,3.055084810224403,144.00015904891944
3688.9265,3.053898580885402,126.1834937013864
3689.7751,3.0470948387098837,144.92544990809722
3690.626,3.0339912380015943,94.33656833183919
3691.475,3.0161755790260463,131.19754629111395
3692.3264,2.9970568960283805,117.31819443441891
3693.1758,2.98057746432714,140.79584163799646
3694.0254,2.9694860412054833,129.42659793376572
3694.8772,2.965302901511591,118.31878486721669
3695.7273,2.9684701534281004,128.28250902327315
3696.5793,2.977768276273588,115.9667158580133
3697.43,2.9895192161752284,118.07571976446819
3698.2825,2.998573363667829,138.5809291113096
3699.1333,3.001104016912408,98.36256916954144
3699.9841,2.9973579758786753,116.75065726026155
3700.8374,2.9911854045735327,134.38889489758998
3701.6887,2.9871934622676424,132.4970186307334
3702.5425,2.9879581726400333,99.55772606166707
3703.3943,2.9934133901215985,173.43136647580755
3704.2483,3.0015590173316706,116.28606647231553
3705.1003,3.00927359389106,162.7665696725096
3705.9526,3.0134555153566702,79.87862194059635
3706.8074,3.0121354893398777,131.81903855361213
3707.66,3.005248443494898,111.03441046133541
3708.515,2.9943277875624568,137.1242031914416
3709.3682,2.9820473556471496,140.6224264702773
3710.2234,2.9718029624243996,109.89357683095206
3711.0771,2.9672056697380667,128.61788743960932
3711.9307,2.9697961638663823,135.29431979255355
3712.7866,2.976945543388835,104.47723034907186
3713.6409,2.982502373271361,127.46815572439513
3714.4973,2.981219005105209,120.29152548731216
3715.3518,2.9728045216539,168.62863612365118
3716.2085,2.961740293321625,142.29174244172998
3717.0635,2.9536739368537357,159.19435600021941
3717.9185,2.9521400848197237,131.42582981528466
3718.776,2.9584019217122983,139.13010720182078
3719.6313,2.972311870317787,155.6539205109465
3720.489,2.9924167288259036,106.40763617755917
3721.345,3.014725227821697,131.83882183796712
3722.2031,3.0329641553150943,116.32595741049856
3723.0593,3.040417598653486,142.1689398249062
3723.9158,3.0339252594931456,152.17947658205415
3724.7747,3.0161541522079958,161.33345370419738
3725.6316,2.994845852171543,136.74010884045245
3726.4905,2.9780865217476156,180.36821997154365
3727.348,2.969976408347346,244.46924763125216
3728.2073,2.9689650101518126,154.61599171982112
3729.065,2.970436969090939,135.80084233242965
3729.9229,2.9705502606977565,130.64635978169477
3730.783,2.9683067587646264,127.6141851209401
3731.6414,2.9645953958180455,127.19445679968379
3732.5017,2.9597596370243635,122.16433717156022
3733.3604,2.9525912010398656,121.68381908221747
3734.2214,2.9414654670074256,120.64595116462377
3735.0803,2.926543399054496,122.98519800473419
3735.9417,2.9104236564661456,136.0959370535587
3736.8013,2.897646420503434,112.4677284606227
3737.661,2.8927226098210648,113.83392861670139
3738.5227,2.8985053867527464,159.57209034739333
3739.3828,2.9145080417626636,137.94645827646855
3740.245,2.936081973368092,135.20948837014234
3741.1055,2.9548419739471905,132.74360782865526
3741.9683,2.9622580489180836,100.97967663147209
3742.829,2.9542194445610406,135.17102969177262
3743.69,2.93414267449462,147.91374379431588
3744.5532,2.910772742981446,133.02693807017744
3745.4148,2.8927175480371154,158.19594106386023
3746.2786,2.883442377394375,128.83396362444228
3747.1404,2.8817896400001413,144.78394089174103
3748.0044,2.8855832170982976,141.97058825799678
3748.8667,2.8943605195164452,128.405873060976
3749.729,2.908395401129603,164.42416096661094
3750.5938,2.9261436142073256,147.18131758073434
3751.4565,2.943480552843993,147.69281098329068
3752.3215,2.956261493550187,171.05759396197695
3753.1848,2.962577974420825,125.16305323646424
3754.0503,2.96331049546568,144.84859601163697
3754.9138,2.960341829451581,139.1418370783382
3755.7776,2.9549791777241827,123.44103940626653
3756.6438,2.947725867154911,134.90987546623563
3757.508,2.9392650684564035,128.10212162853904
3758.3745,2.9311209410588166,124.77728577364854
3759.239,2.9254963710569153,157.81415353401835
3760.106,2.923713112646532,165.91738526058256
3760.971,2.924986035705971,101.98389600526498
3761.8362,2.9265982856324952,103.63936103275783
3762.7036,2.9257672774662153,145.29242944386297
3763.5693,2.921611238598129,148.66438856013343
3764.437,2.915514406259568,127.45492674673595
3765.3032,2.9095881402598915,126.90347219128721
3766.1714,2.90428989564232,139.48028957572234
3767.0378,2.897562875195482,155.66636759082058
3767.9043,2.886202681998331,121.0454020736614
3768.7732,2.8685520706000123,122.12075787596748
3769.6401,2.8464694153187917,118.75673147693085
3770.5095,2.8246953778571444,134.49575595855003
3771.377,2.8094481352052005,167.56527961240445
3772.2466,2.8059477155320063,177.59418931670416
3773.1145,2.816840858284856,196.06353847489794
3773.9824,2.84076572638255,145.47043278069893
3774.8528,2.872315845804438,140.94887456018438
3775.721,2.9032959840243753,137.0971131633124
3776.5918,2.9265826383273676,113.51657962078687
3777.4604,2.9386442321763004,130.97786149931147
3778.3315,2.940855034181622,159.2492122958509
3779.201,2.937140719004786,157.46026998052392
3780.0703,2.9307613181323893,186.8387596167779
3780.942,2.922199334408026,122.2047238260777
3781.8118,2.909835712187934,155.48929858282096
3782.6838,2.892294748038105,185.81505825963885
3783.554,2.871085376743925,169.64587525468144
3784.4265,2.8505676114479748,142.7349215355648
3785.297,2.8359695722516975,151.6803235715979
3786.168,2.829647877259089,119.26030196147889
3787.041,2.8294858127262614,148.5917605931772
3787.912,2.8297628712755127,140.88657462856168
3788.7856,2.824124300330386,146.1293839034349
3789.6572,2.8090656469535955,120.61990331095313
3790.531,2.7858876933181427,152.7296322805908
3791.403,2.760082392011748,176.5882214359365
3792.2754,2.7371109373689375,148.27595045117837
3793.15,2.7186041355854376,168.211759558913
3794.0225,2.7023000693566206,108.38055582246494
3794.8972,2.6858299815471334,167.88784415864043
3795.7703,2.67120435180108,147.74853971099972
3796.6455,2.664264715642309,152.99684890604445
3797.519,2.67025740978896,195.70099542984784
3798.3926,2.689129062270104,147.745507107388
3799.2686,2.715244723135304,163.7579635842748
3800.1426,2.7405856919560425,112.60426178994084
3801.0188,2.7593402981705237,175.8887579653937
3801.8933,2.769431494855786,140.5233839283962
3802.77,2.772473044435348,173.36745463546467
3803.6448,2.7722289193069862,153.03754808402576
3804.522,2.773125095091456,158.78416437573262
3805.3972,2.778504352256981,285.29660822768915
3806.2727,2.789335572624522,169.88145346535785
3807.1504,2.804166607789453,126.84388299993275
3808.0261,2.820233944799014,139.6800483252069
3808.9043,2.8355020996757347,132.29599487012786
3809.7805,2.849560923935814,121.63469166466304
3810.659,2.863701105596614,109.64624055602101
3811.5356,2.878927755925786,182.73451300004334
3812.4126,2.894211493744667,156.34237651785642
3813.2917,2.906129068685745,117.58701847782675
3814.169,2.9109846899901854,142.9121393891702
3815.0483,2.907841049664978,106.08043112039717
3815.926,2.899430582906653,143.66999575886751
3816.806,2.890609293593977,127.86383556101696
3817.684,2.8857594052345235,137.4139402209739
3818.5623,2.8862748862080596,137.06358459398362
3819.4429,2.8896618976011736,159.84325486374922
3820.3215,2.8907503704512414,133.13292458505296
3821.2024,2.885028294100269,148.90901354515088
3822.0815,2.871642514347082,134.2345859021083
3822.963,2.8534478236011007,131.5755626018765
3823.8423,2.8346049816033574,161.83870785504166
3824.722,2.8173228688133,140.8553591959124
3825.604,2.8007261909232133,140.51397922627896
3826.4841,2.7816994739248027,169.99769742806978
3827.3665,2.756477989041524,157.47445952231686
3828.2468,2.723085174597694,128.4120301182979
3829.1296,2.6820480908173825,211.38079511760054
3830.0105,2.6368386816383005,158.40494999796613
3830.8916,2.591682715167213,166.658742301881
3831.7751,2.550005660257439,207.95708137373055
3832.6565,2.5137846020723704,190.89566915838157
3833.5403,2.4832377078049186,177.48080191513927
3834.4224,2.4586953345135507,185.128040462884
3835.3064,2.440766319589319,147.99622202151053
3836.1887,2.430832965407428,159.51081987775157
3837.0713,2.430611747429733,169.59761680178718
3837.956,2.4421583177054482,229.2358945536566
3838.839,2.466920644858486,204.67153170006327
3839.7244,2.5045016327221092,146.3111051282163
3840.6077,2.550987545327337,217.23519127560593
3841.4932,2.599987918344529,165.11981634470294
3842.377,2.6442217208240537,166.31569910471393
3843.261,2.6795538896074436,168.45080645313254
3844.1472,2.7067871548710207,168.3751024849662
3845.0315,2.73087265999989,160.5287549141231
3845.9182,2.757797423304234,158.2482422497144
3846.803,2.790011302488973,163.27330992181112
3847.69,2.8255671126799156,153.2607959332307
3848.5752,2.859710972827627,145.49770732205505
3849.4604,2.888938476721962,146.06708550621673
3850.3481,2.912604047730903,177.05169667072832
3851.234,2.932023818953092,143.30045457255613
3852.122,2.9491173639334978,169.776923748746
3853.0083,2.965030556829004,129.85024753667994
3853.8967,2.9806135835350944,163.42050481074585
3854.7832,2.996489439667083,120.61120686133405
3855.6702,3.0132580370527355,112.0744420802537
3856.559,3.0308446214424087,120.63751653462101
3857.4463,3.0478079598036736,119.57148878021853
3858.336,3.0615268656245296,129.06214830812638
3859.2234,3.0689403764802203,125.9688816373816
3860.1135,3.0685650641890883,113.8984249480629
3861.0015,3.061415334151613,146.2588851360671
3861.8896,3.0501380476076747,149.39733858130398
3862.7803,3.0368163615133423,145.52753692255695
3863.6687,3.0219089268480754,114.98259948219383
3864.5598,3.0048420434788845,124.89406756746509
3865.4487,2.9859371436589766,133.6904718121564
3866.34,2.966343000675536,139.96790305813295
3867.2297,2.94718346629069,136.2310452150756
3868.1213,2.92814384152033,112.67824563762393
3869.0112,2.9082946431986096,128.2261158865125
3869.9014,2.8873027070795083,127.26563783619487
3870.7937,2.866261157029032,140.25959316088088
3871.684,2.846880011209237,150.93250897185877
3872.577,2.8294496249888166,135.90721771349823
3873.4678,2.812442942562976,111.42428920225949
3874.361,2.792910892629385,176.91366155284473
3875.2524,2.768274258664871,129.63132971505928
3876.1438,2.7370189675922605,119.71222425055008
3877.0376,2.699075936300461,146.0367193197599
3877.9297,2.656116656898662,157.52472638467282
3878.8237,2.6106374308581923,160.83244762794016
3879.716,2.5659135282327314,163.14132096143265
3880.6108,2.523991235354522,170.08243702237732
3881.5037,2.485239510748668,180.47690860573888
3882.3965,2.447357194031482,178.1592241128126
3883.2917,2.4067728014173433,211.80976434777693
3884.185,2.3609437762618466,181.9392339440072
3885.0808,2.3093064660367024,199.13256194798117
3885.9746,2.254549122289653,207.72945307952173
3886.8706,2.2005837972668902,213.63417530689557
3887.765,2.152015683986331,215.93348946882065
3888.6592,2.1125658721431337,259.78198490251964
3889.556,2.08569164527481,354.3511945550014
3890.4507,2.0750377870302494,250.8503018042686
3891.348,2.0835011161921395,300.49948369732664
3892.243,2.1118852945611444,256.06995232672745
3893.1406,2.1575639969762954,245.80994285199085
3894.0361,2.213726477107353,243.02889961166417
3894.932,2.27212422972948,177.1533266394041
3895.83,2.326095695097463,164.66031300374354
3896.7263,2.3727705993952966,174.78389381320184
3897.625,2.414007218056267,172.328620745359
3898.5215,2.4531333386024072,152.80519847217144
3899.4207,2.4931979035951746,173.60336950928277
3900.3176,2.5349752848367673,232.3949883662413
3901.2148,2.5781646515292724,195.55553706012802
3902.1145,2.6218535000171865,148.56981585085822
3903.0122,2.664377577502026,192.0000937534581
3903.912,2.7038252320095078,182.5889088567571
3904.8103,2.7376409838993756,157.40657997533435
3905.7107,2.7647374278100316,141.106296402939
3906.6094,2.786404991355988,148.73862233398623
3907.508,2.806665253328813,149.10675676417625
3908.409,2.830156190628515,120.96809487066386
3909.308,2.859561833779391,140.40775934891678
3910.2097,2.894793646067021,122.1077203358242
3911.1091,2.9330128319895907,145.32000952882194
3912.011,2.9710870811441215,133.66708267140993
3912.9111,3.006671282026981,120.14597781445431
3913.8113,3.039738296669299,112.36283013780628
3914.7136,3.071888930055894,129.28027571048287
3915.6143,3.1044300152099296,122.50199539161333
3916.517,3.1369623214490034,117.32882901169717
3917.4182,3.166431765723952,125.62827350235197
3918.3215,3.189421083891871,120.01064042106758
3919.223,3.2040430158897393,127.83520850504242
3920.1245,3.211292122749952,102.98149546227214
3921.0286,3.21396931619389,121.37655675541463
3921.9307,3.2151699546115164,103.11139466585769
3922.835,3.2170238753726568,112.2172193096053
3923.7373,3.220008964282746,105.22246269224564
3924.642,3.223108909798055,103.34064994436214
3925.5452,3.224622575383024,103.8098719886458
3926.448,3.223524218915997,102.47715980729423
3927.3535,3.2204539830569243,106.35386131598987
3928.257,3.217581957016722,123.95524692744206
3929.1628,3.216868131234798,118.31834081399892
3930.0667,3.218049070197647,102.87945835691512
3930.9731,3.2181357449479493,105.65334757777336
3931.8774,3.2132618572049445,111.2931405753933
3932.782,3.2015313624797415,109.06773970954377
3933.6887,3.184679184536666,129.2191160978481
