wavl,flux,ivar
3566.9744,2.0326853388853956,458.995557408539
3567.795,2.0310553271036818,505.77756600331674
3568.6177,2.0282537836184176,442.4437879631791
3569.4385,2.0241829153698427,435.77987329488917
3570.2617,2.0192702421841418,492.1706305418802
3571.083,2.0143213028194507,449.73842346776865
3571.9065,2.0100651379487973,389.04415671755004
3572.7283,2.0068860969175555,423.7169680001474
3573.55,2.0046244562348132,402.483941501892
3574.374,2.0028959651250293,459.8054223487328
3575.1963,2.0016019691716798,452.54968832172096
3576.0208,2.0011387212554883,480.07415454388513
3576.8435,2.0020763351611377,466.3260826032357
3577.6682,2.0044940575115042,473.69918797293286
3578.4915,2.0075815887832174,466.8246581318882
3579.3145,2.009934558240243,462.6039897334782
3580.14,2.0103161153446862,478.8563986261293
3580.9636,2.0084274650550764,428.7359810730428
3581.7893,2.0051112946122247,409.5128394384223
3582.6133,2.0017704797910856,446.11928054377444
3583.4395,1.9992950880449085,482.3463750828565
3584.264,1.9974762497100105,490.61880974087904
3585.0884,1.995266912437322,444.54944498864853
3585.915,1.9917664649570332,460.51572498944336
3586.74,1.9870178686368782,473.45971865869586
3587.5671,1.9818944023067817,503.92475568663934
3588.3923,1.977490779871504,493.24868343731873
3589.22,1.9743332536225817,500.14624136492245
3590.0457,1.9722139870563415,445.26282382082627
3590.8716,1.9703891765098154,538.8074557561702
3591.6995,1.9681866287356546,462.45723445119063
3592.526,1.9655325284730822,409.8884312722008
3593.3542,1.9629950500240452,477.593180220576
3594.181,1.9613697994170693,537.52344811584
3595.0098,1.9610168690113723,444.67987072410347
3595.8367,1.9615892172671192,530.568730500432
3596.6638,1.9622499777525069,522.3075298718146
3597.4934,1.9621841097231922,454.35374645823003
3598.3208,1.960979358142687,479.0938785695335
3599.1506,1.9586540250928868,438.3338365588936
3599.9788,1.9554816371185244,466.5295568744016
3600.8088,1.9517778496298575,443.72772163496654
3601.6372,1.9479497566486792,499.13635167439685
3602.4678,1.9445260213465303,472.2084600226421
3603.2964,1.9422214526107013,443.44672721257876
3604.1252,1.9416204801450554,508.18454885450006
3604.9565,1.9427494898576927,434.6949943472926
3605.786,1.9447094399971756,531.3336609082139
3606.6172,1.9459644053552143,436.1192552135677
3607.447,1.945247562571131,435.8480172523151
3608.2788,1.9424851761064361,430.4805390104
3609.109,1.9388413454650755,485.6990098313312
3609.9392,1.935752776606087,449.506801531125
3610.7717,1.933963806848948,467.72028196013906
3611.6023,1.9333440150949113,503.1350677748501
3612.435,1.9332942017951564,467.93631546956345
3613.266,1.9329473980581258,483.23185701283285
3614.0994,1.9307574032891162,460.436300761161
3614.9307,1.92432774126238,512.6736084371823
3615.7625,1.9114388459051057,461.60449566388
3616.5962,1.8922138825200332,452.0607915127716
3617.4282,1.8708179365785378,547.5861319300359
3618.2625,1.8539537208378465,549.076865958054
3619.0947,1.8473293638918775,495.82876616134035
3619.9292,1.8518455201310287,504.7168704145382
3620.762,1.8636360247034152,474.9892636013687
3621.595,1.877308523935302,478.6725176820196
3622.4302,1.8892480728400398,503.449496189968
3623.2634,1.898298260238306,495.59300340326155
3624.0989,1.9046708939166577,492.543365494505
3624.9326,1.9085471285332445,469.48415620260505
3625.7686,1.9103076807314558,475.65243434934945
3626.6028,1.911460313753736,503.81185795347636
3627.437,1.91539776275675,474.59523159650627
3628.2734,1.9267770616962787,557.262094471066
3629.1082,1.9488128626996923,526.4542557088826
3629.945,1.9797342589655802,528.8186144324169
3630.78,2.010410601966582,534.1608844193971
3631.6174,2.0281781165400425,558.251222839672
3632.453,2.024273104639683,495.35866787017386
3633.2883,2.0004731038551853,520.3831034257256
3634.1262,1.9673219862449385,539.3565530828904
3634.9622,1.936920229951451,474.9108779042783
3635.8005,1.9155444348968629,433.72489148273615
3636.637,1.9031027501360938,520.5130624506047
3637.4756,1.895848406343136,483.8597216514965
3638.3123,1.8901360614962501,488.43938133634083
3639.1492,1.8840050339302434,496.82721226120475
3639.9885,1.8774657899885343,591.0352720753901
3640.826,1.8718853603684475,529.2002852403522
3641.6653,1.8686789107472666,518.0197691175276
3642.5032,1.8682147581512796,510.27556125270746
3643.343,1.869349442382927,533.6081776479444
3644.1812,1.8701319095364386,535.7178927644956
3645.0195,1.8690437113527831,526.3011270476562
3645.86,1.865815448449279,518.1267316324796
3646.699,1.8614140383989128,581.9727591923829
3647.5398,1.8572325007376047,524.2011617770013
3648.379,1.8542374841525293,486.2553226575502
3649.2202,1.8523360721215616,512.7683183545536
3650.0596,1.8504983601889369,532.6870705448166
3650.8994,1.8474093492589632,526.418387455416
3651.7412,1.8424177865601392,541.589229578914
3652.5813,1.8361503847006382,522.506887712719
3653.4236,1.8301539416305865,549.2315704609331
3654.2642,1.8259616536044723,563.835705256537
3655.1067,1.82396728203198,556.1261217510308
3655.9475,1.8233415294770567,592.2184969023847
3656.7886,1.822863954716984,500.53766638354637
3657.6318,1.8220044275131064,530.8564243395214
3658.4734,1.821152383307927,532.4430872971257
3659.317,1.820865063251063,609.6805710304255
3660.1587,1.8210865421785312,534.6664625113101
3661.003,1.821181623826234,574.5607469242099
3661.845,1.8206649778556252,516.4453981628512
3662.6875,1.819725754378994,528.1479199786123
3663.532,1.818990773385074,560.205675751342
3664.3748,1.818869598566773,548.1874136372508
3665.2197,1.8191726806967803,513.173386377721
3666.063,1.8193129176028715,562.8282504378525
3666.9084,1.818753931966712,575.4245787519948
3667.752,1.8173025028030652,482.9015467896776
3668.5977,1.8151469137266396,558.2018459262564
3669.4417,1.8128178820190965,528.1022990576481
3670.286,1.8110030811292948,569.8651569448197
3671.132,1.8102689195375503,563.7509769870081
3671.9768,1.810699271159639,585.3232989736623
3672.8235,1.8117392799889673,547.065657174161
3673.6685,1.812476398529361,532.8467689899325
3674.5156,1.8122396645780439,575.8924378194531
3675.3608,1.811018168924296,531.2993902582739
3676.2063,1.8093234200745736,596.8232239537136
3677.0542,1.8075995151097923,548.6895968209028
3677.9,1.8057576215879734,552.8082749142941
3678.748,1.8031994730489105,560.5541806375343
3679.5945,1.7993732135556706,559.5644901850069
3680.4429,1.7942162157394534,610.1463853016081
3681.2896,1.7883517939995222,587.416663373606
3682.1365,1.7827744922437838,648.742121690614
3682.9856,1.778468869382031,578.0449849492386
3683.8328,1.7760338059678336,609.1561427837522
3684.6824,1.7753968021186113,632.6427356541878
3685.53,1.7759530506530237,548.3127063423494
3686.38,1.7769350024107782,505.85952427663403
3687.2278,1.7778768101252265,654.7308931936172
3688.0762,1.7788520595768236,568.4297440214534
3688.9265,1.7802863311054733,616.1315510110563
3689.7751,1.7824889797705494,581.7862773529089
3690.626,1.7852776446604544,593.3548027260568
3691.475,1.7878978461993804,538.3419135962044
3692.3264,1.789434445839411,552.9288761073379
3693.1758,1.7893206018000634,494.52873698992425
3694.0254,1.7877288097007296,602.2647433248104
3694.8772,1.7854582314875123,587.4536257436691
3695.7273,1.7834817694617173,537.6104891315738
3696.5793,1.7824034452391797,612.4229966142942
3697.43,1.7822992290253352,557.1426953508665
3698.2825,1.7828453368752109,621.9049568516829
3699.1333,1.783575863339251,578.2146062341865
3699.9841,1.7840962277067418,536.5668648514848
3700.8374,1.7842075209466435,571.7163239631232
3701.6887,1.783895205615353,579.6041549333843
3702.5425,1.7831409867952106,558.9141071026806
3703.3943,1.781733375695228,638.8509701109969
3704.2483,1.7793064757385106,544.8798469570128
3705.1003,1.7756948782382136,559.0079530361078
3705.9526,1.771197586146095,569.3601077257317
3706.8074,1.7665879055560008,554.6640185994776
3707.66,1.7628412800557045,593.5390822853178
3708.515,1.760619525721881,600.203420696247
3709.3682,1.7600252804207588,613.7100659563323
3710.2234,1.7605120520309494,599.3134947465317
3711.0771,1.7611720328672675,587.283048383903
3711.9307,1.761184163506627,586.7673389878568
3712.7866,1.7601834218065935,553.6393140170585
3713.6409,1.7583701165864492,567.6806320026116
3714.4973,1.7562886246587646,615.1550819552612
3715.3518,1.7545096932631032,570.6537626973965
3716.2085,1.7533230828819726,618.840920961057
3717.0635,1.752698455810036,591.2065799590725
3717.9185,1.752386793710095,583.5550735443115
3718.776,1.752127056715277,551.6264126432615
3719.6313,1.7517564196763769,579.271961824737
3720.489,1.751169350547644,649.1293099793561
3721.345,1.7502473828349343,591.2052796912095
3722.2031,1.7488812245804939,557.2279437982122
3723.0593,1.747122777091344,589.1010999397325
3723.9158,1.7452020340788195,553.3765947772373
3724.7747,1.7433722229365014,595.4821330966898
3725.6316,1.741718688722856,588.6851193552743
3726.4905,1.7401025363890557,599.9933113538542
3727.348,1.738346395300334,623.5918921056958
3728.2073,1.7363466323326366,601.7188986934455
3729.065,1.7341259866618732,623.3926623822141
3729.9229,1.7317795865272418,616.0426869556705
3730.783,1.7294820342020216,671.9592734716936
3731.6414,1.7274808819642897,559.8743175270794
3732.5017,1.7259731836729326,622.4109952158059
3733.3604,1.7250153698862236,589.0587005051674
3734.2214,1.7244156598137133,604.3857057704703
3735.0803,1.7237829004611582,610.2198875726781
3735.9417,1.7227040043320803,585.2130648133124
3736.8013,1.7210604794441784,655.7918866579812
3737.661,1.7191863220422219,643.2174490073481
3738.5227,1.7177014929654078,610.9188806453773
3739.3828,1.7170780922057756,666.4358911729142
3740.245,1.7172425965625013,564.6056825120294
3741.1055,1.71758133150711,668.6137073430584
3741.9683,1.7172950733160934,592.5717732497425
3742.829,1.715844490839335,580.3023768816494
3743.69,1.7132003908850695,636.9292078845897
3744.5532,1.7098216194319862,593.2491737012185
3745.4148,1.7065353309054336,651.4633898951301
3746.2786,1.7042708142639829,622.4602690633374
3747.1404,1.7038416435675787,567.5798013554053
3748.0044,1.7056029660235827,627.9999103541471
3748.8667,1.7092259472336286,665.3350422679597
3749.729,1.713712598101584,562.4519791806417
3750.5938,1.7177015624217897,679.9623619257808
3751.4565,1.7199768215067568,579.2946494875232
3752.3215,1.7200750980514077,618.3290401518483
3753.1848,1.7184267317456767,585.5649952609109
3754.0503,1.7160335656755898,611.4272185741726
3754.9138,1.7139021265012262,663.4259521766744
3755.7776,1.712587675568732,614.7168899623312
3756.6438,1.7121272011916875,653.1487722050992
3757.508,1.712140252457527,622.768106963969
3758.3745,1.7119947715455173,558.9205989801682
3759.239,1.7110681007900117,612.71254002604
3760.106,1.7090338742492588,591.1117281604954
3760.971,1.7060275274582095,622.9433539771819
3761.8362,1.702463218138649,604.112871205234
3762.7036,1.6987342527655624,683.0288231689462
3763.5693,1.6950709700828615,625.0325849372742
3764.437,1.6915605365217254,610.8727333153415
3765.3032,1.68836266903745,635.2415230055575
3766.1714,1.6856528267070852,640.0608241540751
3767.0378,1.6834901392524957,650.1306609091994
3767.9043,1.681638738532418,632.4265931085827
3768.7732,1.6797307432231283,596.320950810039
3769.6401,1.6776629669398506,660.9920157593735
3770.5095,1.6758028674842034,641.8315948315843
3771.377,1.6748013337304053,697.9779928579903
3772.2466,1.6750455515349079,636.7626341269253
3773.1145,1.6763942626248787,640.3106250299769
3773.9824,1.6783930095263893,646.7969537155952
3774.8528,1.6807202206874168,639.6552239915718
3775.721,1.6833390160418082,632.2195236357793
3776.5918,1.686282446520388,652.131383725255
3777.4604,1.689177942175043,678.8113328720062
3778.3315,1.691228775634545,635.4521243319667
3779.201,1.6916302384662736,599.6947081073145
3780.0703,1.6902681723740542,629.6059863843301
3780.942,1.6879009332039465,603.0925930321303
3781.8118,1.6857157658466724,687.1078052359718
3782.6838,1.6845451701495922,619.30621880789
3783.554,1.6845150110951252,562.0356804162452
3784.4265,1.6852167890776732,645.5536838323516
3785.297,1.6861165798090085,647.631959868447
3786.168,1.6867591789844854,661.1634963926738
3787.041,1.6867325756020661,618.5021611377698
3787.912,1.6856783779495756,653.2062350457073
3788.7856,1.683422633007087,699.2366954098592
3789.6572,1.680124024405108,640.8606533930454
3790.531,1.6762113132233165,610.986575700148
3791.403,1.6722814414478082,682.5578873645605
3792.2754,1.6688082755112321,683.5410656558522
3793.15,1.6659436396989622,621.6929286669031
3794.0225,1.6634391158572026,722.2486588754582
3794.8972,1.6607556243238202,707.6365583112733
3795.7703,1.6574798486698556,656.4104358286826
3796.6455,1.6535959774236701,646.8870497862724
3797.519,1.6495513596637326,652.291130345506
3798.3926,1.6458653272633108,685.6650812841966
3799.2686,1.6427804204155556,689.4387737292717
3800.1426,1.6402135133039228,646.7547657596525
3801.0188,1.6379623250159827,702.0838152321064
3801.8933,1.636064477735762,630.3154973881556
3802.77,1.6348196650331652,738.3757508006997
3803.6448,1.6346076992867646,699.3189323715153
3804.522,1.6355993205892274,713.1928462628138
3805.3972,1.637666400891989,662.3917773472888
3806.2727,1.640529300464611,758.3774250116301
3807.1504,1.6439658435734972,702.7535449806868
3808.0261,1.6478485908845542,687.098158448992
3808.9043,1.652060548165443,648.1938086350921
3809.7805,1.6561988391319766,698.7315602183502
3810.659,1.6596024685012212,653.468663657281
3811.5356,1.6615234642907177,714.2574345540326
3812.4126,1.6615788576784907,670.2302590795679
3813.2917,1.659970283920041,616.2730845676718
3814.169,1.6574553738700504,719.6050558891097
3815.0483,1.6549769323100139,564.0138813467453
3815.926,1.653257768478727,716.9830184802037
3816.806,1.6524226534713669,663.1422975594484
3817.684,1.6519729714030371,668.0980776990407
3818.5623,1.651089577070686,650.991212208208
3819.4429,1.6491785948001452,694.0923027533802
3820.3215,1.6462704972212852,633.6065450838956
3821.2024,1.6428783865710208,681.5782886553476
3822.0815,1.6395733807925486,656.8581976559478
3822.963,1.6365598719338228,685.6988165566395
3823.8423,1.6337611098407967,800.6959461523747
3824.722,1.6310084311450788,693.5464173583471
3825.604,1.6281743609714983,669.218182369054
3826.4841,1.6251202612441626,657.5979508493167
3827.3665,1.6215750906547723,698.6365603777338
3828.2468,1.6172454165146786,736.3858261261371
3829.1296,1.6118739324380198,677.1270376974996
3830.0105,1.6054529588890007,724.1553080938363
3830.8916,1.598180332350949,705.0992033178552
3831.7751,1.5904337232183479,679.5492504948324
3832.6565,1.5827739202708373,691.7246883774004
3833.5403,1.5758259918576947,684.6447189236052
3834.4224,1.5704294689557827,688.2773054479768
3835.3064,1.5672735471143575,789.0685037648792
3836.1887,1.5665807701469459,767.8601369310031
3837.0713,1.5679051649778604,703.1323874532385
3837.956,1.5705339967025318,729.3580632605851
3838.839,1.5740252806642598,683.4979861265666
3839.7244,1.5784787564038671,720.2002673793962
3840.6077,1.584149563683747,697.5643129146059
3841.4932,1.591011058022985,745.6762601800016
3842.377,1.598425862249553,699.9271478919607
3843.261,1.6055015656505638,729.8847882681196
3844.1472,1.6115389420057042,651.1744180566566
3845.0315,1.6163147204033417,727.7666383615214
3845.9182,1.620080900429619,735.2512046424927
3846.803,1.6231118477585806,755.7730096552099
3847.69,1.6255644146983292,718.2642383300039
3848.5752,1.6275636488666536,682.4393752133517
3849.4604,1.6295179171351843,687.7118688956025
3850.3481,1.6320942759826411,642.5384217020106
3851.234,1.6358237018909634,642.8521420928263
3852.122,1.6407718475823134,680.2499629469568
3853.0083,1.646421542646952,715.8386014313985
3853.8967,1.6520145259341332,632.1425382448299
3854.7832,1.6567100715153769,621.8692108171454
3855.6702,1.6598013615946376,646.144081778098
3856.559,1.660770572846304,650.693674183552
3857.4463,1.6595119473965108,594.1934962602455
3858.336,1.6564661841179231,673.6192036088612
3859.2234,1.6524596747211822,718.6444129132677
3860.1135,1.6482121976441289,598.0484122216329
3861.0015,1.6441159347244825,641.3591800946234
3861.8896,1.6402167766678821,644.6923237815795
3862.7803,1.6364835431071094,685.1771022448344
3863.6687,1.632944955885986,670.6412090468306
3864.5598,1.6295841329917575,638.0631063127344
3865.4487,1.626382615535731,662.4334873869992
3866.34,1.6232621112392003,693.7833564757011
3867.2297,1.6201153706012108,781.620958886478
3868.1213,1.6166646212280795,689.1440765274772
3869.0112,1.612571477550385,715.3410540131775
3869.9014,1.6076601640163122,732.2688032407297
3870.7937,1.6021788389286586,737.4860764481255
3871.684,1.596726281241889,769.4389374121437
3872.577,1.591715431110281,682.3810685601916
3873.4678,1.587141078828361,742.9867836088539
3874.361,1.582580569337584,683.9951307469553
3875.2524,1.5776351507982285,745.0934006527433
3876.1438,1.5720668589599793,672.9239150589804
3877.0376,1.5658268222798668,748.2295715533779
3877.9297,1.559070851611594,689.6024269001947
3878.8237,1.5519849109882318,755.9776472704586
3879.716,1.544667719966332,762.4701923993987
3880.6108,1.5367397376791092,763.3220983879507
3881.5037,1.5275273293860185,742.7758018975333
3882.3965,1.5164236800654043,771.7292773490556
3883.2917,1.5034895917251132,815.0717879442112
3884.185,1.489724784525507,816.9681373042882
3885.0808,1.4764283354307124,762.4305453228471
3885.9746,1.4647903360354524,895.652949150075
3886.8706,1.4552116983434755,919.3911460643253
3887.765,1.4476064873008048,854.283012919507
3888.6592,1.441738128755852,937.4735455750751
3889.556,1.4377524205244312,960.0193233368451
3890.4507,1.436212151111357,907.3473953586457
3891.348,1.4376266162128477,938.0253841033399
3892.243,1.4420427639118558,865.6544552183418
3893.1406,1.449029983925853,849.0297106023775
3894.0361,1.4579137780913152,839.0868846486385
3894.932,1.4682446630732409,781.3475901473698
3895.83,1.479845771450909,788.1365480175327
3896.7263,1.4925517563917254,809.8943449036294
3897.625,1.5062085511414465,787.965201099366
3898.5215,1.5203298631780726,808.1894999274352
3899.4207,1.5344292031021107,774.060046970602
3900.3176,1.5478653520664643,760.0846921673844
3901.2148,1.5602264999708326,725.6562805617814
3902.1145,1.571220104993049,724.8002520865051
3903.0122,1.5806028901160663,742.0913011423249
3903.912,1.588442688431707,711.1298739412607
3904.8103,1.595073656615168,695.9713649468354
3905.7107,1.6012288772849463,669.4011978049818
3906.6094,1.6076735449307644,702.488933657888
3907.508,1.6149556612268576,733.3142648580847
3908.409,1.623168496534326,678.7536412033669
3909.308,1.6319274214594621,678.2755157860205
3910.2097,1.6407197592676,647.8091689593
3911.1091,1.6489868318016199,694.9674156569308
3912.011,1.6564472573492373,619.5165969852183
3912.9111,1.6629640949218554,637.9032436820861
3913.8113,1.6685989899053797,654.975278015099
3914.7136,1.6734583283424351,658.4584778539728
3915.6143,1.6776328100452103,636.0410004824868
3916.517,1.681299751684166,682.3834282788907
3917.4182,1.6846378275546625,707.0425646639457
3918.3215,1.6877882914212168,610.6101839822549
3919.223,1.690688713469011,665.4931061185936
3920.1245,1.6931298601350122,617.3409563969678
3921.0286,1.6948323994775227,596.3895707529158
3921.9307,1.695547911093203,614.213202708731
3922.835,1.6951650778973046,588.817668387828
3923.7373,1.6937936443190489,621.4040663894391
3924.642,1.691835041205933,682.1944367605296
3925.5452,1.6899327068110417,653.6793893293975
3926.448,1.6886754681388385,629.7390758256827
3927.3535,1.6883007583320035,633.5296125171966
3928.257,1.6885819613949815,643.7633073555535
3929.1628,1.6889974942289685,635.68863037857
3930.0667,1.6890340153165917,621.1375890369828
3930.9731,1.6883560512213458,672.9682838552379
3931.8774,1.6867793698491946,647.582333889221
3932.782,1.684212539600526,658.262697475224
3933.6887,1.6807092291137147,608.3530453873336
3934.5938,1.6765339130221248,655.8967182953545
3935.501,1.6719668885245829,651.9890904228198
3936.4062,1.6671719391730615,650.4505093083333
3937.3142,1.6620689491853728,608.5461940693066
