wavl,flux,ivar
3566.9744,3.434425809555388,84.76212929023542
3567.795,3.4223455218591816,73.6213398608305
3568.6177,3.4039942711020568,82.46247041975278
3569.4385,3.384384791058989,78.29398696528419
3570.2617,3.368236231718955,86.555708997462
3571.083,3.358609463198805,77.20692038487628
3571.9065,3.3562614150137295,99.17326701515023
3572.7283,3.3603376492065715,84.1236038628468
3573.55,3.368915026038296,100.6413646225116
3574.374,3.3796960678411523,69.72393596457981
3575.1963,3.3905376879883615,80.76470394158092
3576.0208,3.400169236201286,68.02021615641318
3576.8435,3.4081289563044064,101.43202880914421
3577.6682,3.4145064047276814,76.54386731413778
3578.4915,3.4191194187565004,104.56886957605376
3579.3145,3.421374457141637,70.7585593276041
3580.14,3.420659758156113,72.44999896608888
3580.9636,3.4169227847778707,81.04142528282001
3581.7893,3.410639497627058,71.57216926153947
3582.6133,3.4024053008011763,80.58108186786636
3583.4395,3.392566841170911,70.9498396560657
3584.264,3.381765434762796,97.16648148571834
3585.0884,3.3715747651714376,65.38377712264092
3585.915,3.3648195047635183,87.18450426016723
3586.74,3.364446548772662,78.18372153535886
3587.5671,3.3712511936769114,85.34447150649213
3588.3923,3.382545865590643,65.29103876351802
3589.22,3.393375518875438,68.66238283861362
3590.0457,3.3991763777857527,82.87702840282685
3590.8716,3.398264649558152,65.00827245960105
3591.6995,3.391860730102811,78.0735169359728
3592.526,3.382659057929237,82.29193915815372
3593.3542,3.37301724265258,73.45077520797942
3594.181,3.364331719846102,76.99828450489491
3595.0098,3.357093600527261,70.944475990402
3595.8367,3.351490183853695,73.31889935306467
3596.6638,3.3473580177809414,76.45690133227166
3597.4934,3.344055349019472,97.15101087177943
3598.3208,3.340519709861085,95.22528788028943
3599.1506,3.335811454759019,68.89451173665528
3599.9788,3.330028300486643,85.5848500324718
3600.8088,3.324439699890373,76.46408438982505
3601.6372,3.320668993646162,111.96522933788731
3602.4678,3.319088656199333,103.79742068092509
3603.2964,3.318133264132103,74.13880739371282
3604.1252,3.3152693548890944,69.2201078712821
3604.9565,3.3091736639473766,69.63601771650895
3605.786,3.3013369101276195,90.84400660794681
3606.6172,3.295398126846622,96.52910145587555
3607.447,3.2950474581061626,86.39710066473592
3608.2788,3.3019880858628565,89.72387918408536
3609.109,3.3154712497829952,75.91874443116075
3609.9392,3.3329906506320754,141.07898072477153
3610.7717,3.3509716538101486,97.06794275477871
3611.6023,3.365399230443751,74.25111197667977
3612.435,3.3734017943787538,72.73777747057035
3613.266,3.3742862448020827,73.60682065968241
3614.0994,3.369902350425062,91.54575283928331
3614.9307,3.363444623741563,82.48158612763325
3615.7625,3.3575695647492454,94.72840518189895
3616.5962,3.352994975654488,106.23779922451908
3617.4282,3.3484315459701444,83.74061228368433
3618.2625,3.3420755109362044,84.44059121239131
3619.0947,3.333807120038846,83.96595337816929
3619.9292,3.325721723787739,75.4851029231493
3620.762,3.320765988563043,87.61064299630944
3621.595,3.3203875550483093,100.67428876367025
3622.4302,3.3237079782670427,79.82156028554395
3623.2634,3.328312026577979,91.37880310835294
3624.0989,3.3318154108252216,60.83146014509397
3624.9326,3.33267931791488,75.82250327976125
3625.7686,3.330313092896247,76.43436358693498
3626.6028,3.324977167365269,89.09669607594482
3627.437,3.3180646276221433,86.11010256784643
3628.2734,3.3124024450825615,68.57305487898236
3629.1082,3.3116071649888212,76.50312421601808
3629.945,3.3179649177799813,84.06482448570958
3630.78,3.330296250606844,103.8399371097405
3631.6174,3.343989554797348,59.74594099674085
3632.453,3.353296120633232,66.75952857281817
3633.2883,3.354695643431678,80.92473203372701
3634.1262,3.347980778986937,91.69760476175975
3634.9622,3.335409575726783,79.2589983790443
3635.8005,3.3199582726358456,82.69092304990545
3636.637,3.3046358282716723,104.28459908480512
3637.4756,3.291756087517735,82.40751100044292
3638.3123,3.2826197739561374,105.56465774754854
3639.1492,3.276855507021558,69.1656493492916
3639.9885,3.2730308780380066,78.68832465795235
3640.826,3.269800555020929,73.99086557431141
3641.6653,3.2665651849238007,73.63434617988314
3642.5032,3.263257398966688,90.2164570174496
3643.343,3.2596640076733716,116.27649911090519
3644.1812,3.255484547142204,63.31474782580864
3645.0195,3.250903749678561,91.89803834696183
3645.86,3.2469350419195253,85.17614044365314
3646.699,3.2448343927108647,81.03372796538045
3647.5398,3.244972442606728,79.64715984028892
3648.379,3.2463477349668515,86.28058747494428
3649.2202,3.2471026522711206,71.2592077432312
3650.0596,3.245719007711842,85.26692424354061
3650.8994,3.2420223280622142,60.500111521196345
3651.7412,3.237149083777836,96.8698387511074
3652.5813,3.2325387891740327,76.36041053541709
3653.4236,3.2286199825490156,78.72112955335452
3654.2642,3.2245141310731285,72.65935929386544
3655.1067,3.218772715526735,84.94049442836271
3655.9475,3.210834755961226,63.71303006577277
3656.7886,3.2017498055005893,88.80667326270334
3657.6318,3.1936960594183703,97.36303471868521
3658.4734,3.1885292825151983,125.2484834134759
3659.317,3.186479857302865,93.19864425379595
3660.1587,3.1865894689316665,78.62228950223296
3661.003,3.188458937535126,86.2605282915196
3661.845,3.1944694106909166,130.85973843494938
3662.6875,3.211635148694027,97.25843317087055
3663.532,3.2519050652619765,94.6214010775219
3664.3748,3.327402144613157,90.2810393090873
3665.2197,3.440299131695589,80.13600187371216
3666.063,3.5695510459011697,84.27823763822381
3666.9084,3.6736450604238753,87.52304236574311
3667.752,3.709689016669226,8.401262813847941
3668.5977,3.6630800782498585,92.54797165750782
3669.4417,3.5570578665484645,112.9331176652216
3670.286,3.4351845947288835,80.1319747489927
3671.132,3.3338816643380405,83.7277800098285
3671.9768,3.2679606998607276,81.23492425201202
3672.8235,3.232519391023695,89.28337844856507
3673.6685,3.2155944800374434,78.0955223419044
3674.5156,3.20649399324002,62.69106961986299
3675.3608,3.1994351709827664,85.72919547156668
3676.2063,3.1926382995188693,87.78340017722061
3677.0542,3.186194577717352,92.86642753075941
3677.9,3.1800445758090223,95.84217751012024
3678.748,3.173180139160921,94.53119359385103
3679.5945,3.1648317897224727,88.51579011235016
3680.4429,3.155834514990451,82.18675095538796
3681.2896,3.148782209659997,98.44119199670126
3682.1365,3.1459561428736573,72.90865292468156
3682.9856,3.147361104085516,107.39660719345834
3683.8328,3.1507008187577994,108.10017970445823
3684.6824,3.1535826635719557,64.486024344428
3685.53,3.155518217605364,114.14126683704573
3686.38,3.1578156257533467,88.33798826844402
3687.2278,3.1615948787566506,89.29700554332939
3688.0762,3.1664229460800994,102.35814279857318
3688.9265,3.1707770111234934,72.82173395554052
3689.7751,3.1734546693462793,77.73398270190953
3690.626,3.174366910252724,93.08349410723542
3691.475,3.1741923630802518,82.16435345125916
3692.3264,3.1738789311655817,85.00179263142769
3693.1758,3.174319832055689,107.37667479299768
3694.0254,3.1760111527998163,86.41149368032251
3694.8772,3.1787845211788217,85.04475031952269
3695.7273,3.181961534243161,72.81592876633867
3696.5793,3.1848407443861704,76.62502800441843
3697.43,3.186669269913371,74.25080535655661
3698.2825,3.186328220012112,73.74886547441344
3699.1333,3.1824343424704726,71.78561648189007
3699.9841,3.174194722373551,102.21880856553746
3700.8374,3.1620771533374703,86.36709776913594
3701.6887,3.1477703433816413,88.1904135303358
3702.5425,3.1331608778061244,72.02360270421708
3703.3943,3.1199872911627082,105.89629801819484
3704.2483,3.109347410930271,87.5787232459743
3705.1003,3.1017821533704812,84.17053253904994
3705.9526,3.0967949659322183,77.7591347200294
3706.8074,3.09289825998759,92.29836786023105
3707.66,3.088244656966906,71.03236408087545
3708.515,3.0817530008726375,100.93839803597791
3709.3682,3.074199177888499,98.55772798644668
3710.2234,3.0679280050408257,99.7496280917156
3711.0771,3.065396527013846,87.68707214150224
3711.9307,3.06706007787938,115.53981669198734
3712.7866,3.0706873746256678,69.97850910940633
3713.6409,3.072875008844024,93.6835666962659
3714.4973,3.0719532992687473,92.39582746625112
3715.3518,3.0693924275048046,101.49986988284192
3716.2085,3.0682025631368157,99.78176081324997
3717.0635,3.0699343940745796,79.6438705512991
3717.9185,3.07332593622013,93.89676478657252
3718.776,3.0757906372060306,97.7799657310949
3719.6313,3.0758024957036403,96.87822512750586
3720.489,3.0739534358150546,77.04869813484179
3721.345,3.0720281327332404,110.18226728736313
3722.2031,3.071361066954701,90.51463819479982
3723.0593,3.0719630878437116,96.51205228445332
3723.9158,3.0728026183672887,109.02040349131747
3724.7747,3.0726601499112207,90.32404853825547
3725.6316,3.0707118725343028,91.87079232898073
3726.4905,3.066705975601868,97.83940608584888
3727.348,3.0611182695621353,93.04568415372378
3728.2073,3.055119580240674,106.80843302091915
3729.065,3.050169462121865,102.22943537041834
3729.9229,3.046991418931947,105.00413901700715
3730.783,3.0450259708640295,91.61717077052361
3731.6414,3.04284339778501,93.23734430298643
3732.5017,3.039259170139857,111.19242280632538
3733.3604,3.0342814699400735,93.49265454518599
3734.2214,3.0289703182644088,103.93671766537489
3735.0803,3.0246438213328517,110.00695966676392
3735.9417,3.0218866920613063,94.9103969508288
3736.8013,3.0203731730838657,95.27559879718733
3737.661,3.019192066462209,110.6221944092886
3738.5227,3.017532372188837,100.66570796152897
3739.3828,3.0152754519457012,74.07776761322896
3740.245,3.0131338121871187,89.14350286961296
3741.1055,3.012183036777584,121.40288514155729
3741.9683,3.012927771006706,88.21075336272575
3742.829,3.014790553210755,92.48271266364898
3743.69,3.0165046012749266,84.43586722396559
3744.5532,3.0171085039741,86.26334960836151
3745.4148,3.0167119915449354,85.02915304442662
3746.2786,3.0163689701212686,105.13349742483445
3747.1404,3.017028254661337,101.38454705041916
3748.0044,3.0184475725991833,86.48837041682141
3748.8667,3.019202751426567,93.20808223724589
3749.729,3.0180515706425783,87.74332316445603
3750.5938,3.0153061506786183,99.72680296611773
3751.4565,3.0127724303812693,108.4649013052915
3752.3215,3.012103963877814,84.20753802361115
3753.1848,3.0133757908055574,81.11724739760133
3754.0503,3.015186465269182,91.77707244524372
3754.9138,3.0160247622850247,81.07628719060921
3755.7776,3.015455062829295,102.1145621222117
3756.6438,3.014079350598296,105.09142579181942
3757.508,3.012686451185415,101.77233188679703
3758.3745,3.011446886333619,88.89564455105199
3759.239,3.009852128247922,105.27706471717396
3760.106,3.007156296536429,96.91452550748578
3760.971,3.0029083317724576,88.22699267541154
3761.8362,2.9970657227373314,106.15272552475685
3762.7036,2.989914758930415,108.03662804131382
3763.5693,2.9821132066957325,93.00499381787971
3764.437,2.9746425973859685,101.37193368837563
3765.3032,2.9687067364750845,99.05419419239162
3766.1714,2.964903598066459,101.33508060223379
3767.0378,2.96259135908455,109.19310833667099
3767.9043,2.9598894692388,102.66559013148257
3768.7732,2.954667919654915,84.75251935096718
3769.6401,2.945799783023393,94.08671285618604
3770.5095,2.9337860292989655,113.42821098778373
3771.377,2.9210051996245943,90.36516604814902
3772.2466,2.9108636222915947,131.64559911225248
3773.1145,2.906542843493217,123.09281652573492
3773.9824,2.9090300878665274,103.61153110558334
3774.8528,2.9164941984889676,86.44339299062821
3775.721,2.9254711655950283,90.63470038530475
3776.5918,2.933578623686786,97.47136174329572
3777.4604,2.941001841616439,78.95113985838803
3778.3315,2.9499373794055246,108.16392229250822
3779.201,2.961988047063684,106.76389116977805
3780.0703,2.9764281389318783,99.1973237657297
3780.942,2.9904427497263595,109.28006018380279
3781.8118,3.000851409325354,93.06108138758833
3782.6838,3.005852719348279,110.48723227244724
3783.554,3.0050551860488195,100.65204416151357
3784.4265,2.999047099666172,80.50355881943743
3785.297,2.989131883951396,91.540408399249
3786.168,2.977142368527469,87.92956375489457
3787.041,2.9649429600630586,118.33185326103032
3787.912,2.95371877209917,87.71777886722617
3788.7856,2.9434999658470766,94.1877013880785
3789.6572,2.9339829090487823,105.02902527211245
3790.531,2.9250804378897164,101.1438833119638
3791.403,2.9171749489021175,90.89217930336957
3792.2754,2.9104226957736783,90.25788086089445
3793.15,2.9044106072931353,110.25557607904167
3794.0225,2.8984099588396126,105.53138137517567
3794.8972,2.891884429532391,89.21690918010188
3795.7703,2.884967977532069,106.53699622684437
3796.6455,2.8781664229258013,90.87588409496514
3797.519,2.8720798510830696,107.49885381700263
3798.3926,2.867152123754984,103.14674757435203
3799.2686,2.8638753376369364,121.14931074902245
3800.1426,2.862932040807598,96.06415342519419
3801.0188,2.8649689422854876,92.37858769547555
3801.8933,2.870142357707801,101.18160316792272
3802.77,2.877725013034193,109.66206161227853
3803.6448,2.8860905933068217,107.41363116304001
3804.522,2.893518836363117,90.30744771211045
3805.3972,2.898790928405506,108.6144844379482
3806.2727,2.901528603057391,104.18750620965645
3807.1504,2.9018722975927433,86.91405733957198
3808.0261,2.9003874052945178,111.3374700144818
3808.9043,2.898163431198052,107.35796407629371
3809.7805,2.8966555485634173,94.58950656797936
3810.659,2.896949182725789,99.02916901304866
3811.5356,2.899052910008372,94.52328771346379
3812.4126,2.9019022235970073,102.73285389080924
3813.2917,2.904237508044129,87.06328874165851
3814.169,2.9055836390882193,115.1149791733598
3815.0483,2.9063960290174395,90.63542098781974
3815.926,2.9070571533990344,103.13731648337642
3816.806,2.9068967778657444,90.5063548475031
3817.684,2.904407792503928,112.17443103668923
3818.5623,2.89860469246416,99.96063287276516
3819.4429,2.8900844680656435,107.0449149863287
3820.3215,2.880815163098357,100.98140110696991
3821.2024,2.8725860768600415,106.04865989300893
3822.0815,2.8660032626621983,106.91268447480687
3822.963,2.860383096261285,112.44113149629962
3823.8423,2.854771571757556,105.70142138982
3824.722,2.8485148848774147,106.476158372041
3825.604,2.841213230792682,106.77536606273898
3826.4841,2.832437777045563,134.8201522700803
3827.3665,2.821596391123479,117.52249871452788
3828.2468,2.8083834380466004,104.26084741697261
3829.1296,2.792725689229628,103.00087101859094
3830.0105,2.775023440996175,114.33900723901976
3830.8916,2.7559241935443097,127.62084849673977
3831.7751,2.7365750725349147,148.34878479671522
3832.6565,2.718796400680487,113.50136119495511
3833.5403,2.704380812845326,103.91762299731592
3834.4224,2.6948467118541695,114.10606113051988
3835.3064,2.690751311431918,121.5486225849196
3836.1887,2.6918491205217623,115.57253567427158
3837.0713,2.6972679602040617,102.34496947019339
3837.956,2.7058931595124136,104.58875374214598
3838.839,2.716621718391428,104.7057491584929
3839.7244,2.728842886340807,120.53453955302447
3840.6077,2.7423462351520205,86.02333266281559
3841.4932,2.7572503155311714,144.63196120980862
3842.377,2.7732805767747104,78.49348620855666
3843.261,2.7897648178454375,118.97115757619768
3844.1472,2.8057287154106163,105.83769194822408
3845.0315,2.820184176312652,116.98394190618949
3845.9182,2.83271274981508,98.90502351636252
3846.803,2.8433202138426514,107.50234062721199
3847.69,2.852558867304752,92.82719362078537
3848.5752,2.8609574938822484,105.12253128207131
3849.4604,2.8688607552620344,107.41443463702177
3850.3481,2.8764121198037267,90.7599561647762
3851.234,2.883690414389557,113.12531140912586
3852.122,2.8907412412851836,97.02386540868021
3853.0083,2.8970943516487786,93.85023312913566
3853.8967,2.9018676325539627,93.6177215183409
3854.7832,2.904140266583064,95.18202189565486
3855.6702,2.903561101273916,102.43681270977078
3856.559,2.9003447945702034,95.30549798323021
3857.4463,2.8950173910191044,105.93468681439523
3858.336,2.888199328323836,97.10541552831162
3859.2234,2.880882473114344,103.8259030594755
3860.1135,2.874466720440919,97.08560654188949
3861.0015,2.8706168918093806,104.3666455516613
3861.8896,2.870359741242878,90.31428215613475
3862.7803,2.8733891065110035,102.96762589459823
3863.6687,2.877853836188672,111.02238217585659
3864.5598,2.8811464471749733,74.88845537089351
3865.4487,2.88096757484965,80.8558413505176
3866.34,2.876119332502327,99.32208696262026
3867.2297,2.866575009519807,98.82041190254435
3868.1213,2.8531153263034836,97.51903275018817
3869.0112,2.837218941846556,110.36004808555877
3869.9014,2.8205600041291596,135.82621891472013
3870.7937,2.8045149476608686,115.85283467391939
3871.684,2.7897201537042537,107.7933617166647
3872.577,2.7757003674856917,100.24318419024117
3873.4678,2.761545068729175,96.82232099530201
3874.361,2.7461823896853885,110.90956110080444
3875.2524,2.7291501237391325,96.46791853570235
3876.1438,2.7105933394586925,115.36076822173041
3877.0376,2.6911433451641873,126.75572531080805
3877.9297,2.671380222788483,102.62011811402027
3878.8237,2.650871907343062,135.7762070257426
3879.716,2.6287083114673915,104.47503263776939
3880.6108,2.6041712905324608,120.07846609993054
3881.5037,2.5779891616334027,128.19895808955133
3882.3965,2.5516223120682904,134.45659961582032
3883.2917,2.5261498752901383,131.57984266163055
3884.185,2.501502835090136,121.53940288101889
3885.0808,2.476365727969913,133.29909667593301
3885.9746,2.450108537222431,144.413161289539
3886.8706,2.4235152024281668,155.27771600107945
3887.765,2.3991951133115843,125.88897516659569
3888.6592,2.3799415528671295,149.57452898210227
3889.556,2.3675693315624287,168.97065384211334
3890.4507,2.362463377840985,139.9170619674589
3891.348,2.363958053137847,141.5681340950171
3892.243,2.371484141022339,169.33289758499674
3893.1406,2.385151325817623,154.8171125315264
3894.0361,2.4051430276420716,156.43482666247183
3894.932,2.4309698758895024,138.09049000908104
3895.83,2.4608417530261084,120.17885918136187
3896.7263,2.4917576503604044,137.59789067658852
3897.625,2.521137983057308,139.80057745765558
3898.5215,2.5474038174580205,127.10586684388706
3899.4207,2.5710536373558055,114.80780139362291
3900.3176,2.5936251986714374,145.5548825089938
3901.2148,2.61706529408037,102.0828644384621
3902.1145,2.642482472078351,130.29857836493062
3903.0122,2.669475846745077,112.1950913575552
3903.912,2.6968197329845904,140.25518762501096
3904.8103,2.722801912631,107.34718508858826
3905.7107,2.7466007690858474,101.64217090459557
3906.6094,2.7682159024770203,115.90189035246715
3907.508,2.788411422873265,92.69534758520392
3908.409,2.8077856877975833,104.80053000137177
3909.308,2.8262511792227203,91.79786562061375
3910.2097,2.8435946742148506,102.25849529504603
3911.1091,2.8596421217600723,91.85368729455716
3912.011,2.8747989504406766,107.39016517851651
3912.9111,2.8894640098381816,107.69594853711358
3913.8113,2.9038719363524805,96.78122554978131
3914.7136,2.917840485708271,84.77294389106173
3915.6143,2.9309387045407345,111.08775036458455
3916.517,2.943172464782971,88.46332543557715
3917.4182,2.954963303418297,105.97063140330302
3918.3215,2.967004629372694,93.13821933054147
3919.223,2.979374226149896,99.44934097396838
3920.1245,2.9913634953057584,98.05050414641367
3921.0286,3.001704044831124,85.38168354071398
3921.9307,3.0092300357654778,92.55578764040462
3922.835,3.0135593333084794,95.39132622212038
3923.7373,3.014964201030723,87.80187512949996
3924.642,3.0142077344509937,109.41750069585524
3925.5452,3.0123578232095363,91.10443290173234
3926.448,3.0106266180829615,80.539367966121
3927.3535,3.0098914563657426,90.54181893111324
3928.257,3.010036529161597,91.65178038445943
3929.1628,3.00968274262371,76.82274053177801
3930.0667,3.0067971750385274,88.27710822373453
3930.9731,2.9998381308113284,94.93395492441891
3931.8774,2.988798573460466,94.27384877401148
3932.782,2.9751642966059513,105.05434320765659
3933.6887,2.9611436739100405,95.68572690720157
3934.5938,2.9487996953166515,103.88577471486326
3935.501,2.9394275716937774,103.35856621209437
3936.4062,2.93388204167076,116.0168508272909
3937.3142,2.932356634168179,106.25571188275838
