wavl,flux,ivar
3566.9744,0.8587157757232237,1252.0868328807308
3567.795,0.8561392103416736,1180.5697379873009
3568.6177,0.8530445036580547,1835.3501595465782
3569.4385,0.849820206816687,2292.621081962719
3570.2617,0.8467656257851528,1642.9220167509511
3571.083,0.8441425003560037,1502.0150316628954
3571.9065,0.8421589118982442,1771.1327997127398
3572.7283,0.8410033427917669,1651.8321932016704
3573.55,0.8407251810668024,1890.1843434627622
3574.374,0.8411896107664505,1377.1439508255576
3575.1963,0.8420515599943962,2288.14676375606
3576.0208,0.842814108894203,1501.718144355091
3576.8435,0.8429815796513684,1232.2767716586593
3577.6682,0.8423436801104468,1222.8925144242157
3578.4915,0.841152950835364,1458.6254703187967
3579.3145,0.839940050034064,1771.3544369716424
3580.14,0.8390643203677614,1330.3904772878357
3580.9636,0.8384686771848618,1267.4974086797736
3581.7893,0.8378723268371,1787.1588346093556
3582.6133,0.8371452133120708,1570.312541137056
3583.4395,0.8363428354410062,1351.5233008828293
3584.264,0.8354627904040122,1411.5626904875685
3585.0884,0.8342823201139531,1540.5963856966152
3585.915,0.832544137608208,1814.4517442511224
3586.74,0.8302907021910786,1417.87966112754
3587.5671,0.8279512676210374,1489.6465268126283
3588.3923,0.8261755590153229,1543.9560274119308
3589.22,0.8254023417789061,1805.8002777204524
3590.0457,0.8255560165017714,2241.0940143752878
3590.8716,0.8259648273678477,1448.2855730701117
3591.6995,0.8256857398549721,1570.3708764953988
3592.526,0.8240912242336743,1600.0413384557703
3593.3542,0.821356527863598,1768.860061123369
3594.181,0.8184615843238658,2071.321550639294
3595.0098,0.8165219219025918,1699.6106655139063
3595.8367,0.8160398508778804,1808.8840926932437
3596.6638,0.8165533932954178,1468.905014090957
3597.4934,0.8170758409191159,1665.728814477738
3598.3208,0.8168775409035149,1428.4005651658404
3599.1506,0.8160031600625973,1374.5960218675443
3599.9788,0.8150696144722452,1716.023496088291
3600.8088,0.8145505817297419,1761.08266145706
3601.6372,0.8142897791211477,1733.6282580549625
3602.4678,0.8136845594673379,1306.5112473426193
3603.2964,0.8123302338886983,1723.7855971221013
3604.1252,0.8104232080706656,2274.440620944748
3604.9565,0.8086444182338354,1315.85370414417
3605.786,0.8077582643969273,1951.3795400955507
3606.6172,0.8081864609678555,1814.2004324567383
3607.447,0.809782687577417,1978.63836785706
3608.2788,0.8118323331770781,1756.9974808756238
3609.109,0.8133603748933922,1692.7877842928497
3609.9392,0.8136997572546972,1639.5950867285499
3610.7717,0.8128264371716676,1816.0153000465657
3611.6023,0.8112589536095038,1976.8065337195956
3612.435,0.8095862804417804,1625.0499969793518
3613.266,0.8081200959305128,1788.678007832267
3614.0994,0.8068270516732811,1690.7940185736977
3614.9307,0.8055590400987845,1653.9365789756696
3615.7625,0.8042519099648218,2149.3988706818577
3616.5962,0.8030615472981216,1983.344280015889
3617.4282,0.8023547502437058,1575.340432010232
3618.2625,0.8024844028220011,2259.3770645028317
3619.0947,0.8034330297416158,1808.4446084596943
3619.9292,0.8045808277379888,1778.5663996424644
3620.762,0.8049219993143002,1425.954718939646
3621.595,0.803728593245985,1580.4778801775838
3622.4302,0.8010966536656569,1750.2246185673155
3623.2634,0.7979826192381173,1782.4961384140124
3624.0989,0.7955925165402424,1677.1084985719617
3624.9326,0.7947559151378942,2179.027642865556
3625.7686,0.7955601096805692,1637.4189572812597
3626.6028,0.7974922826478559,1699.9498743082688
3627.437,0.7998268722501977,2123.3678683510534
3628.2734,0.8020004741629154,1668.8502067469826
3629.1082,0.8037616768668706,1664.3717340239843
3629.945,0.8050767152112536,1945.5572503274943
3630.78,0.8057737412858987,1935.4081113127345
3631.6174,0.8054234407085071,1514.304768902716
3632.453,0.803681818067467,1578.4571934767946
3633.2883,0.8008890620961482,1755.2167566560345
3634.1262,0.7981964304759542,1379.2800446520641
3634.9622,0.7969087107931653,1777.3737943207516
3635.8005,0.797462546466861,1529.5081014794723
3636.637,0.7991443257378105,1359.9618880976454
3637.4756,0.8007946808423384,1756.2014216873142
3638.3123,0.8017810022718899,1582.6086754252653
3639.1492,0.8023250237087085,2138.518144035801
3639.9885,0.8029161549708478,1658.3422828171715
3640.826,0.8036232481938403,1601.6857091128022
3641.6653,0.8040728692105571,1660.827364670997
3642.5032,0.8039851480917102,1745.2665528075872
3643.343,0.8035560550620409,2143.499264270866
3644.1812,0.8032225040591915,1759.9173717558865
3645.0195,0.8031741301650687,1632.5234421085179
3645.86,0.8032438561088174,1489.4370665912732
3646.699,0.8032436723048618,1279.7873140563202
3647.5398,0.8032772545207125,2147.294968167752
3648.379,0.8036196263551738,1457.4531532663145
3649.2202,0.8042911307660037,1846.1320965336026
3650.0596,0.8047839757379002,1857.7191904460256
3650.8994,0.8043161972999379,1859.2372895749709
3651.7412,0.8024774273487296,1582.035213313148
3652.5813,0.7998038544077616,1668.5399311764547
3653.4236,0.7976228575907908,1569.7297560697598
3654.2642,0.7972200821613287,2053.2230576007514
3655.1067,0.7988433339496976,1591.23073228825
3655.9475,0.8014546222653893,1766.8869033521344
3656.7886,0.8034152942451845,1867.9663819598823
3657.6318,0.8035230308029233,1786.1252334654487
3658.4734,0.8017262622114701,1688.219943904684
3659.317,0.7990706489331929,1978.7433815242048
3660.1587,0.7969938730497608,2268.774157523083
3661.003,0.7963972602246409,1856.247292880576
3661.845,0.7972281391469913,1867.3106745308226
3662.6875,0.7987470671452057,1416.3558124868719
3663.532,0.8002489510317006,2044.0681850238645
3664.3748,0.8015770055459019,1934.9788739654166
3665.2197,0.8030866049011616,1848.9732086969975
3666.063,0.8050752702191686,2295.2796212386593
3666.9084,0.8072831081290803,1576.686802435179
3667.752,0.8088155513708241,1547.1128222185337
3668.5977,0.8086985168744553,1441.4690944944068
3669.4417,0.8065441067349137,1704.4939178989268
3670.286,0.802838953538997,1881.998516086207
3671.132,0.7985865997758707,1776.6662208352393
3671.9768,0.7947207932412913,1900.9756795534095
3672.8235,0.7916962333295987,1528.3080089355021
3673.6685,0.7896227951366103,1872.7048816440051
3674.5156,0.7884062988497158,2180.284364855754
3675.3608,0.7878531444811737,1672.2575332069407
3676.2063,0.7877104166574347,1762.0902644427842
3677.0542,0.7878618502845601,1781.2899831392085
3677.9,0.7884248971841206,2161.8510667009086
3678.748,0.789575504533699,1676.8735608343397
3679.5945,0.791224706360258,1965.174702006511
3680.4429,0.79293812018103,1770.0998468652829
3681.2896,0.7941239551208044,2273.2447604088197
3682.1365,0.7943975207457701,1576.8666644622824
3682.9856,0.7937909651787024,1704.4639301146733
3683.8328,0.792745285467383,1619.3972269832416
3684.6824,0.7918185819490294,1740.8269426969875
3685.53,0.7913361318398903,1865.3596363802765
3686.38,0.7911938074478093,2053.823244140532
3687.2278,0.7910085981466959,2276.7118844222105
3688.0762,0.7904465111344696,1515.446611088053
3688.9265,0.7894764036834889,1499.3179984681615
3689.7751,0.7883558326258405,2151.7560652331144
3690.626,0.7873459992317519,2013.300789831725
3691.475,0.7864905649614463,1795.4865864639582
3692.3264,0.7856619170015258,1879.8731415863256
3693.1758,0.7848826859295622,1865.0143412033833
3694.0254,0.7844965208597278,1838.2658832385282
3694.8772,0.7850109743798173,2035.586766555158
3695.7273,0.7867046444786694,1520.277082039611
3696.5793,0.7893569133925868,2115.8440667228647
3697.43,0.7922452228090443,2138.5918157729684
3698.2825,0.7944945735481862,1859.8824135204027
3699.1333,0.7954415407104928,1685.9500032057663
3699.9841,0.7948780281802212,1544.73693948491
3700.8374,0.7929128797785491,1769.3852876054184
3701.6887,0.7897894813224214,1585.653249076659
3702.5425,0.785828378042707,1867.6364221911579
3703.3943,0.781627840888483,1665.5027477404878
3704.2483,0.7779338365966371,1891.497650059202
3705.1003,0.775344491052801,2217.707873160963
3705.9526,0.7739238798313945,1638.2082367940745
3706.8074,0.773327342580741,1946.5219206041854
3707.66,0.7731707679591648,1862.4811218549607
3708.515,0.773280274328928,1953.5383230253908
3709.3682,0.7736464206886526,1548.6688015078964
3710.2234,0.7742353987462995,1888.6806406829562
3711.0771,0.7749053356383124,1688.9509033461468
3711.9307,0.7754946304674188,1777.340567986265
3712.7866,0.775895077004471,2031.3980601891212
3713.6409,0.7759734251456775,1924.9763546000913
3714.4973,0.775457129601245,1635.4191005379193
3715.3518,0.7740233842167409,1529.349444127842
3716.2085,0.7715945937248824,2021.63460697643
3717.0635,0.7685656819646102,2089.5802557983325
3717.9185,0.7655885893834801,1900.4836871544023
3718.776,0.7631835177244899,1930.2872463568604
3719.6313,0.7615448999138552,1997.3774196312552
3720.489,0.7606386340664169,2029.6927446331892
3721.345,0.7604933054886773,1995.3626716462595
3722.2031,0.7612258992298429,1695.5242910547806
3723.0593,0.7627993779553074,2114.640293323009
3723.9158,0.7647700188540454,1893.808291670443
3724.7747,0.7663398997097423,1994.9729381273771
3725.6316,0.7667636924705946,1906.2737930105145
3726.4905,0.7658376073732092,1639.251954535746
3727.348,0.7639968352528951,2045.940652593424
3728.2073,0.7619596755400573,1743.883638287217
3729.065,0.7602576495830452,1818.2691080024629
3729.9229,0.758954945418695,1915.3491153296516
3730.783,0.7577734227165267,1910.9521776265406
3731.6414,0.7564066202880589,1679.9691200057398
3732.5017,0.7547810998551227,1858.2022899916929
3733.3604,0.7531754159433975,1968.2837623076596
3734.2214,0.7520590436569264,1845.3560830946262
3735.0803,0.7518510610012525,1971.3634828196857
3735.9417,0.75268711475325,1841.5620786206628
3736.8013,0.7543692616421674,2181.974165052292
3737.661,0.7564508072976719,1935.9096656956522
3738.5227,0.7583880116262758,1849.7491991656468
3739.3828,0.7597027980248146,1947.027244397048
3740.245,0.7601480881106625,2213.211927499894
3741.1055,0.7597123365463969,1908.8147893648613
3741.9683,0.7585705742336069,2012.4744489950715
3742.829,0.7570230909436486,2016.0538112765303
3743.69,0.755383105077439,2083.638316178472
3744.5532,0.7538317035017457,1818.5571370348064
3745.4148,0.7523316509724992,2211.156472965925
3746.2786,0.7506987832459907,1946.2472759306233
3747.1404,0.7488919991709919,1968.95020213086
3748.0044,0.7471529144348282,1944.1727557222353
3748.8667,0.7459217474663883,2058.5919146767487
3749.729,0.7455063873377968,2108.398797436138
3750.5938,0.7459046640613245,2312.1019386582634
3751.4565,0.7468521568938249,1846.90452738121
3752.3215,0.7480051740492797,1723.5937449310343
3753.1848,0.7490200648640502,1969.3446796621292
3754.0503,0.7495920145590526,1826.4295615649637
3754.9138,0.749538784343532,1629.5830526658688
3755.7776,0.7489865276616112,1807.6993944235412
3756.6438,0.748388882927157,2024.1947000150308
3757.508,0.748267242869803,1860.246673673901
3758.3745,0.7488210724111459,2142.9834546792026
3759.239,0.7497736347604224,2040.133572214515
3760.106,0.7505644084173104,2106.2654987699702
3760.971,0.7506764514675242,1891.7870308300396
3761.8362,0.7499236598860621,1953.488430467799
3762.7036,0.7485247861379131,2423.09509846865
3763.5693,0.7469714540797273,2676.8249183319663
3764.437,0.7456515259239814,1917.4808846812723
3765.3032,0.7445361954645163,2364.2297897120116
3766.1714,0.7431494795337638,2127.8304165283666
3767.0378,0.740978307109498,1756.1620983551645
3767.9043,0.7379324878181395,2108.13198007469
3768.7732,0.7345119069683687,2077.5496587882503
3769.6401,0.7315797642051587,1771.9657933856254
3770.5095,0.7298399337261259,1940.6512454939007
3771.377,0.7295563731905879,1928.9513922923677
3772.2466,0.7304986844238444,2017.2777913983161
3773.1145,0.732172363003283,1825.8942636240504
3773.9824,0.7340859707434124,1811.9419743247834
3774.8528,0.7359022577184468,1707.514363023068
3775.721,0.7374528970879523,2179.0669368005165
3776.5918,0.7387571505703668,1790.9753072110452
3777.4604,0.7399787565606831,2145.8923208472634
3778.3315,0.7414252619030693,2020.484929708284
3779.201,0.7433657458239774,2064.399989726964
3780.0703,0.7457861584725475,2292.305976730198
3780.942,0.7482495451898478,1920.0304935621234
3781.8118,0.7500935418227539,1932.7349623510581
3782.6838,0.750873984086806,2054.2083291598265
3783.554,0.7505397735419281,2147.118523976929
3784.4265,0.7493312604543975,1979.6158664278914
3785.297,0.7475805360067737,2032.191020992657
3786.168,0.7455740068878807,2167.339578798042
3787.041,0.7434724348093625,2026.7139644118854
3787.912,0.7412318883681257,1930.1432424232407
3788.7856,0.738576076963363,1977.3957943402902
3789.6572,0.7352683789816671,2014.7038891110458
3790.531,0.7313629146644213,2021.0810109773804
3791.403,0.7273469163158017,2467.5799659304253
3792.2754,0.7238148886024036,2219.0851083572875
3793.15,0.7211206058682093,2083.004535786826
3794.0225,0.7192489018488408,1963.7315832567522
3794.8972,0.7179598716026976,1777.4267034353552
3795.7703,0.717125132756868,2231.014799892959
3796.6455,0.7168498062079317,1957.3891603278469
3797.519,0.7173927012171815,2249.925581228372
3798.3926,0.718937477266355,2017.8883506596667
3799.2686,0.7214538934643654,2104.6934519471
3800.1426,0.7246986999954232,2084.86843223679
3801.0188,0.7284198316358302,2293.678299610997
3801.8933,0.7324110706019978,1945.606387417171
3802.77,0.736533102890294,2058.948172771548
3803.6448,0.7405111667591354,1925.5497855803187
3804.522,0.7439839171626887,1858.3451623169499
3805.3972,0.7466375658496701,2038.2973054650588
3806.2727,0.7486145228778691,1816.5654712526457
3807.1504,0.7506656034991367,1679.1773171965986
3808.0261,0.7538941620674359,2176.566969621656
3808.9043,0.7590985144804572,2017.2603000074746
3809.7805,0.7658817485080583,2357.354712747548
3810.659,0.7724408531952883,2069.7582012495654
3811.5356,0.7762035207367359,1830.6966225299493
3812.4126,0.7755000646296111,1906.094707301022
3813.2917,0.7706937929796785,2087.1622376837286
3814.169,0.7639887244378216,2051.1523533658915
3815.0483,0.7578042068224201,2096.0081134799966
3815.926,0.7534499015925913,1967.2683492957888
3816.806,0.7507766342373031,1797.4062192169285
3817.684,0.7489802655645514,1926.137717837351
3818.5623,0.7473352717650422,1927.2490710089044
3819.4429,0.7454927714912896,1915.3153598175177
3820.3215,0.7433929860771572,1683.636198551623
3821.2024,0.7410886762417344,1925.1087601453214
3822.0815,0.7386755027602413,2477.6063315048923
3822.963,0.736088313805387,2143.7099289508865
3823.8423,0.7330125078391703,2023.6633114024276
3824.722,0.7289711063940663,2184.48739349356
3825.604,0.7237221753031404,1901.588582045211
3826.4841,0.7176035638182621,1874.3468263257423
3827.3665,0.7113002361612873,2452.6148958252274
3828.2468,0.7054689603824744,2051.2852351760594
3829.1296,0.7002429716483475,2176.2025795178984
3830.0105,0.6953669197076554,2304.111297545388
3830.8916,0.6904025323110875,2267.122546335573
3831.7751,0.6850331279298655,2710.0761554024657
3832.6565,0.6792196987839056,1968.1145810699038
3833.5403,0.67314396658246,2985.4216801446014
3834.4224,0.6673413691185967,2408.229211992654
3835.3064,0.6625005435115825,2813.993040951801
3836.1887,0.6593224340789129,2530.9974884530625
3837.0713,0.6582201149580141,2242.2859247253514
3837.956,0.6593250694383164,2750.640605328375
3838.839,0.662547967942624,2275.043159568444
3839.7244,0.6676205341325963,2861.7425393825606
3840.6077,0.6739746620881414,2624.8430621289276
3841.4932,0.6809325859617639,2293.579739587435
3842.377,0.6879578743074756,2211.7869503894203
3843.261,0.6950731276836721,2072.6890565422996
3844.1472,0.7026823652371227,2533.710262052531
3845.0315,0.710957725978332,2424.889733997818
3845.9182,0.7194932143926285,2354.2495251437276
3846.803,0.7272590639854689,2156.7023513701574
3847.69,0.7334236436910072,1773.8058164232104
3848.5752,0.7378725180861627,1645.891956360256
3849.4604,0.7414020799145866,2138.101584084687
3850.3481,0.745140885980532,2388.72202156261
3851.234,0.7498076277257416,1926.1971151097218
3852.122,0.7554087620853079,2049.263661461365
3853.0083,0.7613008801662583,2442.1381358063027
3853.8967,0.7667224386249214,1976.1628393311094
3854.7832,0.7710328086040065,1806.9709011896664
3855.6702,0.773951187787862,1634.8648861355518
3856.559,0.7755603451912464,1831.454094386671
3857.4463,0.7763008591889887,1901.2474066416337
3858.336,0.7767886358396343,2150.653257929734
3859.2234,0.7774417629635321,1956.3481459610323
3860.1135,0.7782623082937997,1569.3842609084613
3861.0015,0.7789160428332518,1857.065441114701
3861.8896,0.7790365973229815,2064.6788682704137
3862.7803,0.7784125016474971,1702.976344133338
3863.6687,0.7770063835884542,1785.0175300088952
3864.5598,0.7748589354532806,1736.6326448781833
3865.4487,0.7720541905418667,1839.4311927267233
3866.34,0.7686383211551373,1479.4365594208746
3867.2297,0.7646707058829261,2265.043849675717
3868.1213,0.7602041918569526,1591.688575093144
3869.0112,0.7553943355403345,1775.149227179777
3869.9014,0.7503892782816265,2142.772942611034
3870.7937,0.7452350260068861,1794.6107917185986
3871.684,0.7398854006446186,1944.4315268214007
3872.577,0.7342616125579573,2064.8071288367555
3873.4678,0.7284974265363792,2127.938379976227
3874.361,0.7227488743613528,2257.7327899868783
3875.2524,0.7170759550959621,2316.542014297002
3876.1438,0.711252922016455,2244.2765269376364
3877.0376,0.704968567392341,2187.8558621872576
3877.9297,0.6981025267143649,2351.478081691357
3878.8237,0.6906572601194221,1966.5626964281435
3879.716,0.6827175191402849,2760.417094959324
3880.6108,0.6741912098669185,2246.607471820685
3881.5037,0.6649904014773356,2546.946580822108
3882.3965,0.6550273203145025,2464.97718913286
3883.2917,0.6443562209638364,2192.5958537623665
3884.185,0.6332680805951126,2863.4207815606883
3885.0808,0.6220430077957064,2996.253904749145
3885.9746,0.6111046846231101,2808.604563589633
3886.8706,0.6007991357089234,3133.372065200562
3887.765,0.5916399043520512,2974.432622341732
3888.6592,0.5841803074022617,3735.9868478203293
3889.556,0.5790409087708123,3323.314220132056
3890.4507,0.57678923151631,3154.6274407022565
3891.348,0.5776876052911736,4228.277182533589
3892.243,0.5816580515381025,3299.2079379562697
3893.1406,0.5883940779410252,3320.539741400477
3894.0361,0.5974324895637178,3014.5742955850283
3894.932,0.6083256982619089,4037.548815841464
3895.83,0.6205588397037868,3169.178814103976
3896.7263,0.6334241709336658,2993.131214367559
3897.625,0.6463289708818252,2387.0737477790044
3898.5215,0.6586814666855351,2507.2733557647935
3899.4207,0.6702315050854515,2255.606151349132
3900.3176,0.6808314540024136,2632.7234587456883
3901.2148,0.6906481080807646,2117.653188812929
3902.1145,0.699984676330975,2272.020445692491
3903.0122,0.7090774540210292,1936.5729276439072
3903.912,0.7181110907704833,2267.91152657702
3904.8103,0.72702513390868,2324.330036834189
3905.7107,0.7357819749371833,1775.1727179304373
3906.6094,0.744345070867576,1902.005008652476
3907.508,0.7528420958578309,1944.646259012961
3908.409,0.7614191548583102,1753.7126756680716
3909.308,0.7700430864768815,1748.1273486507548
3910.2097,0.778573452656744,1848.005471410645
3911.1091,0.7866677561628467,1962.1233402523467
3912.011,0.794111589786443,1742.4430077399256
3912.9111,0.8008320850641606,1682.7588024074628
3913.8113,0.8070923049499166,1649.09329123305
3914.7136,0.8133156849367654,1708.8136957528184
3915.6143,0.8197625952121993,1671.4432258359736
3916.517,0.8263906486526797,1701.0298261895803
3917.4182,0.832750866673806,1661.8059736895914
3918.3215,0.8383402066889288,1643.3929864728584
3919.223,0.8427747830080036,1519.9628054733153
3920.1245,0.8460162677743976,1539.7426489813556
3921.0286,0.8482717183353556,1499.0282176502706
3921.9307,0.8498381465389361,1395.4843075035951
3922.835,0.851006773248603,1538.5369146927464
3923.7373,0.8519812815361678,1633.3845276904565
3924.642,0.852891902071785,1431.712713392245
3925.5452,0.853744262801502,1683.6676820094112
3926.448,0.8544107768072191,1605.986760054447
3927.3535,0.8546847329014554,1531.7866332815368
3928.257,0.8544047114120968,1495.919320707625
3929.1628,0.8535299048906368,1733.8324021740232
3930.0667,0.8521131962135097,1407.8817124975767
3930.9731,0.8502380605028642,1646.342804075036
