wavl,flux,ivar
3566.9744,1.992787431303209,469.42983643780366
3567.795,1.988427705985982,468.70125272121936
3568.6177,1.9855165527681553,505.1867995963927
3569.4385,1.9835609031475276,573.7293294639139
3570.2617,1.9815523980850211,488.36114693335236
3571.083,1.978652637556574,509.30295013866925
3571.9065,1.9746613255592917,429.5352761058846
3572.7283,1.9701093173795032,521.6817824323078
3573.55,1.9657610609038525,473.70822034369155
3574.374,1.9621833011187466,471.7312882394671
3575.1963,1.9596629891435782,512.3661826054428
3576.0208,1.9582561981401188,556.7765484781328
3576.8435,1.957852553394414,496.4016222873635
3577.6682,1.9581183098862422,530.1400997928237
3578.4915,1.9586751924412926,434.6588592314871
3579.3145,1.9593885693949518,455.5516412992929
3580.14,1.9604079575978977,509.15980652473786
3580.9636,1.9618052725188069,456.33121857741764
3581.7893,1.96318915554229,440.68907509386503
3582.6133,1.9636530787067836,474.2775714699685
3583.4395,1.9622068694037869,471.3750539799023
3584.264,1.9583750482467472,485.2525957201504
3585.0884,1.9526200050295708,505.86494503333114
3585.915,1.9463140045404457,524.8877068385118
3586.74,1.9412070340663392,485.55167881170615
3587.5671,1.9384446754071043,509.4353924504703
3588.3923,1.9381306602462223,483.86295198940303
3589.22,1.9394711465364167,548.3851160280842
3590.0457,1.9413309117571633,486.462209231997
3590.8716,1.942620314533951,504.4047889440012
3591.6995,1.9424983834118594,470.5787872249109
3592.526,1.9406954076407943,492.21558943572336
3593.3542,1.9377351547323098,550.2352362039236
3594.181,1.9346678791988412,497.677223692814
3595.0098,1.9322866583869163,531.6104342076245
3595.8367,1.9306351128709014,528.8484638390767
3596.6638,1.9291164611681508,552.3005637814861
3597.4934,1.9271723056678038,457.2306716792596
3598.3208,1.9248252371487011,482.000682653291
3599.1506,1.9225404383521898,493.31197590810757
3599.9788,1.9206365658058129,599.8019590415182
3600.8088,1.918695001540561,524.6941630924646
3601.6372,1.9157423993163432,530.3709947307808
3602.4678,1.9110083847246346,554.9541694951055
3603.2964,1.9047679151510626,539.0777553522777
3604.1252,1.898339756016744,489.12142214106564
3604.9565,1.8934866792507308,560.002221001097
3605.786,1.8916424997125134,551.1887584547037
3606.6172,1.8933244827239932,533.5790934994036
3607.447,1.898034728406624,478.69078455589204
3608.2788,1.9044236990639762,539.1253731407944
3609.109,1.9106600698909226,484.05017693254945
3609.9392,1.9152098025098416,466.7223295339476
3610.7717,1.9173844430176437,594.6630992187135
3611.6023,1.917401711783127,532.6780171911389
3612.435,1.9158822665888597,560.014821124991
3613.266,1.9132327786826864,550.3909147545658
3614.0994,1.9094750559597213,488.1162127236175
3614.9307,1.9046613797123437,498.240520168005
3615.7625,1.8992725548097937,519.1572646059337
3616.5962,1.8943223895724273,541.4379646074567
3617.4282,1.89090937437488,582.3620184796677
3618.2625,1.889450039815267,590.8066437359012
3619.0947,1.8894305371020492,573.1322977201954
3619.9292,1.889789880830393,518.5531562456321
3620.762,1.889724773169362,556.5798875730814
3621.595,1.8891594969139613,603.5361400429549
3622.4302,1.8885441397953378,558.9662279067467
3623.2634,1.8883018957638282,493.13830209142776
3624.0989,1.888415806276902,518.2335009507079
3624.9326,1.8884141128927479,501.45343965620657
3625.7686,1.8876074045333917,514.4180415025862
3626.6028,1.8853913131516487,455.6283112308325
3627.437,1.8814830232600341,520.0090652408406
3628.2734,1.876061984734404,540.6496834098243
3629.1082,1.8698202032339357,508.9441564206062
3629.945,1.8636334554528218,602.1236798230686
3630.78,1.8582634453585958,648.1910568994999
3631.6174,1.8539310845076733,512.621677247973
3632.453,1.8504727372583354,574.3768045406966
3633.2883,1.847628176066675,649.0941374136333
3634.1262,1.8454202824303905,564.4808184964859
3634.9622,1.844157816146182,612.8917431289963
3635.8005,1.8441070538793913,687.9427537611907
3636.637,1.845273728399702,504.26956315323486
3637.4756,1.847380117091046,534.2797922267082
3638.3123,1.8498782476210318,599.6259425088107
3639.1492,1.8519418707208553,615.7752217199105
3639.9885,1.8525728423849797,540.9724902884608
3640.826,1.851133060050461,539.0839189186624
3641.6653,1.8479031986788874,540.0706756073062
3642.5032,1.8439799058898108,551.1611812756375
3643.343,1.8403786813037621,621.5446874897339
3644.1812,1.837303956028284,553.9893109078836
3645.0195,1.834107556599125,601.432044720806
3645.86,1.8299812434359615,537.0085656693725
3646.699,1.8246279191688193,599.9457260642448
3647.5398,1.8183354955067998,564.9443704603792
3648.379,1.8117811950697524,599.8464089853949
3649.2202,1.805555150713777,608.8078708838211
3650.0596,1.8000927111135543,629.5013195298951
3650.8994,1.7956028672996858,555.2692363348333
3651.7412,1.7922497183666175,590.0318658837539
3652.5813,1.7902109698653774,532.73794649595
3653.4236,1.7895910386544076,599.8127042437528
3654.2642,1.7903379832041697,653.6869330785512
3655.1067,1.7920716382444613,678.2657451765895
3655.9475,1.7939937518982227,576.1044053869267
3656.7886,1.7951200916974441,606.7398699856939
3657.6318,1.7948076589367925,556.5590404918764
3658.4734,1.7932999119154467,620.201402768743
3659.317,1.7917433227568498,596.8115549455397
3660.1587,1.7915988465473702,573.1045926335576
3661.003,1.7938225268004857,672.3679408287366
3661.845,1.7983974355608099,590.1841813925901
3662.6875,1.8044652229329416,500.38581518538024
3663.532,1.8107331277533147,624.8874856127005
3664.3748,1.8158662417527558,597.9436984723344
3665.2197,1.8189252775699472,594.6137662907872
3666.063,1.819560163382176,600.4007413818116
3666.9084,1.8181756645882106,528.880650559028
3667.752,1.815735830345818,620.7543156040541
3668.5977,1.8133126118681135,482.4384827131136
3669.4417,1.8116453195684876,560.8559764045626
3670.286,1.810801783452242,586.3050785361484
3671.132,1.8102273326042322,592.5168391759523
3671.9768,1.8091242734984634,533.1984265089882
3672.8235,1.8069671298443661,589.2855866217907
3673.6685,1.8038338972770893,615.9042620105349
3674.5156,1.8002689424402711,627.4916958034363
3675.3608,1.796980702463418,586.1353640973111
3676.2063,1.794449250463662,609.1911225967763
3677.0542,1.7927914855294913,547.6656484248549
3677.9,1.7917526904430185,628.1370181106964
3678.748,1.7907988264338899,643.3380108933463
3679.5945,1.78942020729078,571.7053599843626
3680.4429,1.787450578081944,531.4175359384052
3681.2896,1.7852271152361217,689.3143690862687
3682.1365,1.7832844371271346,635.0204630595166
3682.9856,1.7818898121607685,644.7596300564838
3683.8328,1.7808311488848676,631.9063826528978
3684.6824,1.7796218734754243,597.3003189881116
3685.53,1.7779350619126606,623.027806745058
3686.38,1.7758247221792713,587.1011876872265
3687.2278,1.7737672330471512,624.0600031133495
3688.0762,1.7724631546592207,619.6685278074923
3688.9265,1.7725572800813638,695.8296559527814
3689.7751,1.7742511857881236,698.367971644983
3690.626,1.777113325831828,583.6064381612797
3691.475,1.780299232441652,594.6488439914108
3692.3264,1.7832319005662671,584.0779624274726
3693.1758,1.7860414431991598,680.8801747694333
3694.0254,1.7894048218757326,595.5373991591423
3694.8772,1.7937193678080767,588.8232471445258
3695.7273,1.7984748495301894,605.2558645535235
3696.5793,1.8025707944414697,548.4609295079222
3697.43,1.8050055265771041,647.5625281694515
3698.2825,1.80537280841664,613.3767134519609
3699.1333,1.8036883361755471,552.1603023244968
3699.9841,1.800141777774686,611.9729215050089
3700.8374,1.7950622064404547,602.6973089548659
3701.6887,1.7890951956521104,585.1635460608205
3702.5425,1.7830611353164874,623.9768389707576
3703.3943,1.7778005662249095,592.8298926578387
3704.2483,1.7737312539349745,630.787509880675
3705.1003,1.7707932452465545,614.6111899163694
3705.9526,1.7685173119962734,624.2020697062113
3706.8074,1.7663794347807198,621.1138476789266
3707.66,1.7640549637173744,615.1794025002334
3708.515,1.7614386088584895,715.0068598534322
3709.3682,1.7586407791707017,598.094386834293
3710.2234,1.755834383478621,592.4811274455016
3711.0771,1.753146524575855,639.4857904640519
3711.9307,1.750456893345108,569.8749235629608
3712.7866,1.7473644588292432,652.1769261808092
3713.6409,1.7434224132564735,615.0404567369303
3714.4973,1.7385348118612787,656.4795377168598
3715.3518,1.733468350869494,683.2782533870511
3716.2085,1.7297060805858295,717.4987027389002
3717.0635,1.728744303304575,692.1991950696207
3717.9185,1.7310142658582741,705.3964203526281
3718.776,1.735619171288814,616.0555963645348
3719.6313,1.7409926160966804,623.0747738764901
3720.489,1.7461258174287504,613.8010175256364
3721.345,1.751047978739174,611.67201508463
3722.2031,1.7564833622860188,659.5754107173512
3723.0593,1.7626617440658352,618.183812806623
3723.9158,1.7685491660694184,627.8690835662863
3724.7747,1.772060547830867,615.8609578897028
3725.6316,1.7715202017147498,596.200442905089
3726.4905,1.7672089675595544,677.4972093402623
3727.348,1.7613207802167226,658.5952665182936
3728.2073,1.756217152593912,662.1718020786901
3729.065,1.75280630890415,578.863036630687
3729.9229,1.7503334963041377,624.731225044328
3730.783,1.7476087287335291,561.951306063759
3731.6414,1.7440937930630427,671.48472114664
3732.5017,1.7399683674210438,618.6865318513148
3733.3604,1.7357172692331106,567.5674355407166
3734.2214,1.7317423062262869,677.0199317442219
3735.0803,1.728393061460825,642.662572362146
3735.9417,1.7257850930971346,642.7540248931219
3736.8013,1.723676621168756,599.3692765699117
3737.661,1.7215006315062205,600.7592582865562
3738.5227,1.7188598919596585,647.1494951356301
3739.3828,1.7159499939868035,675.7630825364305
3740.245,1.7133373081690202,617.929982335081
3741.1055,1.711396777401032,623.2113432089767
3741.9683,1.7099028543366337,709.221820393271
3742.829,1.7083494321147055,710.0337853031368
3743.69,1.7065223932819353,655.3670008349412
3744.5532,1.704791469263399,674.7535608315984
3745.4148,1.703819687526045,708.5592201218517
3746.2786,1.7039867232875765,684.2156724250406
3747.1404,1.7051820433156404,604.7290907244712
3748.0044,1.707119488688796,653.7080383167522
3748.8667,1.7097813045530297,610.7630667758422
3749.729,1.7134972772739507,663.5781306915942
3750.5938,1.7184421867524438,706.2610705940313
3751.4565,1.723974761625617,667.2766869165326
3752.3215,1.7286821584643983,648.8152209080987
3753.1848,1.731048008207049,603.8459813026241
3754.0503,1.7305392478368105,606.5664155053337
3754.9138,1.7279296845808148,667.8127923415697
3755.7776,1.724683250160094,625.1234973301456
3756.6438,1.7219981519061023,626.3682402323244
3757.508,1.7204148387520095,626.8240610547786
3758.3745,1.7199969006279094,628.0384918891698
3759.239,1.7206410091432673,680.359078088969
3760.106,1.7220010831022927,638.3898323515778
3760.971,1.7233054548513538,637.094684784348
3761.8362,1.7235274162846304,627.8310627916304
3762.7036,1.7218550725669008,613.2207466323354
3763.5693,1.7181544818781165,592.8344683494571
3764.437,1.712967019181894,725.3347235242837
3765.3032,1.7071921678505517,683.4532041345112
3766.1714,1.7015697263219722,663.0652643684025
3767.0378,1.6965629271188578,615.8462988793805
3767.9043,1.6923376782012594,663.2209089850736
3768.7732,1.6889166727181928,652.7244692428083
3769.6401,1.6862266039120084,628.7252864104128
3770.5095,1.6840203000794751,658.4282333956814
3771.377,1.681988942793527,617.1212884019577
3772.2466,1.679870463975996,682.7022469746005
3773.1145,1.6776572781635144,664.588062777707
3773.9824,1.675621825886812,717.3121152001556
3774.8528,1.6742293214857662,627.6245226037366
3775.721,1.673936638014049,642.2003844269503
3776.5918,1.6749909027626473,665.1174808942089
3777.4604,1.6773948660415527,653.452943878681
3778.3315,1.6810158174878271,728.2060153628107
3779.201,1.6856196754883275,685.6354309043953
3780.0703,1.6909055009582517,693.0627845508839
3780.942,1.69639212207786,666.0428953664906
3781.8118,1.7013083009433398,670.1635875341549
3782.6838,1.7048381554410637,659.0534628469945
3783.554,1.7064706655172652,708.3132040650895
3784.4265,1.706441073800021,618.799341075157
3785.297,1.705580307172064,651.5368289841368
3786.168,1.7046825403575776,654.8149994062846
3787.041,1.7038703717856345,653.4128403569508
3787.912,1.7025301451588857,669.2018480899382
3788.7856,1.699805893415083,622.4335752416487
3789.6572,1.6952790208116622,667.94567596035
3790.531,1.6892061561792207,698.694937745212
3791.403,1.6824010724819447,685.1997654469175
3792.2754,1.6756750704415169,767.7215275411663
3793.15,1.6694896848186136,718.5945465483908
3794.0225,1.6639185817178084,664.9161843509088
3794.8972,1.6587390576182446,724.9564266958222
3795.7703,1.6538224004260635,666.600855761826
3796.6455,1.6492501026792177,725.7136497770238
3797.519,1.6454307420744025,751.7398171363134
3798.3926,1.6428395237792153,756.6209473776497
3799.2686,1.6417640650401641,704.5647882587137
3800.1426,1.6421203134109423,709.337162160693
3801.0188,1.643503784296502,726.0802833595028
3801.8933,1.645427796451685,739.2856013181289
3802.77,1.647571595506709,707.7425331345489
3803.6448,1.6498603633524007,743.8729012800989
3804.522,1.6524847983821829,643.3769884971205
3805.3972,1.6556986855146734,722.4505488755967
3806.2727,1.6596377205195862,651.5064769391464
3807.1504,1.6642023540857032,608.3956477321026
3808.0261,1.6691515506728651,664.5660192815335
3808.9043,1.6743682715435833,688.420379866066
3809.7805,1.6797308397835513,732.946385205574
3810.659,1.6849997528340765,654.3859061230504
3811.5356,1.689663653615717,644.7394381604081
3812.4126,1.6933085098966028,683.01822020715
3813.2917,1.6959207227979387,667.2274331340673
3814.169,1.697858291249086,701.9546524722193
3815.0483,1.6994736493763205,691.1200931545802
3815.926,1.7006967225970588,643.2544062115165
3816.806,1.7010913123005256,715.9298147275873
3817.684,1.7001809917290531,661.0075243580012
3818.5623,1.6977900577435694,661.1289971171042
3819.4429,1.69413483311687,700.8997787139206
3820.3215,1.689717793267787,695.6896306877878
3821.2024,1.6849325268303788,708.2481798704571
3822.0815,1.679866293531638,654.742315098783
3822.963,1.6742324758218723,705.4623745600499
3823.8423,1.6677319612557833,686.8510075174208
3824.722,1.660199005890586,667.5693414364042
3825.604,1.651673837935706,703.8945004168556
3826.4841,1.6424006075250412,698.9285205367613
3827.3665,1.6325803973608972,722.0527688098459
3828.2468,1.6224541419393514,739.4916625392696
3829.1296,1.6120607811104615,726.1052174981255
3830.0105,1.601445222858963,721.039359202379
3830.8916,1.5905374676589699,832.2669352755553
3831.7751,1.5793147295485486,789.621595138342
3832.6565,1.5680129445135629,791.5109472530816
3833.5403,1.5570322823196385,757.364611851965
3834.4224,1.547155706579334,765.5715244463835
3835.3064,1.5391785977625212,812.0187986580971
3836.1887,1.533850949428386,759.0276140139631
3837.0713,1.5316450584871946,821.3668051867155
3837.956,1.532869144383869,831.025461744632
3838.839,1.5376536593729642,806.3499260169679
3839.7244,1.5458632395278868,773.2751084765359
3840.6077,1.5568482213977535,787.766386297239
3841.4932,1.5696615525476285,805.863450783327
3842.377,1.583212343903491,792.1184050357328
3843.261,1.5968036676804078,689.9600368244755
3844.1472,1.6101258337710511,704.1327701876485
3845.0315,1.622998750699346,730.8209786908296
3845.9182,1.6354307323028348,761.0534729884774
3846.803,1.6473531704117623,680.6783822727201
3847.69,1.6589138553540643,700.1807542580425
3848.5752,1.670221987182698,643.4548168861793
3849.4604,1.6813690505272845,703.4130941283797
3850.3481,1.6921348838437864,639.8655026406875
3851.234,1.7017793117386002,648.4877246206736
3852.122,1.7094378206299397,689.8375110533921
3853.0083,1.7144956373961073,607.851694066688
3853.8967,1.7172228097360043,644.2863205731131
3854.7832,1.7185835812326746,646.3717089954062
3855.6702,1.7196250581623596,713.803560654117
3856.559,1.720811667819835,640.797133818585
3857.4463,1.7219890598014753,617.4143342034852
3858.336,1.722879382866646,616.7735186076909
3859.2234,1.7234593573282377,623.9692358167813
3860.1135,1.7239045907979416,681.4743355261643
3861.0015,1.7242268623939176,660.7559218216464
3861.8896,1.724109075843125,641.77508436985
3862.7803,1.7230857508902748,641.4356853362476
3863.6687,1.7209162741149768,641.4039660596413
3864.5598,1.7177619730090299,646.4714637006206
3865.4487,1.7141261662785638,633.5705646760802
3866.34,1.7104806452021217,669.8604720808504
3867.2297,1.7070182941408836,682.1071665502435
3868.1213,1.7034215120267056,659.3147192274729
3869.0112,1.69900963863666,658.7155736352389
3869.9014,1.69302259297878,682.2493389678492
3870.7937,1.6850171810785173,657.4128876850687
3871.684,1.6751059901536427,698.0325932123226
3872.577,1.6637158251988542,718.0765362384088
3873.4678,1.6516086801619254,697.2107081140522
3874.361,1.639531066678247,698.9117385927452
3875.2524,1.628204359261445,736.35391707329
3876.1438,1.617758506989203,759.1801973638796
3877.0376,1.6076640403777975,740.4654844837031
3877.9297,1.5971269049135721,741.4184898634885
3878.8237,1.5854762214160285,789.0263361307
3879.716,1.5726015292239166,784.6799844488129
3880.6108,1.5585435318525367,895.2572021055424
3881.5037,1.5434123942646296,795.7926901774122
3882.3965,1.5270935015157203,881.022725902923
3883.2917,1.5094950827401439,799.4063738579623
3884.185,1.490874559500683,854.8669774895881
3885.0808,1.4715538216364912,818.0893217993705
3885.9746,1.4521808009007544,901.9002411529053
3886.8706,1.4332467584537107,983.8269737722344
3887.765,1.4154559780760287,1033.0912663469387
3888.6592,1.3996290993835219,1039.4646711852868
3889.556,1.3870275050794594,999.9348261846874
3890.4507,1.3793171402309021,1009.1050196767461
3891.348,1.3778098735404885,1076.632142302983
3892.243,1.3829108851857916,1130.940430255571
3893.1406,1.3938080521966452,1025.9962364090864
3894.0361,1.4086944989967594,1030.6856221217242
3894.932,1.4256492780239918,933.4189348929348
3895.83,1.4432155097615953,918.3727970254316
3896.7263,1.4605373296959827,876.9693442895139
3897.625,1.4775758720734733,892.0653910135437
3898.5215,1.4944847834646058,906.1286524029964
3899.4207,1.511699397259257,943.3858158447044
3900.3176,1.5294121018055993,843.8316302531332
3901.2148,1.5478047844441278,835.9059075356989
3902.1145,1.5668333400187768,779.8517327410034
3903.0122,1.5860712453216006,799.193438501813
3903.912,1.6051460848988137,806.6450573835331
3904.8103,1.623619080450554,730.1354928410582
3905.7107,1.6415375532540994,699.722452766703
3906.6094,1.6591537388794455,735.8945220631531
3907.508,1.6769784696093477,690.1784082687767
3908.409,1.6953277525214865,640.5674649793295
3909.308,1.7139370749768774,640.8447162290471
3910.2097,1.732258583755373,607.4900794431076
3911.1091,1.7493695500379634,690.2513804899379
3912.011,1.7646724109354288,587.8785606213494
3912.9111,1.7778233796764964,595.5132252208324
3913.8113,1.7890748148942779,581.2338657089487
3914.7136,1.7990278823669612,587.1885887003051
3915.6143,1.8082786703980138,570.5479364086991
3916.517,1.8172543455694228,584.9640185234622
3917.4182,1.8259031342279495,587.6641100415451
3918.3215,1.833945149308673,591.2389743371125
3919.223,1.8409459619115502,560.7493487094879
3920.1245,1.8466250395210937,618.1593235167362
3921.0286,1.8508598279564503,545.7263856766291
3921.9307,1.853687089459412,495.84366624307336
3922.835,1.8553722650652347,560.1469709383525
3923.7373,1.8563331508350038,575.4459432818027
3924.642,1.857090282712781,542.0878139291523
3925.5452,1.8580674419926138,567.3828250666998
3926.448,1.859385376695015,558.5263871357315
3927.3535,1.8607563698444083,539.746236130242
3928.257,1.8616210757790992,539.1688726592947
3929.1628,1.8615073095025232,555.7840484339963
3930.0667,1.8602589718646352,557.4213897788671
3930.9731,1.8579700966596957,603.5302833675617
3931.8774,1.8547644366853397,568.5435639712812
3932.782,1.8506342374113154,547.5239118216764
3933.6887,1.8455871285329724,560.2849608795983
3934.5938,1.839889461040465,529.1110371500621
3935.501,1.8339774274125369,579.4995747761677
3936.4062,1.8283178503809718,590.8232196086446
3937.3142,1.8230813602102196,590.430637644258
3938.22,1.818209358708854,594.6246527130866
