wavl,flux,ivar
3566.9744,0.33471927084312486,6529.366496801058
3567.795,0.33479838605886414,5719.452969338647
3568.6177,0.33512447803838075,8748.87202024578
3569.4385,0.3353853051874275,7597.716761262999
3570.2617,0.3350772758263234,4793.961329905308
3571.083,0.3338889403138669,5203.17536519119
3571.9065,0.3318717911289262,3919.4583759897714
3572.7283,0.32937301692923054,5099.67494883383
3573.55,0.32683298991199616,6495.625959212
3574.374,0.32468301233096103,5532.079786372799
3575.1963,0.3232708563691282,4983.165147186719
3576.0208,0.32270399174827424,6750.064015644232
3576.8435,0.32281830905981707,7761.737031174225
3577.6682,0.3232829276796218,8521.848760535435
3578.4915,0.3238163308795107,5307.939990419545
3579.3145,0.3243232944436547,5390.237616085322
3580.14,0.3248763659032842,4405.085413711997
3580.9636,0.32560891452506235,4651.513458932399
3581.7893,0.3266245915286168,6522.875924336877
3582.6133,0.32792469486104286,5168.46906447566
3583.4395,0.32941529609843717,4268.114944816485
3584.264,0.33089774999514066,6031.959998799291
3585.0884,0.3321135936829055,4128.427874574362
3585.915,0.3327718061916066,6587.906491328969
3586.74,0.33262715921109737,8142.7169702533
3587.5671,0.3316195075223656,4688.22301489113
3588.3923,0.3300126751796677,8387.93625777341
3589.22,0.3283799213776739,4680.319555698125
3590.0457,0.32738821136634716,5380.149835535747
3590.8716,0.32737860435434285,5315.919472737417
3591.6995,0.3281827022934031,4786.068384667454
3592.526,0.32932123642227795,4231.876161028119
3593.3542,0.33045617716502906,4089.0662402851976
3594.181,0.33157008479190125,10887.188952481769
3595.0098,0.3327234970121732,4411.698556914759
3595.8367,0.33363006383218125,6028.285573905001
3596.6638,0.33361794989107585,3781.3886572368756
3597.4934,0.3320183355510253,4035.639945394237
3598.3208,0.3287320353859311,4726.323771528001
3599.1506,0.3243913937907541,5926.756030852175
3599.9788,0.320086484969385,5061.911784481902
3600.8088,0.31666376880996566,4013.58442508802
3601.6372,0.3143802133683331,5250.520006660687
3602.4678,0.3129485713614846,7522.895729527934
3603.2964,0.31204478895078797,6946.873911015291
3604.1252,0.31165196492898556,4947.4505394011285
3604.9565,0.31202013260197914,4662.47733183402
3605.786,0.31323638489969313,7401.894970160704
3606.6172,0.3149199979669279,6462.835452115351
3607.447,0.31642691507351256,4893.36097215997
3608.2788,0.3174954068676559,3784.2778686378397
3609.109,0.31858889954715647,6716.593265861705
3609.9392,0.3205475790758909,6733.525761606123
3610.7717,0.3237828973507138,4707.945542459851
3611.6023,0.3277801425702445,3220.617629623845
3612.435,0.3314850505238296,6308.02220709382
3613.266,0.33400877542219815,4631.7861562412745
3614.0994,0.3351507840174642,5100.713765690639
3614.9307,0.33517171660879747,8833.939966415584
3615.7625,0.33437889906129853,4009.2669125170232
3616.5962,0.33295345467810894,4020.408136375546
3617.4282,0.33114717738081156,5830.561496705519
3618.2625,0.32939290577292046,6910.404453172443
3619.0947,0.3281702016931943,9393.886579693242
3619.9292,0.3276756869864364,8451.911154390833
3620.762,0.32773268272464817,5833.510650226272
3621.595,0.3279688988170431,6109.170927307101
3622.4302,0.32814019254427634,3903.4116629194286
3623.2634,0.3283088778410278,5272.293538814625
3624.0989,0.32876117455356263,5507.787434125855
3624.9326,0.32973208637003165,5681.854707315429
3625.7686,0.3311844627989164,4985.636849837331
3626.6028,0.3327852646903465,4288.597528858224
3627.437,0.33415623728031135,6005.3379288903
3628.2734,0.3351228787732443,5086.832906652457
3629.1082,0.33572863991299856,6045.279092364162
3629.945,0.33598723906922723,4396.6385213777085
3630.78,0.3356150500975477,4956.220715446938
3631.6174,0.3341026492949677,4356.538780312694
3632.453,0.3310924161908786,4152.8847419483845
3633.2883,0.32666713231877254,4934.035542753216
3634.1262,0.3213343562204607,4268.566650134603
3634.9622,0.31581937026021617,4756.820425658816
3635.8005,0.31067159751763324,5544.684447555744
3636.637,0.30622936499159675,4078.1414294211017
3637.4756,0.3025627970131001,5467.248950025484
3638.3123,0.2997061449173333,4679.869769774625
3639.1492,0.297681698775031,5668.194408207186
3639.9885,0.2965199322496892,6999.034294119624
3640.826,0.29621899760758547,8742.971345661334
3641.6653,0.2967450272085347,9685.549406017908
3642.5032,0.2980483761425214,8385.924136806982
3643.343,0.2999833663773246,9260.815697646458
3644.1812,0.30218803264156135,5257.222114130056
3645.0195,0.3041812827220834,7104.194002473829
3645.86,0.3056127601965194,6444.762743451198
3646.699,0.3064960980545348,5261.455762333472
3647.5398,0.30721538269876303,5967.112228081346
3648.379,0.3082407589578609,6147.4557449509575
3649.2202,0.3098461456980668,8167.517944653997
3650.0596,0.31194300652874607,6398.435799490468
3650.8994,0.3141586935792312,5330.88699475656
3651.7412,0.31599895786775056,8314.08764702783
3652.5813,0.31702458152743945,4837.160831708043
3653.4236,0.3169766131354567,7283.904659454314
3654.2642,0.315781664121124,7210.701938803336
3655.1067,0.31355584273391773,4894.454456078928
3655.9475,0.310626164126362,6687.9991652687895
3656.7886,0.30744882263413525,5291.207609553425
3657.6318,0.3045040800545156,7769.90753791728
3658.4734,0.302202741152752,4066.718638977367
3659.317,0.30079783672271293,7097.47004360114
3660.1587,0.3004477749107509,4662.481608759321
3661.003,0.3012092951530724,8641.904358794885
3661.845,0.3029788860870145,4786.596427102977
3662.6875,0.3054108496026028,6633.469787394024
3663.532,0.3079294814419487,4906.889875528549
3664.3748,0.3098995891251694,12484.0955122027
3665.2197,0.3109192557552213,5071.865945858077
3666.063,0.31095307283014934,8593.346311100473
3666.9084,0.3103460314275022,4964.394472790793
3667.752,0.30965797802814854,5176.160848936673
3668.5977,0.3093946589920991,9556.748525115201
3669.4417,0.3097735382269886,5334.55384316066
3670.286,0.3106505152220725,5237.218968118618
3671.132,0.311671758216916,4391.437987092694
3671.9768,0.312482704770479,6749.545321973916
3672.8235,0.3128686398146185,5686.323966275624
3673.6685,0.31276523879728674,7708.576853009984
3674.5156,0.31226324386808674,4456.389429725964
3675.3608,0.31159935707750697,6552.27345347993
3676.2063,0.31107300759135714,9773.151900054778
3677.0542,0.31092046782717614,6929.90275979849
3677.9,0.3112154689012249,4733.51776296208
3678.748,0.3118503539973312,6274.757819569397
3679.5945,0.31258342564148034,4945.151126559557
3680.4429,0.3131551527174662,4298.487127767258
3681.2896,0.31339305867905476,7303.925514344069
3682.1365,0.31324629926081193,5952.875674631355
3682.9856,0.3126962594237659,3418.0548397201596
3683.8328,0.311711798542989,5144.471250806412
3684.6824,0.3103118223484016,11577.476310970576
3685.53,0.308674162556497,7657.552649750427
3686.38,0.30704792712757256,9384.654319392384
3687.2278,0.30561112030688564,5162.130637296069
3688.0762,0.30434969302521336,4229.363137051473
3688.9265,0.30316126329149407,5424.291264643754
3689.7751,0.30205297545680326,7562.186821677127
3690.626,0.3012430773483582,6725.278616488389
3691.475,0.3010820165745984,8587.739217712095
3692.3264,0.30178874738162015,6912.63303510304
3693.1758,0.3032788881204723,4322.029668446573
3694.0254,0.30523410538383844,6724.165730407838
3694.8772,0.3072941113336765,4983.323513287202
3695.7273,0.30916416569803795,5685.6302019751765
3696.5793,0.310655078212911,6069.033879699045
3697.43,0.3116530702681777,4686.916832264588
3698.2825,0.3122168450152574,7074.638570530007
3699.1333,0.31261587662728335,4835.230537631713
3699.9841,0.31321088135647496,8283.183915646054
3700.8374,0.3141621709684279,6817.465956284031
3701.6887,0.31523847842513286,5655.171416646284
3702.5425,0.3159727915784119,7545.4371435320745
3703.3943,0.31598307686295335,7356.462982499123
3704.2483,0.31521033368839996,6622.567475294141
3705.1003,0.31388450393392303,7042.82282079305
3705.9526,0.31231967577623315,7561.656566590898
3706.8074,0.3107337301752537,6031.31565478103
3707.66,0.3091891628960741,5911.191614448462
3708.515,0.3076094691642306,7226.410515319665
3709.3682,0.3059505530040163,4123.09167777787
3710.2234,0.30433141566588295,5030.958675419692
3711.0771,0.30311870518198325,6480.180582882803
3711.9307,0.30273342294066596,8109.19754304223
3712.7866,0.30333528722004593,7544.633987382682
3713.6409,0.3046167553229352,5177.421511390218
3714.4973,0.30598726658009057,7633.565761195519
3715.3518,0.3069512909273164,4975.301126303616
3716.2085,0.30734669897055267,4701.544070632059
3717.0635,0.3072051449208635,5291.872860171879
3717.9185,0.30655604267869424,6729.582910999688
3718.776,0.3054319560426314,8248.465112293723
3719.6313,0.3040668514090928,6215.011489375741
3720.489,0.30292141761617986,7054.318539189972
3721.345,0.30246749927839583,8437.863974543203
3722.2031,0.3028496494646305,6224.120967085266
3723.0593,0.303786898333359,6557.891720029419
3723.9158,0.30477317901330053,4525.831557671824
3724.7747,0.3053898848693365,6138.413423425957
3725.6316,0.3054975247725851,4339.7243693285
3726.4905,0.3052415750592829,7244.736719715213
3727.348,0.3049248193897827,8400.235556527521
3728.2073,0.304868985612781,5559.852405620702
3729.065,0.30529643303381476,5560.412066908193
3729.9229,0.30622508040689533,5334.152451167581
3730.783,0.30744391980384583,5963.564502512001
3731.6414,0.3086232706565705,7029.234205442016
3732.5017,0.3095484266760297,6061.364114976873
3733.3604,0.3101985771134664,6815.428516212181
3734.2214,0.3106263878114988,5861.577356247359
3735.0803,0.310744771115447,5290.540720336796
3735.9417,0.3103390707383166,6873.8249733699595
3736.8013,0.3093069178477539,6454.377636051234
3737.661,0.30787634066599456,5172.9010709520735
3738.5227,0.30656087358592937,5358.327859389876
3739.3828,0.3058786913843912,5856.752199235041
3740.245,0.3060137029296584,7410.356735767095
3741.1055,0.3067007357566609,5570.4965757738655
3741.9683,0.3073504751181558,5855.264804013286
3742.829,0.30730030328966673,5157.705323393404
3743.69,0.30609148008805404,5474.348963860167
3744.5532,0.30367041275383694,3807.6020038930164
3745.4148,0.300525724414903,6351.350920157863
3746.2786,0.2975188997801861,7420.65257926968
3747.1404,0.29556088538482056,5487.121634817007
3748.0044,0.29516022495521704,4951.287174738784
3748.8667,0.29625724411121274,11539.990393531973
3749.729,0.298279508579616,6871.263725542374
3750.5938,0.30043434639385547,5302.554402553412
3751.4565,0.3020635909309175,4288.064791599367
3752.3215,0.3029573189177842,6627.807495585133
3753.1848,0.30328660620834214,5810.100748366533
3754.0503,0.30332897007107906,5189.686736374024
3754.9138,0.30323730617081945,5761.039776298592
3755.7776,0.3030888968365432,5327.226886660011
3756.6438,0.3030417315217361,4251.944363445717
3757.508,0.30334215584733276,9072.154914156945
3758.3745,0.30415332492241537,4039.110855035869
3759.239,0.3053796943837527,5845.462180377538
3760.106,0.30667412279619355,5569.350886338185
3760.971,0.3075789226121557,5924.572837805796
3761.8362,0.30778852601537465,4315.012511157677
3762.7036,0.3073049459474312,6145.194155790366
3763.5693,0.30641765188504105,5564.7752105871305
3764.437,0.3054642760666328,6743.663309910382
3765.3032,0.3045857088516244,6353.265842035333
3766.1714,0.30362567344246016,6539.829089773355
3767.0378,0.30228265341662797,5369.301890104791
3767.9043,0.30035556194697566,5954.805743609451
3768.7732,0.2979569100646681,7135.716470461633
3769.6401,0.29555833688242766,5413.778277198171
3770.5095,0.2937334367699621,8343.612095930152
3771.377,0.2928796877658425,6878.460278265164
3772.2466,0.29300229803606564,4726.467282892319
3773.1145,0.29383368863328946,3927.0946471111333
3773.9824,0.2951131577440343,5712.787995561822
3774.8528,0.2967941044882303,7109.45254972992
3775.721,0.29897795585198306,6097.504326682849
3776.5918,0.30174013864596694,7454.572199817789
3777.4604,0.3049187547212347,5520.420075158916
3778.3315,0.3081815650279001,4384.749124347537
3779.201,0.31110408347299906,4980.097100726488
3780.0703,0.3133918205658483,5616.109652075246
3780.942,0.3149596650099299,6006.85391897991
3781.8118,0.31592444732739094,6358.888171138896
3782.6838,0.31652818159334806,3526.5543336808873
3783.554,0.31697391888795723,4943.941655052945
3784.4265,0.31732211987475273,6608.386561976872
3785.297,0.317449929444506,7633.360364083178
3786.168,0.31714221830058653,7349.241711297571
3787.041,0.31625306044123924,5313.71534060824
3787.912,0.3148531158652436,4528.343380526237
3788.7856,0.3131807885575284,4950.8618539911195
3789.6572,0.3114627839960901,7826.333980778628
3790.531,0.30967681541258446,5101.157955130315
3791.403,0.3075720705729326,6346.198321699984
3792.2754,0.30483593741667203,5524.201425576003
3793.15,0.3013265435370505,5475.591442867023
3794.0225,0.2971896658600215,4829.919682523866
3794.8972,0.2927355458862445,5828.700924604953
3795.7703,0.2884171458802242,6184.152733159027
3796.6455,0.28470136389875467,5479.668360971461
3797.519,0.28208654862538035,5839.3892855400945
3798.3926,0.280921270312164,10102.95419015852
3799.2686,0.28130862119697064,6404.643014351197
3800.1426,0.28306533559287733,7248.268388350701
3801.0188,0.28584804032429223,8302.73788150337
3801.8933,0.28927194706757686,5034.731982791335
3802.77,0.29302208622201376,8162.437671936368
3803.6448,0.2967805993997541,8796.524980808483
3804.522,0.3002816189041576,7965.5384995422955
3805.3972,0.3032792505602323,5298.120972162407
3806.2727,0.30567705751412966,4363.374970961281
3807.1504,0.3075283722582221,4606.310226184475
3808.0261,0.3090001296414321,4940.665181044034
3808.9043,0.31032845218027205,6965.239575130192
3809.7805,0.31170786588837807,5003.070854134323
3810.659,0.3132504105597334,6703.72967074317
3811.5356,0.31491246895827285,5195.712656512303
3812.4126,0.316535320579445,5050.030584060266
3813.2917,0.31793230603131356,5149.359541451471
3814.169,0.31899307982895153,6674.186295615299
3815.0483,0.3197363175700108,4756.732442633564
3815.926,0.3202358551102042,5397.446689930941
3816.806,0.32058055920823053,6743.873700301471
3817.684,0.3208519025686151,4388.163090579993
3818.5623,0.3211098379890038,7926.312029790016
3819.4429,0.3213145067832686,5252.73290744954
3820.3215,0.3212493452643223,5770.98382614286
3821.2024,0.3205776403728425,4950.430745894076
3822.0815,0.3190777135501175,5674.354344534087
3822.963,0.31686626108421684,5249.503935430158
3823.8423,0.31440212135471,6802.244021864565
3824.722,0.31211752112842056,6825.738692474309
3825.604,0.31006512683052617,5708.444239156294
3826.4841,0.3078630705888995,5426.9743424483095
3827.3665,0.3049333173095084,5254.034372669146
3828.2468,0.3009194088112806,6447.604563525868
3829.1296,0.295821777649741,5613.067984650866
3830.0105,0.2900170060081754,6131.348007863267
3830.8916,0.2839491962185278,8368.506291913232
3831.7751,0.27794743434847075,6527.293217294299
3832.6565,0.27221883230693966,7377.305133955936
3833.5403,0.2668705209791188,7996.987986617422
3834.4224,0.26219910405319147,7384.340346544076
3835.3064,0.2586164225213228,9348.343635195775
3836.1887,0.25656332941095455,10586.288979813151
3837.0713,0.25626260171846954,7453.430090195782
3837.956,0.2577186227837428,7301.044269212433
3838.839,0.26080078896617753,9415.937209768585
3839.7244,0.2653784121456995,9119.255335489886
3840.6077,0.2712577439059115,6248.396450825466
3841.4932,0.27818062688207873,5338.943918738087
3842.377,0.28565425115829984,8120.33302688611
3843.261,0.2930870862281141,6406.644277842642
3844.1472,0.29991116240502697,5724.951725172344
3845.0315,0.3057833226954938,4654.041239622647
3845.9182,0.3108392193933617,5840.942507551341
3846.803,0.31545770689662417,6077.031187591784
3847.69,0.32004571860594216,4086.9264432678324
3848.5752,0.32469532945946816,4977.378332269071
3849.4604,0.32925751222299116,5148.486331040117
3850.3481,0.3335082986929685,4472.124310044706
3851.234,0.3372918830514969,4673.239448828827
3852.122,0.34061543304039205,5603.742336788114
3853.0083,0.3434654476489049,5196.422706437804
3853.8967,0.3457755220841293,3774.852774535295
3854.7832,0.34740447937755686,5001.484854194828
3855.6702,0.3483239470824613,4216.735172162428
3856.559,0.34872559923398566,6597.249215120822
3857.4463,0.34900367906157487,4570.5618693916085
3858.336,0.34954871743746074,4331.59254760426
3859.2234,0.35047233705376224,3884.6140182805343
3860.1135,0.35152672327784107,4823.736528524834
3861.0015,0.35226902371110136,3778.274428646517
3861.8896,0.3523888164341389,5199.017622124266
3862.7803,0.3518739097327927,3933.9517890762186
3863.6687,0.350970493835728,4911.226815832622
3864.5598,0.349983797247025,4262.384722491011
3865.4487,0.3491129591088812,5222.783454475937
3866.34,0.3483385736636614,4895.966289075359
3867.2297,0.3474572216830154,4682.698855747305
3868.1213,0.3461766566497807,5233.560953608242
3869.0112,0.3442861181371399,4598.894380458963
3869.9014,0.34174816157833837,4968.6760837468555
3870.7937,0.33869012392208775,4181.869356825382
3871.684,0.33529690287602315,5513.298688439616
3872.577,0.3316026202898796,5371.536308805604
3873.4678,0.3275259962148116,5686.220993257748
3874.361,0.3229399475652772,3255.727636657888
3875.2524,0.31794419402002355,7344.346282623101
3876.1438,0.31283741918165153,6578.001385288787
3877.0376,0.30798907312499235,5806.948445060914
3877.9297,0.303648824795407,4374.499881226155
3878.8237,0.2997515358115933,6027.986906254944
3879.716,0.29604912883243945,7092.257998245526
3880.6108,0.29217859829236564,6913.507581701301
3881.5037,0.2878187215923418,5592.863785056778
3882.3965,0.2826393921082924,6754.5443576133
3883.2917,0.2763496972641503,6529.650487641625
3884.185,0.26887505071061457,6860.474282517006
3885.0808,0.2603734797350369,10828.60570996494
3885.9746,0.25138364343401504,9164.584183291
3886.8706,0.24252741841196235,11060.189026157506
3887.765,0.2345492159123008,12533.83051276907
3888.6592,0.2281858417108319,9096.413162288225
3889.556,0.22424852201898335,11962.36362662545
3890.4507,0.22346450795101513,15386.635500175456
3891.348,0.226080383552812,13245.583980208592
3892.243,0.23165288799565545,8618.250246640364
3893.1406,0.2392320817940445,10107.207785430059
3894.0361,0.24764976354863327,8581.07401728111
3894.932,0.2560344994282376,9856.442865912799
3895.83,0.2639133562328723,9017.9148089597
3896.7263,0.2711082849215269,10211.859178975801
3897.625,0.2777469139123221,7183.405880666828
3898.5215,0.28402393882744137,5298.903989962235
3899.4207,0.2902435657224738,7835.197677181745
3900.3176,0.2965275515974235,8113.066796803542
3901.2148,0.30280782884401963,4510.205981003216
3902.1145,0.3088395650096923,5757.3982766039335
3903.0122,0.31440501044567015,5297.4682497311105
3903.912,0.3195836993845247,6428.683923999603
3904.8103,0.32455223089080576,5406.8192581892445
3905.7107,0.3294447500322848,4644.09490312977
3906.6094,0.3341765317040755,4092.7436446311444
3907.508,0.33864614775758484,5153.729757821423
3908.409,0.3428694414101736,3653.7205560314824
3909.308,0.34697723884080556,4688.329125910044
3910.2097,0.3511777212672329,3472.1980103749243
3911.1091,0.35555489109319943,4701.957303218622
3912.011,0.360096160239388,4476.912665302724
3912.9111,0.3646259815236927,4544.87172911377
3913.8113,0.36894771856631803,5617.225842271251
3914.7136,0.3728916933206856,5240.927228470268
3915.6143,0.37635565051475034,4073.739411940322
3916.517,0.3794077716365421,3982.0054382550275
3917.4182,0.3822005333743744,4352.427528020174
3918.3215,0.384899622229258,3908.672288861783
3919.223,0.3874872392208147,3842.3363497148625
3920.1245,0.3897915241928236,3430.6950668397126
3921.0286,0.3916322983881897,3657.029694888023
3921.9307,0.39301980504884276,3880.6696209849297
3922.835,0.3942228346742597,2994.625615630587
3923.7373,0.3955398986641324,3071.8815478208385
3924.642,0.3970478797011475,3370.072881128828
3925.5452,0.3984725375190056,3358.975443865856
3926.448,0.3993778764492847,3399.2803720531892
3927.3535,0.3994478007866351,2990.499027383882
3928.257,0.39868730488588394,102.08056424183653
3929.1628,0.3974072239431352,3864.8851930318024
3930.0667,0.39602818912191595,2850.1413453693503
3930.9731,0.39479494874199217,3948.6260753533493
3931.8774,0.3936598501515726,3935.461219965109
