wavl,flux,ivar
3566.9744,0.8218099219812591,2299.681438190561
3567.795,0.818169120775814,2495.063002523113
3568.6177,0.8150378533074815,2223.0656499680986
3569.4385,0.8126351292639932,3248.7249520148416
3570.2617,0.8107811099287271,2570.4978192924846
3571.083,0.8092296569230647,2587.191762953582
3571.9065,0.8079726837101073,2153.0951141401947
3572.7283,0.8074735576582981,2659.866380795949
3573.55,0.808452847895997,3677.649216080799
3574.374,0.8113269117329915,3368.6764160781904
3575.1963,0.8156274192958255,2642.878705902445
3576.0208,0.8200838590751361,1865.3570223142478
3576.8435,0.8232059881707849,2580.2138531818655
3577.6682,0.8241351249668765,2043.5002073241403
3578.4915,0.822991577816961,2792.6215863888847
3579.3145,0.8207538534953159,2225.5895113083848
3580.14,0.8186865208063129,2357.4970916111106
3580.9636,0.8176966121658946,3035.839493380545
3581.7893,0.817875539452768,2739.7790566376784
3582.6133,0.8186389622802626,2244.621657525252
3583.4395,0.819327576117903,2831.719788217822
3584.264,0.8197769515432306,2216.9355633097457
3585.0884,0.8203565314984327,2776.821426699702
3585.915,0.8214467490495615,2759.5829708037963
3586.74,0.822914478591818,2538.6589404160827
3587.5671,0.8241277464479824,2244.7076307059365
3588.3923,0.8243811685694652,2930.5568228989223
3589.22,0.8233282886196175,2611.2608677676244
3590.0457,0.8210385091306518,2663.197119999758
3590.8716,0.8177763632107661,2671.7871904809517
3591.6995,0.8138362891625871,2481.2640343446965
3592.526,0.8096175269124383,1877.293007660001
3593.3542,0.8056755764726367,2641.8409319268394
3594.181,0.8026877273948019,2204.9377767603055
3595.0098,0.8010171990407944,2483.1145793153946
3595.8367,0.8004331933024365,2667.7453725749565
3596.6638,0.8001884258643882,2971.5248376666036
3597.4934,0.7996035583576873,3366.8472196163375
3598.3208,0.7986285086605831,2302.0951148947465
3599.1506,0.7978684447010996,3154.709595301354
3599.9788,0.7980529413955034,3819.140888090563
3600.8088,0.7993732918013313,2964.6699922204916
3601.6372,0.80131159896466,2961.2358217847554
3602.4678,0.8031202240072719,3213.5263756360596
3603.2964,0.8043849234956052,2746.3558779489053
3604.1252,0.8051561760999386,2891.1836477337943
3604.9565,0.8055162773946994,3289.5528561711226
3605.786,0.8052490105026299,2604.7565362319388
3606.6172,0.8040308797010169,2714.080630787281
3607.447,0.8018739052540426,3370.105692206691
3608.2788,0.7992159720475944,2571.2083873500465
3609.109,0.7966383674711327,3349.699782222074
3609.9392,0.7945113739099403,2726.563559690271
3610.7717,0.7930084365036825,2442.915401686179
3611.6023,0.7922683651233275,2181.409079700648
3612.435,0.7924123124865392,3077.789127762499
3613.266,0.7934381732024627,2585.4346405822644
3614.0994,0.7950998262487634,2748.7356368049495
3614.9307,0.7968880601206331,2961.099912479773
3615.7625,0.7982183264286985,2674.94926005786
3616.5962,0.7987158218000715,2265.7817252480495
3617.4282,0.7984796171139793,2490.8306575185275
3618.2625,0.7979801071634245,2851.677659193206
3619.0947,0.7975531045535509,2804.452174574431
3619.9292,0.7969961273634554,2834.20220437383
3620.762,0.7958143654199237,2521.920552381813
3621.595,0.793879328489197,3417.5478232380124
3622.4302,0.7917673880358075,2626.0652182054732
3623.2634,0.7903838618354815,2594.9772273577214
3624.0989,0.7901946455847035,2508.666891874259
3624.9326,0.7908700817387027,2182.761922312971
3625.7686,0.791537682673205,3538.435040650298
3626.6028,0.7913962934990973,3107.964285329835
3627.437,0.7902309556105096,2454.206133855836
3628.2734,0.7884946639257636,2429.49689955714
3629.1082,0.7869987429267896,2526.8379913585145
3629.945,0.7863126099049014,3144.531227897181
3630.78,0.7862978205548723,3212.8161551710077
3631.6174,0.7860643837594741,2857.6753054132723
3632.453,0.7845359295289737,2680.704405114222
3633.2883,0.7812254691453334,2654.1066920404382
3634.1262,0.7765942024613317,3399.7543851202495
3634.9622,0.7717660754822097,3132.2767400931866
3635.8005,0.7676818705048306,2966.044555018639
3636.637,0.7646670691154066,2926.5618526795797
3637.4756,0.7624498132083039,3172.583038892152
3638.3123,0.760693184861485,2649.344695642501
3639.1492,0.7592263905710501,2363.5399690286795
3639.9885,0.7579366137743629,3231.6138396377614
3640.826,0.7565567998680915,3321.1672068474463
3641.6653,0.7547097152318378,2563.5417434918195
3642.5032,0.7522788332923761,3053.6195836445527
3643.343,0.7496324386342785,2999.9474333713247
3644.1812,0.7475319763866844,3786.2255483590425
3645.0195,0.7466638745486238,3467.7913806263487
3645.86,0.7472988751002303,2925.776908572145
3646.699,0.7491942731823481,2598.8169214603536
3647.5398,0.7517468434522387,3654.4091293847046
3648.379,0.7541998027719138,2482.1192010834993
3649.2202,0.7559726057862823,3284.9756070041453
3650.0596,0.7568525028306181,3256.1047341556523
3650.8994,0.7569807861249757,3085.1007997434135
3651.7412,0.7565493889664102,3031.0275061696
3652.5813,0.755656739347298,3807.5168411767686
3653.4236,0.7544789148821824,3363.079556029308
3654.2642,0.7535253132237278,3145.6365517064464
3655.1067,0.7534994354596617,2956.1696262220194
3655.9475,0.7548244910893199,3523.7799343621386
3656.7886,0.7572512444692692,2309.067975977659
3657.6318,0.7599551326589424,2080.7827083990733
3658.4734,0.7619882559222635,4024.7560903483827
3659.317,0.7627941821043958,3507.1776527653833
3660.1587,0.7623544336500524,2439.837809387638
3661.003,0.7610782322556102,2708.023754147191
3661.845,0.7595804257865373,3132.7473596706686
3662.6875,0.7585172419592013,3332.4548565870923
3663.532,0.7585576931040001,2262.7980938116657
3664.3748,0.7602391006712815,3104.4184751273533
3665.2197,0.7636375790688392,2495.555063114953
3666.063,0.7680610049158028,2434.7611661295687
3666.9084,0.7723068027846935,2638.0520529838923
3667.752,0.7752300652871722,2993.6478703092944
3668.5977,0.7763288571930905,3547.010038363985
3669.4417,0.7756951752729203,2855.8963131973487
3670.286,0.7737725133506712,2254.002665704795
3671.132,0.7711877933447696,2878.3629207383983
3671.9768,0.7687209026862497,3381.7442163313635
3672.8235,0.7670404968683021,3647.4659697573256
3673.6685,0.7664084927263988,3115.309158088374
3674.5156,0.7665781828836308,2573.6797836515757
3675.3608,0.7670731882060917,2378.8526590105002
3676.2063,0.7674899575304425,2956.523960501406
3677.0542,0.7675760779818153,2859.5852374815786
3677.9,0.7671801906078954,2536.267681361448
3678.748,0.766296338334223,2223.9699447558696
3679.5945,0.7652124221565606,3489.2988323794734
3680.4429,0.7644860616519822,3013.9308274469527
3681.2896,0.7646368738118469,2606.119789775815
3682.1365,0.7657033088208295,3201.1365450511603
3682.9856,0.7671124458754383,3329.4074160723294
3683.8328,0.7680028825229913,2971.4385588427663
3684.6824,0.7678368072834468,3089.8036701184296
3685.53,0.7667615625078785,2579.8926048195594
3686.38,0.7654519593505527,3371.8488013428637
3687.2278,0.7645733890468642,3982.1133207832177
3688.0762,0.764298182144537,3158.810442749958
3688.9265,0.7643161247697696,2268.036654071141
3689.7751,0.7642040853772448,2863.7563861529693
3690.626,0.7637946146831582,3234.1208558385397
3691.475,0.7632735934980108,2831.087090168063
3692.3264,0.7630291718266082,3621.6232244687376
3693.1758,0.7634299058873867,3441.6927910887966
3694.0254,0.7645995622328865,2549.425832529448
3694.8772,0.7662732900242526,2800.549107076134
3695.7273,0.7678258536980099,3037.6710218570224
3696.5793,0.7686387273452235,3229.1027877390034
3697.43,0.768533998269389,2733.884405975528
3698.2825,0.7679345362141582,3145.5570890045965
3699.1333,0.7674746638898633,3089.0500796421657
3699.9841,0.7673755642608071,2408.3399249849454
3700.8374,0.7671752203163907,2963.517936390607
3701.6887,0.7660535035028313,2912.294830822352
3702.5425,0.7634554597581839,3084.5142567975026
3703.3943,0.7595348523758881,3135.025469638843
3704.2483,0.755002086945509,2836.603167373658
3705.1003,0.7507209954808659,6861.64047584321
3705.9526,0.7471942996771778,3024.36413801171
3706.8074,0.7444805915255612,3810.3950820356768
3707.66,0.7423815812488593,3765.890129743351
3708.515,0.7406595865265834,3294.10476913085
3709.3682,0.7392762598596093,3776.807084319397
3710.2234,0.7383985901159756,2896.579793039417
3711.0771,0.7382761315181113,3069.434421873321
3711.9307,0.7389554918095439,3266.28472108527
3712.7866,0.7401391129478629,3222.4083899966404
3713.6409,0.7413597302012606,3345.400943452678
3714.4973,0.7424368550348621,2913.1253262226987
3715.3518,0.7436933341147137,3048.7490268804613
3716.2085,0.745678656992747,3548.5548070953228
3717.0635,0.7485134189045448,3404.834685362394
3717.9185,0.7515990781456717,3219.583999098182
3718.776,0.7539837613305841,2505.848793370805
3719.6313,0.7550625852180226,2696.994211799071
3720.489,0.7549627773919496,3584.3984881398583
3721.345,0.7542249602135861,2924.330895672513
3722.2031,0.7533084495543569,2927.0227500276137
3723.0593,0.7524209293141101,2568.948892967208
3723.9158,0.7516601981832791,2837.403690888135
3724.7747,0.7511653412988861,3806.5260796449547
3725.6316,0.7510385120289533,3463.3264820570294
3726.4905,0.7511606891381251,3008.679358363616
3727.348,0.75118628253706,3036.2694954135136
3728.2073,0.7507844819252303,2911.187956231673
3729.065,0.7499317850379009,4134.893685920095
3729.9229,0.748951417647915,2909.9475657510957
3730.783,0.7482624078428735,3094.7338934654426
3731.6414,0.7480870553495704,3551.8341934086466
3732.5017,0.7483599116963364,3332.765055706
3733.3604,0.7488453890809383,3195.5236151247004
3734.2214,0.7492345672354078,3266.569251058714
3735.0803,0.7491397013578674,2764.009929176093
3735.9417,0.7481570856236778,3275.9589388336994
3736.8013,0.7460876106907558,2891.970116166533
3737.661,0.7431262023162761,3600.730706296586
3738.5227,0.7397989522125314,3480.738435725688
3739.3828,0.7367005767242647,5168.1295533789025
3740.245,0.7342006160844483,2703.5135697902665
3741.1055,0.7325222708347525,3127.6724197462413
3741.9683,0.7318508533224741,3018.5310647234746
3742.829,0.7323236136927478,3446.067899737397
3743.69,0.7337384119188574,3053.325089681094
3744.5532,0.7354371241846692,3041.4785710926876
3745.4148,0.7366112785634469,3510.2323975408453
3746.2786,0.7369041744047803,3010.4209088753387
3747.1404,0.7366685646983354,3353.981867026162
3748.0044,0.736695886768288,3521.698576338175
3748.8667,0.7376573959871648,2920.878420468399
3749.729,0.7397019506907959,3746.2452969357146
3750.5938,0.7424115102735941,3136.89317250818
3751.4565,0.7450093027057227,2936.151021766658
3752.3215,0.7467949828861163,3553.1038622994893
3753.1848,0.7474504808382284,2708.6841332188155
3754.0503,0.7471908039062592,2672.0680524139666
3754.9138,0.7465811071856125,3171.2580109553137
3755.7776,0.7462036056877202,3875.502805935461
3756.6438,0.7463855987159465,3079.9909137232808
3757.508,0.7471210449483687,4020.3835750466187
3758.3745,0.7481933639422772,3045.530072350463
3759.239,0.749345632565985,3182.9102377514405
3760.106,0.7503883552149895,2728.1966304750727
3760.971,0.7511230163233249,3146.748711507526
3761.8362,0.7512730135206459,3388.3070633064144
3762.7036,0.7505067981537523,3101.8399394194216
3763.5693,0.7486333718729451,3639.927816001067
3764.437,0.7457812837051605,3253.8721326412324
3765.3032,0.7424636705551124,2789.8629344358637
3766.1714,0.7393201554936649,3415.701977364828
3767.0378,0.7367903300092854,2957.2674244812633
3767.9043,0.734833561731399,3154.181858436869
3768.7732,0.7330783693841549,2828.258013571448
3769.6401,0.7311970324889766,4207.545393908974
3770.5095,0.7291361937291924,2989.3107960780358
3771.377,0.7271426717084443,3552.22833288484
3772.2466,0.7255418320722126,3830.2246365924666
3773.1145,0.7246162617049826,3754.3392367319925
3773.9824,0.7245514226622487,3025.479681206138
3774.8528,0.7255230550249924,3264.009635331258
3775.721,0.727713064511771,3144.2547104829505
3776.5918,0.7312386496047726,3037.500464572847
3777.4604,0.7359373151355335,3774.30023864512
3778.3315,0.741393287951285,3057.5077555071634
3779.201,0.747003435613157,2967.7221233843075
3780.0703,0.7522937286215047,2624.8893923932505
3780.942,0.7569635340059129,3158.0351072731005
3781.8118,0.7607333529944326,2941.7453440302797
3782.6838,0.7632910418276698,3048.281728813522
3783.554,0.7643168885822932,3141.7273128077277
3784.4265,0.7637969198134249,2785.3941764394303
3785.297,0.7621673570229845,3526.387275647265
3786.168,0.7601443583791953,3342.43819006176
3787.041,0.7583149295094967,2657.669068189307
3787.912,0.7568303470006587,2909.893303929853
3788.7856,0.7553607676424708,3425.845088416165
3789.6572,0.7533838672752392,3158.2840121640866
3790.531,0.7504851651443886,2557.6320712146617
3791.403,0.7466109037060509,3298.492830700888
3792.2754,0.7419891784076106,2933.2721547285787
3793.15,0.7368921286391792,3084.3434862571326
3794.0225,0.7314325647232328,2970.9497544222436
3794.8972,0.7254587794529416,4129.948041830752
3795.7703,0.7189023867502913,3603.9980236440015
3796.6455,0.7119978423382867,3356.733505744731
3797.519,0.7055495694740869,3925.0403635319485
3798.3926,0.7006484436217646,3283.03685351981
3799.2686,0.6983061712771735,3441.7504956666717
3800.1426,0.6990684471476455,4220.06010751485
3801.0188,0.7028403707998403,3762.9609150654233
3801.8933,0.7089776178363999,4031.5160556173023
3802.77,0.7165682431237712,3609.3064064858386
3803.6448,0.7245840514306836,3771.206323450244
3804.522,0.7322644801076321,3013.774311305088
3805.3972,0.7391477617218807,3196.5722570807006
3806.2727,0.7452188300268902,3141.206982047355
3807.1504,0.750668004820028,3012.973844978875
3808.0261,0.7556318268405323,2918.33170175833
3808.9043,0.7601554306556033,3113.5031337122914
3809.7805,0.7641067432676334,3088.1705054272556
3810.659,0.7673305683460702,2770.706763319967
3811.5356,0.7696549646202571,2922.399812138135
3812.4126,0.7710702247814785,3098.1037239917923
3813.2917,0.7718174357726708,2901.3386828573734
3814.169,0.7723546719684663,2709.2516730377943
3815.0483,0.7731053394521945,3108.4146471076756
3815.926,0.774108066880653,3967.3089680382104
3816.806,0.7749138159351348,2915.333685049816
3817.684,0.7748299995100428,2599.981088879839
3818.5623,0.7733909357555704,3226.0523322751314
3819.4429,0.7706344294584077,3043.4421057610825
3820.3215,0.7670777572337759,2816.5046628529813
3821.2024,0.7633380453594176,3045.7495867887733
3822.0815,0.7598087228792734,3112.049965534249
3822.963,0.7563850774431278,3072.6682449249142
3823.8423,0.7526279468197324,3594.872333965081
3824.722,0.7480233394340021,3058.66934303788
3825.604,0.7422588804949666,3054.453736837717
3826.4841,0.7353390016328661,3073.646802979614
3827.3665,0.7274378548603567,3343.80804028418
3828.2468,0.7189687871422653,3250.3529784941575
3829.1296,0.7103084291917207,3690.9754540692406
3830.0105,0.7017543972946074,3855.449488163738
3830.8916,0.6932473091831438,4205.410135335042
3831.7751,0.6845197777113984,3373.8178109500573
3832.6565,0.6754283579431757,3580.0986887330923
3833.5403,0.6660799294084839,3537.9040733727625
3834.4224,0.6571665416781669,5373.242519288089
3835.3064,0.6497232221759431,4361.394357217992
3836.1887,0.6449941599299237,3775.0415904667148
3837.0713,0.6439283800154957,3820.666817215318
3837.956,0.6468859108572844,5990.175104755682
3838.839,0.6533984544653162,4363.090958495457
3839.7244,0.6624195899604741,4726.297572339517
3840.6077,0.6727311637817968,4204.61222433746
3841.4932,0.6835725793312315,4549.496867398417
3842.377,0.6945446797978417,3557.209747459471
3843.261,0.705515444423421,3375.7976054103847
3844.1472,0.7162851101648116,3718.728843460146
3845.0315,0.7264943638795708,3333.427674040444
3845.9182,0.735977686188587,3059.6616198430347
3846.803,0.7447258352963236,3016.718172591499
3847.69,0.7530512096881004,2924.997100598994
3848.5752,0.7612285927945686,3375.3898879595636
3849.4604,0.7693988218957695,2600.967421003039
3850.3481,0.7773755484189251,3128.3800978659506
3851.234,0.7845729507444222,3086.660157545583
3852.122,0.7903249167409789,2416.998309677952
3853.0083,0.7941207814204245,2717.5515118361222
3853.8967,0.7960750432781752,3097.99813777887
3854.7832,0.7968879215531457,2646.2756995262953
3855.6702,0.7974882991357163,2820.058538848881
3856.559,0.7984827108997188,2780.4426525477684
3857.4463,0.799937575888191,2831.0372509632653
3858.336,0.8016321330639522,2585.2999673530203
3859.2234,0.8034016299121841,2618.870921928818
3860.1135,0.8052630210917402,2492.2229064877806
3861.0015,0.8071520500887445,2913.9895444744197
3861.8896,0.8087536337748544,2499.0001433874263
3862.7803,0.8095850021652564,2830.876810846891
3863.6687,0.8093194782551452,2787.7827829500993
3864.5598,0.807998603104352,2919.4192209309053
3865.4487,0.8059142082837856,2558.975208340058
3866.34,0.8032829408687423,2441.1033564745917
3867.2297,0.8001254854668014,2904.4745108649245
3868.1213,0.7963220309789107,2611.7772945055426
3869.0112,0.7918737530206638,3098.371479863324
3869.9014,0.7869687983159336,2927.956657911698
3870.7937,0.7819820749137179,2987.2717881960916
3871.684,0.7773667590603937,3350.173171305019
3872.577,0.7733210767821419,3248.956642153732
3873.4678,0.7696436452332159,2935.0835891776446
3874.361,0.7656634361069716,3432.7864707670547
3875.2524,0.7606404647045919,3180.7394977209105
3876.1438,0.7541107392937906,2976.443001175565
3877.0376,0.746111772306644,3060.247021772204
3877.9297,0.7371631499002533,3199.444144918341
3878.8237,0.7278058477530345,2931.57501300504
3879.716,0.7183738040307285,3183.5358556108204
3880.6108,0.7086596200459788,4137.578317139619
3881.5037,0.6982275902665285,3835.591028559834
3882.3965,0.6865827804121559,4007.3811633126543
3883.2917,0.6734718445848159,4052.1217870009023
3884.185,0.659026531883867,3891.075347537945
3885.0808,0.6433993352376242,4950.591266995233
3885.9746,0.626938787057551,4222.595267872463
3886.8706,0.6099501807513218,4826.470398050636
3887.765,0.5932370092434678,5115.424775792842
3888.6592,0.5781072125430159,5738.413830121855
3889.556,0.5664761098214361,5441.378764000185
3890.4507,0.5604523614192257,6576.8526943188
3891.348,0.5613554993880564,7174.4022480782405
3892.243,0.5692134557332662,5487.568396863572
3893.1406,0.5828008630284716,5187.948493345682
3894.0361,0.6000145482416818,4690.878953133541
3894.932,0.618728699895817,4920.852079357217
3895.83,0.6371644404916624,4057.8586357590953
3896.7263,0.6540469890352486,4081.7156616223356
3897.625,0.6691215618846215,3181.151692739924
3898.5215,0.6828282952333091,3740.9274369799004
3899.4207,0.6962395465142797,4287.160939848059
3900.3176,0.7100609522008524,4350.314505510867
3901.2148,0.7243294099734052,3437.743682648899
3902.1145,0.7383538910146277,2522.191332652394
3903.0122,0.751241744494966,3203.375135329554
3903.912,0.7627525583207135,3707.8172250640387
3904.8103,0.7731453648611346,2738.8532098663395
3905.7107,0.7829723423390326,2980.6698777624065
3906.6094,0.7924459720950213,2777.079087860148
3907.508,0.8014765900624167,2736.5576447635162
3908.409,0.809846080125322,2399.2693172706304
3909.308,0.8174904189977237,2641.6033838428066
3910.2097,0.8247820698676657,2760.0402276402297
3911.1091,0.8322187550789787,2280.8991308355403
3912.011,0.8402270223320708,2440.2153058010363
3912.9111,0.8487622991408766,2394.531822376863
3913.8113,0.8574460193591139,2067.333361504413
3914.7136,0.8657174234546061,2502.070588715428
3915.6143,0.8730053002300384,2149.1785575737194
3916.517,0.8790239951774605,2308.2497359663157
3917.4182,0.8837142366893977,2234.204014795406
3918.3215,0.8872819087400519,2159.3267388944164
3919.223,0.8899919211321857,1903.774698238394
3920.1245,0.8921513672948375,2034.4207854701622
3921.0286,0.894031311648382,2274.0348959979074
3921.9307,0.8957734947735555,2401.8419077206354
3922.835,0.8973480918380241,2325.0154344680586
3923.7373,0.8985798014219695,2366.3317196966523
3924.642,0.899327364516564,2289.5503136582865
3925.5452,0.8995615487518389,2218.8161420173105
3926.448,0.8993999602619818,1939.8045835219239
3927.3535,0.8991077057780212,2053.7863792981043
3928.257,0.8990741474386852,2198.1421089782602
3929.1628,0.8996475496875074,2202.3150529396853
3930.0667,0.9008890746187962,2373.4835911998694
3930.9731,0.902465337098227,2105.2588922942873
3931.8774,0.9037727140414206,2078.719769774325
