wavl,flux,ivar
3566.9744,9.742123327644169,7.756560787149751
3567.795,9.695122481077572,8.587119439879912
3568.6177,9.645464127669593,7.859775608138141
3569.4385,9.601646511337039,11.632847313984565
3570.2617,9.57016716849138,9.152156786039384
3571.083,9.5535471081901,7.0653054269246605
3571.9065,9.548457344513876,7.631969915797971
3572.7283,9.548394103032505,7.329354826479713
3573.55,9.547796762673832,8.019779457921066
3574.374,9.544624467476298,8.295443103675169
3575.1963,9.539524702809207,9.463507076111597
3576.0208,9.533403227111712,8.280553949177918
3576.8435,9.52609310930719,7.732912193815898
3577.6682,9.51624544200904,7.02964815426679
3578.4915,9.50200113728378,7.982917147220982
3579.3145,9.481590358343967,7.639355144342982
3580.14,9.454612103077205,8.211645741348145
3580.9636,9.423990372687367,9.347916784141905
3581.7893,9.395978782438965,8.917591764501532
3582.6133,9.37883664216024,7.8203459178595525
3583.4395,9.379188669145213,8.604891742705863
3584.264,9.39938029452048,9.050224419230316
3585.0884,9.43566883624459,8.427369780132993
3585.915,9.478207326060502,8.09882286936731
3586.74,9.512876979237806,8.038311592442689
3587.5671,9.527176360862486,7.199965117702912
3588.3923,9.515464879668679,7.191927839492279
3589.22,9.48139621416648,8.213577218967279
3590.0457,9.435241023357838,7.243550011409136
3590.8716,9.387980603425104,7.578661032973084
3591.6995,9.347565019844794,10.351047565909493
3592.526,9.317913317122244,9.868395005771355
3593.3542,9.29873916430325,8.421079242044584
3594.181,9.286999904085086,7.950426109623891
3595.0098,9.278115336666739,9.772170795042257
3595.8367,9.26811672869761,8.97302835874538
3596.6638,9.254521886273904,8.725684575195885
3597.4934,9.235988188437565,7.578670007918203
3598.3208,9.211371584738224,8.968390136913074
3599.1506,9.178472083579207,7.945905179047982
3599.9788,9.134885875924105,10.592566412699622
3600.8088,9.079580756866694,11.128541531792361
3601.6372,9.017402644338071,9.504114876380235
3602.4678,8.96025160504282,7.777899535388327
3603.2964,8.924975020733791,12.898880198898183
3604.1252,8.92443502412412,11.326813116430706
3604.9565,8.961086847655794,9.423988021904032
3605.786,9.024987014612346,9.020333630246542
3606.6172,9.099166063380133,9.193162028109224
3607.447,9.16560010500745,7.7309398941187455
3608.2788,9.212248960910678,8.642481955195978
3609.109,9.235190702354384,8.378633285875958
3609.9392,9.238493582440361,8.048466591642049
3610.7717,9.229293991479935,8.840179277620942
3611.6023,9.213024505851086,8.445115081931903
3612.435,9.190780790725361,8.4761904127036
3613.266,9.16096569657524,7.770543680069859
3614.0994,9.122504682635517,8.567256158111324
3614.9307,9.078479152926715,8.236975677982157
3615.7625,9.035295708081657,8.346991086019704
3616.5962,8.999376421585268,9.865253454460609
3617.4282,8.973029161066949,8.54046246159687
3618.2625,8.952848146440234,8.593526311820591
3619.0947,8.933351751164805,8.687039367304646
3619.9292,8.91115358166003,9.217574030671061
3620.762,8.887667649140194,9.604447978954823
3621.595,8.867123903571862,10.927810093904947
3622.4302,8.852846137618167,9.90214674318412
3623.2634,8.844411528461137,8.683554015019944
3624.0989,8.83784236408058,10.270186318074535
3624.9326,8.828984131395172,10.242051667508177
3625.7686,8.816217185522206,8.58083965978964
3626.6028,8.800743445096803,10.79517116374679
3627.437,8.784391008038558,10.164345891963684
3628.2734,8.768355260555898,10.655868486954802
3629.1082,8.754234749031207,9.587703162850136
3629.945,8.745523328218901,9.226043764394388
3630.78,8.747572421738393,11.004108751606623
3631.6174,8.76367376216156,9.691560101333437
3632.453,8.789747327894473,10.063431968594282
3633.2883,8.813370432096875,9.25758014284425
3634.1262,8.819981872164513,10.814949921703246
3634.9622,8.802682305977525,10.21997451760706
3635.8005,8.766432967043094,10.542829278792281
3636.637,8.722779103336551,10.667603177779723
3637.4756,8.680046695920808,9.097759021638538
3638.3123,8.640568534024153,10.201698858721477
3639.1492,8.603686368890523,11.101021723926719
3639.9885,8.570694897361896,9.857870711435252
3640.826,8.54482534806185,10.29034840561116
3641.6653,8.526883835333903,10.89613974156555
3642.5032,8.513740551110775,10.469298931178686
3643.343,8.500468942271409,10.906286739881196
3644.1812,8.484925940457218,10.257696340857112
3645.0195,8.469145086118646,11.067982763050571
3645.86,8.456806071369584,10.28300428209781
3646.699,8.44947296135675,12.089030767548655
3647.5398,8.445479487894346,9.719969024754665
3648.379,8.442613304776126,10.260123333202714
3649.2202,8.440457319383164,10.966032060012779
3650.0596,8.439659082804315,10.933352798736177
3650.8994,8.439049698326102,9.942019914262216
3651.7412,8.434542975662897,9.434093765994248
3652.5813,8.421557053160232,10.03840289745396
3653.4236,8.398586503228346,9.166959314450555
3654.2642,8.368928484178108,10.889317199709218
3655.1067,8.338431142324337,10.874602732642057
3655.9475,8.31272560839818,11.46970705247717
3656.7886,8.294625034206184,11.860569240609273
3657.6318,8.28398729919004,11.478351586844576
3658.4734,8.278565612039953,11.05276462031472
3659.317,8.275522873782538,12.325757157344801
3660.1587,8.273295681412478,10.621972373638844
3661.003,8.271984588105479,12.203076345847604
3661.845,8.272177612654016,12.275923519213078
3662.6875,8.273599565312791,11.13103625223726
3663.532,8.275346856014743,10.656769148144212
3664.3748,8.276916352168383,9.615616113850558
3665.2197,8.278023755975111,10.459084748336844
3666.063,8.276966541553318,9.956021022956659
3666.9084,8.270208736958482,10.62199562170492
3667.752,8.25499228920391,10.316275298258118
3668.5977,8.232528551266972,9.996671147944296
3669.4417,8.208591509194859,13.026183654268593
3670.286,8.189734829328826,11.287748731077857
3671.132,8.179393789655489,11.87299809527544
3671.9768,8.176288225841072,10.94856451676383
3672.8235,8.175408116783434,9.793529827980059
3673.6685,8.170513995443267,9.557135817254593
3674.5156,8.156768128524506,10.876562416849595
3675.3608,8.133353495025284,13.25166630545808
3676.2063,8.10429552087915,11.37265008699386
3677.0542,8.076852533860178,12.149948667571353
3677.9,8.057809974822899,11.122169044728087
3678.748,8.049201488541527,10.296833081015698
3679.5945,8.047785620301836,11.697850512590286
3680.4429,8.04740106347954,11.73169165688648
3681.2896,8.04326319100936,11.818672481301423
3682.1365,8.03483752594622,11.439886159686793
3682.9856,8.02538166922177,12.031611248340647
3683.8328,8.018502218649182,10.710657161799766
3684.6824,8.014155826191184,11.081712698124756
3685.53,8.00811996629418,11.427405577963444
3686.38,7.995323415735025,9.49059822046834
3687.2278,7.974786411014334,10.978469613523156
3688.0762,7.951356169289451,10.36289032275475
3688.9265,7.9331095607998705,13.65921055942749
3689.7751,7.92601276897672,11.05910663473252
3690.626,7.929556112986485,10.570737090973084
3691.475,7.93709614223104,11.023435342766826
3692.3264,7.940134698341321,12.635682379156783
3693.1758,7.933388536640861,10.687124247909317
3694.0254,7.917355747211201,12.009115692257316
3694.8772,7.897069538892596,11.460648161402677
3695.7273,7.878985204476359,10.972079887125219
3696.5793,7.867427827420582,12.537166274357109
3697.43,7.8633377812250265,13.300999504925779
3698.2825,7.864620471392017,12.538263585890437
3699.1333,7.868039917757287,13.83715626112263
3699.9841,7.8708967832725545,11.764138641449835
3700.8374,7.871580959460458,12.783506816834615
3701.6887,7.869142788460777,10.294325309860398
3702.5425,7.862762282082474,11.080050504222394
3703.3943,7.851796352418833,11.873501646550396
3704.2483,7.836083766215257,11.453651537039116
3705.1003,7.816615080128067,11.61365616627091
3705.9526,7.795192689994396,11.233636179600593
3706.8074,7.773556972900644,11.91537604023918
3707.66,7.7523039732362165,11.633244812903987
3708.515,7.730173346053066,11.840971090649813
3709.3682,7.705765112494566,12.277042971592032
3710.2234,7.678828718285742,12.98181488575637
3711.0771,7.651233636303122,12.293732250672916
3711.9307,7.625559191985387,11.182182442512158
3712.7866,7.603698620072836,11.211294622688202
3713.6409,7.586354212278423,12.088764967200172
3714.4973,7.572902897996424,12.923475212002593
3715.3518,7.56213516468473,14.999278449179368
3716.2085,7.552228549495209,13.333805972882146
3717.0635,7.541730814071762,13.103120566040982
3717.9185,7.531051338160426,13.863412263011178
3718.776,7.52368819311015,13.487084883979035
3719.6313,7.524815417151199,13.500163624604522
3720.489,7.537174218253597,14.42277424783186
3721.345,7.5576162738068735,13.545665583982425
3722.2031,7.577775245143772,12.797665734696057
3723.0593,7.588205126091953,13.521333381513548
3723.9158,7.58398112065547,12.629726701740278
3724.7747,7.567001284280914,13.569420465060988
3725.6316,7.5447203125210915,12.770535428069703
3726.4905,7.525401558412404,12.741228150711889
3727.348,7.51407203759059,14.683978597826632
3728.2073,7.5105685834055045,11.739081110421758
3729.065,7.5111470612674545,11.726201025041178
3729.9229,7.511328548139696,12.781392809456563
3730.783,7.508306531583301,12.534142155245098
3731.6414,7.501883756738581,11.677244267145644
3732.5017,7.493970475977258,11.857027147878606
3733.3604,7.487284708578132,13.528455613279995
3734.2214,7.483424545657356,14.229297248205421
3735.0803,7.481555911264048,14.060103743391743
3735.9417,7.478135674154896,13.367898383205308
3736.8013,7.4683863492044535,13.240672410359977
3737.661,7.448908842441764,13.241514094653692
3738.5227,7.420231234475373,12.982083728266344
3739.3828,7.3876239045842675,12.468511531175164
3740.245,7.357965233474715,14.786827681740386
3741.1055,7.336249601471427,12.111279170752521
3741.9683,7.322999835229128,13.51889042942994
3742.829,7.315622453473442,12.972426262709154
3743.69,7.310186511808631,14.378010361419893
3744.5532,7.303082689053081,13.750984287074495
3745.4148,7.292369790616579,16.75065521564634
3746.2786,7.278982685748453,14.643278670686923
3747.1404,7.266875997804139,14.999901761818455
3748.0044,7.260222481237638,16.096741497872834
3748.8667,7.2600965166985505,13.246533399932751
3749.729,7.263155781438577,12.927356566027198
3750.5938,7.2640857080486265,12.438488089201643
3751.4565,7.2593115661039205,14.05879472739524
3752.3215,7.2489745653617215,13.75006774252951
3753.1848,7.236050433892285,15.822996635017262
3754.0503,7.223572089960675,14.187081739690264
3754.9138,7.2128006472935375,14.204090723889161
3755.7776,7.203025497744312,14.551103063828158
3756.6438,7.193350261864712,15.911560765016393
3757.508,7.184265737225727,13.995588582150134
3758.3745,7.177155311640185,12.563829000983757
3759.239,7.172553954388882,14.15192815692979
3760.106,7.168623641067907,12.835240533941734
3760.971,7.162063358227303,15.005033398308958
3761.8362,7.150388404199289,14.010282947893412
3762.7036,7.1336152594606785,13.469031298934848
3763.5693,7.11410387047712,14.170469686773352
3764.437,7.094654069179507,14.663221813359092
3765.3032,7.0773938559716525,14.630586686003404
3766.1714,7.062953946026801,14.494686590172245
3767.0378,7.050742031078392,14.919586733913398
3767.9043,7.039104439693309,14.86133914623451
3768.7732,7.0264377945631,18.34774006238186
3769.6401,7.012605760627261,16.155390410169705
3770.5095,6.999055195466368,13.967759443525054
3771.377,6.987766150470773,14.936868122304451
3772.2466,6.97910657420233,14.996218133399653
3773.1145,6.971511115491845,17.81345828745401
3773.9824,6.962855973781037,16.086752397048866
3774.8528,6.952603989733688,14.619444571507726
3775.721,6.942338012528552,15.744397090501453
3776.5918,6.933802468579056,14.477541978683284
3777.4604,6.927057387078484,14.191850520401223
3778.3315,6.920216830378692,14.705579893224316
3779.201,6.91159068141307,17.901646684095326
3780.0703,6.901483807872518,15.841655802391188
3780.942,6.892155947165845,15.975235479583134
3781.8118,6.885993036848891,15.92901399095957
3782.6838,6.883440966780641,16.435090345297464
3783.554,6.882687283490967,14.265318778732734
3784.4265,6.880702346986872,17.376084651592514
3785.297,6.874906753300617,15.386713363927914
3786.168,6.864321685318745,15.956624997419127
3787.041,6.849796270542516,17.942081334540546
3787.912,6.833485156898768,14.62025433483369
3788.7856,6.817541267687522,16.88718620111836
3789.6572,6.803682373789873,16.075553700942745
3790.531,6.792712181557168,15.192899283475885
3791.403,6.784829951359883,14.451866222167538
3792.2754,6.779505991205275,16.58537564900735
3793.15,6.775886751058727,16.771860667259165
3794.0225,6.773451558662505,15.275471864852406
3794.8972,6.772440530013388,16.475780170396828
3795.7703,6.773584878884122,17.401603768646353
3796.6455,6.777204395316219,16.838115516913362
3797.519,6.782597068542189,16.11630149064
3798.3926,6.788292027190568,16.725777579222473
3799.2686,6.792641249707248,15.03264446069452
3800.1426,6.794109450700883,15.995096518806942
3801.0188,6.7913195901990004,15.328510877170181
3801.8933,6.783167969059621,17.256910971407
3802.77,6.769153108513535,18.193443849927206
3803.6448,6.749637668432631,16.326610602437608
3804.522,6.72522666186471,14.249129031094816
3805.3972,6.696996430868035,19.690352384131575
3806.2727,6.666539343231869,17.77237960841486
3807.1504,6.636510913485589,17.65888912408604
3808.0261,6.610346299862197,16.94862759932939
3808.9043,6.5906210594009895,15.951837011639334
3809.7805,6.57866211667445,17.06738238219043
3810.659,6.574181213271676,15.978421087104508
3811.5356,6.576155923140312,16.1696741101221
3812.4126,6.58321055863724,19.27424220986694
3813.2917,6.593546660288506,19.237845519857498
3814.169,6.604389537086444,18.072291118548183
3815.0483,6.6123626265367355,18.19875520036111
3815.926,6.614496557603653,17.53501265113844
3816.806,6.60969953871512,17.28834713720425
3817.684,6.599187165425625,16.78370585242503
3818.5623,6.585652940143404,18.41674709742775
3819.4429,6.571772985799652,17.845559913685687
3820.3215,6.559318586122353,16.55188974532962
3821.2024,6.549331665921587,15.94458451575557
3822.0815,6.543835158728943,17.50921740912465
3822.963,6.546060964536783,16.172488248364495
3823.8423,6.558007996912133,17.72244268333585
3824.722,6.576664903592044,16.624893059867524
3825.604,6.593318951997624,18.38524960948939
3826.4841,6.597870737935455,16.01114032579664
3827.3665,6.585330635238696,17.330314167461832
3828.2468,6.558171430051866,16.849442823743587
3829.1296,6.523086959345593,17.128493416597024
3830.0105,6.486757448541158,16.399633480861834
3830.8916,6.452987929563968,17.089126952951514
3831.7751,6.423549432331132,20.568939420504915
3832.6565,6.399618384404224,16.83121616143288
3833.5403,6.381504643363483,19.883683827314947
3834.4224,6.368659946224653,19.98718375672997
3835.3064,6.359216708514097,15.616695175870156
3836.1887,6.350751070586049,18.501751530841542
3837.0713,6.340702968778401,18.05526456204381
3837.956,6.327000764428736,17.756575413542507
3838.839,6.3092141315298305,18.210241022528592
3839.7244,6.289362509893324,18.23435234044939
3840.6077,6.271742616476431,19.020576453433964
3841.4932,6.260293863767931,18.572436542338302
3842.377,6.2566404972494185,17.867877914038267
3843.261,6.259670377458981,18.71545933155075
3844.1472,6.267115459888457,18.73344960739801
3845.0315,6.276701436363066,19.566199647001802
3845.9182,6.286607215164448,17.07579941713223
3846.803,6.295384247217783,17.422682116281987
3847.69,6.302440516216302,20.617434679106456
3848.5752,6.307870190991065,20.220177354031957
3849.4604,6.311896747324871,17.55649807788001
3850.3481,6.314064946744544,16.64051476899318
3851.234,6.313144950821929,18.999251702783013
3852.122,6.307710438184657,18.235412915711496
3853.0083,6.2968432832821755,18.80202824910955
3853.8967,6.280308111025313,17.699942177040434
3854.7832,6.2585440047055405,19.103227693138667
3855.6702,6.2321490298232245,19.213329100461763
3856.559,6.2023144986460546,18.249399310460696
3857.4463,6.171684772245298,18.850606808363906
3858.336,6.1437029610406935,19.021118519478524
3859.2234,6.121635424013467,18.96689466962675
3860.1135,6.1067191129152025,20.794498828899314
3861.0015,6.099053719084794,20.244862824181784
3861.8896,6.098773645369592,22.487178703213107
3862.7803,6.106580839739471,18.40620895611635
3863.6687,6.121862340822964,18.665693553830927
3864.5598,6.140871650503244,18.789262900046364
3865.4487,6.156591364568035,19.063699009142084
3866.34,6.161861324555204,18.727266393993716
3867.2297,6.152741468428392,18.707528675373258
3868.1213,6.130716129778214,17.418658900224315
3869.0112,6.102144029216325,20.129066111004054
3869.9014,6.074919465324839,21.766552497834184
3870.7937,6.054988530272231,17.682232088224477
3871.684,6.04437748861283,19.776411526434696
3872.577,6.041227159091295,20.62766589952194
3873.4678,6.041785468922068,18.882711583347454
3874.361,6.041964671653822,20.34788214860064
3875.2524,6.038259426014963,19.371125199197007
3876.1438,6.028334805050577,19.992708309394676
3877.0376,6.011748121169057,19.959671042039812
3877.9297,5.9907299483089655,20.696319978336344
3878.8237,5.969492216022915,20.806307766168104
3879.716,5.952877213563449,18.755299110103447
3880.6108,5.943951405567803,19.822862515005202
3881.5037,5.9429279045744945,21.175177483157864
3882.3965,5.9471436157839666,20.70684787624857
3883.2917,5.952663903560499,19.951250067710717
3884.185,5.9560051675032035,21.713748232982116
3885.0808,5.955314982080975,21.053576276379037
3885.9746,5.950257636853922,21.404178410959357
3886.8706,5.941231816754954,24.772801046113393
3887.765,5.928874969648685,21.9007860454112
3888.6592,5.913981777244281,21.19796799354879
3889.556,5.897834030616413,23.932240443654425
3890.4507,5.88236651406859,20.756551726573647
3891.348,5.869331915260447,20.107962646478622
3892.243,5.859690417878991,20.455005988267057
3893.1406,5.852845685296237,21.152447154125184
3894.0361,5.847487555293166,22.231106154254242
3894.932,5.842955931977679,19.53681160624655
3895.83,5.840271499528135,24.00512205139735
3896.7263,5.841381232334912,22.506170853109754
3897.625,5.8471898747945765,22.171918408650594
3898.5215,5.856076822360051,20.900050273880154
3899.4207,5.864262032843398,23.07150632243981
3900.3176,5.86750474983806,21.007854317803353
3901.2148,5.863504709842247,20.012585502449312
3902.1145,5.85290622225487,20.061932236119162
3903.0122,5.838797136171293,21.02628477285225
3903.912,5.824758828357631,23.893865064090456
3904.8103,5.813613129868219,20.89005907665831
3905.7107,5.806803270209582,21.008336143960875
3906.6094,5.804923412564696,21.097876643948275
3907.508,5.8078626770848905,20.978552798477462
3908.409,5.814609720685157,23.71104332516125
3909.308,5.8227623917650515,23.528518451227207
3910.2097,5.829062066436787,20.654103811740516
3911.1091,5.830809316052039,22.499008011816606
3912.011,5.827586376713779,23.158221723319365
3912.9111,5.821559893513556,20.131933850778523
3913.8113,5.8161498323116,21.161902876815958
3914.7136,5.813890662402649,22.94967308735591
3915.6143,5.814722106107738,19.792576211896122
3916.517,5.815764207053631,19.989765680139172
3917.4182,5.813012477682152,19.137648393873725
3918.3215,5.803927772816216,23.222732507539778
3919.223,5.789230481142761,20.699947792038653
3920.1245,5.772342981972599,25.44444118776927
3921.0286,5.757209013258196,26.413479573556717
3921.9307,5.746142140344796,23.33746444728277
3922.835,5.738961836572513,20.184451517467547
3923.7373,5.7344837897847345,22.821597716757474
3924.642,5.732044453677346,22.79170572112183
3925.5452,5.7319036701421515,24.625057490726277
3926.448,5.733994861294555,23.798790119379184
3927.3535,5.736789372086217,24.996794159110962
3928.257,5.737493111546224,20.29517062278699
3929.1628,5.733420607062901,22.790596753311725
3930.0667,5.722952729373752,23.488021038860943
3930.9731,5.7053705581804675,20.99035801735988
3931.8774,5.68110867484948,23.61979279454232
3932.782,5.652562089423005,22.37065081354162
3933.6887,5.625135007319433,20.990833449069253
3934.5938,5.6058332585752275,23.767611176011375
3935.501,5.598809140180559,21.812063089366095
3936.4062,5.602580881393673,24.691286231337287
3937.3142,5.610981068528625,23.97345993539629
3938.22,5.617225248209317,23.777507946019508
3939.128,5.617323457844529,22.903548337053458
