wavl,flux,ivar
3566.9744,5.882893655639984,25.211353785333007
3567.795,5.901562216853208,20.818002509532118
3568.6177,5.90523647655101,23.024790784090197
3569.4385,5.893406220628374,35.58286205508128
3570.2617,5.8709831667906425,24.270896437068604
3571.083,5.845168321662629,34.60551882220534
3571.9065,5.821622529748898,25.033876054245635
3572.7283,5.803278005420442,29.691789212066144
3573.55,5.7902894314448,26.281056060838253
3574.374,5.78132278227595,25.61459602013553
3575.1963,5.774215951470388,21.6663661273815
3576.0208,5.766165044540994,23.707717460217907
3576.8435,5.75460075787864,25.321332507429968
3577.6682,5.737641447077002,27.610608419309592
3578.4915,5.713903181544879,30.041098859961934
3579.3145,5.681718968262125,26.34486696828532
3580.14,5.64037145361089,28.562886009541685
3580.9636,5.593337860698242,34.85484288817723
3581.7893,5.548478959633681,31.239037095260503
3582.6133,5.515714137793014,34.35223498256111
3583.4395,5.501570141243386,43.69839121902615
3584.264,5.507402071545386,28.495901004161624
3585.0884,5.5301735064606525,34.617709049606574
3585.915,5.564818672479,26.424433546004515
3586.74,5.604561705658996,34.12541224696656
3587.5671,5.64148808232581,26.14159334227285
3588.3923,5.667028561713917,28.012179300198362
3589.22,5.675402293180831,30.59714290526434
3590.0457,5.6658227343371665,28.77418785259931
3590.8716,5.643059504486178,31.358027603601535
3591.6995,5.61506578944807,32.06975231261367
3592.526,5.590345181737283,29.683263213932875
3593.3542,5.575146856233427,28.144968547043987
3594.181,5.5716709430279465,28.640891883452557
3595.0098,5.576186629222198,28.202523223664155
3595.8367,5.580211113231421,33.664824963463666
3596.6638,5.575783942412021,25.362209721589636
3597.4934,5.561448554503415,29.959463581254294
3598.3208,5.54323320009091,48.120713398996195
3599.1506,5.528319710183516,31.970518103010928
3599.9788,5.518648770096196,27.92439442357955
3600.8088,5.51001656773941,25.75333053192309
3601.6372,5.497095438034565,38.32888668735552
3602.4678,5.4773633510801325,31.621677626633154
3603.2964,5.451631089061405,28.822905121854028
3604.1252,5.422447572594648,30.172256211579263
3604.9565,5.394283132592864,30.56858710895175
3605.786,5.3741984766223325,40.24308233321058
3606.6172,5.369394888647143,32.40046229113109
3607.447,5.383245739368079,37.78953755438556
3608.2788,5.412197778235883,37.622871480505715
3609.109,5.446809586750742,24.329580158684617
3609.9392,5.47672960125155,33.77929840559798
3610.7717,5.494719176817604,31.959446688599673
3611.6023,5.498083233928331,34.33456319908799
3612.435,5.48836610513524,28.36451751833298
3613.266,5.470307168622514,34.295342028519656
3614.0994,5.450404247388896,28.002441101461052
3614.9307,5.434479731488727,33.742420741562974
3615.7625,5.423816141184003,32.543783192633796
3616.5962,5.413857384959833,35.97130693897806
3617.4282,5.397142589432139,26.237132938994677
3618.2625,5.369017311351424,28.219688276776935
3619.0947,5.332023116991857,31.78028471908439
3619.9292,5.2940118048067815,31.995341996240388
3620.762,5.263665452312162,30.278195058788313
3621.595,5.245650749758781,34.590074038590494
3622.4302,5.24012432013394,34.03842921960026
3623.2634,5.243878999557213,30.97132705228614
3624.0989,5.2517420466907465,35.41526356298726
3624.9326,5.258270003375037,39.513569178421704
3625.7686,5.260175354908614,29.472110863403586
3626.6028,5.257799275649838,30.43465482926548
3627.437,5.254215389432433,32.59816134759704
3628.2734,5.252315114527962,36.0799867414285
3629.1082,5.252434731305951,26.946038392265628
3629.945,5.251947285536981,40.164304532754635
3630.78,5.246535270547995,27.59355887641388
3631.6174,5.231890799410146,32.727229811595734
3632.453,5.205628327062794,35.90328828773387
3633.2883,5.168515515355206,30.378690384237697
3634.1262,5.124820171385257,37.98689143549826
3634.9622,5.081361738720214,46.281833697861344
3635.8005,5.043950864289804,35.228662067346114
3636.637,5.015896525284149,38.589550212037594
3637.4756,4.996855564937021,35.47681472456113
3638.3123,4.98506629709707,44.515883881047436
3639.1492,4.979284327196077,39.258455955685214
3639.9885,4.979730020034256,38.5365437787812
3640.826,4.98602513592052,47.92803934269268
3641.6653,4.994514544338608,34.677632642205104
3642.5032,4.998535714827356,36.58086631986194
3643.343,4.992853084451467,32.54679811600009
3644.1812,4.9782603792001705,33.96471416828485
3645.0195,4.961732244749552,30.459822250198933
3645.86,4.951657391157484,40.01106470771307
3646.699,4.95201625413566,35.24418733170145
3647.5398,4.959750078450929,33.24469887654777
3648.379,4.967139492312156,40.04105856390084
3649.2202,4.966783841462246,38.22843942154147
3650.0596,4.955529824815245,44.940676825917514
3650.8994,4.935445276855983,42.28194456041707
3651.7412,4.911908604416977,40.51919946053354
3652.5813,4.890658683151479,41.258486659062335
3653.4236,4.874749839660353,33.672696795171284
3654.2642,4.863972808017437,42.0135812513901
3655.1067,4.8557492408160625,33.51286678182058
3655.9475,4.847993023581504,36.054687491603026
3656.7886,4.841519993669955,41.66787694024544
3657.6318,4.84083676181923,43.99076909068691
3658.4734,4.851983098090174,47.523659304946094
3659.317,4.878326381587042,52.487125667852
3660.1587,4.916679367634787,43.05724388465058
3661.003,4.95804396253972,49.26037523745119
3661.845,4.991983302778449,28.03623648510842
3662.6875,5.013465356843063,41.83847058477861
3663.532,5.024034214483994,40.26809621478395
3664.3748,5.027997049219513,43.56069061310497
3665.2197,5.0276296761513155,36.58061794335624
3666.063,5.0221042855693865,28.969672930015424
3666.9084,5.010179931740613,42.46224690100623
3667.752,4.992745617852254,33.45950091051383
3668.5977,4.972383369036384,33.70678655927085
3669.4417,4.952004730130457,39.96424942346452
3670.286,4.933447042287541,32.3986782878074
3671.132,4.917549935056266,42.96923833122661
3671.9768,4.904395668639534,42.983082771047386
3672.8235,4.893201804055497,37.80921144955411
3673.6685,4.883024931759581,38.335931016241155
3674.5156,4.873431790932062,33.957878660932394
3675.3608,4.865047844530623,36.890395268485975
3676.2063,4.858562346179013,38.96995879714976
3677.0542,4.853571087160711,37.72111135388446
3677.9,4.848439875003269,45.189668079283265
3678.748,4.841545465351728,42.87810268607669
3679.5945,4.832940957918644,46.32633431074074
3680.4429,4.8244418340468105,47.64675531267236
3681.2896,4.81852538477434,41.478933335621825
3682.1365,4.8166817687719385,37.76425683405941
3682.9856,4.818724227307615,48.97975745202099
3683.8328,4.8229224544021,39.969784357023805
3684.6824,4.827049494389912,44.03648619980397
3685.53,4.829696846730799,41.80577409961015
3686.38,4.831019311280651,42.38983537074309
3687.2278,4.831842912269497,45.09935571905823
3688.0762,4.832307024060301,39.21707882976227
3688.9265,4.8318118366627205,30.099440550124505
3689.7751,4.830542174256235,42.44823051508165
3690.626,4.830495798360788,39.98789523741885
3691.475,4.834321336104742,41.029944990939555
3692.3264,4.84268155621352,52.15895856276959
3693.1758,4.8524822909917,35.39368660225013
3694.0254,4.85822150340726,34.266751257559484
3694.8772,4.85553268215611,37.3620324596801
3695.7273,4.844475818440111,45.28628629035541
3696.5793,4.829433454061538,47.88781265935097
3697.43,4.8159994778663275,38.765383846539855
3698.2825,4.807174347803036,44.18423658789792
3699.1333,4.802286324914819,47.355683893984455
3699.9841,4.798221273548742,45.04325143209099
3700.8374,4.791887005193385,46.73541394288534
3701.6887,4.7819107684197215,36.9311232326416
3702.5425,4.768536496348449,43.96261610209889
3703.3943,4.752715748132389,47.33385832671978
3704.2483,4.735003336644601,42.55141155960967
3705.1003,4.716236602911591,46.06278270082866
3705.9526,4.698220777957227,46.14654634550403
3706.8074,4.684028482068816,45.468914552548945
3707.66,4.6768016484285795,39.570567080439105
3708.515,4.677524870474935,46.8347009929733
3709.3682,4.684013311458876,47.009825136243215
3710.2234,4.6918267860844844,38.983822693671655
3711.0771,4.696903308691062,52.31740177518768
3711.9307,4.697784267171993,31.652672822577415
3712.7866,4.6950100021134835,46.911770313310996
3713.6409,4.688742502358015,40.73632840907847
3714.4973,4.677222793957336,47.951276421708506
3715.3518,4.658032647856881,49.085707718661126
3716.2085,4.630361560379378,37.34835424773619
3717.0635,4.596821219544322,46.467207185190645
3717.9185,4.5621514939637215,43.15179513173358
3718.776,4.530845565842485,47.67133327618259
3719.6313,4.505386308358197,57.321067616752146
3720.489,4.485794173928639,54.9616861080683
3721.345,4.47182373467669,50.849925319293924
3722.2031,4.463596300095401,60.55337975161558
3723.0593,4.460982963535843,60.418299173513844
3723.9158,4.462231048797014,62.55460127914027
3724.7747,4.464485524560218,53.46456485501816
3725.6316,4.46547189225745,46.96790447282539
3726.4905,4.464600219304746,46.349728174142065
3727.348,4.462283920223598,55.32105195325542
3728.2073,4.4586299392532425,49.34972347616984
3729.065,4.453396093266591,41.79513301126612
3729.9229,4.447277666406879,39.30532917147071
3730.783,4.442629592819019,50.58593098023303
3731.6414,4.44179124011519,58.042245370394845
3732.5017,4.444212912090313,42.60929218332794
3733.3604,4.445877532000408,44.47991886462588
3734.2214,4.442107994202289,47.1236502129772
3735.0803,4.431238893107301,45.07621971213859
3735.9417,4.4156547608285415,37.02173327606378
3736.8013,4.4000144524246725,54.682977194659045
3737.661,4.38808174728883,47.089328586042654
3738.5227,4.381222003175397,53.56854758415294
3739.3828,4.3785646734301755,48.32134773079768
3740.245,4.377882908859748,49.081842648480645
3741.1055,4.376612294586268,47.40195795643455
3741.9683,4.3725268083129345,52.9124582353468
3742.829,4.364371504079119,41.33493184207917
3743.69,4.352248149176903,52.062908819195215
3744.5532,4.337700853706205,53.022447853468094
3745.4148,4.323343022283145,47.546575877100906
3746.2786,4.311427313376123,45.08695921051755
3747.1404,4.302786717642457,53.714581502900714
3748.0044,4.296127711797255,50.50887641323851
3748.8667,4.289054781669158,38.842154684444836
3749.729,4.27966453487415,57.11173936946882
3750.5938,4.267865481938666,47.414153323368
3751.4565,4.2554398873938055,54.2178711608684
3752.3215,4.244837579687956,46.79592158710003
3753.1848,4.238702814863202,44.27124760688426
3754.0503,4.239666783547665,52.11570468773367
3754.9138,4.249880719239273,53.12922450112003
3755.7776,4.269196065716747,55.558663553199246
3756.6438,4.29352360686295,47.598059768042084
3757.508,4.315254605771499,57.37600516801131
3758.3745,4.3272651446552866,47.24177741134504
3759.239,4.326618502900987,46.78865661707513
3760.106,4.316079004300746,55.13746082228641
3760.971,4.301755812137717,47.93406972109505
3761.8362,4.288965598052668,53.62942475627055
3762.7036,4.27959361042837,51.7203038732217
3763.5693,4.27225399050028,43.378977980417304
3764.437,4.264367334616661,51.24795685864194
3765.3032,4.254502294483759,42.09689903426127
3766.1714,4.242745752248125,58.23807113199978
3767.0378,4.230049377601952,60.840319679080366
3767.9043,4.217592479293073,47.30617510327379
3768.7732,4.207218587077381,55.06589197191368
3769.6401,4.201300710923712,48.8601814154335
3770.5095,4.200748874891007,55.610880967962984
3771.377,4.203284478308961,57.653482201014484
3772.2466,4.204189482413238,44.08574754825355
3773.1145,4.199815488557761,53.58921937926102
3773.9824,4.1907724179452535,52.483923600053544
3774.8528,4.1817849597356975,48.6793209076084
3775.721,4.178588666068554,46.50569397297476
3776.5918,4.1840290157462,58.46064636285775
3777.4604,4.196243416737215,58.64053904793569
3778.3315,4.209766254570844,52.09842497676918
3779.201,4.218502700940344,57.640711892720745
3780.0703,4.219189034622107,49.94797757783893
3780.942,4.2124359343938895,60.692524724699076
3781.8118,4.201629127958559,61.78817018609469
3782.6838,4.190721559244169,59.48502882819526
3783.554,4.18285022694832,59.6099432583549
3784.4265,4.17933311286555,56.282094569114854
3785.297,4.179444087715133,48.72526194999121
3786.168,4.180637526868816,51.06106258568636
3787.041,4.179710560031973,54.12677890400235
3787.912,4.174267265350709,42.12928299055284
3788.7856,4.163749618595595,65.99760724024598
3789.6572,4.149702741495363,48.502347244581216
3790.531,4.134630176567703,65.0812723040965
3791.403,4.12057371224854,70.47003619750923
3792.2754,4.107634002445878,50.07969593188216
3793.15,4.094315788614098,70.05693401074015
3794.0225,4.0791552620596425,58.4382939213988
3794.8972,4.061838599406363,56.96470891466883
3795.7703,4.043454072679515,58.425850542246366
3796.6455,4.025242680215778,47.85470396549451
3797.519,4.008429987563213,54.37977801593593
3798.3926,3.994373934448532,63.274676259172814
3799.2686,3.9850712841840394,62.35327935774774
3800.1426,3.9825486786500086,60.662104448585275
3801.0188,3.9874311009581374,67.91598320078775
3801.8933,3.9984805648247743,50.52400840626513
3802.77,4.01374259889495,55.648624001695275
3803.6448,4.031994170256448,52.25024705589755
3804.522,4.053210394501813,46.78998711535144
3805.3972,4.0764028324552815,51.42596798216532
3806.2727,4.098366404382131,54.98841301568762
3807.1504,4.114634709760756,71.37647716344155
3808.0261,4.122609315576747,50.93993026497257
3808.9043,4.123449847778659,52.09369915911506
3809.7805,4.120001951848619,52.703507780626474
3810.659,4.11367562133361,52.52538628917758
3811.5356,4.1037216048058145,60.85593244056431
3812.4126,4.089290093355776,52.79574965420213
3813.2917,4.0717749390375975,61.54537341730341
3814.169,4.0550720645642215,57.59082309923674
3815.0483,4.043183647454723,67.7599254068686
3815.926,4.037985421663576,68.63237147672419
3816.806,4.037971200068199,55.93693140371064
3817.684,4.039311349628522,54.88064102078041
3818.5623,4.037909713038217,68.9954952180064
3819.4429,4.03112986592456,54.36154859399848
3820.3215,4.018414911631619,60.478231693634385
3821.2024,4.000605557125166,62.40885069281348
3822.0815,3.9793201556963185,53.6421980475896
3822.963,3.9561816536239296,63.64667223658615
3823.8423,3.932994378126747,63.82063215577082
3824.722,3.9108930545783744,62.74873119579513
3825.604,3.889790190606777,66.12937196913963
3826.4841,3.868498607008872,60.99252391296527
3827.3665,3.845461768567902,65.2658200478944
3828.2468,3.820296488209292,55.08814702240895
3829.1296,3.7932495632020204,65.90693923125313
3830.0105,3.764859047338632,63.592057264743644
3830.8916,3.735388904810578,73.24613166399232
3831.7751,3.7058164186342584,68.38508162847306
3832.6565,3.678404725118496,76.0774528450373
3833.5403,3.6552097005816617,76.92683027541649
3834.4224,3.6372427604721103,70.76403585370512
3835.3064,3.6236721642978855,84.93607638828696
3836.1887,3.613054564913214,78.78442271437942
3837.0713,3.60439161799727,75.53412369473268
3837.956,3.5980878576304787,71.89528055433962
3838.839,3.59621864558387,60.11042692130585
3839.7244,3.6019797461302305,73.46725946728021
3840.6077,3.618223141005007,62.3810554735752
3841.4932,3.645622930154708,72.59302556949336
3842.377,3.6813359540556956,72.11122712326132
3843.261,3.7203858967289323,66.95940452731442
3844.1472,3.757975026243733,70.52885143644323
3845.0315,3.791209249604746,54.049706049510206
3845.9182,3.8199592767349437,58.2894448609474
3846.803,3.8451042050655846,54.41940845735415
3847.69,3.8678409695017706,62.825245375752196
3848.5752,3.888503802141009,57.32275040358632
3849.4604,3.906799998236604,60.03042585842952
3850.3481,3.9219248099715895,59.37911449175232
3851.234,3.9330220391083652,57.875928778766706
3852.122,3.939967566714718,59.8331750790276
3853.0083,3.9432339519371142,58.04995260370825
3853.8967,3.9436612013404297,64.38558342757364
3854.7832,3.9420546154859033,49.28807040567192
3855.6702,3.939344312035835,84.14779157589948
3856.559,3.937021813888684,62.860532903831256
3857.4463,3.9372297042946545,57.97260066200637
3858.336,3.941851779224906,70.64739582713072
3859.2234,3.950994385643627,71.82200083727585
3860.1135,3.962400397589968,51.45312360162578
3861.0015,3.972334183042411,61.873069254183505
3861.8896,3.9777095014550397,57.30516411615915
3862.7803,3.977029017528005,57.70207355436821
3863.6687,3.970291406934188,65.59449800516396
3864.5598,3.958525131404738,59.76529709014917
3865.4487,3.94369041958734,70.41303908384201
3866.34,3.927794519731959,74.88587762935542
3867.2297,3.912011702033992,55.47181147788562
3868.1213,3.8957820056791683,59.43468166258875
3869.0112,3.877726131611168,58.022184963695395
3869.9014,3.8566215251105858,66.56680093258491
3870.7937,3.832140377065106,60.927959467008435
3871.684,3.804954423759026,61.3624507466334
3872.577,3.775986792688112,66.93333494493348
3873.4678,3.746651532554597,77.89653738853175
3874.361,3.7178801603557683,85.41692026365571
3875.2524,3.6900015714054906,73.30104835666043
3876.1438,3.6617190973234632,79.19156637087309
3877.0376,3.630737730371791,63.82816373502818
3877.9297,3.595679728212426,78.05473356468028
3878.8237,3.557226013999184,77.59811313912715
3879.716,3.518405343151077,96.47550329436476
3880.6108,3.4814217476462193,67.16493122280366
3881.5037,3.445788226277167,87.5848049282768
3882.3965,3.407815617781978,67.64067393338776
3883.2917,3.3637100500109343,81.76781982400513
3884.185,3.312970339420719,87.53437737514281
3885.0808,3.258142109867202,77.05499214764424
3885.9746,3.203826887917513,106.69112075938304
3886.8706,3.153382406314608,80.63235700723108
3887.765,3.1092170677208975,86.0498331050578
3888.6592,3.0728812046592786,92.42472665858344
3889.556,3.0464322819560588,116.14843716023704
3890.4507,3.0326256642174263,123.52828969146205
3891.348,3.0337377783415906,111.87426092525149
3892.243,3.0508455749404884,97.48688650328175
3893.1406,3.083141022584296,91.8558947063754
3894.0361,3.1273077325873713,93.3777817156193
3894.932,3.178651399748398,89.55167971798586
3895.83,3.232345816596543,85.69332095891528
3896.7263,3.284371380830737,89.26434915809048
3897.625,3.3329895035416865,94.69934936690298
3898.5215,3.377542908499365,89.90079074336516
3899.4207,3.419029571973485,87.51966622690999
3900.3176,3.458593993506059,66.74865099748
3901.2148,3.4975602696579866,67.26218537043017
3902.1145,3.53648463473469,77.3999477102646
3903.0122,3.5751563589481403,71.19191510091574
3903.912,3.6141823132800703,69.4743049485557
3904.8103,3.654639310521026,64.47904490882308
3905.7107,3.697780673926865,81.1064621438347
3906.6094,3.742887708861585,65.46841281138764
3907.508,3.787792520834219,68.88458188982308
3908.409,3.830218452116691,66.13720868350556
3909.308,3.8691586442840253,60.16206976676094
3910.2097,3.905641647096485,64.56420261506813
3911.1091,3.9406369261156438,65.94149132910982
3912.011,3.974485600925232,60.58477822268725
3912.9111,4.006115623866108,51.69591531658077
3913.8113,4.03448368608343,52.75893894456071
3914.7136,4.059029147137202,66.41845408075127
3915.6143,4.079441015384573,80.87243226925506
3916.517,4.095785153009538,55.887544527550524
3917.4182,4.1084499353811585,66.57830160000037
3918.3215,4.11876066685533,57.19719528214293
3919.223,4.128168258008229,59.84538562140588
3920.1245,4.137311425705106,59.985014346694136
3921.0286,4.145594133791713,46.513992428797145
3921.9307,4.151858074933439,57.17624555113591
3922.835,4.15535729103141,52.06181345364919
3923.7373,4.156031119021155,52.791673521292715
3924.642,4.1547395170516745,45.698766547544
3925.5452,4.153177850165927,58.710130766835
3926.448,4.153121711655798,51.79230761082231
3927.3535,4.155278512585056,52.2896682834855
3928.257,4.158692660241531,48.297492625306404
3929.1628,4.161268508667639,52.66466587857305
3930.0667,4.16064537566911,46.46003358723789
3930.9731,4.154899559373234,58.655988695250414
3931.8774,4.143180263594949,52.065103438146394
3932.782,4.126425962102101,49.29151359124089
3933.6887,4.107728977386653,64.97423604948558
3934.5938,4.091244652739281,61.28327000361526
3935.501,4.079200877342848,52.49453015913212
3936.4062,4.070216851539351,57.72872354076494
3937.3142,4.06004855315411,55.77973085448834
3938.22,4.045001747535272,48.26020639089602
3939.128,4.024153681857132,70.29654783057539
3940.0342,3.9994726228779185,61.23327782254292
3940.9407,3.9734888040790284,64.44821381083592
3941.8494,3.947444565493552,66.5261525723671
