wavl,flux,ivar
3566.9744,8.220240085810401,40.33352356101729
3567.795,8.242515164705281,44.94051975777434
3568.6177,8.248158359075958,39.006821406857775
3569.4385,8.23938292452829,39.83719886031306
3570.2617,8.222170964842366,39.84079873831072
3571.083,8.201922804911627,39.63044631390241
3571.9065,8.180793364186373,40.266966595017
3572.7283,8.158589017297448,43.04770480249134
3573.55,8.134316318314456,41.66550304997006
3574.374,8.107986746923526,40.3006209435547
3575.1963,8.081680994450986,43.467447965212706
3576.0208,8.058579817118613,45.10610583334066
3576.8435,8.041431541838396,44.83306506971928
3577.6682,8.030091030706282,36.2565168472432
3578.4915,8.021675412669538,33.825922081348786
3579.3145,8.012170604637644,37.26172077973997
3580.14,7.9985921540020914,42.09159590059272
3580.9636,7.980512923138052,48.49409220992614
3581.7893,7.960383046162123,38.13049289499824
3582.6133,7.94296389949474,43.58595035123414
3583.4395,7.932441361119874,42.70497214865793
3584.264,7.9304065973264635,45.41617291034953
3585.0884,7.935987476017288,36.02365116073022
3585.915,7.948010023697987,37.05142457025191
3586.74,7.965238716861488,40.11177171578972
3587.5671,7.984769575180321,40.909258661474134
3588.3923,8.000528233936674,41.200837297846014
3589.22,8.00519331650945,42.132386485360485
3590.0457,7.993307825953159,42.44124839502261
3590.8716,7.963970757024081,43.782026645259414
3591.6995,7.920962745344948,44.72085388320092
3592.526,7.871506742354845,44.406304250860764
3593.3542,7.823057390470206,42.71276327507664
3594.181,7.781842899862495,44.21296151667263
3595.0098,7.751104007022285,43.31775516442357
3595.8367,7.732229231590405,42.34803676781649
3596.6638,7.725124520752946,47.905362139326456
3597.4934,7.7289909326578075,43.213863583158066
3598.3208,7.741751389792961,45.334401790624725
3599.1506,7.75970550753507,40.57878117956266
3599.9788,7.777755374343428,38.58514498065271
3600.8088,7.791305698280212,48.48862228071568
3601.6372,7.797762274318531,35.3333787806794
3602.4678,7.7972382613368785,46.459739069108586
3603.2964,7.791198652265959,39.67002981100228
3604.1252,7.780951061124563,42.599738660992905
3604.9565,7.767747900670251,53.44539987222589
3605.786,7.754782798633386,40.39487951248578
3606.6172,7.748093402794256,48.47750433616225
3607.447,7.754704430828925,43.86235004063134
3608.2788,7.777697144310843,58.88066898033394
3609.109,7.8119051516690075,47.00979583293115
3609.9392,7.844928277344138,40.09499057362161
3610.7717,7.863411633729881,35.96318904806769
3611.6023,7.860959622397677,38.17893998752788
3612.435,7.841590520248034,39.25432666011758
3613.266,7.815428033189766,40.76970508434251
3614.0994,7.790670542999337,40.76430710514293
3614.9307,7.7696363420036505,41.41058517300027
3615.7625,7.75002966925577,46.66264238583686
3616.5962,7.7291540110018815,49.20393922079819
3617.4282,7.705500649773543,41.010857828210234
3618.2625,7.677291155039982,43.1112531474199
3619.0947,7.642808624632532,46.22051054093668
3619.9292,7.602349859960125,39.90479000849853
3620.762,7.561230977466007,48.947560393099
3621.595,7.527743871381156,46.010650478583315
3622.4302,7.508861768523958,51.97551463575584
3623.2634,7.50638691544315,48.289017601211434
3624.0989,7.516480028108528,50.01979555619477
3624.9326,7.5325585332919704,45.974350298737235
3625.7686,7.5486167995318745,43.96741337480307
3626.6028,7.560489235102952,42.56014041512213
3627.437,7.5655893833942764,43.799013340444084
3628.2734,7.561620264562462,44.91669826951097
3629.1082,7.546786569220475,45.47708940481565
3629.945,7.521264976112589,48.030140285272715
3630.78,7.4886983421839535,52.85749380400164
3631.6174,7.45484109203904,46.19200854836936
3632.453,7.425693108311662,39.86095937441541
3633.2883,7.4047730406864565,51.185396110907895
3634.1262,7.392780237152605,47.45202800887986
3634.9622,7.387938420604839,64.06230188117821
3635.8005,7.386428734949928,47.30427356479284
3636.637,7.383518199167475,39.38808131071414
3637.4756,7.375035988064256,46.787666791176164
3638.3123,7.359171441344795,51.611048924107166
3639.1492,7.337120378915787,48.633928101556876
3639.9885,7.312232670083034,47.87612729244684
3640.826,7.288369472717341,48.3876447576637
3641.6653,7.268088859612757,47.768198593395894
3642.5032,7.252923494822551,47.51319034947963
3643.343,7.2431748380372705,47.951539755309774
3644.1812,7.237682408971756,47.43341364138161
3645.0195,7.23348487603462,46.65205911042389
3645.86,7.2272732715771015,45.26869712745084
3646.699,7.217516798571384,49.684352422153246
3647.5398,7.204965003115903,53.8705214118741
3648.379,7.191438257330814,56.76328968657981
3649.2202,7.17819498162539,48.624282831911934
3650.0596,7.166113020972474,52.39109115060984
3650.8994,7.155797505933588,48.44693938693244
3651.7412,7.1471836147799355,42.706355535237385
3652.5813,7.138984094171798,54.62843211350983
3653.4236,7.129407082961137,48.84112781728072
3654.2642,7.118016898791414,50.550300607804616
3655.1067,7.1060655142467555,48.67739457624411
3655.9475,7.095317219995697,53.5594659239049
3656.7886,7.086230168142782,53.308175247693384
3657.6318,7.078029411492022,47.67175135463584
3658.4734,7.070267618464236,48.151750109757025
3659.317,7.063764046859395,55.061071704811354
3660.1587,7.059966943979671,49.993257002795985
3661.003,7.059285907929352,54.248145443095524
3661.845,7.060786077326264,58.43510384245357
3662.6875,7.063355104585518,51.202463380203554
3663.532,7.0669516214017705,56.12408644020692
3664.3748,7.072396636746291,54.85247137581749
3665.2197,7.079976132628156,55.093530918876816
3666.063,7.0880587229005165,49.65487476879303
3666.9084,7.093655270376058,53.90969568918798
3667.752,7.094528437625943,46.7028363491318
3668.5977,7.091375077059059,45.64275131270736
3669.4417,7.087474428432225,56.68204414600951
3670.286,7.085904253484781,51.74128835909597
3671.132,7.087011816199898,48.52118262613629
3671.9768,7.0883932564756424,58.75418978526307
3672.8235,7.087129758338984,67.20687764657136
3673.6685,7.082127519759934,51.21235310898687
3674.5156,7.074934808733914,51.25747279205767
3675.3608,7.068772113863428,50.04164714248238
3676.2063,7.065977457668561,52.08521227908491
3677.0542,7.065939365409782,54.90416019494401
3677.9,7.065205626674505,46.85962365600689
3678.748,7.0600101906688035,47.66666606744155
3679.5945,7.048983517759878,54.358533818282545
3680.4429,7.033632637441532,54.29710664193913
3681.2896,7.017011688775385,52.16466001542102
3682.1365,7.001514278283079,56.72097900044225
3682.9856,6.987920196844728,45.00421567159884
3683.8328,6.975790472815932,47.52523421929959
3684.6824,6.964400391481015,57.303850083477506
3685.53,6.9540409200792155,58.60269350964404
3686.38,6.946069038750883,49.77456890434585
3687.2278,6.942584617389766,61.73974966270814
3688.0762,6.945202081699003,60.278005814332396
3688.9265,6.953871375598447,54.883931335046434
3689.7751,6.966072424181386,57.279989529493214
3690.626,6.977884805036265,53.88698806367348
3691.475,6.986204123833858,53.72325373935005
3692.3264,6.990825820053085,64.34172923147908
3693.1758,6.993547366848352,50.91038662624778
3694.0254,6.995383842356297,50.57870507895625
3694.8772,6.994808956742237,48.418652775405114
3695.7273,6.98952209968664,55.34883519605591
3696.5793,6.979703263819303,51.985007294267916
3697.43,6.968870320710043,59.4920545006857
3698.2825,6.960860440751614,61.01539233882703
3699.1333,6.956528034987287,59.333225363191524
3699.9841,6.953112829954951,50.41593651302295
3700.8374,6.946746822874729,57.001731608087276
3701.6887,6.935264294462796,59.36829975494795
3702.5425,6.918990984677999,55.89416988726336
3703.3943,6.900032646548437,56.33081051031279
3704.2483,6.880367089039886,59.70915376463587
3705.1003,6.861118640542753,56.87448286653551
3705.9526,6.842139091704647,56.509980758542966
3706.8074,6.8227977346509485,55.481164571732215
3707.66,6.802897954176479,57.84334333170499
3708.515,6.782657427938231,53.642647710199824
3709.3682,6.762868225653699,60.75026166353
3710.2234,6.7438518902517846,53.99119978368003
3711.0771,6.7252957294104245,63.10231372271654
3711.9307,6.706333595545419,60.45220387641096
3712.7866,6.686915948199018,65.07888420202111
3713.6409,6.669079754155333,58.015009921796285
3714.4973,6.655854275008226,59.632162358041995
3715.3518,6.649033534668015,59.76573098113636
3716.2085,6.647089585408428,56.45881333070808
3717.0635,6.646275080974507,61.053611672921726
3717.9185,6.6433859797024315,56.960629460644306
3718.776,6.637560792594539,58.55809257761272
3719.6313,6.629766917636791,60.059510117873515
3720.489,6.621132856112306,66.47736648238097
3721.345,6.6124210516729045,57.802147815413306
3722.2031,6.604160179608172,60.01677956175172
3723.0593,6.596825664608304,54.94434948024192
3723.9158,6.59016413486921,61.88672553997827
3724.7747,6.583231657116053,62.450709819549765
3725.6316,6.575506479710898,56.38915920276231
3726.4905,6.567707472448004,57.45007089473473
3727.348,6.561204392754265,56.936334631667286
3728.2073,6.556062392592757,56.2041321569703
3729.065,6.550429169842944,63.43944911107159
3729.9229,6.5418719196245,58.195244599472105
3730.783,6.529397218057258,58.14907362711309
3731.6414,6.514173658934417,67.18800988737924
3732.5017,6.498382537208998,65.34556744083682
3733.3604,6.484268131239615,68.24209860974229
3734.2214,6.473313411684461,66.7272048519092
3735.0803,6.466334591978889,61.288808845508036
3735.9417,6.463097595427949,59.95358286973327
3736.8013,6.462259843375417,64.76076804276961
3737.661,6.461352666268592,61.27850542499498
3738.5227,6.457553139178316,62.91656343898566
3739.3828,6.449106946643958,67.37668553793876
3740.245,6.436390120418618,62.849014761572015
3741.1055,6.421951542038998,63.260523959153375
3741.9683,6.408980800071533,72.41542788796883
3742.829,6.399973903853649,74.97910040184586
3743.69,6.395409390332652,65.29773738973529
3744.5532,6.39371507190297,65.04009662229369
3745.4148,6.392129609068133,60.50545924458506
3746.2786,6.3879966920348314,66.57977429048805
3747.1404,6.379555483829736,53.69608578234949
3748.0044,6.365901868816353,64.31124887007829
3748.8667,6.347597073023177,66.4712598886892
3749.729,6.327527828093746,58.46148254806393
3750.5938,6.3110416322726595,66.36956272769659
3751.4565,6.303823505511175,69.15170087154148
3752.3215,6.308116301036736,59.72018152523805
3753.1848,6.321046519350618,54.158636601826856
3754.0503,6.336310008790042,51.359518434577865
3754.9138,6.3476872590085796,62.80110196819925
3755.7776,6.352054666957506,73.81943211732688
3756.6438,6.349538833141249,60.102626029882465
3757.508,6.342333004973291,64.03729596070177
3758.3745,6.3332506123387855,60.4784040262221
3759.239,6.324890315174758,63.38097672457745
3760.106,6.318721783094919,66.44988158887209
3760.971,6.3146369379335825,64.80150578807933
3761.8362,6.310895591561686,60.542122498321234
3762.7036,6.305144348955559,61.846950028688944
3763.5693,6.295802357080248,64.75876489610677
3764.437,6.282798828369033,63.60937172934836
3765.3032,6.267542702872753,67.4154225904707
3766.1714,6.251679056722916,70.85336069144734
3767.0378,6.236130989375381,70.01135173710743
3767.9043,6.2204534373728615,61.63875784230414
3768.7732,6.203656210778198,70.19591415045089
3769.6401,6.185640707160955,67.66857278493521
3770.5095,6.167528282333371,66.559434051705
3771.377,6.151375342326913,71.76320320585262
3772.2466,6.138607235515539,69.57875599807412
3773.1145,6.129804138115578,57.734530650321936
3773.9824,6.125098502516474,74.21559494810246
3774.8528,6.124963040868826,69.84493095710214
3775.721,6.129690052544684,74.82936081457585
3776.5918,6.138343868839039,67.6400517173541
3777.4604,6.14876450183082,67.1371256646423
3778.3315,6.159383115485294,66.30464974364861
3779.201,6.170309695890616,65.72498469713628
3780.0703,6.182752759516317,69.87313286699299
3780.942,6.197011261160485,70.37209624400639
3781.8118,6.211284739539131,72.55200965055518
3782.6838,6.222504195902115,77.13473370482869
3783.554,6.227636776199519,66.91061631457123
3784.4265,6.2253537255538935,68.62516194852098
3785.297,6.216760088349236,65.16522417407353
3786.168,6.204897856162319,59.02456605355649
3787.041,6.192838967519651,75.16101918443664
3787.912,6.181821895534345,67.79563873605454
3788.7856,6.170684773517929,72.99491293040342
3789.6572,6.157383854296324,69.86759242450442
3790.531,6.140012375679502,71.54550986791052
3791.403,6.1172423433464935,70.15199727605444
3792.2754,6.08791346099948,59.80222577562312
3793.15,6.051618020348328,79.29725544658282
3794.0225,6.009863133283106,78.8198432815405
3794.8972,5.965457307459226,69.92420418713056
3795.7703,5.922250442976516,75.30042067799597
3796.6455,5.883345980010901,79.47322180943436
3797.519,5.851698509406375,75.82466978084254
3798.3926,5.829831996558038,74.08272350279144
3799.2686,5.819811809583128,75.65104690361774
3800.1426,5.82198005602128,71.6492604134142
3801.0188,5.834096791767996,76.81991348332083
3801.8933,5.85251658373978,91.26301004436765
3802.77,5.8747174000782305,73.0176797871687
3803.6448,5.900207122774906,75.1019538943683
3804.522,5.929892845937998,80.3794435645846
3805.3972,5.96356115150304,77.20668906636703
3806.2727,5.999465891689752,72.15332802331697
3807.1504,6.034801014929117,76.47758378051289
3808.0261,6.066677422147223,78.30642641250489
3808.9043,6.09348315420997,70.05685341632207
3809.7805,6.114457700324492,56.7388488844479
3810.659,6.129955947319954,78.19421912153369
3811.5356,6.1406092366129545,72.61251624328787
3812.4126,6.147388442584049,65.72645712718057
3813.2917,6.151457881734213,68.15155565481244
3814.169,6.15389597210884,69.52623839334264
3815.0483,6.1550625812615944,76.64432110330323
3815.926,6.154115507794916,65.04620312717051
3816.806,6.149334955700493,72.10577571355185
3817.684,6.138900483396603,72.4618442026011
3818.5623,6.121434786615155,67.08739990089356
3819.4429,6.096158318527858,67.63266540822431
3820.3215,6.063175924366951,79.31974004570927
3821.2024,6.023133503804004,66.22567983469978
3822.0815,5.978112831042162,70.19670492208171
3822.963,5.930822975186656,71.49907118251086
3823.8423,5.884409568640583,79.71985419170045
3824.722,5.840477568994888,76.68740143101428
3825.604,5.799093087774314,72.87499482452655
3826.4841,5.759658831297214,78.17702211893528
3827.3665,5.720829041003485,75.33623057932863
3828.2468,5.681449538972282,78.33884288440579
3829.1296,5.639919207949828,74.10528044979802
3830.0105,5.595220506391378,79.46631190663022
3830.8916,5.546183035590456,79.64841479763803
3831.7751,5.49155830834975,84.74743565092278
3832.6565,5.431063071324245,86.17722133554484
3833.5403,5.366032708844004,80.34402545194123
3834.4224,5.302112803677466,97.9415234369038
3835.3064,5.247504031103827,112.1569977690812
3836.1887,5.2110689485531925,100.35935562626001
3837.0713,5.198122284792351,103.6051410138892
3837.956,5.209254342255171,97.00537156481525
3838.839,5.240580967979964,93.02806819974366
3839.7244,5.286161397679185,89.10549745789292
3840.6077,5.339992897710575,104.34168492372629
3841.4932,5.398391907987446,91.15599477747489
3842.377,5.458936500155759,94.84423626280602
3843.261,5.520016968712142,79.5016679154384
3844.1472,5.579442367800922,77.31061846833396
3845.0315,5.634427932063919,77.2452830310788
3845.9182,5.683868903798104,84.2805680505356
3846.803,5.72820076774813,82.37289464206854
3847.69,5.770119939645188,78.5213988294131
3848.5752,5.81244276475972,72.91567780104418
3849.4604,5.857125117540837,74.4144511575665
3850.3481,5.903871044012672,78.70992169766177
3851.234,5.949741787689838,65.86800042871484
3852.122,5.9913111100896534,66.27377634842968
3853.0083,6.025623728737063,60.089019080190326
3853.8967,6.051955902853666,73.19133195710677
3854.7832,6.070727109160508,67.859569839743
3855.6702,6.082935640397497,64.0267833843194
3856.559,6.089459167836586,65.48725788517298
3857.4463,6.09148594948804,71.80227435792162
3858.336,6.090912750197852,80.77536324090902
3859.2234,6.0899000614270244,69.64596844871772
3860.1135,6.090011043901901,72.20518446913852
3861.0015,6.09165684401757,71.0872686236426
3861.8896,6.094223947435771,73.22425108878429
3862.7803,6.096513188923448,72.67977803548432
3863.6687,6.096898519441981,66.26052112720929
3864.5598,6.09326622867892,67.6276576621434
3865.4487,6.083178819912682,71.74592024470469
3866.34,6.06453130456047,68.14850245395617
3867.2297,6.036846947022804,67.75233325155034
3868.1213,6.001434751748006,72.50291163369235
3869.0112,5.961012718590874,72.78533360735368
3869.9014,5.917607040110271,75.18306251350137
3870.7937,5.871810246763545,62.49523832315652
3871.684,5.823736172282733,72.07682742621225
3872.577,5.773544237450919,78.75890072402032
3873.4678,5.722774612523776,86.54853425710048
3874.361,5.672457453035526,85.36606151554099
3875.2524,5.6229156255885,78.72414378936168
3876.1438,5.572618545508771,87.34176081902989
3877.0376,5.519291631104854,84.60928783193951
3877.9297,5.461562767866974,85.86742014869509
3878.8237,5.398790486516393,91.22644474118029
3879.716,5.3315713552079735,89.79086561559387
3880.6108,5.25940014601995,100.18055358065165
3881.5037,5.18123182956732,95.6965974741114
3882.3965,5.0951884822641995,87.67069796867649
3883.2917,5.000597533656007,110.73501838758115
3884.185,4.899586327095864,105.6836764773486
3885.0808,4.794684905261063,107.53496347094621
3885.9746,4.689781984709874,119.14096394693662
3886.8706,4.588179708798462,108.52753558274702
3887.765,4.495411012260547,126.50449495467272
3888.6592,4.418061781071724,132.29893698415214
3889.556,4.363431515634987,134.57080632354806
3890.4507,4.337693639560759,142.78093149288023
3891.348,4.34311807855588,144.69521018337056
3892.243,4.3778385615931805,139.78872705348138
3893.1406,4.436819955467899,123.84654610897918
3894.0361,4.512965654175422,121.90479605241002
3894.932,4.600020708558948,121.80821743683552
3895.83,4.693560606680331,115.6933636482555
3896.7263,4.790448060840747,113.06833156281587
3897.625,4.889589059612652,104.27325427459782
3898.5215,4.988684332663937,96.82507779090969
3899.4207,5.085457796515269,99.55700299207855
3900.3176,5.175919561761392,93.82299559032471
3901.2148,5.257473751676772,95.83027658727808
3902.1145,5.329317739605277,86.24342892457601
3903.0122,5.392738900287072,91.06110910666298
3903.912,5.452142340636481,84.25519772232992
3904.8103,5.512731893990707,87.93139342392575
3905.7107,5.57955253844791,86.75647389601356
3906.6094,5.653961959542779,80.18987410810419
3907.508,5.7332973037513995,83.02685557054893
3908.409,5.811690274609454,80.99509131407109
3909.308,5.88272256106148,69.68878150215423
3910.2097,5.943764840561882,78.14568268350057
3911.1091,5.99544914538215,74.47862066410327
3912.011,6.0411057162648545,81.21998607164855
3912.9111,6.083352791483324,76.03661431001213
3913.8113,6.123766526793536,70.64787912111463
3914.7136,6.162594824789242,75.71218499334971
3915.6143,6.198799959161425,69.62598922532621
3916.517,6.231165110018418,66.97315045714417
3917.4182,6.258639487345923,65.0282535148322
3918.3215,6.281575885298003,68.04935106874146
3919.223,6.30076860115713,67.96517532886295
3920.1245,6.316782973964285,62.42641216858683
3921.0286,6.329637513205362,62.79993195408108
3921.9307,6.339777777365964,65.2613372311531
3922.835,6.348978665643013,69.85946959974773
3923.7373,6.359410408390488,67.06155477966095
3924.642,6.372463679099761,65.2406502887163
3925.5452,6.3880266527244665,61.84996560553719
3926.448,6.4053335380091445,63.1321286160705
3927.3535,6.423709948751733,63.38228993702251
3928.257,6.4422852373613315,60.703942184900185
3929.1628,6.459577133607798,60.514149542755455
3930.0667,6.472885610133706,55.90063398308717
3930.9731,6.479543088743145,61.83328906867753
3931.8774,6.478267773643998,58.10419715230746
3932.782,6.469985572117301,59.99276077012077
3933.6887,6.456596477890377,63.18755509322484
3934.5938,6.439175026950642,66.72997917801938
3935.501,6.416768398376011,63.50580935436438
3936.4062,6.387603157214018,61.91108346159689
3937.3142,6.350558088841076,65.912765567247
3938.22,6.307057900999937,67.01285449554616
3939.128,6.259847823526657,63.47272508620334
3940.0342,6.211908453151259,69.24390727353506
3940.9407,6.164098574205609,65.6187391082856
3941.8494,6.115520458272083,70.13886229836797
3942.756,6.065442745210551,71.77248368063701
