wavl,flux,ivar
3566.9744,3.9520981835142925,113.59654696235152
3567.795,3.945519197028454,125.861403594631
3568.6177,3.937959841296885,92.63968008012965
3569.4385,3.930109756524559,98.13932841995319
3570.2617,3.9206523615593505,121.06346111344187
3571.083,3.908150777711105,117.05738361862436
3571.9065,3.8924311119204584,121.48250101628481
3572.7283,3.874935069117383,98.5645229483743
3573.55,3.8576243939403456,114.55567181320103
3574.374,3.842554030638174,113.566988687759
3575.1963,3.8319072312285547,141.7819386252637
3576.0208,3.8272554074237,125.54223289681744
3576.8435,3.8286896057010207,137.79768013803465
3577.6682,3.8340881003717175,178.37976133000996
3578.4915,3.839566534316223,97.68488759997669
3579.3145,3.840907852192512,155.97200721424952
3580.14,3.835399963122883,93.77349054803418
3580.9636,3.823633338616063,152.0997506354633
3581.7893,3.8095420654746266,104.5794199944606
3582.6133,3.7982054031093053,132.67419385843417
3583.4395,3.792388022613421,105.2709557048985
3584.264,3.7918553433101883,100.49974276049377
3585.0884,3.7957325134032724,115.20602197489771
3585.915,3.805233580832607,135.39921481049592
3586.74,3.8226842040059053,123.4221135657861
3587.5671,3.8479713880127253,122.26123274021255
3588.3923,3.8757112450390774,127.62354084426121
3589.22,3.897195219353143,98.01627173588817
3590.0457,3.9039095072854386,98.19605488502242
3590.8716,3.8910728189613244,141.00500944301308
3591.6995,3.8582079414027253,114.61830268781695
3592.526,3.8096032472017285,88.03490277650064
3593.3542,3.753755469449532,119.8554166780498
3594.181,3.7026788175091867,122.70349391206636
3595.0098,3.6673364962860964,144.55596734796885
3595.8367,3.654336965575759,127.88684586154984
3596.6638,3.6632151424056802,121.8869863413946
3597.4934,3.6876662752070275,154.85928666771267
3598.3208,3.717964401259649,121.53533031811867
3599.1506,3.7454684343083007,116.09384926778367
3599.9788,3.7654424951259724,145.6836583476059
3600.8088,3.778163904340895,142.37923817327078
3601.6372,3.786108157811148,141.19274558330937
3602.4678,3.791158590903645,92.26087999689442
3603.2964,3.7934952972382856,106.82067021558396
3604.1252,3.793091599418207,112.20402141979788
3604.9565,3.791274313925651,128.33167889246977
3605.786,3.7904455469539826,121.66864550881914
3606.6172,3.791752377086686,126.81394675732722
3607.447,3.793205244915801,120.27329787928018
3608.2788,3.790651766469552,111.40339576346886
3609.109,3.781275109387614,160.09162347575955
3609.9392,3.766527679375259,112.63850570132985
3610.7717,3.75186626616081,101.6294654945056
3611.6023,3.743548320161082,133.13553642234922
3612.435,3.7444827277865853,114.03641626487023
3613.266,3.7527307866752775,171.63442301727892
3614.0994,3.7630905094763976,107.17451735186283
3614.9307,3.770280575977816,121.6652591304897
3615.7625,3.7716328789494025,143.73353593824575
3616.5962,3.7674814445335345,103.19701770737382
3617.4282,3.7601565658543246,114.70893604333033
3618.2625,3.7522138574774573,144.5077744586361
3619.0947,3.745181538546783,131.91626678719967
3619.9292,3.738998855146057,137.79169381726064
3620.762,3.7327175882948587,105.9130104567833
3621.595,3.725190323780871,122.96746928681586
3622.4302,3.715350457491905,141.8693957081639
3623.2634,3.702118653635642,127.89052890339437
3624.0989,3.684373179636875,182.31881867817813
3624.9326,3.6621389383298917,144.85631323794303
3625.7686,3.6374212619754718,103.97130212810285
3626.6028,3.614724642059372,125.56999118679964
3627.437,3.5986934853847568,126.95781344945537
3628.2734,3.5911446968041365,137.90751052937543
3629.1082,3.589588042347682,141.51247343958067
3629.945,3.5893470493470536,122.24558394510947
3630.78,3.5878025539945058,163.87749502033395
3631.6174,3.586228530389357,143.83341718075187
3632.453,3.5875486080152554,153.00848205752976
3633.2883,3.5927251083217278,98.96464524447435
3634.1262,3.5999480843600695,114.23758754712479
3634.9622,3.6068500724190207,163.68526362713723
3635.8005,3.6130134308134187,116.0365835300602
3636.637,3.6198752992748338,147.4690640235611
3637.4756,3.6293361906115402,112.25091371340787
3638.3123,3.642337586541214,125.66129217699628
3639.1492,3.658483256791908,160.64748515562968
3639.9885,3.675860852801229,149.517202106857
3640.826,3.69152968446459,117.69706643320376
3641.6653,3.703690468660507,104.99679197599608
3642.5032,3.713348871016228,124.96702612209072
3643.343,3.724386974787359,122.15282683774154
3644.1812,3.7404741788486158,131.19095433564618
3645.0195,3.7617476215383707,111.04595951335807
3645.86,3.78380659827182,105.10205223518535
3646.699,3.7999363242005386,127.9074332122311
3647.5398,3.8050553178295803,102.5861352927296
3648.379,3.7974917105530106,154.21483482389053
3649.2202,3.778775092132203,147.7449410847715
3650.0596,3.752543148690492,139.19089099407435
3650.8994,3.7231757127611123,133.14047355661324
3651.7412,3.6949671210778168,129.41982886760698
3652.5813,3.671372363071168,107.63546825441621
3653.4236,3.6544586991140884,141.07455784435717
3654.2642,3.646022859926324,127.9294984964654
3655.1067,3.6473434854019184,163.93582338657887
3655.9475,3.6576744377005324,147.402281460429
3656.7886,3.67256243129982,116.23671714257989
3657.6318,3.684984686872431,157.75247323766115
3658.4734,3.689190456715259,114.74514776433492
3659.317,3.684373404303963,119.95536705419252
3660.1587,3.674495075515825,129.77667482588748
3661.003,3.6648464650502555,128.7957110251223
3661.845,3.658739062745849,153.87992407797455
3662.6875,3.65641838604286,104.43690274060235
3663.532,3.65663070886706,111.72438611383551
3664.3748,3.6582242483670058,142.74187516463044
3665.2197,3.6603732497570185,150.22677455145833
3666.063,3.661728749753772,151.7524141659485
3666.9084,3.660306281676546,142.17582572736657
3667.752,3.6549518544821145,119.94706207963692
3668.5977,3.6471807673078627,143.22968155605375
3669.4417,3.6413225924235526,116.79422286237502
3670.286,3.6418093546252845,126.4067999368536
3671.132,3.6498455760801893,124.28056407316873
3671.9768,3.6620371804600937,123.03402531307432
3672.8235,3.672641519287493,119.13992736567351
3673.6685,3.6771655544938087,136.7613433586412
3674.5156,3.674947972995744,118.0320513058651
3675.3608,3.6689206325620574,129.8733641765758
3676.2063,3.663531474303919,126.3153910280921
3677.0542,3.6622616943365953,128.78200365914432
3677.9,3.6657815560935423,133.72958082859955
3678.748,3.6714522285459927,145.26265704940445
3679.5945,3.6744969379554666,146.17839320603596
3680.4429,3.6707747025631967,151.19852427419053
3681.2896,3.6596952260462547,118.43988464102571
3682.1365,3.6452414004781044,139.37399525934714
3682.9856,3.633894028402538,130.77979433207835
3683.8328,3.6306472575262934,167.17714978149982
3684.6824,3.6357447371224416,137.05043774618701
3685.53,3.644829722188737,133.82904351004606
3686.38,3.651892353289755,125.67195552479622
3687.2278,3.652457922806164,137.62561621944758
3688.0762,3.6454492500535878,148.99099981230196
3688.9265,3.6331284957044696,125.99280238426145
3689.7751,3.6203799727292867,152.84223557534253
3690.626,3.6127761686827533,115.27561259892948
3691.475,3.6137702583099744,115.44244438493266
3692.3264,3.621749915394977,165.07893098122221
3693.1758,3.6303008831555323,146.41631527058186
3694.0254,3.6325859381738335,127.97674203471718
3694.8772,3.626038395333565,107.73871937549525
3695.7273,3.61346912879504,130.19392648883436
3696.5793,3.5999678092723535,168.54663069606542
3697.43,3.589870815998393,112.21350062396648
3698.2825,3.5857268432351916,174.56906641634492
3699.1333,3.588699313987218,133.2215791504348
3699.9841,3.5978845845033933,126.74858563650723
3700.8374,3.6095529584200383,157.32157656551684
3701.6887,3.618098787142894,108.18020625287713
3702.5425,3.6196271186113096,113.14828035955617
3703.3943,3.614867551684802,185.5709288663586
3704.2483,3.6087962270313922,148.30817182890004
3705.1003,3.6067533588306167,129.51516938299886
3705.9526,3.610411902743116,124.15740675692089
3706.8074,3.6173968248530852,122.74573939855614
3707.66,3.624074715424187,129.6407829783509
3708.515,3.6285924713609368,130.2742113352343
3709.3682,3.6307792261618257,160.23999082103765
3710.2234,3.6299240279723324,135.33597982397012
3711.0771,3.6232328707802863,130.62716978614233
3711.9307,3.607283398381052,118.71400788656229
3712.7866,3.581079740979848,120.22676736851024
3713.6409,3.548114471464705,147.1146411268126
3714.4973,3.5145255225963505,134.24153443044443
3715.3518,3.4863505238685266,128.72713678258987
3716.2085,3.466436115742558,180.94383295091134
3717.0635,3.4549097430078866,105.32348663544025
3717.9185,3.450615872730115,154.77007584677642
3718.776,3.4527215523146575,135.42927964998574
3719.6313,3.46009034734844,152.53776803751995
3720.489,3.469995051227879,129.7310000680301
3721.345,3.478471441958219,125.66941257766904
3722.2031,3.4831213772198195,134.27745423079045
3723.0593,3.4848972583071176,168.13876491896391
3723.9158,3.48678637541943,170.23820187703993
3724.7747,3.4903917367766986,163.16202563068455
3725.6316,3.4941823326583004,167.73347280164953
3726.4905,3.4950574576432514,131.50086722797644
3727.348,3.4911969584295304,154.8721864925572
3728.2073,3.483642443841624,137.91790284849492
3729.065,3.475696046416821,135.6947889703598
3729.9229,3.4708272715831794,153.59090127234526
3730.783,3.470899593209236,150.89128015327992
3731.6414,3.4755056771265465,136.24069685712925
3732.5017,3.482676575941157,155.4494218462725
3733.3604,3.4899520026619584,166.47123987323377
3734.2214,3.4950966033712922,125.0271234545315
3735.0803,3.4961720607979316,146.23825567669562
3735.9417,3.4921352214068477,153.5409771036164
3736.8013,3.4836904436363465,140.34804052826692
3737.661,3.4733757416966435,146.80311943682614
3738.5227,3.464160651882081,167.78051938977026
3739.3828,3.457515888005619,148.48999320533287
3740.245,3.452401590888087,160.82184498298903
3741.1055,3.446360818632847,125.90877052617277
3741.9683,3.4371993736298667,140.4853141336261
3742.829,3.4244243686833546,206.48855604366358
3743.69,3.4093698996296875,131.762792196092
3744.5532,3.394668495396059,137.4979594920733
3745.4148,3.3832659542938335,169.34415133783907
3746.2786,3.3768889452768502,160.92748890336767
3747.1404,3.3754519173356092,150.30779905106462
3748.0044,3.377233855843401,160.78330591229297
3748.8667,3.380112854970837,174.87478705150846
3749.729,3.3827378677333666,126.81276739245246
3750.5938,3.3848211339039835,152.23113511586357
3751.4565,3.3865896113605567,159.2320707739361
3752.3215,3.388307895581935,118.99464622492319
3753.1848,3.3903411146565468,129.3330858252702
3754.0503,3.393503693217342,215.56031658345947
3754.9138,3.398766781464232,152.31645563917752
3755.7776,3.4065279271530375,154.09068811850054
3756.6438,3.416109974154168,146.9038355071984
3757.508,3.4259520285566265,146.40935411204188
3758.3745,3.4345768924178124,166.57397991147175
3759.239,3.4411054362672076,147.95347483019316
3760.106,3.4455524736636027,161.41677831753933
3760.971,3.448250969706827,151.14044616243777
3761.8362,3.4493710896355316,144.02479278053545
3762.7036,3.4487952584063404,154.4043187905883
3763.5693,3.446628826835404,168.350031162548
3764.437,3.4435044964824923,148.48583815129143
3765.3032,3.4399909082968634,156.615430909991
3766.1714,3.4352590981021733,155.93114723870832
3767.0378,3.4267063909948443,147.18658587792913
3767.9043,3.4115751996998345,129.03239811212185
3768.7732,3.389788086214804,135.941862057221
3769.6401,3.3654444972428474,144.24486152130024
3770.5095,3.3443514213160896,166.74213586026642
3771.377,3.3307071564480046,147.95930611428344
3772.2466,3.3247522136870464,170.2360310887349
3773.1145,3.32417119712245,140.8829743279385
3773.9824,3.3262874447734148,153.7953142378294
3774.8528,3.3292914146508474,141.10060096973814
3775.721,3.331984785702532,147.8992402794649
3776.5918,3.3336882298421457,149.13615313232336
3777.4604,3.3346628472224675,161.0928184166396
3778.3315,3.3362100272624162,195.70259773226883
3779.201,3.3393847198280224,180.89567723925677
3780.0703,3.3435126479283754,192.38290203135557
3780.942,3.346509853558096,113.70494111962151
3781.8118,3.3472683213687398,160.41325624328658
3782.6838,3.347799786722329,148.55517094808232
3783.554,3.3525519225620517,184.9013428900561
3784.4265,3.3653461407680876,165.1493199704456
3785.297,3.3861742531041705,146.67580087651558
3786.168,3.410617200329342,154.22023751121446
3787.041,3.4317162604337557,122.62587736795739
3787.912,3.443173331216418,170.2903841990477
3788.7856,3.4424183944668147,139.02516635019867
3789.6572,3.4310517806098373,160.52359051061086
3790.531,3.4132099884542035,177.2304205664639
3791.403,3.393173502168729,171.17669640145726
3792.2754,3.3734816197105557,159.3442844167839
3793.15,3.355100014754043,180.30220349620825
3794.0225,3.3384218851876573,168.32470786089496
3794.8972,3.3233060012985827,182.50634444022324
3795.7703,3.3090890255967556,149.04397727555707
3796.6455,3.294503279013739,161.4626060208819
3797.519,3.2791925612100385,146.52341615586928
3798.3926,3.2646761719514896,163.847724006786
3799.2686,3.254022066983941,152.94600607808002
3800.1426,3.2498086290569765,180.30720227626054
3801.0188,3.251906234098558,194.13778728512418
3801.8933,3.2575690917162516,179.67328451419598
3802.77,3.263654278281084,174.44477031291544
3803.6448,3.268880573233442,207.9193882590155
3804.522,3.2741927967739315,154.38196825555272
3805.3972,3.2809924863277526,147.3054859484985
3806.2727,3.289757263663725,162.69223242050754
3807.1504,3.3000078900290397,159.89293035448978
3808.0261,3.310806563683449,143.4015750842159
3808.9043,3.320903677961281,183.16405893049568
3809.7805,3.3283591697996635,157.3193958331002
3810.659,3.331669102654818,156.9968549457146
3811.5356,3.3314648688214987,200.43263494478376
3812.4126,3.331302531822424,173.46064882441036
3813.2917,3.335777670975629,150.47550612084274
3814.169,3.346986312690923,172.85437256613903
3815.0483,3.362246485448683,143.69260627779914
3815.926,3.3748745562017133,158.91700787693864
3816.806,3.3784126985790945,134.54794253787452
3817.684,3.3707524950300423,155.3857017066104
3818.5623,3.355524201979402,142.6127049650229
3819.4429,3.339290908985023,160.5611929088247
3820.3215,3.3273453132412913,145.51717480459004
3821.2024,3.320795250716807,142.0324624142267
3822.0815,3.3174454772240334,156.6389104190959
3822.963,3.3141849232237073,191.6312639784975
3823.8423,3.3090011805572983,160.23899378775172
3824.722,3.301114156307672,160.30887099056068
3825.604,3.2901498841516803,161.0010346920909
3826.4841,3.275737317313958,160.77379420213765
3827.3665,3.25760462075791,150.05878788712107
3828.2468,3.2363083890684683,164.73903034404117
3829.1296,3.2126062367526953,169.03799863908557
3830.0105,3.186957412253259,169.88531848221126
3830.8916,3.1586068817036064,173.09350247758525
3831.7751,3.126260172394927,160.17301377567182
3832.6565,3.0895628709326934,192.48742932294425
3833.5403,3.0494801924790984,168.47158608972444
3834.4224,3.0092728312117822,173.95781505912345
3835.3064,2.973221780454411,206.84168310419105
3836.1887,2.9461058058423135,212.75301025374395
3837.0713,2.9311080582613633,183.92076501947582
3837.956,2.928733978135811,196.4787295351036
3838.839,2.936373496793489,187.40028477596388
3839.7244,2.949816667180309,180.2353312794359
3840.6077,2.9659237932149236,181.13333078836482
3841.4932,2.984851748341124,174.60533529159136
3842.377,3.009293938825235,180.87384781544392
3843.261,3.042144194286504,169.72044510696807
3844.1472,3.0837829166197195,195.1463747484623
3845.0315,3.1309406275373473,175.4822617936328
3845.9182,3.1787703338726003,184.54300416265855
3846.803,3.2221065047133295,163.30382257883588
3847.69,3.2577589342484043,167.93258790005765
3848.5752,3.2838490667521723,166.5025759109458
3849.4604,3.2997940965611976,166.98585979027635
3850.3481,3.305684431173315,192.3415237745224
3851.234,3.3027950988709867,170.6873101728193
3852.122,3.2942489974549085,171.6339456591739
3853.0083,3.284615608094278,164.11560448403534
3853.8967,3.2781218151088143,180.77339384378178
3854.7832,3.2769400135160267,195.2594949969902
3855.6702,3.280357503884232,166.57806570922853
3856.559,3.285711183575274,167.57773275549567
3857.4463,3.2900084573246775,149.78788109406398
3858.336,3.2912334215179357,169.48009393470295
3859.2234,3.2883647793592625,175.56437104995078
3860.1135,3.2809271244936506,165.29257556196816
3861.0015,3.269214470487603,180.84775708734648
3861.8896,3.2549557645533223,179.60453648618903
3862.7803,3.241557629839669,177.36442157991894
3863.6687,3.2329726013327824,172.53861626449063
3864.5598,3.2314019206100166,162.1165995377936
3865.4487,3.2360666252769246,199.51927774986248
3866.34,3.2435362413321664,160.55285586463333
3867.2297,3.2496334794605497,153.25733514342053
3868.1213,3.251716681367324,136.15225872362564
3869.0112,3.2495045977877735,171.22941208681317
3869.9014,3.244385455204549,168.45180092174002
3870.7937,3.2380888938503483,199.65763612343102
3871.684,3.231989290773932,211.99842156655455
3872.577,3.2266939300580755,178.05457558221408
3873.4678,3.2217848055744316,198.54625519591283
3874.361,3.215512077140761,176.6041102018093
3875.2524,3.20558910022224,200.02174753724063
3876.1438,3.190474045812737,166.9432582755521
3877.0376,3.170220768736058,172.53112959885186
3877.9297,3.1462136406025447,207.06278568945942
3878.8237,3.119630420512947,182.1811228133284
3879.716,3.0911267818390153,163.1331089995117
3880.6108,3.0605768460209637,162.96868728400824
3881.5037,3.028017732286807,201.68957378375114
3882.3965,2.993132693393583,189.9205548206786
3883.2917,2.9550802870360475,199.86919111155746
3884.185,2.912781641153919,170.73989820309427
3885.0808,2.864798624757828,254.59751508822706
3885.9746,2.8111199537958513,265.80509582199784
3886.8706,2.753140558125718,212.87644055397547
3887.765,2.695228735742884,310.6286031581212
3888.6592,2.643799902013668,236.14198352384446
3889.556,2.606527524417138,285.6224133928944
3890.4507,2.59017694242491,245.22264144457145
3891.348,2.597319856638276,258.1739420215881
3892.243,2.6252984584768924,229.08327682732516
3893.1406,2.6676342405373012,219.95990306345146
3894.0361,2.7164888199023514,244.92446153887266
3894.932,2.7659166466155374,242.4048743211316
3895.83,2.8124251440128036,241.28918661575793
3896.7263,2.8544280212881077,210.18380819388457
3897.625,2.892497423278694,249.96641242612037
3898.5215,2.9277171974838967,215.9312110544237
3899.4207,2.96155088957056,252.55230502070881
3900.3176,2.994749287556701,195.14354889237495
3901.2148,3.0283027647023615,210.5620951918791
3902.1145,3.0630184668721583,271.52460044718276
3903.0122,3.0983067940262714,206.24239560981798
3903.912,3.1321999969611327,197.7250001788101
3904.8103,3.1616665593712168,172.14718407156658
3905.7107,3.1849039632856493,161.56958047969928
3906.6094,3.2017609756079644,186.7593923580899
3907.508,3.213702010498246,186.18033823722035
3908.409,3.2225651394866173,155.18231227443593
3909.308,3.229599878891481,187.83293622896372
3910.2097,3.235135170586057,150.82863600106944
3911.1091,3.2387517833027832,168.91731651075642
3912.011,3.240467445695968,171.81180432777188
3912.9111,3.2417030333778194,156.254898188389
3913.8113,3.245120295584571,181.67835020246994
3914.7136,3.252987201836463,164.52019129146544
3915.6143,3.265392300996894,176.25065778962656
3916.517,3.2802554864438904,167.54245202151327
3917.4182,3.2947793378902612,180.5566870917387
3918.3215,3.307550126827682,165.91678730466666
3919.223,3.3186169743194545,177.11592027554303
3920.1245,3.3282664804315796,154.105364831569
3921.0286,3.335341698614721,172.01175853886588
3921.9307,3.3373263532181827,154.7820629599745
3922.835,3.3323765538627654,159.6088347438772
3923.7373,3.3213004815657383,163.70825917310353
3924.642,3.3075748561870197,164.14102360953964
3925.5452,3.2954445810194803,160.24233075328326
3926.448,3.2871229446709807,164.88382225444641
3927.3535,3.2818976710214125,159.05037145961376
3928.257,3.2773790072099103,159.47237688477637
3929.1628,3.271406101076355,154.39616961544039
3930.0667,3.2630726238651424,177.82043181314393
3930.9731,3.252113571358838,168.5678871377407
3931.8774,3.2384753539656312,183.09524350218098
3932.782,3.222463308466819,145.7572903369104
