wavl,flux,ivar
3566.9744,1.0198179674708077,1409.8408204217762
3567.795,1.0171371565939253,1987.589163172862
3568.6177,1.0157932787961588,1820.3510084143622
3569.4385,1.016120246957036,1624.107580941085
3570.2617,1.01809462504168,1889.939038295634
3571.083,1.0214074924721879,1689.7333018242948
3571.9065,1.0254592281981567,1857.0023025848889
3572.7283,1.0292542167112277,1822.5154526888352
3573.55,1.0317610963332522,1046.2382203196778
3574.374,1.0324866609627856,1638.578115782867
3575.1963,1.031831523578058,1699.3906054215363
3576.0208,1.030748880573401,1669.8523948555248
3576.8435,1.0300257955615468,1545.1000391767734
3577.6682,1.0299171001865244,1613.0317389644847
3578.4915,1.0303838324605898,1580.6542913800313
3579.3145,1.0313865576299919,1755.3703066104226
3580.14,1.0327925487571334,1737.3351653514749
3580.9636,1.0340698523513874,1548.547681539851
3581.7893,1.0343838254377926,1779.5906520669323
3582.6133,1.0331098328550876,1607.9307135053618
3583.4395,1.0302960860653587,1407.5651717139467
3584.264,1.026620818938101,1798.2698071626087
3585.0884,1.0228751166682393,1534.5655918100597
3585.915,1.0195642077273943,1534.6816751306517
3586.74,1.0168922266793692,1601.1755131156908
3587.5671,1.0149334336541416,1628.0688347794428
3588.3923,1.0138456882162699,1851.9778396000866
3589.22,1.013735875537029,1489.1724645252805
3590.0457,1.0144718163323876,1738.20006435793
3590.8716,1.0156727915336614,1569.6746510792311
3591.6995,1.0169630310377629,1565.4809077559526
3592.526,1.0181414188399291,1693.3215487672146
3593.3542,1.0191038597165287,1524.3994520344818
3594.181,1.0196384968024421,1672.3618459634088
3595.0098,1.019444215315745,1522.8157267431275
3595.8367,1.018293543501751,1711.3873606314507
3596.6638,1.0161475370401365,1752.736660397985
3597.4934,1.013149847259546,1554.5526849793291
3598.3208,1.0096660164852629,1638.9766459244383
3599.1506,1.0062395115771319,1687.6805026076447
3599.9788,1.00353947258181,1648.3687082959495
3600.8088,1.0019682151825704,2051.604051757563
3601.6372,1.0013895433196038,1528.759937374395
3602.4678,1.0011161990483568,1721.247934142261
3603.2964,1.0003495558946063,1864.3496199006377
3604.1252,0.9987324480226825,1499.584778366672
3604.9565,0.9966669529915305,1693.9193993190984
3605.786,0.9952011055685904,2108.3338387186313
3606.6172,0.9954468484162731,1782.8723991506058
3607.447,0.9979441631141784,2011.2252817909798
3608.2788,1.0022701278821522,1482.9205868883391
3609.109,1.007061067403139,1654.381012800377
3609.9392,1.01057313874614,1443.9340564288366
3610.7717,1.011407752480664,1765.3734651591192
3611.6023,1.0092046965086048,1465.423168053136
3612.435,1.0048128545788684,1804.5917266302986
3613.266,0.9998057547213633,1932.0803113430675
3614.0994,0.9955548797871644,1796.8514257335066
3614.9307,0.9927294394498728,1866.78176984784
3615.7625,0.9912276838981509,1708.5077229666176
3616.5962,0.9905795363400302,1830.77641176188
3617.4282,0.9902425874924863,1634.900331604513
3618.2625,0.9897568265638541,1767.4192731186622
3619.0947,0.9889078726603938,1659.4908459071069
3619.9292,0.9878641036610689,1898.9730742116687
3620.762,0.9871292697888719,1818.7079619802707
3621.595,0.9871529171166785,1426.5770587884167
3622.4302,0.9879315418332938,1719.5766707015734
3623.2634,0.9889719080607027,1855.1876064378598
3624.0989,0.9897530625939318,1568.8803739969599
3624.9326,0.990178323714408,1922.8094848654443
3625.7686,0.9905523562688812,1730.0204491132406
3626.6028,0.9910598377979783,1600.7402887670783
3627.437,0.9913728769187528,1606.5902124075142
3628.2734,0.9908101209882186,1945.2583169255188
3629.1082,0.9888924971630926,1851.300055308222
3629.945,0.9857308293433208,1916.3160235430328
3630.78,0.9820332692750534,1632.3976381777095
3631.6174,0.9786926977010354,1558.3097112036635
3632.453,0.9764017529836542,2144.186095719753
3633.2883,0.9752625108951152,1859.582347303054
3634.1262,0.97485051182492,1431.3043092206135
3634.9622,0.9746334647871604,1641.2729358460454
3635.8005,0.9744400453768914,1568.556372438931
3636.637,0.9745380582709214,1662.3679156234432
3637.4756,0.9752591320923565,2067.831664693181
3638.3123,0.9765660493387341,2125.6076225958527
3639.1492,0.9779326322470241,1758.156477361766
3639.9885,0.9785185715585168,1942.6600079413852
3640.826,0.9774920803766576,1647.571948020995
3641.6653,0.9743665194085218,1801.5437573988117
3642.5032,0.969261726083667,1905.48209067989
3643.343,0.9629097392147912,1965.924489594187
3644.1812,0.9565654949289372,1669.978810165196
3645.0195,0.9516088274352558,1842.8356597785994
3645.86,0.9492373096317065,1884.8693604604623
3646.699,0.9500572110061453,1758.892069945134
3647.5398,0.9536724526323508,2116.15625681392
3648.379,0.9586107341591412,1743.5761779925665
3649.2202,0.962936718722965,1833.7101745678315
3650.0596,0.9651939126910698,1821.9482586499767
3650.8994,0.9652082974043993,1662.3036141920843
3651.7412,0.9638484694160883,1826.410592368322
3652.5813,0.9621580370213398,1828.3689212505396
3653.4236,0.9605927686722003,1820.1063049155941
3654.2642,0.9590850329207228,1808.2871572821043
3655.1067,0.9575981181773539,1906.6830502314435
3655.9475,0.956563145539738,1876.9413543685303
3656.7886,0.9566557357386217,2123.692636442008
3657.6318,0.9582062064884894,1642.2642893967218
3658.4734,0.9607373154854881,2021.8704073298927
3659.317,0.9631564622383398,1565.2951840751066
3660.1587,0.9643834538998435,1948.4174946179137
3661.003,0.9639901998953495,2018.9099548543106
3661.845,0.9623040279376774,1784.9294967365574
3662.6875,0.9601169689971084,2146.9538991627446
3663.532,0.9583574022308077,1649.5041839674186
3664.3748,0.9578841940415224,2306.342587208982
3665.2197,0.9592541437581527,1733.5792014402653
3666.063,0.9624708036161745,1965.7290991745094
3666.9084,0.9668558194225745,1858.2531089824765
3667.752,0.9710908231432736,1748.0982328120383
3668.5977,0.9737026108374355,1842.2549828418933
3669.4417,0.9736712529284623,1658.373380379011
3670.286,0.9711094806892804,1767.3289025895385
3671.132,0.9673011621304332,1698.3692765235955
3671.9768,0.9640013103512695,1673.374281558465
3672.8235,0.9622221594268725,1797.799609977362
3673.6685,0.9615843903027167,1611.8430738305049
3674.5156,0.9606849313963521,1845.3933165823319
3675.3608,0.9583156569355338,2245.560705165892
3676.2063,0.9544139147321866,2017.5753808586635
3677.0542,0.9500150716433429,2068.9681992869882
3677.9,0.9464294246512738,2009.9638723631463
3678.748,0.9443209762043767,2065.2550557179193
3679.5945,0.9436251385480684,2043.2779141386186
3680.4429,0.9439503010910361,2117.906073368589
3681.2896,0.9450476506346777,1824.7026130052386
3682.1365,0.946834539645899,1706.2991023806726
3682.9856,0.9491149213671626,2011.6073698524795
3683.8328,0.9514031382225693,1949.9056613806113
3684.6824,0.9531570337389706,1791.2040162843982
3685.53,0.9540527024558358,1841.9947397647957
3686.38,0.9541078435150437,1751.844445822633
3687.2278,0.9534784665350348,2097.1789413134243
3688.0762,0.9522701186195082,1969.168672160765
3688.9265,0.9505632256419637,2057.9933580501815
3689.7751,0.9485999329499675,1868.3542481714198
3690.626,0.9467907442637196,2280.5209397566036
3691.475,0.9455370975693891,1951.9937944763717
3692.3264,0.9449502741934629,1995.000508972821
3693.1758,0.9448092822201302,2131.8080791075945
3694.0254,0.944680686551664,1935.4863401343591
3694.8772,0.9441315901595112,2028.2194917346155
3695.7273,0.9429478404842255,2241.802522005135
3696.5793,0.9412989200216699,1906.4181713368573
3697.43,0.9397754935433305,1661.541058290049
3698.2825,0.9391261551941478,2180.7717443555252
3699.1333,0.9398623490150105,1916.6447354401362
3699.9841,0.9419627871558439,1675.313959729644
3700.8374,0.9449676396889894,1849.6975467320424
3701.6887,0.948257804805496,2047.5240394435596
3702.5425,0.951333506920554,1693.6439992517949
3703.3943,0.9537212171456548,1641.548081776271
3704.2483,0.9549401323551008,1858.6657517075353
3705.1003,0.9545736021768969,1796.7005593882034
3705.9526,0.9525978154900849,2040.3780741764683
3706.8074,0.9495702225417197,1998.4968822922162
3707.66,0.9465351030264045,2096.804223677553
3708.515,0.9444889660662642,2031.540189167737
3709.3682,0.9439246741466494,1856.7048994363286
3710.2234,0.9446505184421283,2048.9041356627954
3711.0771,0.9461142359486049,1728.0287838030117
3711.9307,0.9478168638588509,1959.405151932783
3712.7866,0.9494605246750351,1701.6551711299142
3713.6409,0.9508363556855185,1767.352964270333
3714.4973,0.951776399553129,2338.986810446607
3715.3518,0.9521518182930547,1824.070213371084
3716.2085,0.9519075792597685,1879.3903712453418
3717.0635,0.95106029170422,1775.2347333366902
3717.9185,0.9497832134355929,1841.2662111615348
3718.776,0.9485264153373364,2100.01859319727
3719.6313,0.9479736500721689,1982.7135870428376
3720.489,0.948666981132646,1761.8721595283077
3721.345,0.950578601367599,2088.72382764506
3722.2031,0.9530107966301079,1931.7150347321635
3723.0593,0.9549407604182237,1736.177815154983
3723.9158,0.9556301263750686,2037.0960861654507
3724.7747,0.95490617691944,2036.2683759104104
3725.6316,0.9530514973061157,1994.4148792965725
3726.4905,0.9504456666274788,1772.2991039314804
3727.348,0.9473819908680137,1835.4711363121746
3728.2073,0.9440711218079609,2115.0562683782264
3729.065,0.9408449399319164,1743.9426429119019
3729.9229,0.938160647900731,1981.4820100334534
3730.783,0.936467035778927,1952.789117204353
3731.6414,0.9359408018884366,1934.3959460801127
3732.5017,0.9363440847112992,1898.664652257501
3733.3604,0.9372085178825837,1832.3496636329314
3734.2214,0.9381182564213587,1810.5439044736925
3735.0803,0.9387891939297771,1821.6113798957922
3735.9417,0.9389860649423938,1990.1629320288312
3736.8013,0.9384992676978889,1970.2718288314616
3737.661,0.9373537775884511,2130.0474662831357
3738.5227,0.9359642998877122,1938.3446464842898
3739.3828,0.9349725410271461,1940.1421959016875
3740.245,0.9347905220082651,1936.3394285313022
3741.1055,0.9353308924559264,2184.7403369976946
3741.9683,0.9361263563834935,1772.7618114343543
3742.829,0.9366575738365616,1844.2246834943608
3743.69,0.9365681931862485,1988.8105938717006
3744.5532,0.9356521628721209,1909.7571387670562
3745.4148,0.933835938563592,2096.6029016093353
3746.2786,0.9311933615113605,1765.4990821784331
3747.1404,0.9280273309724903,1965.7538470560412
3748.0044,0.9248733961982109,1949.8803708006094
3748.8667,0.9226123856850517,1908.0036519803139
3749.729,0.9223382934394594,2279.2938556905838
3750.5938,0.9249902312251902,2151.941070460159
3751.4565,0.9306917194884392,1891.544256258037
3752.3215,0.9384433712429281,1939.741453277356
3753.1848,0.946306246101952,2188.715287953478
3754.0503,0.9523491081702936,1860.6268656879718
3754.9138,0.9553626546600107,2127.2285711518643
3755.7776,0.9553015943030871,2080.164804505083
3756.6438,0.9529681098669025,1864.9659203789686
3757.508,0.9495546999153162,1941.897051635995
3758.3745,0.9461579277734652,1971.9941462852037
3759.239,0.9435424016935816,2029.0678882137452
3760.106,0.941905527421348,1870.9018099983302
3760.971,0.9409132594138979,1741.0501302235682
3761.8362,0.9399273895114394,1827.808047499904
3762.7036,0.938476126901622,1835.494709875627
3763.5693,0.9365915073713286,2191.846110861175
3764.437,0.93471920174196,2100.6088203683166
3765.3032,0.9333774952923402,1805.8559965382487
3766.1714,0.9328108230544172,2124.0838971146886
3767.0378,0.9329425758424289,1896.5095555310563
3767.9043,0.933476165090479,2120.7312437463524
3768.7732,0.934043706103824,1830.3917356344125
3769.6401,0.9343359090149831,1915.6940494964729
3770.5095,0.9342542968149823,2012.687111922704
3771.377,0.9339670775348156,1876.0343692594606
3772.2466,0.9337645367850814,2390.9417247180254
3773.1145,0.9337673996140107,1946.37511045661
3773.9824,0.9337702778377884,1741.3741250431199
3774.8528,0.9334569981375384,1960.6677367627303
3775.721,0.9328203808868331,1992.3333622283692
3776.5918,0.9323391806716758,2461.1643307811037
3777.4604,0.9327193051025727,2021.0270581011287
3778.3315,0.9344047610171012,2057.3216385205187
3779.201,0.9372617433369538,2340.9667155169236
3780.0703,0.9406791059800559,1774.528463072794
3780.942,0.9439588674880321,1696.953404186661
3781.8118,0.946708413944736,1921.7394722997503
3782.6838,0.9490034031961982,1963.0489408403892
3783.554,0.9510226293549017,1962.5267053808082
3784.4265,0.9526502839644361,2163.590574364888
3785.297,0.9533213282800848,1889.8276140788423
3786.168,0.9523776768347697,2063.6370676006504
3787.041,0.9494736625766114,1958.7012867359226
3787.912,0.9447885999991166,2017.4430676637394
3788.7856,0.9388488298687925,1707.373149735093
3789.6572,0.9324169558436208,2069.4776058885236
3790.531,0.9262340408863007,2005.0308568229368
3791.403,0.9209928980225854,1964.2189493105914
3792.2754,0.917063091720477,1807.6179386016745
3793.15,0.9144118279228033,1966.7150123760139
3794.0225,0.912647397899221,1990.203061379131
3794.8972,0.9112034090412149,2210.0350280390253
3795.7703,0.9096710272738581,2077.0949820450423
3796.6455,0.9079801288345827,2115.451236754368
3797.519,0.906464133416332,2188.022665192389
3798.3926,0.9056680423492018,2173.854712017513
3799.2686,0.9060540369074086,2222.498656620925
3800.1426,0.9077099935804112,2102.452379931551
3801.0188,0.9103085280890658,1989.5703845483583
3801.8933,0.9132781495503632,2040.266653506642
3802.77,0.9161022130679797,2156.4551841118655
3803.6448,0.9184352696123567,2067.8113955915114
3804.522,0.920240258098887,1987.7512865619872
3805.3972,0.921788707341138,2391.433722388813
3806.2727,0.9236095440288974,1706.2605368336083
3807.1504,0.9261973518592278,2151.9037262934576
3808.0261,0.9296783810818945,1869.4748403760336
3808.9043,0.9337881185241187,2226.212465476815
3809.7805,0.9380465716864765,1801.6636993791674
3810.659,0.9421276002306669,1995.8037543914438
3811.5356,0.9458143485470828,2099.091836527636
3812.4126,0.9488353219491377,1859.863214421377
3813.2917,0.9506779756106325,1658.3923581765584
3814.169,0.9508012420856484,1833.8460063613563
3815.0483,0.9491103703494789,1763.6071736963547
3815.926,0.9462108834056983,2000.6658812711585
3816.806,0.9431803960263084,1911.9262749699983
3817.684,0.9410915794096129,1781.9563662684463
3818.5623,0.9404904182759795,2275.6419893510974
3819.4429,0.9412332741724062,2025.5400548260757
3820.3215,0.9425972284819568,2135.3992759790704
3821.2024,0.943637631064232,1938.936630211098
3822.0815,0.9435593333328498,1862.6133968170418
3822.963,0.9419663304987574,2022.827622741127
3823.8423,0.9388377281057572,2031.5905246679754
3824.722,0.9342691548664299,1887.5877210436129
3825.604,0.9282803561931139,2095.8368976619727
3826.4841,0.9209669715072825,1897.8987773778492
3827.3665,0.9126554475781037,2076.0434646196713
3828.2468,0.9040981070570524,2162.7595748421845
3829.1296,0.895980341375178,2155.731788769047
3830.0105,0.8886001477386088,2112.613324123332
3830.8916,0.8815709888456846,2211.319577279791
3831.7751,0.8742209791396806,2399.534191449539
3832.6565,0.8661764024089417,2213.8638275252542
3833.5403,0.8575141463979548,2588.996895312307
3834.4224,0.8488473504386459,2384.875372651892
3835.3064,0.8409610998168343,2404.9749852740165
3836.1887,0.8348421010731821,2249.214431394533
3837.0713,0.8314753433282173,2681.393856960252
3837.956,0.8316727226262164,2870.111909026464
3838.839,0.8357077517254193,2197.591136758698
3839.7244,0.8432048503419386,2272.2051461451915
3840.6077,0.8532663079868406,2136.659197961523
3841.4932,0.8649274414472499,2296.05517819051
3842.377,0.8771856739184434,2180.1540965208746
3843.261,0.8892840130063313,2154.2537866888897
3844.1472,0.9007784696916888,2199.148737834765
3845.0315,0.9115622611399462,2609.6045510525873
3845.9182,0.9219091817485818,2402.2636955242046
3846.803,0.9318845280415753,2088.1871391232276
3847.69,0.9412481954607435,2139.160963724335
3848.5752,0.9493320671871548,2020.9607437050831
3849.4604,0.9555897088383191,1815.2526562110454
3850.3481,0.9599685099367157,2031.5403569339903
3851.234,0.963055946850082,1777.2014218804786
3852.122,0.9659017454058756,1758.6284084650633
3853.0083,0.969411120577954,1856.2462163677842
3853.8967,0.9739485623560878,1722.268283348656
3854.7832,0.9791923353122118,1708.382659325978
3855.6702,0.9844904233599184,1744.6237252650521
3856.559,0.9891787868850891,1660.3573842001533
3857.4463,0.9928000017540906,1727.6341560690155
3858.336,0.9952854666009813,1995.20007340281
3859.2234,0.9968891787920857,1791.3509044416062
3860.1135,0.9980692355476368,1754.2190916363131
3861.0015,0.999187279158087,1751.3893060392604
3861.8896,1.0003440367994978,1778.7745265581152
3862.7803,1.0013010546916614,1781.2738551171653
3863.6687,1.0015020263203442,1776.646394868054
3864.5598,1.0002590057913359,1554.026431953575
3865.4487,0.997129338911138,1586.681124015052
3866.34,0.9922555061222563,1735.98739801108
3867.2297,0.9864211760305027,1612.3741282265198
3868.1213,0.9804884710800513,1760.1926186348942
3869.0112,0.9749253046516575,1817.1674558576544
3869.9014,0.9695914643486246,1629.7968680351094
3870.7937,0.9641182333790858,1829.859715400333
3871.684,0.9583089841580614,2043.173973775187
3872.577,0.9520712979348239,1807.074967476343
3873.4678,0.9453276552896567,1830.3919114686
3874.361,0.9378128705856497,1749.2113665614738
3875.2524,0.9293806713305606,2136.891399246534
3876.1438,0.9200945178303721,2012.9986220847456
3877.0376,0.9102684343381185,2339.6085805470707
3877.9297,0.9003166698002588,2060.7974427505756
3878.8237,0.8903394868911846,2285.335075234478
3879.716,0.880254941297968,2365.111708851963
3880.6108,0.8698192320396593,2334.207324081451
3881.5037,0.8590041250985786,2313.306611593505
3882.3965,0.8478238183385799,2317.0419187006933
3883.2917,0.8362513121278524,2297.7737545313203
3884.185,0.8242160518206302,2458.3256530906997
3885.0808,0.8114738791946687,2967.6568319432113
3885.9746,0.7980587685661336,2430.9442586499595
3886.8706,0.78422966878706,2757.524643642724
3887.765,0.7707558133438596,2936.057735247767
3888.6592,0.7586001815451405,3081.3921274504205
3889.556,0.7488489724646021,3072.862113386745
3890.4507,0.7426017460665904,3538.4656799350973
3891.348,0.7405865322973754,3394.508494853499
3892.243,0.743033669727835,3517.138319304619
3893.1406,0.7495601319550478,3524.681968947083
3894.0361,0.759296736358806,3504.9034252774873
3894.932,0.7713185138469698,2790.520595559201
3895.83,0.7848617544231303,3147.2476118567774
3896.7263,0.7992453554266071,2964.8773991755693
3897.625,0.8140745251748097,2342.9710452002882
3898.5215,0.8289803759290142,2491.75277162925
3899.4207,0.843923511860517,2335.942052520594
3900.3176,0.8587250348102247,2532.590074648162
3901.2148,0.8731689929774816,2364.1372141247098
3902.1145,0.8869230720448,2240.9069055278237
3903.0122,0.8997409162958889,2232.178183363008
3903.912,0.9119236620715505,2182.8971259057944
3904.8103,0.9239808496147328,2106.2376903037593
3905.7107,0.9364602177912033,2108.7414009883787
3906.6094,0.9493613151092649,1694.525298379473
3907.508,0.9622728440505881,1662.1807095970958
3908.409,0.9745896417703617,1866.8811414759175
3909.308,0.9857720823211652,1789.6333511640519
3910.2097,0.9957190559928406,2089.3449526226796
3911.1091,1.0045867247780302,1766.6157779219352
3912.011,1.0129003579578406,1636.2468751701222
3912.9111,1.0211425566801933,1596.4238587715822
3913.8113,1.0295954780081134,1606.0144848685131
3914.7136,1.0381440902395151,1693.8704209451944
3915.6143,1.04632225874845,1695.5553816730753
3916.517,1.053688090951547,1511.024112538373
3917.4182,1.059932640650959,1442.8256969554009
3918.3215,1.065210150807511,1523.2346931894253
3919.223,1.0700863683676518,1492.5130994034457
3920.1245,1.075357424449201,1441.6343137803367
3921.0286,1.0814651633578334,1583.1530265899169
3921.9307,1.0880345542423544,1370.79091488881
3922.835,1.0941263388608102,1359.3284349781864
3923.7373,1.0987924633169839,1434.944442743847
3924.642,1.101824884267452,1412.3917953444677
3925.5452,1.1037512072082452,1670.405461811724
3926.448,1.1053611769860587,1642.746461077602
3927.3535,1.10702615274137,1489.3485535795453
3928.257,1.1084814318737979,1381.9503252888937
3929.1628,1.1092161999703223,1448.5317660207627
3930.0667,1.1089396979774555,1434.0366361305398
3930.9731,1.107727038498385,1423.5957322649442
