wavl,flux,ivar
3566.9744,15.646855816273712,13.379209259557188
3567.795,15.712568589582839,13.416147656855129
3568.6177,15.745218400287285,13.037049324134557
3569.4385,15.742093656082325,14.50798815851366
3570.2617,15.707096114724202,13.833257941890716
3571.083,15.650250406258296,11.93882595573354
3571.9065,15.58499231110829,12.330356329898201
3572.7283,15.524810848036715,14.212051531504105
3573.55,15.476992391016095,13.358875208903203
3574.374,15.439984692397838,14.298090610224556
3575.1963,15.405180440852297,14.317000852893779
3576.0208,15.362486755958502,14.058743429197678
3576.8435,15.307979049032678,13.213234556146189
3577.6682,15.245070076311503,14.686335425191043
3578.4915,15.180607822830256,15.912798062732959
3579.3145,15.117216332237422,15.746353750543573
3580.14,15.051813257208812,15.54574416568642
3580.9636,14.981144501304238,14.537715193774439
3581.7893,14.90648645081615,15.19418124228936
3582.6133,14.836156545225213,16.5435754731157
3583.4395,14.781217371969332,16.088923831617908
3584.264,14.75330086985598,16.09191669959597
3585.0884,14.761210102759545,15.41973336547234
3585.915,14.808418356397008,15.141760925399801
3586.74,14.888081630346276,17.349105535109654
3587.5671,14.982397783069205,14.554824618299468
3588.3923,15.0662453503846,14.688960705568956
3589.22,15.118574411861713,15.42807322187651
3590.0457,15.129124468839557,15.472315309224674
3590.8716,15.101065211088253,14.778940426593369
3591.6995,15.045554597658738,16.0277687299489
3592.526,14.976170071002613,15.934026215665991
3593.3542,14.903864568415214,16.254144334255102
3594.181,14.83655346463875,14.909537864747001
3595.0098,14.777576916625545,15.021538172639913
3595.8367,14.726899576972814,15.448453704222482
3596.6638,14.681261106209883,15.839265922369302
3597.4934,14.637578575581252,15.885263301488445
3598.3208,14.595554912668659,14.331519014852553
3599.1506,14.55582261742586,16.106978418966975
3599.9788,14.518039013679246,14.38769108967762
3600.8088,14.48030552321177,16.220138230595566
3601.6372,14.443799110201256,14.27747314669567
3602.4678,14.413846149573514,16.51257716651898
3603.2964,14.396344020820978,17.720437095923444
3604.1252,14.392476141355576,15.673181680959305
3604.9565,14.400976479009225,17.969122772065415
3605.786,14.424084201465623,17.794086517131216
3606.6172,14.469030065066153,18.534164339581945
3607.447,14.540556443077294,16.212237378835415
3608.2788,14.632993868627933,15.44667783781793
3609.109,14.726938534364749,15.744411433601588
3609.9392,14.797179860289921,15.85296499296328
3610.7717,14.823188886853195,12.928935599536501
3611.6023,14.798629175897428,14.063539697676937
3612.435,14.733581157912608,15.198115273918994
3613.266,14.648661840258658,16.13254772739245
3614.0994,14.563985763733637,15.720508837157094
3614.9307,14.492480418870784,15.59015910819994
3615.7625,14.435734161250151,16.45336604504001
3616.5962,14.387681938424272,17.07128632136734
3617.4282,14.340971805508937,17.444805223896488
3618.2625,14.292371359064365,16.582467927128295
3619.0947,14.24581520074009,18.258097860075164
3619.9292,14.208499373794428,16.57367217839189
3620.762,14.186298253012035,16.91797929402157
3621.595,14.179414067329553,16.515709936514014
3622.4302,14.182970063677866,16.46481828167979
3623.2634,14.19004327067581,17.10012591848857
3624.0989,14.195536299412373,17.190404026540016
3624.9326,14.198173961669289,17.188160184886673
3625.7686,14.199749301718297,16.01770308990208
3626.6028,14.201945801251227,17.230094946989716
3627.437,14.203299757425052,15.83083732847566
3628.2734,14.198320904921877,16.75980783119711
3629.1082,14.1794085262468,15.60288266607778
3629.945,14.14043391047423,17.13505391199362
3630.78,14.08143166444637,16.417611568642585
3631.6174,14.010227975261603,17.984168407310875
3632.453,13.941272794435017,18.998996370427328
3633.2883,13.887320176260602,17.877183902501017
3634.1262,13.853170319788758,16.530136277893604
3634.9622,13.834687267872017,16.788447467747194
3635.8005,13.823006110815626,18.00730205660005
3636.637,13.810868050804517,16.772278758231945
3637.4756,13.79499415774984,17.466264753383495
3638.3123,13.775654080095459,17.882813325626046
3639.1492,13.754448306045129,16.651740654899207
3639.9885,13.732987411239401,17.333191847755206
3640.826,13.712460578572388,16.06942359280634
3641.6653,13.693157524844436,18.647219913695842
3642.5032,13.675399524633475,17.03582031219942
3643.343,13.660199036760854,18.667643697312773
3644.1812,13.649552255036228,18.28486909853494
3645.0195,13.64435084221846,16.430517448493546
3645.86,13.642544672180088,17.25565842856922
3646.699,13.639509562970249,17.055541660636667
3647.5398,13.630428042569104,17.020493307206745
3648.379,13.61198820913642,18.34057073969708
3649.2202,13.582015189166697,18.33015286423119
3650.0596,13.540087419721285,19.514536795163732
3650.8994,13.488882623840642,19.115696655577036
3651.7412,13.435599302266608,19.722346710279783
3652.5813,13.390216935349898,19.281360454103933
3653.4236,13.359985217070552,15.420872887614438
3654.2642,13.346276586381038,19.713110553498794
3655.1067,13.34405549778679,21.876080862003413
3655.9475,13.346307955883567,18.675662692777095
3656.7886,13.349137635228184,20.531149880543573
3657.6318,13.353998097575747,19.489925216947682
3658.4734,13.365082996898199,17.292082205220957
3659.317,13.384374863642533,17.569705559749842
3660.1587,13.408128860787642,19.234331805650488
3661.003,13.428264450686497,18.2190116636892
3661.845,13.436552621519635,18.314801773807165
3662.6875,13.429738879710829,18.185133290669217
3663.532,13.410960386300975,18.823690492620255
3664.3748,13.38783670324551,20.1259541558733
3665.2197,13.367805793179524,19.73933731764507
3666.063,13.354925117750922,19.84360027184159
3666.9084,13.348839677164198,18.264814493411407
3667.752,13.346835673053748,18.14449218244018
3668.5977,13.345839893323614,18.61419426156846
3669.4417,13.343064681516829,19.727441889018927
3670.286,13.335513472674798,20.224225302654215
3671.132,13.32069525611074,18.295413762564696
3671.9768,13.299523292017193,19.27620893910886
3672.8235,13.278308819527094,18.91390513390886
3673.6685,13.267056921248678,21.315019023873077
3674.5156,13.27275313413091,18.79220532625177
3675.3608,13.293266886027821,19.158597259437006
3676.2063,13.317275212713968,20.587042940417902
3677.0542,13.331189070961814,19.415650632155767
3677.9,13.327585261978502,18.51936306259743
3678.748,13.308818903778235,20.31907705807164
3679.5945,13.283846270924073,20.856241250262357
3680.4429,13.262029646799208,19.233850531901137
3681.2896,13.248902913517766,19.35075480977
3682.1365,13.243906930285362,19.946781331896375
3682.9856,13.241330552514823,18.287288785395717
3683.8328,13.233913420405663,20.900151211439535
3684.6824,13.217916154264982,20.371429608812512
3685.53,13.19621560196916,20.488316803543103
3686.38,13.175988502855287,17.305725566293813
3687.2278,13.163958777560445,20.16593114467534
3688.0762,13.162451090617687,20.549724395661034
3688.9265,13.169940732569888,19.314485399388058
3689.7751,13.18339477532764,19.25266508814482
3690.626,13.200127653419694,19.23268903619918
3691.475,13.217430870554958,17.154403992148538
3692.3264,13.231833744706698,19.285983545989303
3693.1758,13.238371458383327,18.569882563945953
3694.0254,13.23198275518989,18.07700975281668
3694.8772,13.210107746233563,18.28131459654535
3695.7273,13.175795225487096,18.941405921541666
3696.5793,13.137201997910058,19.412214345857723
3697.43,13.104098433451284,18.61087060680732
3698.2825,13.082263473203552,19.682276671573533
3699.1333,13.071751849214273,19.13666927447359
3699.9841,13.068070113211874,21.066404968592376
3700.8374,13.06534994075038,20.141849549545036
3701.6887,13.058619066660013,20.062171852890035
3702.5425,13.04518952802,20.43701610485567
3703.3943,13.02569634676517,19.142951927726404
3704.2483,13.003407124578624,20.772009152466268
3705.1003,12.982443316581538,19.48912048304512
3705.9526,12.96490586427789,19.698007591967695
3706.8074,12.950127116930545,20.130084518066457
3707.66,12.93581809068451,19.865559850821512
3708.515,12.919461939460605,19.37261574702118
3709.3682,12.899463536137501,20.771586048604668
3710.2234,12.87470316939281,19.011535849525266
3711.0771,12.844724907658692,19.51836087166465
3711.9307,12.80969235418052,21.018843602806466
3712.7866,12.770625106307191,22.679052593512488
3713.6409,12.729320982565715,21.063326343846114
3714.4973,12.686725360604251,21.132876007117677
3715.3518,12.643440105682581,22.504630099386887
3716.2085,12.599959553954328,20.470079884002175
3717.0635,12.558744546159271,22.542783228982216
3717.9185,12.52323513954278,21.46590295254965
3718.776,12.496126033481175,22.171048475969567
3719.6313,12.477515524357777,20.881341644413286
3720.489,12.464212148899069,24.881976685775413
3721.345,12.451879636056411,22.037120107672507
3722.2031,12.437038715930967,19.79074037916211
3723.0593,12.418529826760997,21.60892191495651
3723.9158,12.396942524816739,21.605144693528395
3724.7747,12.37374139217555,22.137524187684967
3725.6316,12.350717425443044,21.199182014154985
3726.4905,12.328840672229445,22.623660519232676
3727.348,12.307778010454888,22.64400953654356
3728.2073,12.28541965870688,22.375028015442393
3729.065,12.259745406031156,24.170385548994858
3729.9229,12.230512979197162,22.179001648830237
3730.783,12.199821400191764,22.321783667449036
3731.6414,12.170858860942738,24.65593486554878
3732.5017,12.145719245209126,21.36908087775317
3733.3604,12.125330738312122,23.67472032955928
3734.2214,12.109237925888836,22.87348453443232
3735.0803,12.096215902351043,23.76139557557983
3735.9417,12.084509538666575,22.704692891873577
3736.8013,12.07342948307438,23.14148914804927
3737.661,12.064005699878164,24.299904643229603
3738.5227,12.057999696649826,25.111680008342994
3739.3828,12.055439490739206,22.61225908544168
3740.245,12.053080696374987,21.623723037574536
3741.1055,12.04574393138512,23.69361812542809
3741.9683,12.029308232130832,23.72312114680777
3742.829,12.003462379952579,21.974817136456267
3743.69,11.971709785722048,23.228785087761644
3744.5532,11.939384389413648,20.91257526110877
3745.4148,11.911197755089848,23.66790940561188
3746.2786,11.888879112818634,23.461429532436128
3747.1404,11.871608715093434,23.824123061302533
3748.0044,11.85703201576405,25.61681177659154
3748.8667,11.843561054910804,24.122438795146856
3749.729,11.83134238072839,26.460273646107836
3750.5938,11.822063348316581,22.456571669701926
3751.4565,11.817402525953195,24.155495194256897
3752.3215,11.817075517286519,25.13331412694131
3753.1848,11.818301552598914,23.234389022547944
3754.0503,11.816902643521443,25.03824852566281
3754.9138,11.80948733529716,24.87675159974276
3755.7776,11.795106451384177,22.75198012151267
3756.6438,11.775393585570852,22.411968531363847
3757.508,11.753677782652321,23.860557136927188
3758.3745,11.733043770590221,22.65191445854341
3759.239,11.715479988481457,25.162574114104064
3760.106,11.701165841378696,24.83116530810861
3760.971,11.689497843042869,27.223865567607998
3761.8362,11.679793145080934,27.02981856010942
3762.7036,11.671607287370676,24.475415822636844
3763.5693,11.66409032969783,25.91312430709866
3764.437,11.655505530561012,24.225130662396072
3765.3032,11.644087713720044,25.573048969046475
3766.1714,11.628961746595582,24.87878913314686
3767.0378,11.610735166497003,24.997111620671674
3767.9043,11.590928602245212,24.654699172641642
3768.7732,11.571325353516334,26.47126850191638
3769.6401,11.553350408116863,25.95500082520139
3770.5095,11.537227018256,25.43673951429792
3771.377,11.522779049229886,25.646469509814228
3772.2466,11.510257112914946,22.592239791963973
3773.1145,11.500989553099844,27.265897900128486
3773.9824,11.495835614063827,25.66783251500214
3774.8528,11.493586975839396,26.316244202110838
3775.721,11.491227614609883,25.61064692667308
3776.5918,11.486556138416375,26.30707115032858
3777.4604,11.480880641381004,24.563589577800396
3778.3315,11.478650049565267,25.613760901766398
3779.201,11.484144585761557,24.518090686650865
3780.0703,11.497761830431646,25.063455123174933
3780.942,11.515466355256535,23.813424455936545
3781.8118,11.531648832982125,25.348505958330136
3782.6838,11.543399761120732,28.258025746576678
3783.554,11.551319527076886,24.30553194878643
3784.4265,11.556624129178068,26.676920569285894
3785.297,11.556931373224579,28.300300066682507
3786.168,11.546238069420504,23.311654597287152
3787.041,11.519356211582638,27.984082256570012
3787.912,11.47682323420677,25.404061731814423
3788.7856,11.424151064033737,25.629359800174743
3789.6572,11.368247626186827,26.625480647343164
3790.531,11.312643474947723,26.64769470688854
3791.403,11.258273677344738,26.72161747742319
3792.2754,11.204846683938777,25.29659817648941
3793.15,11.153243060443874,28.262227557375407
3794.0225,11.106123753236407,25.373153278154913
3794.8972,11.065973742217698,28.86367695656485
3795.7703,11.034647098446191,28.35775143876737
3796.6455,11.012020063801982,27.598158360414036
3797.519,10.996802337832504,27.576254138225988
3798.3926,10.987124015901282,28.209581870562516
3799.2686,10.982010158738394,29.281944841030693
3800.1426,10.982133852916387,28.23032872562566
3801.0188,10.989351556151988,27.006851232969858
3801.8933,11.005254017662422,28.4258639833464
3802.77,11.02968943173872,26.943155489248607
3803.6448,11.05965693728568,28.70936768197434
3804.522,11.090414301940312,27.690769688849336
3805.3972,11.117044410555039,25.26172608994964
3806.2727,11.137375994096105,25.479541134292848
3807.1504,11.1526955712928,27.496759138212298
3808.0261,11.166820768888392,26.637390207601065
3808.9043,11.185135036416371,24.958082484905933
3809.7805,11.214405736272845,28.243539020890367
3810.659,11.263580113913592,26.795804699990438
3811.5356,11.339659926150379,27.32220104561581
3812.4126,11.43938311949831,26.70778010191545
3813.2917,11.541278161096306,27.415168486777013
3814.169,11.609641168414033,25.879184743429082
3815.0483,11.615653843734856,26.17783969328713
3815.926,11.55593732701571,27.230759912333298
3816.806,11.45395158034409,28.920679317919834
3817.684,11.343213875231113,26.31279643869936
3818.5623,11.246388405090457,26.007461228357947
3819.4429,11.169162624603056,28.16121667105783
3820.3215,11.106510057923826,28.578544855629435
3821.2024,11.050278120013363,29.05998245756166
3822.0815,10.995614752670459,26.888079654301194
3822.963,10.94020850133515,27.597057539081927
3823.8423,10.883240013311259,26.715896049512423
3824.722,10.822975950607129,30.48296109212683
3825.604,10.757454486637844,30.41041926268581
3826.4841,10.686207371723016,27.710829710134647
3827.3665,10.60952745258781,29.150954554867106
3828.2468,10.529044056354389,31.238908797988742
3829.1296,10.445274767451386,30.525095253863174
3830.0105,10.359019382991361,30.552933232749456
3830.8916,10.270541579810363,30.747452257682387
3831.7751,10.180838867173172,33.173581529232
3832.6565,10.092589146120446,35.21332111860647
3833.5403,10.00856568351972,33.0946193501152
3834.4224,9.933555000900371,32.2001491023453
3835.3064,9.872616366584838,35.948840604281536
3836.1887,9.831151292543662,35.577020770514565
3837.0713,9.812307543679667,34.70268627171541
3837.956,9.817057225201113,33.47861606780866
3838.839,9.84507832587199,33.51710478212587
3839.7244,9.896039461693737,35.82901122994248
3840.6077,9.968207080545367,31.309877552367116
3841.4932,10.05739333152801,33.51244950592095
3842.377,10.155484894747069,35.05339967079445
3843.261,10.254467326050355,33.861133010258776
3844.1472,10.349273767987668,31.157266280406567
3845.0315,10.438281911818803,32.169316665405496
3845.9182,10.523188112920261,30.01164409348054
3846.803,10.604594835638729,28.822472201231193
3847.69,10.682095830090294,28.122216664583544
3848.5752,10.753094025800166,29.448290233331313
3849.4604,10.815763005259596,28.07861061318885
3850.3481,10.870090970849537,28.63528167265176
3851.234,10.917379651535251,28.687989165602627
3852.122,10.959461662155299,28.646069198084547
3853.0083,10.99615188015404,28.071358152866082
3853.8967,11.026139466313344,28.596718867965194
3854.7832,11.047839885841965,28.567924197977167
3855.6702,11.06150284043413,26.172127540886514
3856.559,11.069337404723099,28.19730146242786
3857.4463,11.074671782931851,25.454582178902474
3858.336,11.080477570472727,26.278130727212222
3859.2234,11.08801894893313,26.719179979725983
3860.1135,11.096787567866395,27.179901790843676
3861.0015,11.104992120771787,29.21778024853422
3861.8896,11.110451092127613,29.57800344168009
3862.7803,11.110742056623558,26.88737341013674
3863.6687,11.103097338441092,28.694370487273744
3864.5598,11.08429726867634,26.899518016899343
3865.4487,11.051416926909162,28.043943064032216
3866.34,11.002661847079679,27.068334566669197
3867.2297,10.939477218278988,26.699988002201206
3868.1213,10.866044795604635,27.694620606734247
3869.0112,10.788557389085266,31.19786521674251
3869.9014,10.711186530596011,30.177695734688733
3870.7937,10.634594155635874,27.79711346669677
3871.684,10.557115904556342,29.507772966969096
3872.577,10.475732218957324,29.888617842717096
3873.4678,10.389230906567013,30.308686264635647
3874.361,10.296694889844419,32.50344518525588
3875.2524,10.198636934583465,32.37444535974968
3876.1438,10.095188221921033,36.11273251915306
3877.0376,9.986723375328427,34.64985302952558
3877.9297,9.874778870083842,36.30908438511979
3878.8237,9.75996899509182,33.93392522684493
3879.716,9.643302212964064,36.21332182826908
3880.6108,9.523736739578686,34.211931693922125
3881.5037,9.400215778966123,36.1294312047992
3882.3965,9.27020281234894,37.41296167459604
3883.2917,9.131539047133582,39.59794691079106
3884.185,8.985094027292,40.14579018353144
3885.0808,8.833321592710156,40.53170204348645
3885.9746,8.683033659950274,45.52041714260201
3886.8706,8.541576902434944,45.933507237295245
3887.765,8.418617228758915,45.94352851858007
3888.6592,8.323461915476711,46.54033215861972
3889.556,8.265354937768697,51.58117207329893
3890.4507,8.251542520632537,55.65027409447424
3891.348,8.283500951140507,51.12971435461801
3892.243,8.35564323829305,50.43249888863578
3893.1406,8.457615573255259,45.778812685828306
3894.0361,8.576739084831486,44.20703020961105
3894.932,8.703402383818087,44.80190604715337
3895.83,8.83217175863314,49.46682117466576
3896.7263,8.960859582355129,39.8693333634449
3897.625,9.091594107163617,46.1925008148542
3898.5215,9.226317863369376,40.18644010901597
3899.4207,9.367466342464388,38.08099514971827
3900.3176,9.51354488844527,37.03806475742109
3901.2148,9.661174055036774,36.46744646620135
3902.1145,9.804576072585046,35.05333806685915
3903.0122,9.936982539024866,35.97010786318329
3903.912,10.056429954477052,36.0316167007255
3904.8103,10.16503707962624,32.14814486459846
3905.7107,10.269072384043096,32.984141977635225
3906.6094,10.372763916632026,31.135038808001767
3907.508,10.477387794063077,32.51588024635083
3908.409,10.581576781431862,31.218222855069513
3909.308,10.682863333750387,29.23789781015492
3910.2097,10.780583924243215,29.42279857215352
3911.1091,10.87400453942874,27.948794774474486
3912.011,10.963882685170857,26.895206400241744
3912.9111,11.050079861997082,30.076209727158165
3913.8113,11.132407849493513,27.985383198049593
3914.7136,11.209772350037525,25.068509250616515
3915.6143,11.280168501873609,27.100735674572455
3916.517,11.342640738537765,25.627591192936762
3917.4182,11.396337037894325,24.76164389189521
3918.3215,11.441414703018962,24.829304521499537
3919.223,11.478155402041317,25.023723211463803
3920.1245,11.50788087862928,26.077878248342724
3921.0286,11.532103243459177,26.0164426994852
3921.9307,11.551555673869752,26.433096614956515
3922.835,11.566566189012503,24.58149103139127
3923.7373,11.57794987160236,23.50242394847625
3924.642,11.588192879674066,23.429162351043065
3925.5452,11.600017596298775,26.752362713278547
3926.448,11.614200864864875,24.016885020735142
3927.3535,11.628994271885476,24.616483631729118
3928.257,11.642321267672857,23.713841969018787
3929.1628,11.654624263789623,26.33015520048318
3930.0667,11.667885261503375,23.11117872802953
3930.9731,11.682030830456144,24.669021310906633
3931.8774,11.691992480003837,25.51740673489338
3932.782,11.690084857023615,25.63090845716268
