wavl,flux,ivar
3566.9744,15.016228884909898,125.60216250112093
3567.795,15.005457256238824,125.50371381021718
3568.6177,14.989523648926774,123.96460014426512
3569.4385,14.966722466933808,122.99051308533316
3570.2617,14.936865909603794,125.5421507168839
3571.083,14.903105445393502,126.70716646218897
3571.9065,14.871422815934542,129.19839895283488
3572.7283,14.848844039280573,122.93042769973036
3573.55,14.839185933270647,124.63195390384803
3574.374,14.841216302610336,122.99428195561275
3575.1963,14.849579043839325,126.91406347757903
3576.0208,14.858110006855792,129.54339242395938
3576.8435,14.862816813707854,127.41560987472351
3577.6682,14.863188908090985,125.95205268307566
3578.4915,14.861386722470376,124.53690325204015
3579.3145,14.860426909027415,124.00801064430483
3580.14,14.861960137750735,128.8325211709062
3580.9636,14.864482938200386,124.06938753043424
3581.7893,14.863366255228366,121.10035086282134
3582.6133,14.853451236775324,124.32616192975668
3583.4395,14.83277198734104,125.5008322412978
3584.264,14.804730464553193,129.04325362558654
3585.0884,14.776039356006443,126.78379215003069
3585.915,14.752499426383944,129.5909502228116
3586.74,14.735603273684019,122.15844266020311
3587.5671,14.721967012743162,126.33774524437452
3588.3923,14.70688824745668,128.53027921448552
3589.22,14.68792257857456,135.89115532312562
3590.0457,14.666628138428191,127.60947815891907
3590.8716,14.646249218402916,131.16841227192944
3591.6995,14.628704842160097,130.80554563027113
3592.526,14.613284254192587,127.80551698162719
3593.3542,14.597557855433312,126.82841735437907
3594.181,14.579597435913875,128.43092408150065
3595.0098,14.55845289955761,129.5372825272637
3595.8367,14.534057108089353,127.39591467162809
3596.6638,14.506453624823791,131.65210025644043
3597.4934,14.47635519953644,130.54056464384837
3598.3208,14.44623607629047,138.86210304453476
3599.1506,14.419705655635951,131.92646208614514
3599.9788,14.40055737402165,134.00996918480502
3600.8088,14.390024011017426,126.08076413354425
3601.6372,14.386065915506043,134.51205307604977
3602.4678,14.384319063414464,132.33905006957278
3603.2964,14.380772090209357,131.20013885073195
3604.1252,14.37387808762905,134.5395176190531
3604.9565,14.365005782651004,132.19311983060422
3605.786,14.357282918016631,131.11193989398254
3606.6172,14.353379914082414,130.32794197154374
3607.447,14.353952495306878,135.26336870720894
3608.2788,14.357110333093445,138.6636888891129
3609.109,14.359351745384384,130.50447275032045
3609.9392,14.357318956031568,138.40398597687476
3610.7717,14.349111257649417,140.81222195025137
3611.6023,14.334632345116338,132.10632988751263
3612.435,14.31481064103673,133.02730811666436
3613.266,14.291233954865653,138.8255178679024
3614.0994,14.265398755996697,135.4366163340538
3614.9307,14.23885185241094,135.79568927465738
3615.7625,14.212664644284558,134.92104900250783
3616.5962,14.187921736140215,135.82221270479224
3617.4282,14.166013235811564,136.07325357079657
3618.2625,14.14791584399012,135.7427526863298
3619.0947,14.134032221025642,134.9336630465037
3619.9292,14.123862362853718,135.0580645958679
3620.762,14.116869704711624,133.46591048072747
3621.595,14.112595689018288,136.99529374463296
3622.4302,14.110380391864414,134.56453942898636
3623.2634,14.108889215080188,132.74550403568813
3624.0989,14.106266242848491,142.60535554755384
3624.9326,14.101041518445259,138.22006062222647
3625.7686,14.093032088208796,139.45373719652406
3626.6028,14.08372026001748,138.4545223380204
3627.437,14.075175964294571,138.34327006669977
3628.2734,14.068376395860414,138.80639809197507
3629.1082,14.062246312234437,135.41365810820324
3629.945,14.054231429832605,135.6333457299782
3630.78,14.042051385169588,134.6647293489036
3631.6174,14.024442988681114,136.4040403833693
3632.453,14.001203427493294,137.03436110082566
3633.2883,13.972388510338066,131.97752352949334
3634.1262,13.938363599974112,136.98973009608682
3634.9622,13.900594613769497,140.4027807739877
3635.8005,13.861312462681942,140.03843235084315
3636.637,13.824082417763282,137.19645261274826
3637.4756,13.79229860460198,136.49448176230115
3638.3123,13.768908007199254,140.12485078108992
3639.1492,13.755118485151387,138.1012816866151
3639.9885,13.750680762028624,140.1016461701186
3640.826,13.754133347936133,137.0687869660454
3641.6653,13.76285876779454,142.3120026076994
3642.5032,13.772916483527723,142.33903754697351
3643.343,13.77958297185306,137.32654153698795
3644.1812,13.778890279932737,142.53201039541912
3645.0195,13.769858255289286,141.6219864037771
3645.86,13.75526042545564,140.45688605810915
3646.699,13.74036849982788,136.6279006245447
3647.5398,13.729716772532248,140.80357560460374
3648.379,13.724800135456244,139.5378177445265
3649.2202,13.723554207417905,137.78951919191115
3650.0596,13.722247318627701,142.72893227550188
3650.8994,13.717888621657917,140.41873345785925
3651.7412,13.709841465122352,140.97878648894294
3652.5813,13.70004847850005,140.37663753835366
3653.4236,13.69164847708705,144.60784027812323
3654.2642,13.687095237042989,139.8221450301685
3655.1067,13.68645317014956,140.44060491953982
3655.9475,13.68743352300591,138.9182720954158
3656.7886,13.686749620796684,143.14945694766524
3657.6318,13.681902181395234,141.0547269916813
3658.4734,13.672570661285752,147.78660974892287
3659.317,13.660849772091028,141.35844275156603
3660.1587,13.650335912919884,134.18306618344647
3661.003,13.643979231053956,144.29153741255251
3661.845,13.64284999014268,141.5290899507032
3662.6875,13.646267213322785,140.67833791359928
3663.532,13.65309266972773,142.48590295502655
3664.3748,13.662145331115134,141.42766347396673
3665.2197,13.671681720703628,140.65598714518651
3666.063,13.678683413101036,141.2714650693138
3666.9084,13.679751504965866,137.26806450388048
3667.752,13.672765016852,143.68021580465785
3668.5977,13.658126456158517,143.16942833161488
3669.4417,13.638533761204245,141.74550285104482
3670.286,13.61709415686216,143.4143215356343
3671.132,13.595608632349698,148.11862357112585
3671.9768,13.574012167293708,146.4335658250299
3672.8235,13.550902072675775,145.81270070787124
3673.6685,13.52568832265963,151.3912283868082
3674.5156,13.499575601199062,145.12187045659124
3675.3608,13.475873056899074,144.6682839292123
3676.2063,13.45785494346631,147.46583852076412
3677.0542,13.446963860868049,147.44391499914644
3677.9,13.442014799767623,143.08440230168853
3678.748,13.44015013546527,145.65260746142363
3679.5945,13.439199857326109,149.66677999362443
3680.4429,13.43905822364641,147.95443387749322
3681.2896,13.441133781980662,145.49006384499765
3682.1365,13.446309277967687,145.8534023124177
3682.9856,13.453291737586415,147.50585304870194
3683.8328,13.458620023678517,147.15704313797173
3684.6824,13.458484078154138,149.06800594256418
3685.53,13.450724767441345,151.23384925924842
3686.38,13.436008385004783,145.90386243481228
3687.2278,13.41781433566151,141.74198985703254
3688.0762,13.400845568761842,143.12492918206976
3688.9265,13.389144712356968,143.88551536601972
3689.7751,13.384420387066498,139.66026552609134
3690.626,13.385536521268499,152.04501580714256
3691.475,13.389634274574927,142.4159799960513
3692.3264,13.393532056340556,148.92875948384594
3693.1758,13.394458265054267,147.9254889638094
3694.0254,13.390254136536305,150.40966349264076
3694.8772,13.37946154905156,153.57480217617925
3695.7273,13.361969013054411,150.95181329460976
3696.5793,13.339267362799736,147.63179052519516
3697.43,13.314437933333146,146.54813355929699
3698.2825,13.290656586007318,144.95501296308083
3699.1333,13.27019005811936,153.9580733610411
3699.9841,13.253259526847822,155.78379572629876
3700.8374,13.23831178165175,151.785478609425
3701.6887,13.222913841582368,149.2849563729128
3702.5425,13.204677182975326,151.2349115117458
3703.3943,13.182878220593645,145.24001544130783
3704.2483,13.158755904351445,153.01535718563161
3705.1003,13.135315253138453,149.54332560756987
3705.9526,13.115213820479102,153.84255370719114
3706.8074,13.099410472390591,154.6738760372065
3707.66,13.087119064691889,154.60985260443528
3708.515,13.07683276729261,151.80972776980917
3709.3682,13.068035677989448,154.47833000335442
3710.2234,13.061285597262593,151.7324519706131
3711.0771,13.05751448856998,153.54645868321379
3711.9307,13.056911929795513,152.5397749413221
3712.7866,13.05858506106184,152.07441656298423
3713.6409,13.060683590997153,158.0623057589371
3714.4973,13.060872506330384,153.35424721309786
3715.3518,13.057075302121648,153.18235940882894
3716.2085,13.048444214102267,150.2188240911764
3717.0635,13.036069750393011,150.51824558202438
3717.9185,13.022452788772723,154.7649775461461
3718.776,13.010130646019974,153.8327128524638
3719.6313,13.000400956457465,154.09852751373649
3720.489,12.992878440038552,153.64069534695267
3721.345,12.986839750044526,155.88013634922177
3722.2031,12.982374338244407,154.45684499510767
3723.0593,12.980327839985085,155.67865569306582
3723.9158,12.980524844033235,158.02283014970274
3724.7747,12.980493177758225,154.20183976644455
3725.6316,12.976278018265356,154.52709529371057
3726.4905,12.964909179238887,152.91070515851604
3727.348,12.946331439294992,155.61897717932592
3728.2073,12.92280953159569,155.95328284784821
3729.065,12.897195116484474,153.10750658175866
3729.9229,12.87099985682599,158.00030164908503
3730.783,12.844627209476469,159.67190045197512
3731.6414,12.818815144168344,163.18221220034337
3732.5017,12.79514527402752,156.11671382003212
3733.3604,12.77614451481433,158.70761961609765
3734.2214,12.763693966591083,162.11682699140277
3735.0803,12.758224218979928,164.308693255003
3735.9417,12.75798435510057,156.62332585957466
3736.8013,12.759464646936122,163.12464073062614
3737.661,12.758436393737906,157.90188366294532
3738.5227,12.751736692353958,158.62725432552637
3739.3828,12.739077952586237,160.74467021878644
3740.245,12.723321968082603,158.87302921745123
3741.1055,12.70908109122781,157.21490354706557
3741.9683,12.699691531400811,160.0524315790135
3742.829,12.695347089411197,160.90941363961846
3743.69,12.69290526233393,156.5796502901956
3744.5532,12.688133251893456,155.1933221378282
3745.4148,12.678574593140418,162.36720512159337
3746.2786,12.664964976667012,154.97325445784483
3747.1404,12.65050951922868,161.0110722923082
3748.0044,12.638210418063013,164.9321741594153
3748.8667,12.629175241223423,156.9660764877939
3749.729,12.622499839846483,161.3922806635387
3750.5938,12.61717365507514,159.30486737168542
3751.4565,12.61380655737355,162.56029039840112
3752.3215,12.61443900404733,161.2692601925475
3753.1848,12.620694058551305,157.07343174909192
3754.0503,12.631847450237332,161.4585004902574
3754.9138,12.644426585104492,161.75484845887416
3755.7776,12.653911394415855,159.22648040209765
3756.6438,12.656735849349033,161.00198658546887
3757.508,12.651640184895607,160.2543103952854
3758.3745,12.639862210126553,161.15364061129878
3759.239,12.62466146802441,163.2052759359217
3760.106,12.610099165900722,162.46868715580828
3760.971,12.599609195961765,164.3028583694362
3761.8362,12.593756749694068,163.79029003208805
3762.7036,12.58961912881129,160.05078106886396
3763.5693,12.582345073151751,159.16292279900756
3764.437,12.568008265807537,164.29714338752507
3765.3032,12.545671623491039,164.05255631549443
3766.1714,12.516864882517638,169.1895782072317
3767.0378,12.48451939286954,164.34540947736468
3767.9043,12.451720989459604,168.35540552540678
3768.7732,12.421906004330376,164.67569385458546
3769.6401,12.399082166718683,171.0400671941823
3770.5095,12.386346779148356,164.7997081397237
3771.377,12.384772613995759,167.53575612241926
3772.2466,12.392398098240593,165.66818524256436
3773.1145,12.405278862912052,167.70349130035086
3773.9824,12.419834729000945,162.91350019670767
3774.8528,12.434818607004472,165.240941089357
3775.721,12.451287743377808,161.92446082478264
3776.5918,12.471075434384337,164.14910496957305
3777.4604,12.49417594442437,166.46719902108862
3778.3315,12.51850258316368,166.0824611638792
3779.201,12.540828465432712,161.2345495028055
3780.0703,12.559308675213005,162.14303619526493
3780.942,12.574249929532233,161.72894989818616
3781.8118,12.587145516144798,161.121526305243
3782.6838,12.599062779268902,157.74426679432338
3783.554,12.608958069972543,162.37995194219204
3784.4265,12.6137658400636,160.9753363185036
3785.297,12.609665555477616,160.92544951678624
3786.168,12.594516457362204,163.91403430638155
3787.041,12.56926901082348,165.34058740666413
3787.912,12.53750341281417,165.39665051124064
3788.7856,12.502376000271802,167.69768940127557
3789.6572,12.465160053465134,165.51350062084737
3790.531,12.424728130368239,169.83500073212645
3791.403,12.37989972649574,164.78717557516433
3792.2754,12.330011852869243,169.4863309680738
3793.15,12.275183890987273,172.14437599245085
3794.0225,12.216438720662204,171.51957763610076
3794.8972,12.154996719709198,172.20187031082943
3795.7703,12.094044021618183,177.22726890397746
3796.6455,12.038073782260941,181.65550144156387
3797.519,11.993408100452319,178.80240426198782
3798.3926,11.965683102965738,182.21766413928708
3799.2686,11.958339166981707,181.28541137385
3800.1426,11.971393528504905,184.18527157245992
3801.0188,12.001943604756308,175.3063683780396
3801.8933,12.045627334234243,175.5438370823911
3802.77,12.098479926680335,170.77455525160812
3803.6448,12.156747108455829,175.6398561817812
3804.522,12.218191281118894,170.68920838715303
3805.3972,12.281261835013842,175.51697354468564
3806.2727,12.345739383632912,163.59431454607804
3807.1504,12.410890222025742,171.43776247269355
3808.0261,12.473806202484406,163.80062343005335
3808.9043,12.530855659834248,160.52128741043916
3809.7805,12.578341383184627,157.5603536095516
3810.659,12.615212683677184,160.84828807550306
3811.5356,12.642109620306021,162.04107169755792
3812.4126,12.660617312006615,164.73924513560215
3813.2917,12.67172601659768,160.50304953224747
3814.169,12.675726583569148,160.77902781609194
3815.0483,12.672934384105332,163.3062690927032
3815.926,12.664006227782968,161.17314345706717
3816.806,12.649677853723794,156.8039259108962
3817.684,12.630298145484806,159.19525193385354
3818.5623,12.605229316619186,161.4204375254292
3819.4429,12.57310478083285,159.40649235875125
3820.3215,12.53300568409278,164.52330376292926
3821.2024,12.48471892519267,166.7548903470358
3822.0815,12.429708576050965,162.2818361773159
3822.963,12.369661280370508,165.38764143870503
3823.8423,12.306363577821989,170.9701242701383
3824.722,12.239753361080867,170.59190256795782
3825.604,12.168055221235662,175.72348830052292
3826.4841,12.089229103846764,172.91203653707194
3827.3665,12.001361124468923,173.93183836192654
3828.2468,11.905407383512406,181.2645738904222
3829.1296,11.803168003590654,183.44708289740183
3830.0105,11.69755046036424,185.0145146860499
3830.8916,11.589610931339447,188.102095678313
3831.7751,11.479695500845756,194.4884444171619
3832.6565,11.369967747523244,205.24773610870588
3833.5403,11.263966839778966,202.90580256369202
3834.4224,11.169228216436801,208.96701556902326
3835.3064,11.094357166724857,214.3300298821552
3836.1887,11.048614706919619,212.2921128437834
3837.0713,11.03851976293885,217.2489710713127
3837.956,11.066879838842638,209.1993247447731
3838.839,11.131537734891376,203.8291657441798
3839.7244,11.226569606859853,201.41533247322207
3840.6077,11.342797868905112,195.9167791620518
3841.4932,11.471441886388115,193.63626685406882
3842.377,11.603787879134432,188.19416095332735
3843.261,11.734482148679495,180.83508424036154
3844.1472,11.861343798600442,179.75437450237536
3845.0315,11.983854819077946,173.99865590100498
3845.9182,12.103372867142205,172.9056855215651
3846.803,12.218924165502111,169.7260486178428
3847.69,12.329190983831435,164.29392392757808
3848.5752,12.43157808343616,161.98809903060314
3849.4604,12.525475412301038,161.65572098429882
3850.3481,12.611979922882982,159.88991639894257
3851.234,12.69229609569137,152.75234127467462
3852.122,12.767917984475208,151.36697812411975
3853.0083,12.838464411694657,155.93095395289464
3853.8967,12.903535503872058,155.1117971392429
3854.7832,12.9619603727322,149.07755514862512
3855.6702,13.013010267754346,148.24470157896093
3856.559,13.055533557278581,148.86266040904454
3857.4463,13.088002443975663,146.56211233838044
3858.336,13.109920158967803,146.07216157369368
3859.2234,13.122076551082422,146.9893735864459
3860.1135,13.126856212201197,146.20072260270425
3861.0015,13.126854687248986,145.72095780493623
3861.8896,13.12366444468706,147.43737608717797
3862.7803,13.116856184305915,146.88467123381633
3863.6687,13.10411208498786,149.18601678885312
3864.5598,13.08235682717657,148.34225718908965
3865.4487,13.050059572029888,146.1952769049389
3866.34,13.007880490514237,152.79519894741887
3867.2297,12.958476964213945,153.75709168335624
3868.1213,12.903668861386748,151.2329045990814
3869.0112,12.843821668314622,151.04728549634632
3869.9014,12.777426888780143,150.75591450932396
3870.7937,12.702786715636421,155.58706711029797
3871.684,12.61960894569645,160.23774689841642
3872.577,12.527719429184183,163.68619926600726
3873.4678,12.428076491641717,165.31101820353902
3874.361,12.320455231993012,164.61136632313014
3875.2524,12.205391598818782,176.63063608822625
3876.1438,12.082894420901601,172.7506842034149
3877.0376,11.953557497371238,182.85300496000863
3877.9297,11.819390690345703,177.14179107693093
3878.8237,11.680592687507604,185.7692144702751
3879.716,11.536864665495369,188.23429119251662
3880.6108,11.385367365450968,196.04927169393503
3881.5037,11.22480242858423,203.37295641235204
3882.3965,11.054228908597567,206.52085693322607
3883.2917,10.874276025623477,218.73737541782066
3884.185,10.688303614243694,223.37006779512575
3885.0808,10.498758343908303,229.26989837006863
3885.9746,10.310608817554172,246.37588985968245
3886.8706,10.128085270983773,260.9903850004917
3887.765,9.959327476664383,258.0664964829519
3888.6592,9.815046538496485,264.1836153184897
3889.556,9.709748336018311,286.00977784479517
3890.4507,9.659093366179182,289.0396601234085
3891.348,9.672724053298664,283.995033533966
3892.243,9.750723028747117,269.62472502831156
3893.1406,9.883686865664945,263.4939154860738
3894.0361,10.054823442638535,245.36307301741485
3894.932,10.247585096548155,246.3785681832882
3895.83,10.449387144558589,231.7845671703673
3896.7263,10.651815432441193,220.81610256627152
3897.625,10.852903833203708,214.5990404359881
3898.5215,11.050345999708787,203.8664186430661
3899.4207,11.24374668803333,199.32816913294326
3900.3176,11.430606621168211,192.6869351829366
3901.2148,11.611232621389213,187.14506814457377
3902.1145,11.787467076354881,182.89086117105347
3903.0122,11.960581208648355,170.06905220142733
3903.912,12.132775447401416,169.91896149693963
3904.8103,12.30313276960253,165.56000830045218
3905.7107,12.470964664629403,159.88221367671682
3906.6094,12.633915123110908,159.1680652645457
3907.508,12.791348407642811,151.43471437896187
3908.409,12.943355522384838,147.6431332766068
3909.308,13.08908280372163,150.52071042793284
3910.2097,13.228602878549127,145.05427121817573
3911.1091,13.360217685567898,141.05573245476432
3912.011,13.483528098337105,139.6628538441303
3912.9111,13.59709252217197,134.56165709963688
3913.8113,13.700816825752767,138.05799614617
3914.7136,13.795418680140491,131.98793305922217
3915.6143,13.881818079457833,131.01538932856926
3916.517,13.962066360492743,129.51984750836678
3917.4182,14.037119166364656,126.96451900024037
3918.3215,14.10773933691779,126.57991730803657
3919.223,14.173116325985651,124.70822321364948
3920.1245,14.232443565213067,123.34057740755205
3921.0286,14.285160248350664,122.18043797135537
3921.9307,14.331363003813596,122.38563212591309
3922.835,14.372665634324761,122.64756724937375
3923.7373,14.41037079315443,119.32821774399252
3924.642,14.444997802655529,119.77068119040507
3925.5452,14.475068407907235,117.39169108166507
3926.448,14.498417044236508,117.91926106579213
3927.3535,14.513338123904783,119.15003874628891
3928.257,14.519444808219621,122.19246546097945
3929.1628,14.517780712218023,122.95015965208111
3930.0667,14.509691114435315,120.91872129671864
3930.9731,14.495768188553114,120.43996473910845
