wavl,flux,ivar
3566.9744,5.342037520693541,3.270700241186563
3567.795,5.3165577840506515,4.616927525642624
3568.6177,5.285082847245034,5.582274783871795
3569.4385,5.254868873687243,3.8642459588979077
3570.2617,5.230956424954937,6.540133810435525
3571.083,5.2148627819114,5.8165782867523
3571.9065,5.204436400160508,4.767475032006975
3572.7283,5.195887122747436,5.542995283092072
3573.55,5.185287217573233,4.756535198868628
3574.374,5.170228955116474,4.781707288417692
3575.1963,5.1514199221311925,6.22654504923403
3576.0208,5.1323783339129,8.135654376138675
3576.8435,5.117223572174688,5.17435281171415
3577.6682,5.107236897008201,4.639534858034454
3578.4915,5.100619361365075,4.718115108920553
3579.3145,5.094802356405451,4.256401763934472
3580.14,5.0889810339737025,4.731427980362693
3580.9636,5.084133342603634,3.933552217325102
3581.7893,5.081200383749582,7.296995676773926
3582.6133,5.0802612695346125,5.2086632349388475
3583.4395,5.081406895137687,5.910045463384532
3584.264,5.085998370136738,5.5195629889973565
3585.0884,5.09605131664698,4.886528066361953
3585.915,5.111633928823821,6.2629175434739155
3586.74,5.128595595640402,5.907134565631353
3587.5671,5.140075084702006,5.67415039277708
3588.3923,5.140402942580655,4.08969111881642
3589.22,5.128635404668462,5.5444859714047245
3590.0457,5.108384251780601,6.391437814692281
3590.8716,5.084954129385092,5.0082169788843816
3591.6995,5.063149540401532,6.4625878805184165
3592.526,5.046803711933455,5.570540716165988
3593.3542,5.038245917973944,5.1172896362401765
3594.181,5.037688449035501,4.388494660216739
3595.0098,5.042655784236167,6.139716182674626
3595.8367,5.049492415174488,4.71960534214236
3596.6638,5.056024610054633,5.845147763162938
3597.4934,5.06247810752095,6.717997894882264
3598.3208,5.0692510578245935,4.200243038268718
3599.1506,5.073795340807078,5.459654093341191
3599.9788,5.069945533208943,6.71949795328686
3600.8088,5.0516905267741565,5.138132133669186
3601.6372,5.018742340146638,3.6661430449993
3602.4678,4.978469894194819,7.123107930601769
3603.2964,4.942840073667358,7.786752458865542
3604.1252,4.921003557055403,5.101972793868153
3604.9565,4.915525681795624,6.509846788127426
3605.786,4.923187104704792,5.056081231316842
3606.6172,4.938343417998986,4.046451724876591
3607.447,4.955416641654613,6.726786239210688
3608.2788,4.970378537281063,5.907326364463851
3609.109,4.9813409569056954,6.558733391049342
3609.9392,4.988663655505936,7.289426301526575
3610.7717,4.993398090539808,5.41747909114655
3611.6023,4.995943072676326,6.14258944438878
3612.435,4.996002628212376,4.501029729486927
3613.266,4.993019698125334,6.447846240322748
3614.0994,4.98644641915651,5.730525073056367
3614.9307,4.976319001253592,5.8877577309815425
3615.7625,4.964014658701594,6.30393179575987
3616.5962,4.952147404317449,6.671523655671773
3617.4282,4.942678382086615,5.662301548568737
3618.2625,4.934770595324929,6.4440229890690315
3619.0947,4.925560650864158,4.656695412325406
3619.9292,4.912837252423377,6.131707724540545
3620.762,4.897273381454585,5.173460844250995
3621.595,4.881519888791229,5.8892274609968425
3622.4302,4.868312795649274,6.183204636863059
3623.2634,4.859576837849744,4.726813207607999
3624.0989,4.856170832957935,5.5460231923821475
3624.9326,4.857530898148466,5.378900416427453
3625.7686,4.860740453039561,4.856978229518006
3626.6028,4.861021267679148,5.867006911945943
3627.437,4.854092318607031,5.70646830926724
3628.2734,4.838459963672223,6.257031106699478
3629.1082,4.816202163964813,7.350638705546479
3629.945,4.791562029632057,5.117861630199784
3630.78,4.769669300003973,6.351105812863438
3631.6174,4.754574335385666,6.258471573095655
3632.453,4.748314826096824,6.846638300431114
3633.2883,4.750102951853721,12.211892713880964
3634.1262,4.757632984270624,5.22707584280919
3634.9622,4.768912022050982,6.085572822000941
3635.8005,4.783247132275948,5.743864732330054
3636.637,4.799758967038423,6.332756301366328
3637.4756,4.815820115901343,8.490811076521666
3638.3123,4.826635591826972,6.846709836747222
3639.1492,4.827791343652876,8.97757990982818
3639.9885,4.818013280321065,4.1244982396530645
3640.826,4.800355826486066,9.274244062263024
3641.6653,4.779896419052723,6.674371388417237
3642.5032,4.760731657475333,6.355016373723677
3643.343,4.74449106121432,7.228426831194254
3644.1812,4.732287439102959,7.448281546455934
3645.0195,4.726464214017074,6.018844315528709
3645.86,4.73057816469167,4.811880543737445
3646.699,4.7468355929506565,6.287538177218794
3647.5398,4.773351730237473,5.470916259816518
3648.379,4.802843457833467,6.587686495069263
3649.2202,4.825125460712564,5.678872012936004
3650.0596,4.831457741195626,4.875545313859592
3650.8994,4.81960833814532,4.75581859558818
3651.7412,4.794565124002237,5.752907217651957
3652.5813,4.765246006684417,5.197157927305665
3653.4236,4.738907428881049,6.581289875230119
3654.2642,4.7191268537690005,5.302746909818341
3655.1067,4.706202454559165,6.287902054020303
3655.9475,4.698718640372476,5.825312177891439
3656.7886,4.693156182114131,9.281603963487024
3657.6318,4.684356317482349,5.64016486339544
3658.4734,4.668433113815895,6.186923318647506
3659.317,4.646185511117539,7.837806367784941
3660.1587,4.623785461424723,5.75065423575588
3661.003,4.6085852157688185,7.246339233713341
3661.845,4.604582855904455,9.109716187228884
3662.6875,4.610300520806068,5.722512410095658
3663.532,4.621034536089398,10.51492197172887
3664.3748,4.631854709582908,4.962536629495376
3665.2197,4.639382087176322,6.06499145728929
3666.063,4.6414051462324,8.44955112636431
3666.9084,4.63636397673489,6.395877376377328
3667.752,4.623574067664579,6.271783006702041
3668.5977,4.6043549434489135,7.933384481985159
3669.4417,4.58323221561609,6.729424330068204
3670.286,4.566542955307247,6.024308865504854
3671.132,4.559150412501087,6.900500401502433
3671.9768,4.561035875385066,6.839169634314659
3672.8235,4.5669532611002674,8.341394255809533
3673.6685,4.569991255197055,4.877534032289125
3674.5156,4.566266490781208,5.027507245260095
3675.3608,4.55702795199303,7.182466637153394
3676.2063,4.546810350091938,8.624053281754632
3677.0542,4.5396762741414625,6.111370505886467
3677.9,4.536727477957563,5.9908142154479
3678.748,4.536293225745274,7.380773914449469
3679.5945,4.536154144281569,7.353334946631265
3680.4429,4.535178186792839,7.9530834697278925
3681.2896,4.533296049005809,7.159074944334744
3682.1365,4.530525316395694,8.068274288267197
3682.9856,4.5265960405317855,7.767499979225499
3683.8328,4.521532663067002,5.097348040535785
3684.6824,4.515971973001355,8.653591680042137
3685.53,4.5105778688955045,7.826008244355224
3686.38,4.504665860927966,6.728215460517637
3687.2278,4.495943667547013,6.485327312979656
3688.0762,4.481874714161223,6.7624528582154975
3688.9265,4.462325208850486,5.941678986260563
3689.7751,4.441441174291401,6.818259152201602
3690.626,4.426164072306791,6.5219426776722065
3691.475,4.422507239010864,10.496662054875188
3692.3264,4.431296790854992,9.513094176000559
3693.1758,4.447673348624638,5.878993964981215
3694.0254,4.464808957568035,6.1005322528747055
3694.8772,4.478358295137183,6.747219753452485
3695.7273,4.487841575459387,7.773295842664633
3696.5793,4.494825425945136,6.6667117851470765
3697.43,4.500189001974919,7.102395857873013
3698.2825,4.503688704808687,8.094359324137747
3699.1333,4.504814744165928,8.832584879129989
3699.9841,4.503441373226351,6.696388043247656
3700.8374,4.499483041799926,8.511237461645045
3701.6887,4.4925964467925334,6.724036493576132
3702.5425,4.4822127218746965,8.362510322108951
3703.3943,4.468045763545325,4.830788304982252
3704.2483,4.45021955368517,7.9282400785956515
3705.1003,4.429863846554926,8.85016226549937
3705.9526,4.408943342248375,7.88409631688291
3706.8074,4.38992123169772,6.7361767009570475
3707.66,4.374839993897941,6.256548175804284
3708.515,4.363915101929312,8.180477892700885
3709.3682,4.355709901413835,8.130794745114555
3710.2234,4.348026870126942,6.599501043716141
3711.0771,4.339647757850617,8.621052924236993
3711.9307,4.33081306605071,7.748505658097445
3712.7866,4.322386622909518,7.058126603955651
3713.6409,4.314729272164082,8.219067155717998
3714.4973,4.307378028792659,7.278259441197507
3715.3518,4.300098224990258,7.001969012874014
3716.2085,4.293527299206359,10.152682728252593
3717.0635,4.289182042914842,16.1486928834124
3717.9185,4.288733904838093,7.5863170026122555
3718.776,4.293551678100565,6.870851639726903
3719.6313,4.303873579016808,8.090785875096758
3720.489,4.317692930759353,7.9794788910616905
3721.345,4.329945864892251,7.403580344272686
3722.2031,4.334228542649514,5.954797090400963
3723.0593,4.326159717412284,8.602870167589213
3723.9158,4.306454262757423,7.074988790095273
3724.7747,4.280579619686667,7.715754000209916
3725.6316,4.2558430192843595,7.101578807319119
3726.4905,4.237440812113427,10.25262480162947
3727.348,4.227481042258054,8.400990284782178
3728.2073,4.225304910991064,8.16828493491134
3729.065,4.228654701609755,7.575803892795468
3729.9229,4.23427410786427,7.992436856181754
3730.783,4.238747134419481,9.36360565380061
3731.6414,4.23970247511754,8.673697041537421
3732.5017,4.236865865555825,8.054277807160496
3733.3604,4.231918653726173,8.657273715599501
3734.2214,4.227223557108302,7.389284172969689
3735.0803,4.224277768289314,7.498767962771288
3735.9417,4.222518308093797,7.7372401294982245
3736.8013,4.219531346412928,8.379921190281932
3737.661,4.212614024538054,8.100032500085158
3738.5227,4.200970033146763,8.392119268874033
3739.3828,4.187011078953405,6.713799701648568
3740.245,4.174994225606794,7.16447176043999
3741.1055,4.168197633728273,9.304502709153114
3741.9683,4.16625483315231,6.405898812245317
3742.829,4.165600868399831,6.952749905961156
3743.69,4.1620879739752885,9.268038344719276
3744.5532,4.1535222465645605,7.105690062230784
3745.4148,4.140460059921586,7.521727616246647
3746.2786,4.125356498611449,10.232526719910599
3747.1404,4.111899479185651,9.561246427504546
3748.0044,4.104060090010272,7.988862513517933
3748.8667,4.105206214145598,8.455228497976242
3749.729,4.116020101576274,11.60509432094223
3750.5938,4.132819891473077,8.82122237222584
3751.4565,4.147592246879595,7.597891069462927
3752.3215,4.151712422575479,7.997496128943126
3753.1848,4.1407777542768285,6.968212996979665
3754.0503,4.117646137473886,8.286391232659406
3754.9138,4.0910528945259985,10.659741685100649
3755.7776,4.07020055757331,7.264043513119726
3756.6438,4.060318255344814,8.00912387811302
3757.508,4.061546724909625,8.226631813787609
3758.3745,4.070887156784638,7.8813217960346424
3759.239,4.084721281767843,8.173906425969179
3760.106,4.099882970585304,8.659865164049846
3760.971,4.113126938202606,7.299843589599554
3761.8362,4.121389595326159,8.414436879732031
3762.7036,4.122579655387915,8.115420294097843
3763.5693,4.116728988636289,8.246730768471707
3764.437,4.106105206209671,9.206734867222735
3765.3032,4.094241307930579,8.630392830283618
3766.1714,4.084257834532646,9.182307004152761
3767.0378,4.077564502737985,11.76517982619134
3767.9043,4.072764441259262,8.803272322325103
3768.7732,4.066040449851701,9.751788485310598
3769.6401,4.053312060478339,8.580624786236902
3770.5095,4.033040974530373,7.609325480689128
3771.377,4.008099053494613,9.379868364278385
3772.2466,3.984242578591455,8.728725653435507
3773.1145,3.967523780272462,9.581308761888979
3773.9824,3.961216306834561,8.885970408772438
3774.8528,3.965031261691754,11.309983309208851
3775.721,3.97546743638976,8.704809951470198
3776.5918,3.9872135999402314,11.488909098281676
3777.4604,3.994826043490061,8.691878911996055
3778.3315,3.995186668122945,7.107262314799541
3779.201,3.9891137011679403,13.103706161842785
3780.0703,3.9811467576579243,8.950728793996063
3780.942,3.9768216129765417,8.707805279577983
3781.8118,3.979261606269793,9.12372362458707
3782.6838,3.987414526847398,7.995625921398631
3783.554,3.9971063483575984,9.918325272104333
3784.4265,4.003883088337057,8.47179863552546
3785.297,4.005114267247145,9.945686765549064
3786.168,4.00076224447024,6.18172532752785
3787.041,3.992485202781098,9.30679551375926
3787.912,3.982137853812092,9.335655953651454
3788.7856,3.9700444710618457,10.437462993809708
3789.6572,3.9550075273962504,7.53684750837434
3790.531,3.935877465695257,7.005699069100653
3791.403,3.9141341590355867,10.272262389434639
3792.2754,3.893808177271008,9.514861311814204
3793.15,3.8792134987377134,9.086360813059763
3794.0225,3.872262269220006,9.90911071292086
3794.8972,3.871618626842704,8.243184558020586
3795.7703,3.8743051061336446,11.510603769402145
3796.6455,3.877186298914174,10.140702318991718
3797.519,3.8773828766248033,9.282070685699852
3798.3926,3.8725551930506117,7.990036338455727
3799.2686,3.861927366515537,8.980706740018976
3800.1426,3.84754142349586,11.02647964383078
3801.0188,3.8335477891557908,12.739397490154264
3801.8933,3.824039956243813,12.253537867872863
3802.77,3.820161487155249,14.399185355330475
3803.6448,3.8192935510314214,7.395819783224099
3804.522,3.816640523153548,9.879602879717453
3805.3972,3.808764639715025,16.937487590181316
3806.2727,3.7963146035030024,19.42727467575952
3807.1504,3.783710963757386,9.654949599394756
3808.0261,3.7758807278522406,10.544861867445546
3808.9043,3.7744900841801066,9.432166696414452
3809.7805,3.777493472732172,9.98343190814217
3810.659,3.7817058344528034,14.74611336765911
3811.5356,3.785654380720116,11.427364748122518
3812.4126,3.789971627196051,11.317117759896373
3813.2917,3.795340987100173,11.380088075653536
3814.169,3.800519792895227,10.825584874425271
3815.0483,3.8026996995757196,10.858604055598176
3815.926,3.799746118513439,11.532134051164586
3816.806,3.7923088600642827,10.708271986933916
3817.684,3.783648575386487,11.12733076798878
3818.5623,3.7771938497081403,11.504400187931573
3819.4429,3.774311284850523,7.9446270634366325
3820.3215,3.7739397483963426,10.119206965860332
3821.2024,3.7739283428309824,8.41785469650496
3822.0815,3.7726400647108367,8.631911634638527
3822.963,3.7694075343147353,8.107359459448485
3823.8423,3.7639722169367773,10.553421453126298
3824.722,3.755853672864568,11.34355305292681
3825.604,3.744703535544169,8.690183479815031
3826.4841,3.7314080829290672,12.08344836476593
3827.3665,3.718155107180989,11.391228756295966
3828.2468,3.7074603018961576,11.578325862844009
3829.1296,3.7002687752465158,10.685642202811131
3830.0105,3.695693994474091,10.60247458016475
3830.8916,3.6920693595317653,9.988769958559612
3831.7751,3.688690405971244,12.788075275233183
3832.6565,3.6864216146525566,10.91335123435616
3833.5403,3.6865150804201123,11.341266919104756
3834.4224,3.688613770010329,12.828678662753582
3835.3064,3.689690891755622,10.154414906021579
3836.1887,3.6853805309632666,8.907520532709851
3837.0713,3.673020227837256,9.620496653525699
3837.956,3.6538511182208415,10.218117910774307
3838.839,3.632950199616497,11.606425628922619
3839.7244,3.6165228159477616,12.121311187969164
3840.6077,3.609318562461989,11.861246722367978
3841.4932,3.612357943711035,10.58492674655746
3842.377,3.6226951525590527,9.918672313604635
3843.261,3.635068756688999,10.697587827096463
3844.1472,3.644851703034233,10.258580270663758
3845.0315,3.650174147809136,11.329159667777459
3845.9182,3.651833661704171,11.095411324979665
3846.803,3.6511518756542833,7.859386103284342
3847.69,3.6485790031654983,9.215801489015849
3848.5752,3.644199168145885,9.0926101497029
3849.4604,3.6389713759510856,11.270690852717214
3850.3481,3.634846539727013,9.319880868379256
3851.234,3.6335716017275974,11.711994303135418
3852.122,3.635474891370223,8.160189798374818
3853.0083,3.6393896685602165,12.8299806268646
3853.8967,3.6432809337942924,12.915957056663078
3854.7832,3.6449078821545235,12.983067374823694
3855.6702,3.642731896090605,10.3727058675304
3856.559,3.6368094898480168,11.635411923296285
3857.4463,3.629231566453905,10.399929715406877
3858.336,3.623142707100518,10.400528066161568
3859.2234,3.621072969655264,11.778007949488986
3860.1135,3.623455307770407,11.461661425298002
3861.0015,3.628609040819417,10.66715382029351
3861.8896,3.633784701161867,11.747650699234745
3862.7803,3.636322152292502,12.628395881646478
3863.6687,3.6344752571244983,11.50352904488736
3864.5598,3.6279432769825397,10.061130882336311
3865.4487,3.6179782109301817,14.23403388550997
3866.34,3.6066514471637534,13.829299203800089
3867.2297,3.596078146395004,14.446652252707386
3868.1213,3.5876788577641716,9.514919942122196
3869.0112,3.58242487054053,12.077021630855775
3869.9014,3.5807573256659486,15.694670167605077
3870.7937,3.5819710154454762,9.532178394123731
3871.684,3.583119443930398,13.808225633347895
3872.577,3.5791624642410493,10.760981282986906
3873.4678,3.5654032110379563,9.303436255807286
3874.361,3.540764379273748,12.597733673844107
3875.2524,3.5094339694419947,17.24807790269734
3876.1438,3.478367549743502,13.869917703155199
3877.0376,3.4536891003143038,10.901541125533935
3877.9297,3.4384557238850744,11.969621238864894
3878.8237,3.432032677661144,12.73505423528963
3879.716,3.4313574077818987,11.355397525877246
3880.6108,3.432240165778733,10.89263028684573
3881.5037,3.4310018253756422,12.685569823083116
3882.3965,3.4256796696798495,15.612650593231775
3883.2917,3.4161772197834166,14.515501974139278
3884.185,3.403747003121853,11.03016963137093
3885.0808,3.390021787951019,10.720254563557253
3885.9746,3.3765569856434143,13.163752065742539
3886.8706,3.363942026233701,16.564547686149655
3887.765,3.3517504884289906,22.575022767969642
3888.6592,3.3390227894610187,13.680889368924062
3889.556,3.3258679746198134,13.809317490918009
3890.4507,3.314572879273836,13.74788477786823
3891.348,3.3084872245148556,15.73269058258051
3892.243,3.30999858282869,14.863626319980256
3893.1406,3.3190691497372113,12.045563243970282
3894.0361,3.3336668896883697,16.005732722489945
3894.932,3.350967155725958,13.986316508464919
3895.83,3.367767865138202,14.009742904164794
3896.7263,3.380761064138969,13.994408283255275
3897.625,3.3880491439742078,17.238903217690805
3898.5215,3.3900705098669714,13.364148353064099
3899.4207,3.389112459760781,11.752226141973882
3900.3176,3.3871249987396075,16.508386238414687
3901.2148,3.384479322529188,13.01887472276542
3902.1145,3.38089973305811,10.279718045303817
3903.0122,3.377105073026285,13.762387404888083
3903.912,3.3748860900955058,11.311595067620372
3904.8103,3.375864076539794,11.195299475072161
3905.7107,3.38047844549702,15.181274596257724
3906.6094,3.3881805663010485,14.464136162047154
3907.508,3.398135746566529,17.105969163947037
3908.409,3.4092957426657677,13.121303659193527
3909.308,3.419956245970696,12.289004856765631
3910.2097,3.428167937441186,19.717537400010954
3911.1091,3.4326474931609856,11.242983681534298
3912.011,3.4337818461208376,15.304292583177979
3912.9111,3.4332190553954343,15.911374285682651
3913.8113,3.4329800132868193,10.50754905165059
3914.7136,3.4348842735964213,11.752022993617627
3915.6143,3.4403441423643497,13.137636431037778
3916.517,3.4503246534665597,9.928357314773386
3917.4182,3.465691343374279,13.124500249567454
3918.3215,3.4882863421649386,11.378959901286086
3919.223,3.520051761466859,13.796898808626299
3920.1245,3.559767319019388,15.337211557014836
3921.0286,3.598903838230657,12.876517700215343
3921.9307,3.622544442988369,11.658778832812924
3922.835,3.6186379478556474,13.052387119508834
3923.7373,3.5871051340079605,14.101180174261538
3924.642,3.5405075590917368,11.098086191955975
3925.5452,3.4955707922226034,14.570768861238628
3926.448,3.462502746011679,12.95390328971365
3927.3535,3.442273583093419,14.25427945271257
3928.257,3.4305385964812904,13.235045907104162
3929.1628,3.4224624134177235,12.174403927675932
3930.0667,3.415454851422393,12.955940523766845
3930.9731,3.4084514325590622,10.247143836381298
3931.8774,3.4007050282465716,12.85181665250366
3932.782,3.3914613268522364,12.513825576021349
3933.6887,3.380988175669533,13.277548202811325
3934.5938,3.371168088317358,11.78908472481547
3935.501,3.36433343560356,13.364522444058018
3936.4062,3.361717127595488,12.099751163750135
3937.3142,3.362569282658163,12.711722091642459
3938.22,3.3647776946922128,12.214745167509129
3939.128,3.365970633167406,12.507667573044392
3940.0342,3.364431975653538,12.850399593379388
