wavl,flux,ivar
3566.9744,3.5686574729495266,17.191497488686096
3567.795,3.578387167507932,28.81120895326496
3568.6177,3.5968696356439347,18.01716543547201
3569.4385,3.6136898236420514,20.839038723685206
3570.2617,3.618107040811395,16.764408538767064
3571.083,3.6046961860522297,23.26226841370902
3571.9065,3.5750660381615598,31.009715612611732
3572.7283,3.5358763036245247,19.54044550608735
3573.55,3.4949998089974934,26.8642005623081
3574.374,3.459018878105902,21.822915837142826
3575.1963,3.4321586672380078,20.608964619241416
3576.0208,3.415416590171034,32.633547454519615
3576.8435,3.4076778279544637,17.67216389352506
3577.6682,3.4067386295343622,27.280476865859963
3578.4915,3.410874047597311,30.014417733755586
3579.3145,3.419137837766933,36.53559833971052
3580.14,3.430410210662252,40.45548688099733
3580.9636,3.4421542348868437,39.66806451404862
3581.7893,3.451273429328454,29.32922481544951
3582.6133,3.4564612044041554,29.974215866211512
3583.4395,3.460587493660685,29.0277115615659
3584.264,3.4700393303666757,18.183115020902207
3585.0884,3.4907912225473576,30.952726697061934
3585.915,3.5231498379051978,20.11792281542539
3586.74,3.5588981415097933,22.88248502304698
3587.5671,3.585262747659267,20.220307833162124
3588.3923,3.5920807134293264,22.49374478809308
3589.22,3.578202475575924,20.909988138198194
3590.0457,3.5509355613091316,28.52670603923611
3590.8716,3.520114785550082,26.05690581969086
3591.6995,3.492536610333399,23.57311991371683
3592.526,3.4708987378090805,22.09906656809163
3593.3542,3.4557957589335273,23.281658568018724
3594.181,3.448194617902923,29.42373521416631
3595.0098,3.4488107446361074,35.351732067929525
3595.8367,3.4566981056888304,28.726534668207886
3596.6638,3.4688794677345482,21.723659138829895
3597.4934,3.4816366935601133,18.954962782288213
3598.3208,3.491721313012017,25.10203642336684
3599.1506,3.4967159590356696,27.617206763324692
3599.9788,3.4940456586537896,23.30998573501662
3600.8088,3.481124208383853,22.9173374049994
3601.6372,3.4575578262738036,15.361706720592496
3602.4678,3.427549065444627,26.292581074397308
3603.2964,3.3998639568690634,29.35335367846653
3604.1252,3.3825814435656176,19.6413357530128
3604.9565,3.377950703205846,26.996089221874293
3605.786,3.381194380121816,28.876469436632817
3606.6172,3.3847423064912596,18.86520935443571
3607.447,3.384201084445806,20.58486307777918
3608.2788,3.381107593800689,15.770120187612182
3609.109,3.380554593584935,20.358131299695504
3609.9392,3.3859095689996326,23.909849041887032
3610.7717,3.3953340469881526,34.37065993094734
3611.6023,3.402886684522376,36.18130648445207
3612.435,3.4034515340910474,19.932158433799945
3613.266,3.3965962449959135,22.28359225847083
3614.0994,3.3864210252861864,40.58715123238468
3614.9307,3.3780844379995756,21.605544293876193
3615.7625,3.3741198752497294,26.44111459696707
3616.5962,3.3735993633940176,20.64650515232882
3617.4282,3.373587506140295,24.27248793350314
3618.2625,3.3714772367083894,35.03259029312948
3619.0947,3.3667178063980643,34.78439832808858
3619.9292,3.3609787683788763,27.139987728178706
3620.762,3.356893577560052,21.864271498832835
3621.595,3.35603710025152,25.620637824504776
3622.4302,3.35779848045444,30.058426803709473
3623.2634,3.3596045400138506,20.249830686894757
3624.0989,3.358469460838825,23.660918928543982
3624.9326,3.3530052696595964,20.587156692923756
3625.7686,3.3445711107035043,24.05122449509868
3626.6028,3.33641323108415,30.851826475734754
3627.437,3.330957830213588,27.704690754047334
3628.2734,3.3283084577953375,35.94586031477257
3629.1082,3.3274725455721126,27.011636108920115
3629.945,3.3286868809794345,39.99433693106697
3630.78,3.333846659880802,50.39309619638186
3631.6174,3.3445869518186293,44.21106679311442
3632.453,3.360292973993734,30.28870185408548
3633.2883,3.378452724778418,27.510210899145648
3634.1262,3.3962623714893323,29.204930126275634
3634.9622,3.411972123736901,24.94250954119413
3635.8005,3.4258506098854964,23.512239328671278
3636.637,3.4394407135327323,30.554840492870568
3637.4756,3.4544651349366364,23.321990780669474
3638.3123,3.471018431620503,30.06420638952364
3639.1492,3.4874517465678814,24.060976409219474
3639.9885,3.501045550366728,32.451264721084485
3640.826,3.508738817413679,26.949199966247544
3641.6653,3.5079248610194846,25.005708928751332
3642.5032,3.497533413908385,20.137236696754364
3643.343,3.479672484173618,50.9546950313121
3644.1812,3.4598922322074093,20.17101433946743
3645.0195,3.4443204782765973,18.492971206065004
3645.86,3.4362331238597252,20.924659886259366
3646.699,3.4346396993721,20.409012293221615
3647.5398,3.4359943671844353,22.966308181155135
3648.379,3.4372937211275683,35.534699282151266
3649.2202,3.4374559770445767,20.926254761166966
3650.0596,3.436473435383674,21.520272958994504
3650.8994,3.4341470194359704,24.81080211294252
3651.7412,3.4299121141223794,20.298589059413477
3652.5813,3.423428612789404,22.20519928180503
3653.4236,3.4145903885158786,27.227655487632695
3654.2642,3.4032883468014687,26.65637006869789
3655.1067,3.3895229658651855,22.2679022196756
3655.9475,3.3746989786201573,33.43802725539467
3656.7886,3.3618516284630853,18.483260664720788
3657.6318,3.354186899423467,24.565514695461182
3658.4734,3.352491724773869,34.447641443832715
3659.317,3.353843010577085,27.65923216438016
3660.1587,3.3531533777003015,23.928881383545832
3661.003,3.3461267958138254,22.27187860530878
3661.845,3.331773364952623,31.82631767485697
3662.6875,3.312844902126396,17.469813133738032
3663.532,3.294194651687916,35.206640536381336
3664.3748,3.2800123087944217,50.03676058798262
3665.2197,3.2717794357755183,24.392200321781267
3666.063,3.2693064580760596,19.322848960828658
3666.9084,3.27230448007409,19.010827835734144
3667.752,3.2802939020023163,29.1020728047738
3668.5977,3.290950927764473,23.1677073010142
3669.4417,3.2999001988629995,26.10604184789423
3670.286,3.3036461999165097,21.477188183939
3671.132,3.302081482429332,34.025810502537034
3671.9768,3.297783237905832,28.970227632245756
3672.8235,3.2927812574379742,15.766853404703525
3673.6685,3.286805555364707,19.870755799263833
3674.5156,3.2787273636339127,22.670263719278065
3675.3608,3.269488971402804,21.206096780998465
3676.2063,3.2626700166607234,27.368781348081782
3677.0542,3.262168098627363,23.3657963853409
3677.9,3.2687072842354645,36.899288819600386
3678.748,3.2782622933537575,24.966210792438577
3679.5945,3.283532456034552,28.631332846380456
3680.4429,3.277817719808915,31.582874200656146
3681.2896,3.2586694194698054,25.23519610122104
3682.1365,3.229333272033847,41.32447541884464
3682.9856,3.1971329615210684,28.208877909310694
3683.8328,3.1700105616810523,29.93825373239943
3684.6824,3.152514844870853,23.923368849131947
3685.53,3.145372877225935,33.36568294452896
3686.38,3.146525858641145,39.03645781385919
3687.2278,3.1527162314384687,51.06725071361999
3688.0762,3.1599072982024725,24.328080654623076
3688.9265,3.1641080202247585,31.591938968094077
3689.7751,3.163435627776804,52.66528339307671
3690.626,3.159836844578377,21.15671671895457
3691.475,3.158090968936013,30.461658042088544
3692.3264,3.1623067159376332,35.699128730222846
3693.1758,3.172586956539385,22.31042749897857
3694.0254,3.1845860744248857,28.190026840036687
3694.8772,3.192229002676389,34.67341409548692
3695.7273,3.191680834863214,21.182951875991748
3696.5793,3.183924265625988,40.84364730072229
3697.43,3.173989606105373,36.78233561428918
3698.2825,3.1675369069803794,40.062342602913084
3699.1333,3.167576081441383,24.980827143041324
3699.9841,3.173293732795983,22.27785064774284
3700.8374,3.181612872994237,23.631334741727247
3701.6887,3.189259167461721,30.06156747207052
3702.5425,3.1939686730324577,32.78120822300721
3703.3943,3.194128272128094,27.205958363833552
3704.2483,3.1884283368604365,38.33749633556356
3705.1003,3.1760865351768413,25.323212297586366
3705.9526,3.1574960144376663,24.744221023517653
3706.8074,3.1344811723276442,29.010388833111136
3707.66,3.1087520493595737,19.61598754216909
3708.515,3.075976749036952,29.057718237482383
3709.3682,3.018479437368367,24.89599403965127
3710.2234,2.9011144198892556,23.471410147033033
3711.0771,2.6851032779327024,22.139786790827177
3711.9307,2.3601800783021982,30.15940769647758
3712.7866,1.9804781647633165,28.29455898073203
3713.6409,1.6698943709405267,37.34722927961519
3714.4973,1.556882707699007,1.5472577930070754
3715.3518,1.6931253406363096,31.432291837361987
3716.2085,2.014610436060104,29.549468994630793
3717.0635,2.386940961608889,36.29669918859768
3717.9185,2.695088653182891,22.54157330796177
3718.776,2.892735339638253,48.39410175913728
3719.6313,2.9932066090427685,54.10401959998691
3720.489,3.035201232883071,39.43388119207513
3721.345,3.0501525423207205,35.323807111662525
3722.2031,3.0539289246331602,30.506574431645443
3723.0593,3.0512962563342434,18.20356353546766
3723.9158,3.044297244260073,28.657492428922843
3724.7747,3.0366908926349767,45.111301724363805
3725.6316,3.033507851809887,33.46187401536101
3726.4905,3.038032438247973,44.159466914810466
3727.348,3.049975518643769,32.49132576859147
3728.2073,3.065997121900856,26.3109436591967
3729.065,3.081453386746809,26.471701832172222
3729.9229,3.092637478552868,33.885232631035194
3730.783,3.0980007960923466,35.968759893717724
3731.6414,3.0984731231322766,31.302787840131195
3732.5017,3.0964850559124426,40.37533788562373
3733.3604,3.093901416399629,29.389313564271447
3734.2214,3.0904421902873125,30.857581418081587
3735.0803,3.0840965543676804,30.37523785245048
3735.9417,3.0729731806142504,31.677457592197943
3736.8013,3.0569764121909757,27.387360121694535
3737.661,3.0374805786583674,35.204604871354015
3738.5227,3.0165414499908305,32.33038125773922
3739.3828,2.997227658461272,30.69521765779313
3740.245,2.983789141462099,35.59784024082511
3741.1055,2.980689986412014,31.76341174742901
3741.9683,2.9892483976634203,32.911627674882126
3742.829,3.005503718814127,24.847465604030898
3743.69,3.021652442426213,42.665220995526184
3744.5532,3.0301241022612113,29.997853187398704
3745.4148,3.0273107861445103,26.098151089483856
3746.2786,3.0147732191880063,27.70661840368317
3747.1404,2.9976490807049454,32.364015042628175
3748.0044,2.981789891266709,29.031375801966355
3748.8667,2.971892231799979,25.413996529665567
3749.729,2.970025339573561,29.045041636823008
3750.5938,2.975262134704837,31.694742322831658
3751.4565,2.9837394955283822,35.29311772103746
3752.3215,2.989959195570911,32.680925028483344
3753.1848,2.9888328548132783,23.868495980994897
3754.0503,2.977966083979215,26.866574788379342
3754.9138,2.958904662864647,36.07679546328234
3755.7776,2.9366217763843934,39.67415084550622
3756.6438,2.9179010884634966,40.01675326628582
3757.508,2.9090401294463466,28.005173519063277
3758.3745,2.912970820733812,48.58267806623225
3759.239,2.927848596158394,30.000304632817496
3760.106,2.9478215687200895,39.12494362124361
3760.971,2.9657553768072096,35.04355839604745
3761.8362,2.977015653679265,29.377090681558656
3762.7036,2.9809740477801436,26.060643214186154
3763.5693,2.980010856315782,38.82954174993095
3764.437,2.976747446506358,36.48206059214448
3765.3032,2.971660374051979,28.341084270955786
3766.1714,2.9629098788229253,27.7989246987533
3767.0378,2.9484964412710006,42.604776665405524
3767.9043,2.9284609360123444,35.83729344169029
3768.7732,2.905361390521781,41.41920017361195
3769.6401,2.882855739848111,33.02999293104286
3770.5095,2.863063114908289,37.48464684657669
3771.377,2.8461514950033315,33.1904392881175
3772.2466,2.8310810238012083,44.10219905441577
3773.1145,2.8178341571778605,42.55788207487143
3773.9824,2.8078541240846304,40.93541563163524
3774.8528,2.8027889667573223,26.946037678625988
3775.721,2.80237845646014,41.05177765404044
3776.5918,2.803935204301367,29.44127223318404
3777.4604,2.8044131987953578,27.645028839543247
3778.3315,2.8029421560773775,53.4422930604881
3779.201,2.8013654810411976,38.51746112277314
3780.0703,2.8025897331547798,52.06418617562316
3780.942,2.8086955560950533,45.30491705358643
3781.8118,2.8200385107906962,31.606109621604826
3782.6838,2.835341829233764,38.17503020264299
3783.554,2.8516735659270522,46.48770998293125
3784.4265,2.8653808808311028,33.91686160927652
3785.297,2.873378438177977,38.0993587085968
3786.168,2.875002075087393,27.77700079655431
3787.041,2.8717817999143227,31.497894752554775
3787.912,2.8655380605240435,44.322179983993024
3788.7856,2.8565484109574237,41.58196249537909
3789.6572,2.8443614041036036,28.020092717784827
3790.531,2.8298703912752887,41.44569646873818
3791.403,2.8161670879935903,40.13605576970549
3792.2754,2.8061777504371506,30.648468926207716
3793.15,2.800414387106347,44.59679082407679
3794.0225,2.7971758649979925,32.77732741026243
3794.8972,2.7947101706767605,39.455722554308025
3795.7703,2.792838939043927,40.61207530811088
3796.6455,2.792428620635615,39.14544474830112
3797.519,2.794064435722221,35.63220820779394
3798.3926,2.7973824367688866,53.0866510559202
3799.2686,2.8014293641455694,28.211915255633713
3800.1426,2.8052725501288194,44.13009440185704
3801.0188,2.8082744794567227,36.38297789388238
3801.8933,2.809507690845411,43.185967701336445
3802.77,2.807206070768391,33.18278490772688
3803.6448,2.799173341015413,34.86796555617938
3804.522,2.784238928964674,30.964203259600783
3805.3972,2.763833985077215,33.2490648857356
3806.2727,2.74175322058435,25.619208195440176
3807.1504,2.722706357625869,39.667227054117596
3808.0261,2.710263437407003,34.10461498709076
3808.9043,2.7050537176990908,42.18824481537812
3809.7805,2.705248488928612,48.36508358283338
3810.659,2.7084208910848435,42.26849017604942
3811.5356,2.7135920387139865,40.66288802869562
3812.4126,2.7212327651087844,48.372674308813075
3813.2917,2.7311724780941846,37.5227671580263
3814.169,2.7409291634238815,40.710548357768275
3815.0483,2.7471306734109424,34.958035773747824
3815.926,2.74834898858659,40.45857170850596
3816.806,2.746385300956769,39.44953890474507
3817.684,2.7441620438590184,50.92870953289586
3818.5623,2.7428003044583575,34.11297742151634
3819.4429,2.7409425358814596,48.224116212762034
3820.3215,2.7364642480309396,35.09104117688459
3821.2024,2.72840750913799,39.257138174537936
3822.0815,2.71781036082186,39.31095850756273
3822.963,2.7071455087477188,34.87501907927391
3823.8423,2.699440066650967,53.43118273795449
3824.722,2.696774221478084,43.35116259057062
3825.604,2.699275159901756,41.768154686206266
3826.4841,2.704822486918869,35.00046631159438
3827.3665,2.710014965716257,41.61897853902145
3828.2468,2.7115421407365607,36.150434181678115
3829.1296,2.707310158047476,38.21127998806889
3830.0105,2.69671543949437,43.72660685524312
3830.8916,2.680358390495954,41.354867023758764
3831.7751,2.6597372324532427,33.82215146181864
3832.6565,2.6373266684474035,28.602821653125915
3833.5403,2.6159964797140534,44.563981302372426
3834.4224,2.599014505807445,53.87015025328112
3835.3064,2.588969353555453,46.664653402502786
3836.1887,2.5870289265659583,59.509358102961485
3837.0713,2.5918803990965547,44.68626093040814
3837.956,2.6001988968744807,48.39756510944456
3838.839,2.6086371277898626,37.71516529411536
3839.7244,2.6164176313555436,49.11047283216692
3840.6077,2.6255820581649774,60.338549106331655
3841.4932,2.638755741700112,42.63402295488288
3842.377,2.655826716430142,39.642044059180286
3843.261,2.6731368692418576,38.26278666783952
3844.1472,2.6853540310496062,43.53627794216392
3845.0315,2.688612902149962,40.22990537220461
3845.9182,2.6827888053189763,39.3347735723029
3846.803,2.6713903474108256,46.48688682293538
3847.69,2.6595851620401056,65.50372390589052
3848.5752,2.6517055779197833,51.89040908789852
3849.4604,2.649177821607447,38.9593316740433
3850.3481,2.650681360393349,47.30786176870897
3851.234,2.6537766431330914,43.75802089964146
3852.122,2.6565251403182053,51.019280209300774
3853.0083,2.657724959143367,35.805232807718305
3853.8967,2.6564664770873936,34.51985654541362
3854.7832,2.652066674186883,40.202791450585714
3855.6702,2.644578434717607,41.04788791096206
3856.559,2.635107114061934,42.8080549370309
3857.4463,2.6255284507865775,37.50136449577678
3858.336,2.617499165663032,41.265120275941385
3859.2234,2.611788705843741,40.39179907758122
3860.1135,2.607789247029087,33.38719618685403
3861.0015,2.604052157798601,57.19241659762493
3861.8896,2.599237271149779,36.45822366380847
3862.7803,2.593278749757075,48.196549084871194
3863.6687,2.587878290449635,45.037043855457036
3864.5598,2.585517235931327,38.07165920228049
3865.4487,2.587629533127566,36.68924238817303
3866.34,2.59311544903714,37.32375900261622
3867.2297,2.598812501928673,44.68923943469604
3868.1213,2.6016806715478342,42.43847107020053
3869.0112,2.6004850121415353,60.03036015593841
3869.9014,2.595768463862671,41.402240320443376
3870.7937,2.5885374363070937,47.88778780532351
3871.684,2.5795388403675443,41.26907396291994
3872.577,2.5694847072754783,48.567530526447406
3873.4678,2.559952409300632,36.737316700425275
3874.361,2.5530701773943076,51.1426860087613
3875.2524,2.5502851939497284,44.224465390386655
3876.1438,2.550540717390838,62.072927120759076
3877.0376,2.5500323580768707,40.4775114649935
3877.9297,2.544129503764045,39.32602468065574
3878.8237,2.5304533146473998,38.938498826406715
3879.716,2.510690760952246,40.17965487612447
3880.6108,2.4890175880535463,57.42424229926285
3881.5037,2.4693333133201048,42.38393991665751
3882.3965,2.453011512657431,38.04148593845706
3883.2917,2.439561915957353,51.88675112253523
3884.185,2.427976058738704,49.532690856714765
3885.0808,2.416799296168668,55.55954067568563
3885.9746,2.4041532933390424,47.78190503013853
3886.8706,2.388055565373717,57.986740041691206
3887.765,2.367541950812626,50.76755856830544
3888.6592,2.3414184344120925,47.1828753150255
3889.556,2.304010347176138,49.307583885557854
3890.4507,2.240124150552258,45.59005224330428
3891.348,2.1242264279056373,53.35097272492069
3892.243,1.9359543858577348,73.16678461738304
3893.1406,1.6848843174342956,42.88351583947919
3894.0361,1.4346778945627643,50.26497753951158
3894.932,1.281342239133313,52.45975646053606
3895.83,1.2987184034869588,70.66852280925609
3896.7263,1.48357812326735,59.08808333452337
3897.625,1.7579914932019827,35.05420030147621
3898.5215,2.0220300852351927,55.259933816412655
3899.4207,2.2155285160321943,49.811307424832435
3900.3176,2.3285116742249166,59.244515379965634
3901.2148,2.3839014476799525,42.04022732450042
3902.1145,2.408352098230885,66.33801242158364
3903.0122,2.419798113430611,45.66790403784468
3903.912,2.427622006289602,51.28458347055806
3904.8103,2.43637436702698,44.310562598038615
3905.7107,2.4487119101063444,46.679481065716985
3906.6094,2.465750177069215,43.32638022689584
3907.508,2.4867678999095992,58.00780528101457
3908.409,2.5090624123356666,69.96125629887773
3909.308,2.5287692439633167,40.088988451461645
3910.2097,2.5431385547997505,56.53704171739516
3911.1091,2.5518276704847636,46.95002622838812
3912.011,2.5571778533303813,44.90629182630617
3912.9111,2.562453911176969,34.718311828212606
3913.8113,2.5702040989947865,34.87647555099183
3914.7136,2.581321511974401,58.91294047418855
3915.6143,2.594792139945252,31.813358042067854
3916.517,2.6081894938366923,52.32908516411096
3917.4182,2.61846154166177,46.292172619432705
3918.3215,2.6237701846723587,41.75499723635479
3919.223,2.624569054605926,62.02230339820943
3920.1245,2.6233524133014625,51.713509659252395
3921.0286,2.6228317623742323,55.79663391785823
3921.9307,2.624329576223143,51.12634089287784
3922.835,2.6275348333955564,44.90849955368723
3923.7373,2.631412120311194,39.11205378184639
3924.642,2.635218704767683,36.14778066898009
3925.5452,2.6387109488939564,56.144984326011894
3926.448,2.641913838051095,34.308488783831585
3927.3535,2.644720055700739,36.07866388525035
3928.257,2.646715058464974,42.0120472674789
3929.1628,2.6474268650572057,51.75635099515254
3930.0667,2.64668700116414,41.0301309802487
3930.9731,2.6446881364920856,46.48731343465912
3931.8774,2.641393571118822,57.405808124571315
3932.782,2.635948853948296,43.22458011045272
3933.6887,2.627215670254803,50.07278286684249
3934.5938,2.61523683376352,36.699882317887536
3935.501,2.6016630130281984,41.4328707356336
3936.4062,2.5886890587534324,51.43226900777607
