wavl,flux,ivar
3566.9744,2.5012175158264447,56.31195950875404
3567.795,2.496166856906121,85.94563742042217
3568.6177,2.491904291518508,44.92791030625336
3569.4385,2.4935144407028003,34.57141097894575
3570.2617,2.5023781294559364,58.00642936180504
3571.083,2.5154228588889453,60.61368406983514
3571.9065,2.526101434686355,47.33143356355983
3572.7283,2.5266359474014783,47.138187046720375
3573.55,2.5119225377444416,65.36342336463602
3574.374,2.4826205673337403,42.87272769135488
3575.1963,2.446028305899981,82.9387097010197
3576.0208,2.4121944488183025,52.43456994398605
3576.8435,2.388997480081795,58.986141557020474
3577.6682,2.3777729556760163,45.73148265613619
3578.4915,2.37429579422511,39.1288189560939
3579.3145,2.3727311650437652,41.275247319527026
3580.14,2.3702483733636126,95.14642903200387
3580.9636,2.3687639857121368,76.4944709254852
3581.7893,2.3729711015277792,60.151874524547885
3582.6133,2.3864166064474546,44.92371128034055
3583.4395,2.4088834513075654,45.06989668142181
3584.264,2.4364613176553784,33.79578863501129
3585.0884,2.4642891111103027,32.50388145806516
3585.915,2.488468626070498,43.54772989848085
3586.74,2.506366166346661,64.30389044644264
3587.5671,2.516776208945555,49.96447570398758
3588.3923,2.5195053907272396,53.354202882549046
3589.22,2.5153614103360455,37.51230259145456
3590.0457,2.5055610833556603,48.56830844464486
3590.8716,2.491442370555988,51.277098115786174
3591.6995,2.474799420502085,66.67795832300406
3592.526,2.458210758455306,46.98237082407477
3593.3542,2.4441103772303063,67.23655383731213
3594.181,2.4338831924794517,46.69262361886223
3595.0098,2.426944669153971,58.839661158595426
3595.8367,2.421187367744039,49.911346786606
3596.6638,2.4140564447063055,64.40183522143455
3597.4934,2.404332700610339,54.00984898721555
3598.3208,2.3931610683700058,61.93041540057449
3599.1506,2.382710232343317,34.92703838086475
3599.9788,2.3740533447183543,63.5916415524706
3600.8088,2.366108232355143,77.38776729870281
3601.6372,2.3574456278278113,33.20993434142451
3602.4678,2.3480511574690976,72.12333762012643
3603.2964,2.3391714356697544,71.66177931718603
3604.1252,2.3312431980327295,43.85220977708403
3604.9565,2.3233818384475655,66.85707780748704
3605.786,2.3153776099904566,48.5650086703913
3606.6172,2.3097662734050965,74.60980338252311
3607.447,2.3114243102070122,96.78657195757353
3608.2788,2.3242725086724056,82.60415873475162
3609.109,2.348478300164947,79.64782922981112
3609.9392,2.3814993273437137,61.574834797815235
3610.7717,2.422319800816179,56.306494682467566
3611.6023,2.4744647501976234,54.65216378504306
3612.435,2.544097062678012,50.475059443783024
3613.266,2.629165999458994,58.21498489584677
3614.0994,2.7115231154991353,56.520478109188396
3614.9307,2.7590547263533396,32.647137066738054
3615.7625,2.745952139548397,53.28357843692476
3616.5962,2.6711627592039755,44.034309915251995
3617.4282,2.5612699159704033,54.01918752212416
3618.2625,2.451235065899471,61.114549392166566
3619.0947,2.365497515034664,56.50277210002942
3619.9292,2.3088323396145256,76.2667140438413
3620.762,2.2745643193707274,43.18199853356796
3621.595,2.2535378149319905,83.8005812832447
3622.4302,2.2403890435377356,63.37647242724425
3623.2634,2.234097489084777,67.02648955089813
3624.0989,2.235857784367018,59.99304910723339
3624.9326,2.2467048280591477,92.92438050573573
3625.7686,2.2656548298837036,58.894344108853495
3626.6028,2.2890063931694797,37.1013633961
3627.437,2.311535736888123,55.90010566508391
3628.2734,2.3279435832451694,45.40857646447233
3629.1082,2.334300608971773,57.6810548385537
3629.945,2.329853042876054,51.38086112707025
3630.78,2.3179171615756715,47.79238728140514
3631.6174,2.3047758156360048,57.03171921288757
3632.453,2.2965485397807455,86.52668476545759
3633.2883,2.2957859477828833,38.30601458227266
3634.1262,2.301063375969284,56.37115210737685
3634.9622,2.308459049288619,82.6914805821553
3635.8005,2.3134354938082513,114.2353593665751
3636.637,2.3122804530987673,59.39322820194329
3637.4756,2.3040704239643746,90.09050944884123
3638.3123,2.29192710606425,61.24406596947347
3639.1492,2.281511561107789,82.72147487131902
3639.9885,2.2774019365628813,57.45975093794294
3640.826,2.280124414370193,63.74847914070604
3641.6653,2.286382964233388,38.64644528303786
3642.5032,2.2921057659816184,96.51680438816861
3643.343,2.295546258009581,71.81940390885464
3644.1812,2.2978934382296945,53.26867292178709
3645.0195,2.301618490354054,90.98344720427255
3645.86,2.3081714572726506,61.37167991892295
3646.699,2.3168110021894615,50.39993219186915
3647.5398,2.3251855975007882,45.75178111965658
3648.379,2.3305480284380145,79.01238497397183
3649.2202,2.3311538505063987,82.61717778827027
3650.0596,2.3268123251258777,46.03826948540436
3650.8994,2.3186693560835097,47.48582030140692
3651.7412,2.308256755439641,59.9115268287341
3652.5813,2.296692122233085,60.35789727855317
3653.4236,2.28451977382024,86.54409918307189
3654.2642,2.2728470440836785,58.493357976491005
3655.1067,2.2636646433264564,243.87385671445713
3655.9475,2.2589714588883214,64.41724589765698
3656.7886,2.258709429913102,87.37781913209383
3657.6318,2.260181257315714,60.87858337586348
3658.4734,2.259629898173122,66.47074266595855
3659.317,2.25508721032552,92.04898530429647
3660.1587,2.2482756467828806,44.54741299769584
3661.003,2.243865249950342,187.51589812185503
3661.845,2.246439708981875,81.15197706986665
3662.6875,2.2569585695903553,66.49262183439077
3663.532,2.2718462995143125,38.65275556093084
3664.3748,2.2850736184935236,32.54436011583788
3665.2197,2.291783234739296,56.99667651674668
3666.063,2.2900287129245274,58.10358903190397
3666.9084,2.2808095395080117,51.09646466613646
3667.752,2.267265633339781,45.745712883664226
3668.5977,2.2536896437816982,180.13269450615883
3669.4417,2.2445686616461913,81.49155086530459
3670.286,2.242655016892875,115.31650471037042
3671.132,2.247691245615813,70.34901831934869
3671.9768,2.256262468544455,49.62378621107639
3672.8235,2.2634166000905096,78.44750564233942
3673.6685,2.2647697038751122,70.58533703327477
3674.5156,2.2581836881998227,70.3309600064077
3675.3608,2.2442942968898043,87.2871667617817
3676.2063,2.226143058139332,69.43784315706054
3677.0542,2.2082972722452623,55.44404653809827
3677.9,2.195420693611447,75.18852679062522
3678.748,2.1900633451961626,87.44138232916991
3679.5945,2.1918988549383465,69.69804812641695
3680.4429,2.198049069784414,67.60728398734837
3681.2896,2.2042605898713994,55.72591341830359
3682.1365,2.2059763940637427,110.22367150869829
3682.9856,2.199375563318314,79.30075902448831
3683.8328,2.183156620426234,54.08743544958852
3684.6824,2.159645488379712,54.91585539016102
3685.53,2.134434883730819,177.20421961957356
3686.38,2.1134911897311075,53.14613891716726
3687.2278,2.1011926075610625,49.54139653129279
3688.0762,2.098950608690319,163.91687224730413
3688.9265,2.105614605012293,54.823847412700495
3689.7751,2.118075930536272,77.54615504179054
3690.626,2.132757922016852,42.22878099397409
3691.475,2.147067778853512,53.831446020964414
3692.3264,2.160548658337408,74.9552667234377
3693.1758,2.174130034783911,42.81127013222262
3694.0254,2.1890067621608096,82.70942159978314
3694.8772,2.2052902454833054,61.27890158369712
3695.7273,2.2211843509045877,42.323385547753006
3696.5793,2.2334520974961483,43.575974521127755
3697.43,2.238790135235358,78.67264069012509
3698.2825,2.2364439405012573,57.91711092726048
3699.1333,2.229369288132704,65.70570500793377
3699.9841,2.2227776699673494,48.64241940761149
3700.8374,2.220883794681856,60.685860091087065
3701.6887,2.2243279800945612,38.89295146311809
3702.5425,2.2300804481622816,52.459563960767895
3703.3943,2.233658177999997,60.671084113678894
3704.2483,2.232013546567878,55.905290186773854
3705.1003,2.22507543795192,68.74487436775105
3705.9526,2.2154051401961943,60.91709940482694
3706.8074,2.206424643250551,86.480369448776
3707.66,2.200506791323259,72.81562020882129
3708.515,2.1978109887893686,74.15849348989668
3709.3682,2.1970522479120707,94.47412424107138
3710.2234,2.1971200483694204,53.9689526092502
3711.0771,2.198117551564438,58.05441120096194
3711.9307,2.2003756539534964,64.7798214436646
3712.7866,2.2024866672236154,83.888213449
3713.6409,2.2010562426413824,78.79035194258094
3714.4973,2.1934290894628847,111.49952494220123
3715.3518,2.18081638974798,79.0311955450983
3716.2085,2.167870356057596,65.43545189017894
3717.0635,2.159043783905424,63.165606548907505
3717.9185,2.154919439803763,55.970646491679204
3718.776,2.152601134101784,75.3093727524539
3719.6313,2.1489126814482913,59.92570929547106
3720.489,2.1431055549829257,76.03885457470143
3721.345,2.137188490217691,95.20468036181252
3722.2031,2.1341333130670055,59.2563584231764
3723.0593,2.1358668281622717,74.35680504042561
3723.9158,2.1419352786294237,157.49476031616516
3724.7747,2.1497164575275742,86.61748110384352
3725.6316,2.1558521456420094,77.0995540562285
3726.4905,2.1583420139840253,78.09405684075975
3727.348,2.1574111409812673,80.85674800285011
3728.2073,2.154879782807582,63.98327100248556
3729.065,2.152628268814358,63.22990212287691
3729.9229,2.151570810581466,60.20683378348372
3730.783,2.1518112037336716,67.63084887297254
3731.6414,2.153217127016411,74.137057901162
3732.5017,2.155581488790615,63.237374302137525
3733.3604,2.15832018798537,74.57763500488078
3734.2214,2.1604291005764646,61.79305242124296
3735.0803,2.160774246853241,49.93541540018838
3735.9417,2.1584443927593857,79.55650452943078
3736.8013,2.152848061190531,93.08936902223525
3737.661,2.143933914533627,67.98074356166138
3738.5227,2.132687089364994,48.618574888144664
3739.3828,2.1212547468588063,66.68351069144062
3740.245,2.1114811126323936,57.93179540593927
3741.1055,2.1032628271707043,149.42712621024953
3741.9683,2.0939751823027897,145.96535627645153
3742.829,2.080697837301226,74.97788283803649
3743.69,2.0628884129871436,83.55382206402678
3744.5532,2.043300707081064,63.101627573226345
3745.4148,2.0263783763748564,97.44527988822033
3746.2786,2.015523582452585,93.7337302522143
3747.1404,2.0126607943938057,95.12565685660141
3748.0044,2.018852818864539,137.77389075129093
3748.8667,2.0346733273503066,84.26581486933755
3749.729,2.0592843790480577,200.57992889584978
3750.5938,2.0894653333817614,85.13282846150373
3751.4565,2.119544524320523,109.77060413597609
3752.3215,2.14370989398966,85.18542354837929
3753.1848,2.1579744605015874,54.927836963229396
3754.0503,2.162294238140881,64.64459818997172
3754.9138,2.1597638467541187,81.13574288839602
3755.7776,2.154019211070367,83.53449721145986
3756.6438,2.146748940596038,54.50738593431219
3757.508,2.1380676153287017,48.56434622319879
3758.3745,2.128622709506156,82.82558047216224
3759.239,2.120741605766998,55.781109008114896
3760.106,2.1163835043106074,93.58024550652527
3760.971,2.1147686788015,67.3378631660685
3761.8362,2.112502943671991,56.482919470136004
3762.7036,2.106650785735464,62.36503155691797
3763.5693,2.097371253143287,71.49375595749996
3764.437,2.087380084315421,106.1515620293466
3765.3032,2.079573090147695,51.50392696733113
3766.1714,2.0749763469507965,102.96370614827286
3767.0378,2.0725468052731055,74.92882352382804
3767.9043,2.0696176825134844,63.12445458266499
3768.7732,2.0629292940195785,99.63066557565185
3769.6401,2.0505700213281233,44.94171641951067
3770.5095,2.0338222722486776,86.72881546350541
3771.377,2.0174067503510864,106.27776904946238
3772.2466,2.006405437082463,54.8931579447439
3773.1145,2.003072890289349,55.24070754001744
3773.9824,2.0056865049208406,79.64231169752472
3774.8528,2.0109614233828275,69.49624823800244
3775.721,2.0168848576494844,101.7736841484195
3776.5918,2.023320319949796,72.90180648845292
3777.4604,2.029836558168973,101.19514312488951
3778.3315,2.0342452137909697,59.2039755160954
3779.201,2.033703175273356,161.4249757231984
3780.0703,2.0276923604210273,65.60387362907883
3780.942,2.0193776687169396,90.36062818377484
3781.8118,2.0141703633102424,68.03993119229683
3782.6838,2.0163582879227726,112.61012921943863
3783.554,2.02647918425806,62.61950001941297
3784.4265,2.0409640475968347,113.0704305780631
3785.297,2.054192181440837,67.68857253876084
3786.168,2.06221903957621,75.73869773932165
3787.041,2.0646247532194284,150.16515174633867
3787.912,2.06328381616396,94.16582873781746
3788.7856,2.059465403598289,69.45563227978039
3789.6572,2.05268927163715,94.28057304196601
3790.531,2.0423174672345796,124.11913110609105
3791.403,2.0297409536829227,79.88911403748617
3792.2754,2.018023199997668,71.56994422710146
3793.15,2.009772272438884,87.1330734038786
3794.0225,2.005419522175432,72.62982827317592
3794.8972,2.003358695404848,95.10913580146375
3795.7703,2.001584272702139,81.49008723915695
3796.6455,1.998733368869612,90.53406173014213
3797.519,1.9941811208443698,92.11838693944398
3798.3926,1.987710598420906,68.92334762055557
3799.2686,1.9795404795889662,52.07427413425845
3800.1426,1.9706024702989187,71.63942798136588
3801.0188,1.9623166172592417,112.24724556676742
3801.8933,1.956311085706237,76.14548880109326
3802.77,1.953686780627231,81.6663681892598
3803.6448,1.9546644823382393,133.72823379445265
3804.522,1.9586657752877505,82.22754268270457
3805.3972,1.9650637792311227,57.222466173246126
3806.2727,1.9739960873268296,93.51879548706474
3807.1504,1.9863989584533042,100.76718664258367
3808.0261,2.0032320193449635,143.63446005811124
3808.9043,2.0248547670573585,91.14649540887014
3809.7805,2.049934534484534,81.87951910321748
3810.659,2.0755506179873993,119.0278833150152
3811.5356,2.097499814265714,84.47112221762323
3812.4126,2.112441728629123,71.566313411716
3813.2917,2.119047185241217,76.19933479910276
3814.169,2.11782446177109,76.24300862207164
3815.0483,2.1101540336339175,66.12024776403861
3815.926,2.0980299978562384,46.058594372904885
3816.806,2.084304797402695,69.78155830705303
3817.684,2.072221684077871,84.9648009935881
3818.5623,2.063424320411149,69.74602058294408
3819.4429,2.057206889390637,47.43980366161017
3820.3215,2.0518738476973737,72.12872085252748
3821.2024,2.0466063455958254,68.33443660115188
3822.0815,2.041866248158298,82.61897852751784
3822.963,2.037820358595069,79.63837394944291
3823.8423,2.033172535825772,66.56117346136213
3824.722,2.0255690088947507,63.193228090626846
3825.604,2.0132258365263316,104.93379295652771
3826.4841,1.9962132975950397,62.42754005303894
3827.3665,1.9759959642192777,97.45760716270104
3828.2468,1.9545402394681008,117.82779071330773
3829.1296,1.9328797112199798,81.58358950470438
3830.0105,1.911384206246416,91.368881286292
3830.8916,1.8900313947654532,73.7439933773848
3831.7751,1.869120805653076,115.04629227360448
3832.6565,1.8492240580081098,62.52257706423437
3833.5403,1.8301856368967906,138.36257688766494
3834.4224,1.8114667518949217,112.13505068261084
3835.3064,1.7926834932803843,84.68058837149708
3836.1887,1.7750015342016654,80.74381072160081
3837.0713,1.7608380551656402,77.08787976996751
3837.956,1.7527186486699784,147.71365923086924
3838.839,1.7520616197297714,133.2531804094395
3839.7244,1.7592529915583845,70.8460905080924
3840.6077,1.7746760817729852,92.97124440368069
3841.4932,1.7989149479149078,119.86791013961597
3842.377,1.831035002032178,165.08115217052332
3843.261,1.8677274988300303,58.93522008921138
3844.1472,1.9040603114667844,95.58595796641886
3845.0315,1.9356847903937808,66.26329619841837
3845.9182,1.9613693507361911,55.82935669783018
3846.803,1.9823117667723522,114.23935113680346
3847.69,2.0009088920208153,115.62373733501296
3848.5752,2.018517505684085,73.90595126173056
3849.4604,2.035156397598607,51.64129423271187
3850.3481,2.049954712495835,81.26238801832638
3851.234,2.0618121456528247,106.2884265259639
3852.122,2.070057544322051,85.70963689034387
3853.0083,2.0745091447135806,90.68881742849975
3853.8967,2.075851889937884,72.08486117433584
3854.7832,2.0751528102076873,66.14423080267159
3855.6702,2.072924566453023,63.87133317752651
3856.559,2.068725823528415,81.31761325839548
3857.4463,2.062289063387249,70.3782069032539
3858.336,2.0549933710273782,71.59414087948755
3859.2234,2.0500781685560012,65.60607457297469
3860.1135,2.050732314112041,71.52205719963733
3861.0015,2.057982102687311,101.35891376480876
3861.8896,2.069846285128717,103.49864291813341
3862.7803,2.0822608206410016,108.12869871183983
3863.6687,2.0908142036860795,64.02107207669329
3864.5598,2.092793899119246,66.73756684297112
3865.4487,2.0878827941844347,61.34543778053753
3866.34,2.0775817148879234,145.41746520697342
3867.2297,2.0638587397972716,72.25774193623364
3868.1213,2.0480680103107987,55.50602482472142
3869.0112,2.031198776044619,69.62607518467445
3869.9014,2.013959437471305,68.27156332564375
3870.7937,1.9969584510095875,62.92139053659213
3871.684,1.9810379051236737,89.80617941480325
3872.577,1.9673849868388429,81.44750168165301
3873.4678,1.9575120932402439,91.00513376368677
3874.361,1.9515932640539262,71.34901881323546
3875.2524,1.9473971508879941,86.57213195217135
3876.1438,1.9407304234806468,102.31686803379826
3877.0376,1.9278195620504868,65.60313662797135
3877.9297,1.9076486554188608,95.0717333693135
3878.8237,1.8819586207664936,120.294356238486
3879.716,1.8538713131816442,96.39184259565793
3880.6108,1.8255309328757068,87.09717083281652
3881.5037,1.7977590222971935,87.39279126412855
3882.3965,1.7698921678077826,107.47180241659474
3883.2917,1.7407585433449646,110.27292432768418
3884.185,1.7097144487593856,77.77940230360018
3885.0808,1.6766529819988758,86.83894703289612
3885.9746,1.6426365475156302,188.20880162624445
3886.8706,1.608869858523061,84.6131877449552
3887.765,1.5769780915839304,107.09345934706266
3888.6592,1.5485531067758809,132.44840643148072
3889.556,1.5256150239793214,162.87490792790658
3890.4507,1.5106234643044563,128.5035868656454
3891.348,1.5053668708054995,139.46347061289634
3892.243,1.5103882607158332,134.6391432144474
3893.1406,1.5247726846999095,158.55887351894617
3894.0361,1.5467680993014838,200.75485006192804
3894.932,1.5747727198562682,106.74514718922535
3895.83,1.6074322214109966,98.17369076911945
3896.7263,1.6430219452608443,88.19605132303734
3897.625,1.6798368106340915,81.92155136663254
3898.5215,1.7157745399822149,78.41893463768623
3899.4207,1.749565693379446,61.94535634591287
3900.3176,1.7801701154153404,142.97465949593266
3901.2148,1.8070679474258846,94.187754001198
3902.1145,1.82975525356397,86.81221090718171
3903.0122,1.8483951408389299,65.3101567371921
3903.912,1.8653145664129893,98.61296953487927
3904.8103,1.8844994498342265,67.51620237898173
3905.7107,1.909885249704492,115.96470591557834
3906.6094,1.9423862509478853,95.49401285894653
3907.508,1.979237868009244,61.2368337550282
3908.409,2.0152888552037207,90.24693736402627
3909.308,2.0454057281049103,75.44693412498336
3910.2097,2.0672349167697357,64.73668576397601
3911.1091,2.0814159346343826,70.64712080218352
3912.011,2.0912232205723758,57.8789583815886
3912.9111,2.100392859832212,67.82879213747454
3913.8113,2.111363007775406,58.54301959456383
3914.7136,2.1243902604987044,80.94287236899895
3915.6143,2.1382170705261667,67.13325470626403
3916.517,2.1516043296490737,115.56230376388815
3917.4182,2.1635728811520867,55.85484971159615
3918.3215,2.173268508993025,55.113283354909946
3919.223,2.1798718264940926,61.795931493587034
3920.1245,2.1837191536939766,81.78737747927732
3921.0286,2.1867638280741244,89.83228829037961
3921.9307,2.1917276880564476,65.41451157599366
3922.835,2.200569370727656,63.65026445614726
3923.7373,2.213391546243502,67.16716956823113
3924.642,2.2287545292526456,68.33659576293927
3925.5452,2.244327716443853,56.83837733717547
3926.448,2.2581066362825934,62.930303973878864
3927.3535,2.26888301444019,53.31318619049358
3928.257,2.276000755888078,56.3550885664103
3929.1628,2.2788991202146405,62.51505515735797
3930.0667,2.2764960747098626,79.06476771367319
3930.9731,2.267543833745612,78.42766964978672
3931.8774,2.251855120793602,73.07211880255164
3932.782,2.2312862313857407,73.75116624111907
3933.6887,2.209624169252985,66.17093339478993
3934.5938,2.190984576539845,71.15464232134713
3935.501,2.1772067788409983,63.87856157892698
3936.4062,2.1671264195264293,64.161832504111
3937.3142,2.157414673451649,65.91558778472228
3938.22,2.1452359364905136,84.52710639961309
