wavl,flux,ivar
3566.9744,5.51818967873732,17.7624740802556
3567.795,5.515990876784627,15.37602801311008
3568.6177,5.502749562915703,15.950632073069617
3569.4385,5.484300447933737,20.117630693791988
3570.2617,5.465295983657452,16.960952921238107
3571.083,5.448353357445808,17.93196325745017
3571.9065,5.4339841232729515,15.998766278947226
3572.7283,5.4216521100742145,21.675314909572997
3573.55,5.409830424531612,16.677708447143594
3574.374,5.396395282180804,18.19278195942262
3575.1963,5.379786988478202,23.561857835017456
3576.0208,5.360312384825826,21.345803687433417
3576.8435,5.341148506984284,23.847901850057422
3577.6682,5.3267679012562335,17.825391354935093
3578.4915,5.320490753103407,20.219693177746457
3579.3145,5.321880184477116,23.127288755617933
3580.14,5.326810102398914,20.688453337320148
3580.9636,5.329951417648279,20.438291325678975
3581.7893,5.328698055913555,19.446629013921854
3582.6133,5.325789649874109,24.847822376957566
3583.4395,5.3284599504743815,19.746434626945398
3584.264,5.343733752871359,29.1333410561655
3585.0884,5.372863617112695,15.17597826424598
3585.915,5.409501729386175,17.854931851972804
3586.74,5.442737399281033,16.815857708380328
3587.5671,5.463596833625342,18.646431735130783
3588.3923,5.46823984251329,16.30633417682737
3589.22,5.457928168214239,21.793274969442844
3590.0457,5.436153672081506,18.608560776992135
3590.8716,5.406146202577894,15.380982044950779
3591.6995,5.370201197049943,20.767093887134607
3592.526,5.330635281108121,21.902614087245684
3593.3542,5.290208126970227,19.556160363951005
3594.181,5.253160765068807,19.386118567271026
3595.0098,5.223931219888983,19.215121768934896
3595.8367,5.206325730055693,22.87208930624748
3596.6638,5.201442205921431,18.80265827845238
3597.4934,5.207254117080952,28.03121365465428
3598.3208,5.218760394285869,19.131107540419922
3599.1506,5.229691130743263,22.10678422099225
3599.9788,5.234842026412194,20.192396393109654
3600.8088,5.232308263940596,21.894997248871693
3601.6372,5.223388526788098,20.646811240800524
3602.4678,5.210796413154393,22.826769009245375
3603.2964,5.197488859379817,17.908261035917572
3604.1252,5.186604163954596,24.61805326674026
3604.9565,5.181863181861824,23.02228825854619
3605.786,5.18672583463971,20.327061402701027
3606.6172,5.203018724151666,22.631554923274823
3607.447,5.230208973761799,22.298098748937026
3608.2788,5.26557160557323,22.645906055248954
3609.109,5.3035378020250565,23.022803245185347
3609.9392,5.336383727694173,18.737483135189212
3610.7717,5.3557390171397135,16.55626136620397
3611.6023,5.355691878501569,16.576847848050292
3612.435,5.335411557101448,22.147506642627622
3613.266,5.299158388185319,18.863295567914808
3614.0994,5.254390410975824,23.257523945865277
3614.9307,5.210620453467,25.183469286715482
3615.7625,5.176614351824827,23.95564239561059
3616.5962,5.158028695285741,20.665413782113614
3617.4282,5.155112637254036,19.14931883307749
3618.2625,5.163049183366814,21.034520414286963
3619.0947,5.175263331775162,24.08624895985572
3619.9292,5.186737275867188,23.299755477921856
3620.762,5.194782343899562,30.691959121990205
3621.595,5.1983555651543,18.919812158576622
3622.4302,5.197196634791731,21.61994228804414
3623.2634,5.192161660857938,24.416271396999978
3624.0989,5.185565573963875,27.013038297326386
3624.9326,5.180393565111803,25.06170032501265
3625.7686,5.1779689865580965,22.53549930401079
3626.6028,5.17593968768352,25.59497579716359
3627.437,5.168488830423275,22.71264274301199
3628.2734,5.149753143704394,22.801190426474346
3629.1082,5.118568255838208,25.82711351274956
3629.945,5.0797702651021766,27.38276057129748
3630.78,5.041420026226585,21.658633579375437
3631.6174,5.00854273826806,25.88277277584806
3632.453,4.981478446020068,21.034716828620095
3633.2883,4.9584130643203155,17.030020270222398
3634.1262,4.940376361851963,22.197126164492047
3634.9622,4.931518660132229,28.95987006757762
3635.8005,4.9337558245267,22.855615201920813
3636.637,4.942505437055757,20.0990709874092
3637.4756,4.948317181324709,19.532452965050748
3638.3123,4.9432216739716575,26.00111785518931
3639.1492,4.926154208670456,23.08377807042325
3639.9885,4.903061670525359,29.873335670677523
3640.826,4.882914105321584,25.494711540685778
3641.6653,4.87176550042075,25.150783740045483
3642.5032,4.869730151198966,21.566989939149572
3643.343,4.871486501581034,20.632735925134615
3644.1812,4.870335543714018,25.19813155308389
3645.0195,4.862576420982842,20.447745644999312
3645.86,4.849242551965357,28.86227410004768
3646.699,4.834658827902132,23.42836567082365
3647.5398,4.822983676415758,27.333097676124314
3648.379,4.816147805503907,25.927358207507446
3649.2202,4.8135418587483345,21.266102278549454
3650.0596,4.813385851203451,22.03719768865855
3650.8994,4.814013679773634,24.91592006914682
3651.7412,4.814752223356631,22.621403519886627
3652.5813,4.8160719261663685,26.320305311020775
3653.4236,4.818914889943551,27.55706479959687
3654.2642,4.82341654189091,19.936261184085577
3655.1067,4.828193675635048,21.294108737115486
3655.9475,4.830793461521512,30.04114419167918
3656.7886,4.829043408746334,19.744937962149635
3657.6318,4.821907032407068,28.313026289016168
3658.4734,4.809963524976423,27.29545866150876
3659.317,4.795704590194108,24.603117185579457
3660.1587,4.783821844436317,24.872320428223286
3661.003,4.779444733524165,27.948021233595977
3661.845,4.785013658058331,29.418706235552907
3662.6875,4.797539051938845,28.80251263738414
3663.532,4.809460856689194,19.875101196548737
3664.3748,4.812754496832174,26.351278506752212
3665.2197,4.803637851868683,23.98829531928194
3666.063,4.7839973328260585,29.85329208044775
3666.9084,4.759105733587881,27.28554233347864
3667.752,4.734820301203577,29.095389881442905
3668.5977,4.715417315495081,22.99698981164857
3669.4417,4.70353663034142,35.02839127573798
3670.286,4.699418044323236,23.463599526689862
3671.132,4.700795916106323,21.396923425248303
3671.9768,4.703466226673393,26.005062464399217
3672.8235,4.702878573325713,30.993464190531498
3673.6685,4.695768316738191,21.448513744798483
3674.5156,4.681289328366532,25.77154032633095
3675.3608,4.661790952806183,30.847120961901854
3676.2063,4.642239777810257,24.066814299741093
3677.0542,4.628560522044336,31.3559913460642
3677.9,4.6250475978875345,24.265572080930117
3678.748,4.632063742372978,21.169023769912688
3679.5945,4.645854446375607,21.582699082462387
3680.4429,4.660140785191718,22.020488809503732
3681.2896,4.668331422752948,29.85817333521854
3682.1365,4.666134877601606,23.72180525556519
3682.9856,4.653150238274733,35.512282838592654
3683.8328,4.633186264762393,41.93892068959718
3684.6824,4.61185032790343,21.731847510439426
3685.53,4.5936180223185525,23.884109438132707
3686.38,4.579672440490399,26.566641358367004
3687.2278,4.569540489539278,27.33462395835083
3688.0762,4.563695295030544,25.936339773666052
3688.9265,4.564947906160248,25.732034976608812
3689.7751,4.5763047599101085,38.92607591282659
3690.626,4.597404996457369,24.928477601892883
3691.475,4.622652298630573,25.644097012640014
3692.3264,4.643870305057899,23.779982529943602
3693.1758,4.654849604931789,27.809640784895027
3694.0254,4.655500469531908,18.604641477038328
3694.8772,4.651189341596162,27.729598891074033
3695.7273,4.64843751772704,28.836642438626512
3696.5793,4.650004997833126,26.532257526134668
3697.43,4.653715039812907,27.292603425313708
3698.2825,4.655435815438226,25.468569124052514
3699.1333,4.652614425973069,27.226148960566714
3699.9841,4.644882763616027,27.859661073557955
3700.8374,4.632152310275656,24.550778390301055
3701.6887,4.61385986485033,24.369648954285193
3702.5425,4.590098158122958,27.180294614831773
3703.3943,4.563521615355682,30.062134016656977
3704.2483,4.538186951926752,33.23909763315554
3705.1003,4.517597090507592,29.976295472675236
3705.9526,4.5023666865060115,32.2700010950024
3706.8074,4.490367005539713,29.529920229610166
3707.66,4.478110649466199,33.8885481330247
3708.515,4.4624102419813445,36.42440443901998
3709.3682,4.442385927057414,25.082079767918678
3710.2234,4.419967821146771,28.649614384566924
3711.0771,4.3993760296708215,36.02529544278678
3711.9307,4.3844587498822305,32.17997231194257
3712.7866,4.3765680168625565,27.28943235089314
3713.6409,4.374237997608717,35.78079276855402
3714.4973,4.374634353096143,30.625862437649342
3715.3518,4.375420997249141,31.077225987162734
3716.2085,4.375349409407002,34.71402743373441
3717.0635,4.373995423007031,32.5583343284986
3717.9185,4.371701989971256,31.519244891437197
3718.776,4.369781815119717,33.14033152897141
3719.6313,4.370039709388514,37.49816921305527
3720.489,4.373287900244073,28.5193299056573
3721.345,4.37829902470072,30.191913035536967
3722.2031,4.382563717767516,37.16001459772334
3723.0593,4.383990776059355,34.156669715773724
3723.9158,4.381965473039698,32.61205977089258
3724.7747,4.376830475767227,35.15600350188154
3725.6316,4.369114546173284,20.600392161923686
3726.4905,4.359438259229987,28.018888406066548
3727.348,4.349524561403852,33.149074611910045
3728.2073,4.342520708053481,33.7873978379502
3729.065,4.341822741068472,29.63845308271401
3729.9229,4.348291755693313,26.091447762524542
3730.783,4.3587115570074895,35.373093425888776
3731.6414,4.3672167276429805,28.16855037555676
3732.5017,4.369536286293833,36.52755147359629
3733.3604,4.366055298128252,29.38504827600861
3734.2214,4.361150458567991,29.437890087312688
3735.0803,4.359129373474975,31.774746642002743
3735.9417,4.36023761601103,34.659248840703405
3736.8013,4.360397180782541,34.767413455001765
3737.661,4.354864602862767,27.253033788915154
3738.5227,4.342518251313753,34.45350449775026
3739.3828,4.327063434194588,36.0187429545378
3740.245,4.313743240702183,30.232677854290536
3741.1055,4.305281637611154,28.696020783147848
3741.9683,4.299839601122789,35.31889806564179
3742.829,4.292926452391295,33.12877860407504
3743.69,4.280817551392008,27.35118869872787
3744.5532,4.263311582899957,39.31695770373838
3745.4148,4.244309170489471,31.761428090266822
3746.2786,4.22965120338091,28.20281808237904
3747.1404,4.224687172134273,35.42978061932533
3748.0044,4.231994889310836,29.449100034253895
3748.8667,4.250586146643897,31.468602460454658
3749.729,4.276098114627317,27.795659867767736
3750.5938,4.301947466148887,37.04200301949373
3751.4565,4.321160864220421,39.51935760279497
3752.3215,4.329383873356382,25.837714469837323
3753.1848,4.326226272933012,35.650221511145475
3754.0503,4.315048835761407,30.850052685385933
3754.9138,4.300863131850138,25.448323172084365
3755.7776,4.287661017203533,33.25712546164964
3756.6438,4.276807322699196,38.288210994997115
3757.508,4.266878156596374,28.40057040696581
3758.3745,4.2548751370689555,33.68085036114417
3759.239,4.238823905623345,35.961937922072686
3760.106,4.2192297577911155,25.3447762972966
3760.971,4.199182834312346,31.433991645915015
3761.8362,4.182206865327728,32.262502889079165
3762.7036,4.170462873819423,33.93727066426124
3763.5693,4.163943775497082,30.142599637403745
3764.437,4.160851962467714,30.447867715889096
3765.3032,4.158911307426119,32.00802063643433
3766.1714,4.156122175658644,34.992810571766825
3767.0378,4.151079072721359,38.50894764812175
3767.9043,4.143274138595867,31.556366535426637
3768.7732,4.133733196843834,31.12204969191114
3769.6401,4.125124657633599,30.585276520111144
3770.5095,4.1200291116935155,27.623917219063067
3771.377,4.118854362788612,34.153796616701726
3772.2466,4.119166175950085,33.096004222351965
3773.1145,4.117812510130279,26.07750828427788
3773.9824,4.113786645264005,43.06804456965037
3774.8528,4.1091566801282084,41.84642345035682
3775.721,4.107524663361175,26.661215363978936
3776.5918,4.111505161551103,41.60318134065066
3777.4604,4.121307355895754,36.47514873992027
3778.3315,4.13497165775159,32.25235288269202
3779.201,4.149247286952841,36.169417079733904
3780.0703,4.160801330515149,30.469987066477728
3780.942,4.166742138521011,38.520373883371626
3781.8118,4.165278602861533,29.141862949609134
3782.6838,4.156703662223702,36.35045303132155
3783.554,4.14368278479407,32.35249274326844
3784.4265,4.129746171856855,27.71686272575846
3785.297,4.117249503421765,33.130273567125144
3786.168,4.1060832192199035,35.3269325522846
3787.041,4.095018228633051,30.357793434548526
3787.912,4.083806497943018,35.30066010471091
3788.7856,4.073402203010087,34.15643631984823
3789.6572,4.06456051532221,39.89080612148349
3790.531,4.0562092122485796,37.418383408316714
3791.403,4.0462850906769345,29.800693307730818
3792.2754,4.033462165904257,33.05681096438671
3793.15,4.01789304125276,44.56457814536278
3794.0225,4.000186187039234,48.83761060810097
3794.8972,3.979879833828553,41.921698728572245
3795.7703,3.956376227268641,39.10445445253267
3796.6455,3.9306622648591394,32.94225151730385
3797.519,3.906902806105695,37.725565424366806
3798.3926,3.8905822218436676,37.79848978756496
3799.2686,3.885454269426844,40.7613423994286
3800.1426,3.8910217634836237,35.70640589517219
3801.0188,3.9026307233831545,43.939748713732804
3801.8933,3.9140182009219946,30.467259145441155
3802.77,3.920698309165489,33.40657439565384
3803.6448,3.9217910830404015,36.988009429297946
3804.522,3.9200083972713604,25.18849141665892
3805.3972,3.91968688709947,45.54868510194514
3806.2727,3.9241766753301706,39.68048238011976
3807.1504,3.9340407638983494,34.424715104709534
3808.0261,3.9468760246669103,36.849007298969426
3808.9043,3.959181535404076,33.130865539882514
3809.7805,3.9684994688822695,38.54250049828106
3810.659,3.975223373153973,38.99146599378194
3811.5356,3.98220041458837,44.98065137850611
3812.4126,3.9927854750341534,42.01441337422783
3813.2917,4.008136360347352,39.59499215342061
3814.169,4.025801455624196,37.13946951092341
3815.0483,4.041390951934541,30.639646101490772
3815.926,4.05137100770611,32.923171943352855
3816.806,4.055230524988165,34.895084756320884
3817.684,4.0543033917062985,37.338544101685756
3818.5623,4.049290465581207,33.73915061367986
3819.4429,4.0390076618671635,33.487906364173014
3820.3215,4.021899158710196,38.76183908876141
3821.2024,3.9980224399661184,33.064956683881285
3822.0815,3.9699607948913913,40.16930403333774
3822.963,3.9410067587923927,39.28242105462476
3823.8423,3.9138466610218585,31.35772631727352
3824.722,3.889483408547611,35.84677921136368
3825.604,3.867907232994707,38.338096149824366
3826.4841,3.8487594008832064,39.29303909081094
3827.3665,3.8313307018812175,43.753233609875366
3828.2468,3.8153425460842416,38.24967478519819
3829.1296,3.800680429546327,38.555382647693236
3830.0105,3.7868115267883424,43.89411284623204
3830.8916,3.7712993063515396,42.040337902889064
3831.7751,3.7502023048370745,32.60305468028889
3832.6565,3.720924011506565,24.701289670474843
3833.5403,3.684840087119264,43.47973539263676
3834.4224,3.6481621219355174,40.200064173396086
3835.3064,3.6180194796362546,52.97089737409893
3836.1887,3.598866397780141,35.192208364079136
3837.0713,3.5905963170867072,44.49369208329681
3837.956,3.590882453627227,44.63428179141686
3838.839,3.598135358430352,41.37453995315385
3839.7244,3.6127262906646918,47.66166619383975
3840.6077,3.6354762314428646,37.2738549629418
3841.4932,3.665793307187436,41.83499455742176
3842.377,3.7005438449310994,36.1615858334326
3843.261,3.7356685668605243,37.297888238615755
3844.1472,3.7677317243944146,41.4251227825617
3845.0315,3.794665693018425,36.245344987832596
3845.9182,3.816406471313304,35.96037013355607
3846.803,3.8342094010735814,44.82975080432689
3847.69,3.8505887609102176,39.72399248630434
3848.5752,3.8678098139225936,35.74391681458138
3849.4604,3.8868330634596093,31.458333588472552
3850.3481,3.906806297069412,39.80487004532562
3851.234,3.9257510771842408,32.04407564661888
3852.122,3.9422489539314896,37.90215842654705
3853.0083,3.9557542275429283,30.77804537276264
3853.8967,3.9665748329015647,30.023337012313185
3854.7832,3.974797517956565,34.732200117131796
3855.6702,3.9799541718532887,42.082141850136324
3856.559,3.9812218906021766,36.01146850698142
3857.4463,3.9785446416903585,36.7736079850366
3858.336,3.973425610521651,38.23964073572734
3859.2234,3.968311798127519,35.47567960017511
3860.1135,3.9647342521238818,33.971339417727215
3861.0015,3.9622671152612767,40.69663561702646
3861.8896,3.959074855372167,38.092692537609494
3862.7803,3.953488570355516,42.82327973354461
3863.6687,3.944954314751181,39.77090443164721
3864.5598,3.9335349384110234,43.72135367925163
3865.4487,3.919179166194815,35.526435664506515
3866.34,3.9011605531724385,44.57235773767763
3867.2297,3.879032783494997,33.32055511001419
3868.1213,3.8531694850026383,42.066492385710276
3869.0112,3.8252222180249054,37.76462250200439
3869.9014,3.7969929858512144,37.060554648865434
3870.7937,3.7697088970239014,48.85259900369669
3871.684,3.74393268854906,43.80920499163918
3872.577,3.719668433737955,36.84511516906282
3873.4678,3.6976672208096604,41.22002434541952
3874.361,3.678846840374032,42.2804467681028
3875.2524,3.6632420937769803,34.97488462332042
3876.1438,3.648289510582324,37.75323251248149
3877.0376,3.629713208356776,43.39818609725951
3877.9297,3.6044767893582828,48.80763216934073
3878.8237,3.5727502048805966,49.14138740382196
3879.716,3.537746481261883,50.414933513174404
3880.6108,3.5022684095015126,52.4982726985996
3881.5037,3.4668081998609876,57.752198353041194
3882.3965,3.4290046261276244,55.044197177317244
3883.2917,3.3860633389677526,48.6105327963063
3884.185,3.33748362917061,42.908177145388606
3885.0808,3.2850990602803267,60.26929444984564
3885.9746,3.23291351123072,57.4587089355696
3886.8706,3.183942787345676,48.35935654872773
3887.765,3.139507833217709,67.30174174052486
3888.6592,3.0989451490569335,64.02567303134111
3889.556,3.0624040149142,60.366395160542574
3890.4507,3.0332568688012427,74.71690964149296
3891.348,3.0168406859960064,80.75193321202164
3892.243,3.017768971306042,68.68165433629625
3893.1406,3.0369036046805977,77.61485006804436
3894.0361,3.07134263503458,69.64389131185531
3894.932,3.1167513756766336,52.22012474854858
3895.83,3.169095142608245,60.89203789503546
3896.7263,3.224471895554598,56.24833862569509
3897.625,3.279770669184217,55.19613959959608
3898.5215,3.331923538141159,46.11414046897954
3899.4207,3.3797783129274035,43.60644607475538
3900.3176,3.4232298332151307,60.70835168101067
3901.2148,3.463502068451621,43.448368719452404
3902.1145,3.5018810262603095,43.07837360810451
3903.0122,3.5391518578032217,36.39494776860803
3903.912,3.5762108817367446,45.5757501230378
3904.8103,3.6133197840741436,39.114842719559604
3905.7107,3.6509453624782577,38.294442389560366
3906.6094,3.68957354293327,40.37575907170366
3907.508,3.7302082557769363,37.64316987791205
3908.409,3.7730040474151783,50.73603858078998
3909.308,3.8155211630835058,36.92126461588698
3910.2097,3.8534357212386565,42.95380337812831
3911.1091,3.8820872922183263,39.04887644927708
3912.011,3.9005310475412727,38.70372887023152
3912.9111,3.9127557593184266,35.790674032514644
3913.8113,3.926216478527229,32.53797802579286
3914.7136,3.9468358507395065,36.640121545413876
3915.6143,3.974560002692803,34.75518225002094
3916.517,4.003682225657467,32.6327551960499
3917.4182,4.026651169099029,46.324847136988424
3918.3215,4.039225803352158,34.59372094797347
3919.223,4.041907467736396,36.54534169924539
3920.1245,4.038866483768358,34.23433497657046
3921.0286,4.0352922563743725,40.990825170338454
3921.9307,4.035316316398739,35.171399653720385
3922.835,4.040731448289169,33.85127714483832
3923.7373,4.050960266838513,35.52401961759231
3924.642,4.064207010339504,34.50063471059363
3925.5452,4.078471834595032,29.248915280291463
3926.448,4.092165218884465,41.60166589968543
3927.3535,4.103850920275513,32.51316572698532
3928.257,4.112046681829855,31.74532190743246
3929.1628,4.11562222695388,33.69091553550657
3930.0667,4.113815805301625,31.058958155983323
3930.9731,4.1063482509709806,29.841391527103834
3931.8774,4.093580172824196,37.87700283121159
3932.782,4.0765137694715685,38.37042560547558
3933.6887,4.056840858132687,37.688050426410314
3934.5938,4.037031704727236,38.718637504567525
3935.501,4.01957644798717,41.104151853764954
3936.4062,4.0061514941969225,34.16958946749449
3937.3142,3.9961242335065834,38.871320234049016
3938.22,3.9869395030761625,35.38760279071125
