wavl,flux,ivar
3566.9744,2.4849903787190173,170.01352422987026
3567.795,2.494860927444429,71.58899397662319
3568.6177,2.4941434289100575,80.02779612341959
3569.4385,2.486319311089666,113.91931153223823
3570.2617,2.477676365999189,115.07993248113209
3571.083,2.4746841342279575,153.0121895512638
3571.9065,2.4806521718835493,76.55068533074582
3572.7283,2.4938309697983008,101.1964148396878
3573.55,2.508412377787367,187.31765801409978
3574.374,2.517970474466186,66.78944350011089
3575.1963,2.518585911331676,75.80203158423528
3576.0208,2.5094889108640133,102.0781885101693
3576.8435,2.4916365947021224,73.11316005709807
3577.6682,2.467007511001649,99.97745492002052
3578.4915,2.4397123794224385,128.58628518963195
3579.3145,2.4153079886124726,141.2245607059613
3580.14,2.3981108045999537,116.56236641655578
3580.9636,2.388805007807775,94.46874753426282
3581.7893,2.384782837240142,121.28740738389715
3582.6133,2.3831086166907416,90.83228149705036
3583.4395,2.3820139076487514,150.54818680900166
3584.264,2.380567954863115,103.73240998262038
3585.0884,2.378138472561488,122.65473789499569
3585.915,2.374614721513466,113.15805585129965
3586.74,2.370422849971176,125.23641522965347
3587.5671,2.365842853539084,115.01643912630563
3588.3923,2.3609047618865144,105.06778144032762
3589.22,2.3559277417697864,118.45838246552526
3590.0457,2.3519595295313236,114.51184959976038
3590.8716,2.350025183768104,174.46716039588887
3591.6995,2.350347014310286,97.08370888704945
3592.526,2.3522517127361406,87.3055982982433
3593.3542,2.354657657653259,145.3255747682676
3594.181,2.3563770253191283,92.62211891249875
3595.0098,2.3562532182776335,189.10364404834792
3595.8367,2.3534540298681543,123.86225610534139
3596.6638,2.3480626124934156,140.2241658113462
3597.4934,2.34135404216369,115.93441519289779
3598.3208,2.3352067392988016,84.01322387411639
3599.1506,2.3305468867016046,85.92311693756085
3599.9788,2.32675962916505,161.04059312746227
3600.8088,2.322810601198841,77.43342735067017
3601.6372,2.3194476415952194,90.52658130158324
3602.4678,2.319453824090708,112.6844285543969
3603.2964,2.3251362443115102,145.55370770890093
3604.1252,2.3353923348499275,133.82725579809096
3604.9565,2.3457980960600073,146.676611500199
3605.786,2.3517195702425524,140.54551266256203
3606.6172,2.3517372402093835,121.45485801295612
3607.447,2.347961732091607,106.67433165322494
3608.2788,2.3440036603109067,129.63929515117587
3609.109,2.3427539197488025,83.56003471932624
3609.9392,2.345238995031381,111.26533656088847
3610.7717,2.350507857170399,111.71297891694242
3611.6023,2.3560175600728033,93.834726908921
3612.435,2.3589311224175744,126.13955075294963
3613.266,2.357525943283464,111.19525179768442
3614.0994,2.3518398213951057,115.0690785174519
3614.9307,2.3430368533290427,135.88331713867163
3615.7625,2.332403805034129,135.06399320354768
3616.5962,2.3213262034770783,90.2375228997089
3617.4282,2.31184545292554,144.42781486374167
3618.2625,2.3060918534431747,133.27799441718105
3619.0947,2.3046338497737233,88.76379376250752
3619.9292,2.3048833398738826,191.12788389865278
3620.762,2.3023135688351277,110.24509914796674
3621.595,2.2941180311056133,106.17389627642785
3622.4302,2.282065430822769,118.01352238184285
3623.2634,2.2716499961663317,150.43535176698973
3624.0989,2.2676110989938802,162.87374530053853
3624.9326,2.270302886015523,115.71844323047473
3625.7686,2.2754468595274586,171.0767237409379
3626.6028,2.2774012087371363,95.90786698303023
3627.437,2.2732492620211016,148.5047058617785
3628.2734,2.264742030230916,101.59969012819997
3629.1082,2.25733500065844,115.24731852602734
3629.945,2.25670594341518,128.66616954413135
3630.78,2.2651911393082114,81.12629141239574
3631.6174,2.2800813975805223,142.367466164036
3632.453,2.294787323615318,158.9200635401444
3633.2883,2.3027007856242068,124.14461643226592
3634.1262,2.3006598490526438,139.0591773608757
3634.9622,2.290451488449488,93.25019730769937
3635.8005,2.277428486017982,155.51420070607017
3636.637,2.267683443807839,113.28069890559479
3637.4756,2.26478775242555,333.8435320010761
3638.3123,2.2681128948697697,144.81070618227548
3639.1492,2.2731119685990855,153.27482987322196
3639.9885,2.273981024569432,116.9713637960499
3640.826,2.2672244180015175,118.76125043578567
3641.6653,2.253994575956525,115.74016820522489
3642.5032,2.2396145638089333,155.6137308525093
3643.343,2.2299810307230254,110.49706383629635
3644.1812,2.2276615513591116,162.3962697543543
3645.0195,2.230066925712104,86.27701401178763
3645.86,2.2315297922348116,108.97822705568365
3646.699,2.227247141219986,121.05897370818244
3647.5398,2.2164815952682804,162.84065781023168
3648.379,2.2032164368242024,86.19307987009778
3649.2202,2.193506126471233,152.94484683503902
3650.0596,2.191199873567455,171.9092156275714
3650.8994,2.1944197169141497,157.51232966551913
3651.7412,2.1967505252432695,130.83499977179736
3652.5813,2.1924351349859132,130.79125777671882
3653.4236,2.1811191571838164,167.04247628571412
3654.2642,2.167626821353022,242.82454431052048
3655.1067,2.157097942243342,144.0623672501529
3655.9475,2.150989539312439,181.11649693782374
3656.7886,2.146827788894563,120.54567678718583
3657.6318,2.1412880938338508,142.83744200405064
3658.4734,2.1329282360961863,174.62958385779703
3659.317,2.1226634679072522,168.2253651374235
3660.1587,2.11303989443264,147.20107669620222
3661.003,2.107331885682003,98.37042262277241
3661.845,2.109433029812988,188.20811932125008
3662.6875,2.1228162974050124,119.42200057987726
3663.532,2.1482032160742217,167.07265111634007
3664.3748,2.1808761438761213,161.83854492740218
3665.2197,2.2118922516029618,111.04633845717213
3666.063,2.2322527300628123,127.40990154544116
3666.9084,2.2383018225340856,110.06912790001577
3667.752,2.2324372363734755,121.65806592965406
3668.5977,2.2204380120916127,111.77948277929113
3669.4417,2.208089482012404,107.96146380997737
3670.286,2.1992579357917856,160.84895384550256
3671.132,2.1956266990731335,150.63915652848618
3671.9768,2.1967688573978807,141.6145176667191
3672.8235,2.2005258847738114,99.34761924613925
3673.6685,2.204079682366908,138.37130176533176
3674.5156,2.2054676972853473,155.88131959112746
3675.3608,2.2043871004491273,148.99700787470871
3676.2063,2.201672400745361,174.20979032070224
3677.0542,2.197931582940994,191.47813782960256
3677.9,2.19313760056619,123.15813314124492
3678.748,2.1876557466618576,109.6337865372005
3679.5945,2.183445366460532,143.48275296449884
3680.4429,2.183060837211305,166.23903305091568
3681.2896,2.1873049229088197,142.719972268418
3682.1365,2.194143372368666,109.46682706532334
3682.9856,2.2003782797171274,133.98183251756137
3683.8328,2.2039251931134194,138.7260446330607
3684.6824,2.204129418199238,116.80250547728365
3685.53,2.199928724239588,114.45179015688846
3686.38,2.189014426281631,130.07985419936128
3687.2278,2.169927384383732,185.0724932782379
3688.0762,2.1448161175389155,191.1720400569248
3688.9265,2.1197926790864896,323.9791716192104
3689.7751,2.1018724169315126,271.1296755858874
3690.626,2.094811568670405,183.60493519204417
3691.475,2.098150194290094,127.17690589072966
3692.3264,2.108552608931026,152.06613875918148
3693.1758,2.1218933929419217,108.28271817050374
3694.0254,2.1347463278628145,159.5759644714948
3694.8772,2.1448927231220187,135.42650890075143
3695.7273,2.1513785731650774,156.01066170694185
3696.5793,2.1543591726352145,142.16439646318466
3697.43,2.154389343536687,148.1367400748258
3698.2825,2.151910533649434,105.12562004171004
3699.1333,2.1469391871066157,140.0901691411926
3699.9841,2.1391096585805554,145.32951212861158
3700.8374,2.1281602042472625,162.08512969247118
3701.6887,2.1148623985482558,124.53833792144033
3702.5425,2.101355620678012,153.2168780162222
3703.3943,2.0910072005499414,155.09823441849414
3704.2483,2.0868213040268606,180.67185598641308
3705.1003,2.0901256774377788,96.45988106169129
3705.9526,2.099802735045804,162.6387990577896
3706.8074,2.112794681742555,130.87152004227303
3707.66,2.125143667729543,93.68361633760189
3708.515,2.1337937869691386,147.46783142332856
3709.3682,2.1375822632924564,132.18208881795314
3710.2234,2.1373852845669825,126.65961927537585
3711.0771,2.13458842155773,192.0108449940759
3711.9307,2.1294872016504565,169.42539673997956
3712.7866,2.1211096020235543,108.1245615926226
3713.6409,2.1089202137218197,114.24636662398592
3714.4973,2.094455499821786,185.4505973255036
3715.3518,2.0814959089130762,176.93605527367237
3716.2085,2.073458792845789,198.6908195798187
3717.0635,2.0707406502678802,198.24690175534224
3717.9185,2.0699383187113836,140.70992684263456
3718.776,2.066472573573092,138.3644993182074
3719.6313,2.0582136599043293,166.968081199083
3720.489,2.046971522072007,146.3393029967638
3721.345,2.0371716821026107,166.6955796285103
3722.2031,2.0328983355155117,160.04973945838483
3723.0593,2.0360220394617823,114.99735797874621
3723.9158,2.0456846335255254,203.26414269231697
3724.7747,2.059222798522776,162.9714669102164
3725.6316,2.0734582564210506,138.64374353963416
3726.4905,2.0862309500050866,174.97048843306536
3727.348,2.096490958173581,229.61640478791116
3728.2073,2.103863871868547,189.81781027370255
3729.065,2.1078380972365336,141.67777552159507
3729.9229,2.1079836678466055,165.46001711262255
3730.783,2.104384661354107,130.39223245721703
3731.6414,2.097861686757196,159.99712612024248
3732.5017,2.089612742795547,189.10685407450762
3733.3604,2.081041712964183,193.66810215036736
3734.2214,2.0735151774459766,152.76212705889446
3735.0803,2.0681951115547883,142.55792117838413
3735.9417,2.0652443188947793,199.55770438984013
3736.8013,2.0634693608076775,146.12206579470194
3737.661,2.0606026926659364,152.74787286414514
3738.5227,2.0545192177816514,159.6612339107789
3739.3828,2.044617235563196,129.22040312132614
3740.245,2.0321855270330667,137.334700471446
3741.1055,2.019857893771162,227.7462400959248
3741.9683,2.010140549354064,192.84658334219614
3742.829,2.0047194000102833,131.21276444244393
3743.69,2.003872232695887,233.31908914359408
3744.5532,2.0064567351023825,145.41539148212232
3745.4148,2.0102561224645004,306.9093838105381
3746.2786,2.013426264797076,96.92761522900979
3747.1404,2.0160799548458397,156.03866921358664
3748.0044,2.020351312704449,279.19847409186156
3748.8667,2.028036391641865,299.01465039589704
3749.729,2.0381406768581427,153.14562497022305
3750.5938,2.0470240831421584,124.71478904224342
3751.4565,2.0513683503855096,170.98930158113868
3752.3215,2.051290722791438,134.43559029106194
3753.1848,2.050140323945321,287.07000309779073
3754.0503,2.051588562983065,135.89115001422948
3754.9138,2.056773444172882,229.2876402410764
3755.7776,2.0638653804195246,122.92488857022158
3756.6438,2.0697066930075034,178.72994038705548
3757.508,2.0717797901796,157.88146627697284
3758.3745,2.0695118155472625,331.63503973337447
3759.239,2.064348259778802,174.21284935288446
3760.106,2.0587761390280948,154.3467839842339
3760.971,2.0548135914613135,121.15269832474657
3761.8362,2.0526725663099277,156.7928980712899
3762.7036,2.0508229440827037,127.7442157312018
3763.5693,2.047122352368149,220.83711281472895
3764.437,2.0401056393879746,206.68691058920953
3765.3032,2.0298096242538564,167.32633868941124
3766.1714,2.0176007003943335,184.4867544037096
3767.0378,2.0055173888725926,189.5609206784946
3767.9043,1.9949628153463077,192.62750809577636
3768.7732,1.9860764001481186,189.80493046516168
3769.6401,1.9779853300626997,151.33474481305103
3770.5095,1.9694305437475976,175.16439958403623
3771.377,1.9597699153658958,174.3348176179635
3772.2466,1.9494247063134962,153.52895206595946
3773.1145,1.9403033817251134,155.2940268518385
3773.9824,1.9350821989790543,215.73468808309536
3774.8528,1.9358279917151433,170.84366962674267
3775.721,1.9424385542656637,149.27249328883426
3776.5918,1.9524300749729457,162.9830465262432
3777.4604,1.9621655344759898,172.92369146413012
3778.3315,1.9689517936221155,125.67924645435704
3779.201,1.97204211595782,230.95838441962263
3780.0703,1.9727446247978564,204.92224590683983
3780.942,1.973360245300676,180.78969549833351
3781.8118,1.9756369712392625,208.66126421692917
3782.6838,1.9793202077434453,116.97435069609125
3783.554,1.9818908807128874,187.63849263173455
3784.4265,1.980277775469098,157.62525652507338
3785.297,1.9732742119654758,141.13661131493583
3786.168,1.9625082452053304,230.4432850513874
3787.041,1.9511658971963564,165.8078662435828
3787.912,1.9421805636339329,229.34354727415231
3788.7856,1.9372702891015086,207.60597328830937
3789.6572,1.937240769677853,185.61774770498096
3790.531,1.9415313696678684,181.61535183828184
3791.403,1.947248182134143,150.6863752536463
3792.2754,1.9493758185730095,161.1043319576203
3793.15,1.9432691028439173,189.5765219334403
3794.0225,1.9281319027010189,168.99741524763817
3794.8972,1.907962393351941,228.0174633227642
3795.7703,1.8891971252949682,157.02944080070495
3796.6455,1.876131994598857,175.11135004660383
3797.519,1.8687503695419865,145.5188046284109
3798.3926,1.8636759815312054,134.17483363657527
3799.2686,1.8578162056736374,167.39642786619953
3800.1426,1.8511956509922458,175.58610046907927
3801.0188,1.846824173751875,241.46975684045026
3801.8933,1.8484308065051624,183.73771313822905
3802.77,1.858050391145203,133.65306092467458
3803.6448,1.8753521137789027,222.66844023685331
3804.522,1.898734800183768,134.2520950227851
3805.3972,1.925819819677102,172.49950947643285
3806.2727,1.953634803995655,207.65044654273154
3807.1504,1.9780770090973143,192.8406076916253
3808.0261,1.9946587767761625,129.80247535822153
3808.9043,2.001020660939588,162.33239490254203
3809.7805,1.998278157741942,171.22322642294137
3810.659,1.9907747331869614,253.7803119014677
3811.5356,1.9838687840701101,150.08292356038982
3812.4126,1.9812952497118805,190.03566719924038
3813.2917,1.9838156529211464,149.32318480739937
3814.169,1.9895150400857773,205.0099927985521
3815.0483,1.9955816190752482,177.30925004699964
3815.926,1.9999447184925514,174.81338375281757
3816.806,2.0018476200021524,250.1510989995673
3817.684,2.0011949366112476,150.7317812571975
3818.5623,1.998140658615801,153.6453464002137
3819.4429,1.9932329882758986,163.98483984357844
3820.3215,1.9875253094800485,148.66852443369234
3821.2024,1.9817861139302073,192.5539994142945
3822.0815,1.9757827475368237,161.10396991879946
3822.963,1.9682105557043124,174.40194333330822
3823.8423,1.957665271440335,142.29460590411452
3824.722,1.9433838080013626,147.6294885793862
3825.604,1.9255680761519074,203.76527250602607
3826.4841,1.9053155541635853,175.65866909741143
3827.3665,1.8837627342833017,213.93069159126614
3828.2468,1.8619385414079062,210.72312539727372
3829.1296,1.8401922436626097,172.89339614699682
3830.0105,1.8188760640841832,188.89417575935028
3830.8916,1.7982895254442262,215.7961225966273
3831.7751,1.7787173528239844,171.9278846383748
3832.6565,1.7600046691532125,180.564243409352
3833.5403,1.7410272044128288,224.00900315042676
3834.4224,1.7210162786429897,168.458486604215
3835.3064,1.700602098661616,232.5442034182115
3836.1887,1.6824100215192639,280.39943466295546
3837.0713,1.6693427850313716,270.0667229885551
3837.956,1.6631733309333439,252.28833889233448
3838.839,1.6644935979706847,188.7712629112775
3839.7244,1.6737302770088973,221.64720493320766
3840.6077,1.6914177734365021,261.5907907456713
3841.4932,1.717380109200113,176.5532266956025
3842.377,1.7496429502395856,176.91396331762436
3843.261,1.7854976027004736,232.24664504940577
3844.1472,1.8226456477473916,176.5631188724405
3845.0315,1.8591524441057268,261.9754413701292
3845.9182,1.8933871275742697,197.32054814151584
3846.803,1.9232685112454733,181.14632866731057
3847.69,1.9479167873738998,191.46687558161443
3848.5752,1.9677568271796662,246.10262829681406
3849.4604,1.9841277745773762,160.71976647261647
3850.3481,1.997732654533449,163.7399764315598
3851.234,2.0082494559861774,181.81688633644328
3852.122,2.0154403540169277,170.77023063018632
3853.0083,2.0196662479318968,132.9085338729637
3853.8967,2.02166658533723,161.2440454558883
3854.7832,2.0216706422959447,184.9360606899017
3855.6702,2.019486680513632,189.06136876806585
3856.559,2.015584628738845,170.19097805463971
3857.4463,2.012124956840437,157.1360765781769
3858.336,2.012444129731646,177.804595336401
3859.2234,2.019191216391551,166.70676481989514
3860.1135,2.0324958509037003,211.1864777523752
3861.0015,2.0493975781448834,137.04445831597795
3861.8896,2.065347212203374,157.7950709168962
3862.7803,2.0761629184174777,150.0996971249998
3863.6687,2.079580443003708,124.44371535662066
3864.5598,2.0757410244441052,131.7173420075596
3865.4487,2.06626251968753,191.92184920985704
3866.34,2.053076945437594,149.13432563658938
3867.2297,2.038084160788604,155.51781788005246
3868.1213,2.022798627232627,157.66290359343768
3869.0112,2.008156040234428,189.33692875243477
3869.9014,1.993762380919009,164.76185164792176
3870.7937,1.9782502453345197,196.9449979408661
3871.684,1.9605400795594423,145.58744590109814
3872.577,1.9405144286574538,174.54288458302665
3873.4678,1.9192035015706794,162.87889166422238
3874.361,1.8975498137934814,149.75049796238872
3875.2524,1.8762413553928554,235.2726536036526
3876.1438,1.8553142245519179,154.9286915157299
3877.0376,1.8344112193774305,187.1666917045598
3877.9297,1.8130192239988836,177.7901233519846
3878.8237,1.7903598560950922,207.7390152292378
3879.716,1.7661032399694958,336.40744483390006
3880.6108,1.7400456556872061,213.75950454467997
3881.5037,1.7122958133187567,154.34315004246943
3882.3965,1.6827356141646144,153.14476215119768
3883.2917,1.6513738353277754,298.8345623811928
3884.185,1.6186273495848973,272.4357361817624
3885.0808,1.584295706307311,199.04802920640657
3885.9746,1.5478981467427146,306.29355326755575
3886.8706,1.5086121609198662,239.27194545090484
3887.765,1.46731053454291,313.5239359442007
3888.6592,1.427103432590125,393.7915577211926
3889.556,1.393428375731003,284.4322020797741
3890.4507,1.372528122668477,390.0695059255692
3891.348,1.3682712014495744,354.9967735716997
3892.243,1.3806827957675483,353.55372422545156
3893.1406,1.4062020696047381,317.99651914410265
3894.0361,1.4396319156340323,397.44441252316517
3894.932,1.4769700124430913,296.9204374624659
3895.83,1.5163386961605836,267.8489486183444
3896.7263,1.5570327405808118,321.87935478467074
3897.625,1.5987899019297114,382.51938695648687
3898.5215,1.6400918843174883,209.6458465139501
3899.4207,1.679349933251989,207.80771384686642
3900.3176,1.715256676092914,241.01571313790996
3901.2148,1.7485000255539294,213.5604708489271
3902.1145,1.7811081807848226,222.4833767594979
3903.0122,1.8147697722941145,258.5959633761374
3903.912,1.8499056451389122,199.42552227091397
3904.8103,1.8847368968345688,140.70876641030276
3905.7107,1.9168536478915505,177.11289315361643
3906.6094,1.9439527653468636,160.5263831001057
3907.508,1.9650470203112735,132.09859516829314
3908.409,1.980177458413822,150.99212345492018
3909.308,1.9901412273957289,270.21991781515743
3910.2097,1.996812412362711,195.92740223598673
3911.1091,2.0030441089266064,236.84164258894455
3912.011,2.012252239107884,145.53640208549635
3912.9111,2.0269391780433277,156.31381637036816
3913.8113,2.047577494340855,191.8067740343756
3914.7136,2.072401886000538,201.3124625986029
3915.6143,2.098176995049316,145.54690370710182
3916.517,2.122038181536963,193.3212321414997
3917.4182,2.142089335027299,138.96150359584627
3918.3215,2.158164166812415,158.36373734189377
3919.223,2.171519275478645,129.35136695158755
3920.1245,2.1847503933055297,162.0143981674339
3921.0286,2.200344764552309,137.63914607283627
3921.9307,2.2183846058209395,138.2425890146802
3922.835,2.2355526800340364,138.32611687594886
3923.7373,2.2464919270801413,125.307770834762
3924.642,2.2480864348263863,156.27516661645504
3925.5452,2.242261585657887,129.7798026833021
3926.448,2.2351727654381954,129.5270246752014
3927.3535,2.2330562616299177,130.20248745588145
3928.257,2.2381200056486126,135.50933700174625
3929.1628,2.2470846683404724,140.41819708268935
3930.0667,2.2532268246413705,64.93093435662257
3930.9731,2.250675759255503,121.40252180469886
3931.8774,2.237821340482917,97.55604637180949
3932.782,2.2177955393856412,113.9536241138317
3933.6887,2.1960987971123225,150.92487159849193
