wavl,flux,ivar
3566.9744,2.2752982789672695,221.99099016419424
3567.795,2.2762197939746813,231.02908519520307
3568.6177,2.278378938103787,189.9916597559358
3569.4385,2.2805082263154635,198.2156643241941
3570.2617,2.2818450003551947,213.93694627837056
3571.083,2.2822876408389132,214.59882387128442
3571.9065,2.2822736827627326,217.85016196570447
3572.7283,2.2825206514738148,229.75674259206454
3573.55,2.283752236163302,238.28351114370358
3574.374,2.2863464917581204,197.14501920157974
3575.1963,2.290059622509105,199.0111824459775
3576.0208,2.294206103729357,205.27357492665305
3576.8435,2.2979565691265003,203.63110928914577
3577.6682,2.3006287298127868,195.58717595730772
3578.4915,2.3017311384325674,197.0221979048848
3579.3145,2.301248608759746,191.71500222027785
3580.14,2.2997893578513797,192.27592830421688
3580.9636,2.298240423055368,212.1847503247737
3581.7893,2.296930744766919,187.26763195534656
3582.6133,2.295189601476175,204.2458293091232
3583.4395,2.2917181588302604,243.91394672020098
3584.264,2.285579006965505,214.65967133204876
3585.0884,2.2769427057693106,202.62308268172146
3585.915,2.2672907132583204,228.53124610286451
3586.74,2.2590211477419793,210.7680326640644
3587.5671,2.254221427483243,229.23882917902878
3588.3923,2.2536472094182742,218.77041869071297
3589.22,2.2562019592834743,222.3470456634157
3590.0457,2.2596782932283483,213.74008507962157
3590.8716,2.262186659678796,225.8708066360089
3591.6995,2.2631499507943227,204.35393246665657
3592.526,2.263248460292001,219.7277284234155
3593.3542,2.2635394312528483,229.94076743137612
3594.181,2.2645627287784733,238.2972933880264
3595.0098,2.266083054886114,190.56190653987372
3595.8367,2.267336786628787,220.25934337375546
3596.6638,2.267456547993612,203.43416948601725
3597.4934,2.265804445148388,214.381732324236
3598.3208,2.262304022598033,232.95661314934503
3599.1506,2.25749360383518,238.2129965878091
3599.9788,2.252308890376304,233.27358900425583
3600.8088,2.247502458941692,227.9229943867932
3601.6372,2.2434143185779836,204.93351650283276
3602.4678,2.239913030577111,231.050004494051
3603.2964,2.236669672856048,193.65903719491877
3604.1252,2.233252458328918,223.49421205263562
3604.9565,2.2292029459519274,236.01784155840616
3605.786,2.224110025759115,226.90887902609234
3606.6172,2.2177356198984017,226.22359325902178
3607.447,2.2104767327823125,210.0052544481611
3608.2788,2.2034409728459288,192.2904538307633
3609.109,2.198149796026828,241.61568613294287
3609.9392,2.1955623350547704,272.2583165839731
3610.7717,2.1955226610565655,209.9541232936603
3611.6023,2.1969187089813067,225.164381722836
3612.435,2.1984525889461652,220.75676683308245
3613.266,2.1992316681758743,223.84108824232808
3614.0994,2.198907158096578,221.2981064603462
3614.9307,2.1975999970398967,238.99054311164863
3615.7625,2.195863077344921,243.65947663499088
3616.5962,2.194449031955929,221.097901018457
3617.4282,2.1938024428802825,230.84700020466377
3618.2625,2.193713413736956,201.3818653279507
3619.0947,2.193638066361862,205.40562977845303
3619.9292,2.193333177125372,216.1075985983602
3620.762,2.1931028068959253,213.73003337003027
3621.595,2.193401523071152,232.35924365586823
3622.4302,2.194311054907597,221.72466006104722
3623.2634,2.195432702680793,228.71169888917507
3624.0989,2.1962671102103406,244.6944560483871
3624.9326,2.1965928226670517,205.12373291887937
3625.7686,2.1965464422627443,209.8927692490015
3626.6028,2.1963974583128745,211.11616069353482
3627.437,2.1963540844044362,240.18110723959722
3628.2734,2.196562201448595,214.8284080826091
3629.1082,2.197146539585267,222.11393280451736
3629.945,2.198119317934392,226.36263418385965
3630.78,2.1992660532001795,227.66510250891318
3631.6174,2.2003115389706114,212.68242812096636
3632.453,2.2011674113320026,225.13891928764346
3633.2883,2.20193089888636,252.3402608544847
3634.1262,2.202559321940575,217.41245983065184
3634.9622,2.2027068946107353,236.20042981881966
3635.8005,2.2019510464186713,230.049686765052
3636.637,2.200101828884961,241.27274122583142
3637.4756,2.1972531458937152,220.85080871557415
3638.3123,2.193626466269266,224.79591045572948
3639.1492,2.189274172992086,245.81450049540183
3639.9885,2.1840504298872947,232.26173640114047
3640.826,2.1779734711496626,231.47244050514917
3641.6653,2.1715193961840398,264.8215197036482
3642.5032,2.1656902113692227,233.5058832225018
3643.343,2.161401342799333,239.98335767846618
3644.1812,2.1591166067499277,234.7419515198358
3645.0195,2.1587655216533066,203.85359366063227
3645.86,2.159967766054199,221.55006745065188
3646.699,2.161985925698495,258.0919836612711
3647.5398,2.1636554471880913,237.90843531685326
3648.379,2.163654548867263,250.24253543474072
3649.2202,2.1612464573888666,228.6597936291711
3650.0596,2.156834030805259,236.5376264250204
3650.8994,2.151676520606677,230.97874598040124
3651.7412,2.14705974461195,223.2139206231267
3652.5813,2.143676138126296,239.89366238434687
3653.4236,2.141561505573539,209.63371993855662
3654.2642,2.140469052863312,262.8390174418603
3655.1067,2.1399578764419234,270.50729396348174
3655.9475,2.1394313045515823,229.46937705487645
3656.7886,2.1384104570095417,226.22072591278487
3657.6318,2.1370114503028304,240.06005532178145
3658.4734,2.1359963053799245,232.92968695410116
3659.317,2.136061472615503,236.12527814330076
3660.1587,2.1370842742419556,270.9338815609319
3661.003,2.1381755033413707,228.73825570089062
3661.845,2.138471369148511,248.23990250577808
3662.6875,2.1377469956646067,251.0922080316726
3663.532,2.1361790287408104,240.18706996077645
3664.3748,2.133797117448992,230.32439615102427
3665.2197,2.1303445592083636,229.91817687924325
3666.063,2.1257860599885037,228.53963100514142
3666.9084,2.1206288913779034,221.6466993537458
3667.752,2.1157473491469685,263.5918935711141
3668.5977,2.1116220110356014,241.6814105011162
3669.4417,2.108127671077913,224.46295524584443
3670.286,2.104875478435033,244.67866259527477
3671.132,2.1018064151587232,256.803380020694
3671.9768,2.099202183847599,273.216491976544
3672.8235,2.0972221015957135,230.98153504564323
3673.6685,2.0958068482724554,244.38319443242207
3674.5156,2.094931020754607,237.91641687201897
3675.3608,2.094760763708356,269.6983635417363
3676.2063,2.095309156068419,221.61906343784838
3677.0542,2.096101540334872,238.2786411605598
3677.9,2.0963116479099564,260.61538348123906
3678.748,2.0953596997043076,276.9950448026202
3679.5945,2.093444518376511,286.09195181184714
3680.4429,2.091546051722278,258.6114913080696
3681.2896,2.0908258032710063,294.56440754601505
3682.1365,2.0916994239758897,271.9027727816823
3682.9856,2.0933503414692276,218.70600471861826
3683.8328,2.0940212652198067,238.38634454633078
3684.6824,2.09197388974383,259.46287591838984
3685.53,2.086461241366236,201.72088020076072
3686.38,2.078171287496424,241.83547046010833
3687.2278,2.0691476984699677,254.26341516270398
3688.0762,2.0618566594771366,267.07819551302134
3688.9265,2.05817593855202,327.0177040294181
3689.7751,2.0585825970020517,263.0074850535053
3690.626,2.062092112597487,268.10220995083176
3691.475,2.066944251151313,236.28699156308738
3692.3264,2.0714748732037855,271.15963007716755
3693.1758,2.0745186314680133,258.870036532015
3694.0254,2.07559862322401,265.13903919626176
3694.8772,2.074872488302294,243.01744317974806
3695.7273,2.073066818847723,249.51478889007421
3696.5793,2.0710771147791083,222.03523285812136
3697.43,2.0693631919183217,273.96212069448063
3698.2825,2.0675662479874397,253.88217294009573
3699.1333,2.0649080908558473,233.056881052344
3699.9841,2.060986205304473,237.41611853421438
3700.8374,2.056276204567275,271.8402008442111
3701.6887,2.051976159642952,276.62205267904
3702.5425,2.0493031297325923,270.0224532312333
3703.3943,2.04898270804916,268.88426162080555
3704.2483,2.0508669487918394,230.9750728479575
3705.1003,2.053953292742806,238.540039731751
3705.9526,2.056822658521875,258.97156616284076
3706.8074,2.058291550309712,254.3346125972309
3707.66,2.0579471782646968,245.8451519690937
3708.515,2.056303490154166,248.4193979296228
3709.3682,2.0545391445670846,277.63226494550014
3710.2234,2.054011906812657,253.85429112497508
3711.0771,2.055765992916136,267.09804440736764
3711.9307,2.0600774289715025,264.55900682238064
3712.7866,2.066262425325332,267.5580434648673
3713.6409,2.072755992067455,260.19880063860455
3714.4973,2.0777901551875337,237.71113002835128
3715.3518,2.080085355918835,231.872163641637
3716.2085,2.079535604765259,250.52868801748673
3717.0635,2.0771615542154414,209.39235817745356
3717.9185,2.0744383004545752,269.65800397547264
3718.776,2.0723861540150468,251.2787910793184
3719.6313,2.0711538184733405,250.76623234998428
3720.489,2.070306641939494,254.85390385507256
3721.345,2.069555204825859,218.31264480601664
3722.2031,2.0691167877487797,253.2702367756706
3723.0593,2.0694407331302003,283.31909794955
3723.9158,2.0705567303914716,254.5624955639993
3724.7747,2.0717461231080656,248.563610777471
3725.6316,2.071870551395033,272.6115308819053
3726.4905,2.070128210566795,247.2308292289717
3727.348,2.0665218353538006,246.70704025771352
3728.2073,2.061690938297347,275.44840637221046
3729.065,2.0565409927864784,280.35364128116925
3729.9229,2.051955867585722,232.45313901590478
3730.783,2.0488244201275285,251.4629235751869
3731.6414,2.047883839415163,263.4960560275649
3732.5017,2.0492774248950947,252.25168409982774
3733.3604,2.0523418452409796,246.39058029135268
3734.2214,2.0558908057625147,257.57514538934726
3735.0803,2.0587396878131936,268.7478124455988
3735.9417,2.060220082838491,254.2931262904552
3736.8013,2.0602359421543235,263.35818336722184
3737.661,2.059149605764006,261.8442994488482
3738.5227,2.0575363067748467,271.29779578900235
3739.3828,2.0559887674772472,256.8740959284829
3740.245,2.054881960526138,253.73830695886434
3741.1055,2.054258032215031,260.7693002467025
3741.9683,2.053837684824438,285.5329072697808
3742.829,2.0532314476653135,247.89274755688248
3743.69,2.052165188224061,234.87290292292448
3744.5532,2.0506196932621408,262.73890426770345
3745.4148,2.048813002320684,254.3299797973536
3746.2786,2.04697714491383,260.86457941012543
3747.1404,2.0451974760152174,263.13890147064063
3748.0044,2.0433835380682135,241.42539933874747
3748.8667,2.041443866828523,248.59094056138505
3749.729,2.0392818114870734,284.35231980361726
3750.5938,2.036699171170352,271.6507679735469
3751.4565,2.0335011060363812,242.23261545378625
3752.3215,2.029825406436894,262.4755169992757
3753.1848,2.0264783447628996,253.91010347161705
3754.0503,2.024602911702531,241.38509250318813
3754.9138,2.0249784268007307,258.79562507539083
3755.7776,2.0273283064668064,282.520629980818
3756.6438,2.0303494867836083,271.03555709778664
3757.508,2.032400517742787,276.38634797092357
3758.3745,2.032472000552151,227.49861957957108
3759.239,2.030553887573422,266.12911132297194
3760.106,2.0273427800864416,273.63052017979885
3760.971,2.0237983569848534,264.2593456665656
3761.8362,2.0209121195635555,304.79002190531276
3762.7036,2.019692194876267,275.46692088415625
3763.5693,2.020795675000631,306.60028943504227
3764.437,2.023893682151975,294.56882829011755
3765.3032,2.0274960728141873,263.1052864474036
3766.1714,2.029785408762305,273.87458257987157
3767.0378,2.029818516243042,241.62222379549337
3767.9043,2.028131011328842,288.91031910520957
3768.7732,2.0260647972968533,262.42107057571053
3769.6401,2.024569521138247,268.189813699257
3770.5095,2.0234638847117075,247.30748711066204
3771.377,2.0218038729030052,283.03503976491646
3772.2466,2.0187552204332344,246.9341361891837
3773.1145,2.0142992713285928,284.06422968624975
3773.9824,2.0092520130916554,217.49125370547424
3774.8528,2.004858303333908,283.50497157289317
3775.721,2.002217234894793,279.17001643919
3776.5918,2.0017030895202703,252.44391315160658
3777.4604,2.002944916043252,259.06704191460034
3778.3315,2.005195051392111,285.732416127051
3779.201,2.007737003098267,273.3232295037126
3780.0703,2.0099478388590843,283.82400147174064
3780.942,2.011012071888932,274.40209071903524
3781.8118,2.009850599596477,272.8242914064024
3782.6838,2.005627596202641,256.5439492220134
3783.554,1.9986153340943553,251.79420234377852
3784.4265,1.9904834287511703,260.6055499713754
3785.297,1.9837043253700597,304.50163535850476
3786.168,1.9799924212609428,285.0913186684964
3787.041,1.9794792087418434,254.54125211499726
3787.912,1.9810344486002067,255.541438014653
3788.7856,1.9833148535221292,317.77323265063256
3789.6572,1.9853947941284606,244.99188417804243
3790.531,1.9867212586505294,274.8324296323546
3791.403,1.986834991890258,278.52074895113066
3792.2754,1.9854666361725062,239.55385990595025
3793.15,1.9827370595792524,295.39077400571546
3794.0225,1.9792018231898636,292.6269098283113
3794.8972,1.9756074893779245,262.4188035997296
3795.7703,1.972788899164195,279.50924134091974
3796.6455,1.97151583817935,288.8476626302547
3797.519,1.9723545872792485,293.01464652524515
3798.3926,1.9753657147738375,284.2361473101709
3799.2686,1.9799290819962976,301.11792477292886
3800.1426,1.984706477035564,256.21710194554646
3801.0188,1.9880550851361907,261.21921555397756
3801.8933,1.9885905844120029,273.15928940131676
3802.77,1.98591468631944,295.4290988796569
3803.6448,1.980898320071104,287.36054262580325
3804.522,1.9752736384008935,266.6397366075402
3805.3972,1.9708736155922253,293.8931125646717
3806.2727,1.9687129722202603,336.0053564687704
3807.1504,1.9687214238107162,279.9589098509244
3808.0261,1.9700291881640746,279.0929294338813
3808.9043,1.9715936124283753,260.94488393648993
3809.7805,1.9726215728031775,328.70576294968214
3810.659,1.9726473127118025,285.4272879290242
3811.5356,1.9713804777257937,293.8150372893234
3812.4126,1.9686543112977826,291.0442316580801
3813.2917,1.9645138383295668,250.03204280240416
3814.169,1.9594117284017454,253.73894487634854
3815.0483,1.9541630932637963,255.0136071367265
3815.926,1.949824826284881,278.70574294347756
3816.806,1.9472412215557937,294.51085192183115
3817.684,1.9467923792483766,292.4167205870532
3818.5623,1.9482641064042394,283.01696451549054
3819.4429,1.951048365082326,268.54071991972137
3820.3215,1.9543447215576681,272.49272046266435
3821.2024,1.9573798065557906,271.4607129652016
3822.0815,1.9594684829177134,282.1290643516843
3822.963,1.9602071029637607,268.83582003509605
3823.8423,1.9595485059179305,306.84120787275936
3824.722,1.9577459950580571,290.26191726932785
3825.604,1.9551497861391602,306.7656650851223
3826.4841,1.9521620479940087,271.80190312464856
3827.3665,1.9492448271873255,254.31428072810584
3828.2468,1.9469107082797332,296.79621308680277
3829.1296,1.9453660402675452,274.87678485022786
3830.0105,1.9442509753214017,300.11431593030414
3830.8916,1.9426989775583983,301.0319313741628
3831.7751,1.9399164222666296,275.2393943566431
3832.6565,1.9358896511194876,277.9716587530237
3833.5403,1.9315620010450851,305.36142310451595
3834.4224,1.9284568516741205,289.3353094699612
3835.3064,1.9278120866419615,303.0492782360351
3836.1887,1.9300395045270626,262.3662875305555
3837.0713,1.93458973926453,315.50517656813287
3837.956,1.9401546178626388,281.67014013337496
3838.839,1.9449252961068317,276.8307180909013
3839.7244,1.9472425194010146,280.36672905469936
3840.6077,1.946362951275635,275.5003205742269
3841.4932,1.9430900006110785,297.0678625067595
3842.377,1.939496216688724,301.4951159123523
3843.261,1.9377466146830127,276.1982391851086
3844.1472,1.9389326094868606,293.1028042720901
3845.0315,1.9425655302800477,282.0757686371085
3845.9182,1.9470035065889642,271.27599047861315
3846.803,1.950312001385082,279.1875495653849
3847.69,1.9512730004463668,252.77038404222756
3848.5752,1.9498392810858962,294.8648989597246
3849.4604,1.9469871455630308,282.25691730677204
3850.3481,1.9440373380054738,293.50982241289927
3851.234,1.942058219556315,264.7585436928799
3852.122,1.9415196364386502,289.0201276116184
3853.0083,1.9422851555101392,299.6789306343008
3853.8967,1.9436855839178144,268.6006146624886
3854.7832,1.9447876416127123,274.4422746645371
3855.6702,1.9448994845689347,269.01334034181235
3856.559,1.94397705648622,307.5268787289555
3857.4463,1.9426177495049437,288.88788162671204
3858.336,1.9415057203889179,307.5220088109148
3859.2234,1.9408116855932482,300.4419002979725
3860.1135,1.9400850138499277,284.08878991751584
3861.0015,1.938847268134315,264.10863142579404
3861.8896,1.9372120855897745,302.8714337024286
3862.7803,1.9358827741926647,284.26952519291336
3863.6687,1.9355169611307335,299.46987521451877
3864.5598,1.9360842311212123,334.9217386322484
3865.4487,1.9368243114748365,264.3243404942875
3866.34,1.9367035578559586,273.0415113474328
3867.2297,1.9349232769634988,286.74976056064503
3868.1213,1.9312058113959487,304.25896843673246
3869.0112,1.9259189953910942,260.7765893181401
3869.9014,1.9199719136123952,307.66892716771133
3870.7937,1.9145430784586568,306.55538064779665
3871.684,1.910589752258674,327.79985790327703
3872.577,1.9082571337301597,317.600207540229
3873.4678,1.9068186956654833,286.7294050886295
3874.361,1.904990454240176,293.191978330936
3875.2524,1.9016448126643484,292.85051065235604
3876.1438,1.8963587949526175,303.5489491438808
3877.0376,1.889536247747333,328.60072382765975
3877.9297,1.8821254690973626,284.51709248572723
3878.8237,1.875011120366893,321.98524480001066
3879.716,1.8688470672092334,304.4431442550132
3880.6108,1.8639077204459287,300.7768809994557
3881.5037,1.8602193129748203,292.0234894905203
3882.3965,1.8574943612714092,290.4490311577528
3883.2917,1.8552729823901888,332.24219713772305
3884.185,1.8530924041022134,287.75426711339065
3885.0808,1.8505870562349827,324.90393634666566
3885.9746,1.8476312120311067,302.4896772247353
3886.8706,1.844354644170465,312.4616546224447
3887.765,1.8411857166131473,320.3019254039304
3888.6592,1.8386821639796416,302.37914587463837
3889.556,1.8373874544578936,323.5707821707782
3890.4507,1.8377097184594904,335.9412080932455
3891.348,1.8398345038467532,331.40121575428003
3892.243,1.843634602123512,327.9957449364727
3893.1406,1.8486256870444728,317.3541099871124
3894.0361,1.8539331751319377,298.257138293753
3894.932,1.8586919040872132,302.40876467442763
3895.83,1.8624527636351031,301.51616443658844
3896.7263,1.8653744477184255,318.1387344202043
3897.625,1.8680285538822656,314.97548990566116
3898.5215,1.8708281646534282,311.14608995443285
3899.4207,1.873784456269604,311.6615061454114
3900.3176,1.876569707741496,344.38854946772534
3901.2148,1.8789584423074661,314.1822851132887
3902.1145,1.8811351219214927,285.64447883166514
3903.0122,1.883729784112655,322.87779429604944
3903.912,1.8875180672219778,312.7932242479563
3904.8103,1.8927903570838465,298.8577181185174
3905.7107,1.899036525498676,309.45937647738515
3906.6094,1.905038157206099,273.1117622265848
3907.508,1.909602999226276,308.49282439080207
3908.409,1.9121343367510808,286.4272803482708
3909.308,1.9127989972695594,297.6479310109306
3910.2097,1.9122845511327762,285.4809757202794
3911.1091,1.9113796129276288,295.62824607042734
3912.011,1.9107597934322071,282.02860093638867
3912.9111,1.9109963073158305,299.55958110228335
3913.8113,1.9125019354099828,333.26739216904696
3914.7136,1.9153257026794217,268.06472298377014
3915.6143,1.918938509512446,294.99541144095184
3916.517,1.9224616322963732,288.34081405579906
3917.4182,1.9251505336649402,295.2947752246024
3918.3215,1.9268808373066497,278.1080353393538
3919.223,1.9280099786663707,279.45663509085824
3920.1245,1.9289200985331487,296.4297515416916
3921.0286,1.929647732171495,272.5647212832453
3921.9307,1.9299631963554968,309.2729841702354
3922.835,1.9296818940564016,298.3967905686009
3923.7373,1.9288015863619417,292.9694386371118
3924.642,1.9274000538689322,292.279064451297
3925.5452,1.9255391336093357,290.8751086748761
3926.448,1.9232806959320305,272.84934945381053
3927.3535,1.9207727228703455,294.5307536972567
3928.257,1.9182393764414785,315.36174664743163
3929.1628,1.9157805222967736,285.898851614561
3930.0667,1.9133484308703614,315.90149560449106
3930.9731,1.9108626063372594,274.19367633917125
3931.8774,1.908504714811904,296.314175661778
3932.782,1.9066727643224317,317.74894571197444
3933.6887,1.9056734941956046,318.97299564834293
