wavl,flux,ivar
3566.9744,1.0087990882326578,547.6739233875267
3567.795,1.0030380605752014,522.5669021336812
3568.6177,0.9980566169819223,586.1604214424676
3569.4385,0.9950264073766846,624.5526613518955
3570.2617,0.9942768331187583,551.3771866204374
3571.083,0.9954330917508433,548.8749884999432
3571.9065,0.9975972651342823,494.00171695281995
3572.7283,0.9995523532224935,600.8468897261938
3573.55,1.0001057798133408,442.2492178574015
3574.374,0.9984669021068948,503.4801874771072
3575.1963,0.9946239587709969,376.6883918684419
3576.0208,0.9894740846145292,652.6258778358072
3576.8435,0.9847276600877098,624.1001392455977
3577.6682,0.9822360448155613,498.22760662226653
3578.4915,0.9831719540979094,566.8061398238949
3579.3145,0.9873060630672432,628.9104229943333
3580.14,0.9931149883886801,437.8278017699435
3580.9636,0.9985348165669722,535.5260349235627
3581.7893,1.0021440031533237,420.49157586192985
3582.6133,1.0036621831145784,594.0651595336226
3583.4395,1.0037304693929214,559.0338093506408
3584.264,1.0031095299872475,493.1399474229338
3585.0884,1.0021642952072523,477.68222444691133
3585.915,1.0008997779290965,520.0494966279832
3586.74,0.9992960881718996,573.8861718361641
3587.5671,0.997472813419698,601.6496750957243
3588.3923,0.9956523699069483,553.039703444783
3589.22,0.9939283102956882,533.6329542094453
3590.0457,0.9921648734151698,596.128352292285
3590.8716,0.9900543450673903,518.8503125138415
3591.6995,0.9874403654132673,579.0647386540177
3592.526,0.9845808608518826,550.415601539368
3593.3542,0.9819608153759856,610.2596556151418
3594.181,0.9798654831590855,634.906770492886
3595.0098,0.9780427370299879,545.3357015972318
3595.8367,0.9759816550708514,614.6593119518649
3596.6638,0.9734144328934128,641.4843044871892
3597.4934,0.9706089256907676,590.433384819078
3598.3208,0.9681776133423929,550.0003331864348
3599.1506,0.9665448978462813,769.2661702557816
3599.9788,0.9656498292556753,655.8319053169297
3600.8088,0.9649334288989841,829.0695707127468
3601.6372,0.9637661701734677,481.59980457353
3602.4678,0.9619810954240484,481.1089518810756
3603.2964,0.9601604098741142,590.6864741089101
3604.1252,0.9592942705462727,640.7395400204075
3604.9565,0.9601648237188949,714.5273052776136
3605.786,0.9628906258982879,597.5784368459774
3606.6172,0.9669449991476459,634.2142406058479
3607.447,0.9713528751430374,618.9327846213912
3608.2788,0.9750331419991625,646.3226946772431
3609.109,0.9770565395010825,556.1243873456785
3609.9392,0.9770014442769756,511.9244225530938
3610.7717,0.9750089478610074,574.2351843465292
3611.6023,0.9716586693389793,549.8130277950696
3612.435,0.9676629127792582,534.0085886830195
3613.266,0.9637033370035423,508.63649780127196
3614.0994,0.9601971777233833,625.0831859198727
3614.9307,0.9572779659472092,552.2930352320353
3615.7625,0.9548144267534672,523.2248120486009
3616.5962,0.9527049403595177,643.7820845750339
3617.4282,0.951112873081499,601.7712305487495
3618.2625,0.9503872352284835,614.4137841136817
3619.0947,0.9507557728368987,615.6612111695509
3619.9292,0.9520260766974173,580.7301135413379
3620.762,0.953660798835203,569.4433390382351
3621.595,0.955187391531271,666.0272240587186
3622.4302,0.9565154170110509,570.1288817744613
3623.2634,0.9578920547254425,542.1361318438867
3624.0989,0.9595871211281112,466.1021264133745
3624.9326,0.9614931134778157,632.4411385505964
3625.7686,0.9630058820815945,622.1607487582212
3626.6028,0.9632293390536089,482.18272344233316
3627.437,0.9615954403840896,477.9475544279838
3628.2734,0.9583954788418557,665.1551281992272
3629.1082,0.9547733699237375,623.7782485020304
3629.945,0.9519236258358702,647.4816240930073
3630.78,0.9503355007739154,491.24888344700264
3631.6174,0.9495888445424153,665.4213379210579
3632.453,0.9488822071065691,600.0421345244921
3633.2883,0.9475518787766829,686.0849106652836
3634.1262,0.9452704888149592,501.3386493222496
3634.9622,0.9420918151176091,563.2058176925873
3635.8005,0.9384802289378482,572.8674867860016
3636.637,0.9353582547937679,832.5871568090627
3637.4756,0.9336594019504708,531.0069321282057
3638.3123,0.9337374485038857,691.6004422028268
3639.1492,0.9349580759297818,540.7706343418602
3639.9885,0.9360434405357572,643.1299220857102
3640.826,0.935929627733638,613.2913290348927
3641.6653,0.9345712021844401,546.3855115560939
3642.5032,0.9330159765064885,631.8199068804823
3643.343,0.9326840912885157,761.0135303106065
3644.1812,0.9344056812942685,681.8243271304763
3645.0195,0.937840135254229,566.8457678816973
3645.86,0.9416341252953859,548.2541076108575
3646.699,0.9440971527866779,614.8971370286339
3647.5398,0.9441333067154993,600.3215873835867
3648.379,0.9417827101577156,573.6131242203265
3649.2202,0.9381521752152115,577.0373008757182
3650.0596,0.9347539085010956,500.34886058648556
3650.8994,0.9325894913486898,707.6826943248559
3651.7412,0.9317542745571593,596.1640135139221
3652.5813,0.9316245660262197,647.9006895969624
3653.4236,0.9313900686241537,578.6956578959599
3654.2642,0.9305441946454036,593.786727552924
3655.1067,0.929111833417295,684.8065835939797
3655.9475,0.927644540540936,541.9640879040203
3656.7886,0.9269035143874977,900.8980770192175
3657.6318,0.927357424648791,625.1044151805363
3658.4734,0.9287488465748657,669.7363445441003
3659.317,0.9301791089891,649.9964974192566
3660.1587,0.9306719635681121,625.6841171210197
3661.003,0.9297736247838312,606.3786824105343
3661.845,0.9276785634315156,638.882893569395
3662.6875,0.924937942419572,583.8142703591288
3663.532,0.9221619676493362,602.8561795436642
3664.3748,0.9199202965664033,620.901129987853
3665.2197,0.9186699096366243,546.1036558188548
3666.063,0.918698560890839,670.4454942185176
3666.9084,0.9199537517008514,568.2634766505566
3667.752,0.9219461607854238,551.8217574687296
3668.5977,0.9238585206921298,588.7733506379616
3669.4417,0.9248462070847799,618.5932611371348
3670.286,0.9245102396986453,514.8853474635787
3671.132,0.9231195866134169,629.6594658230172
3671.9768,0.9214381775234269,579.3805668726129
3672.8235,0.920191136516663,500.69361493285396
3673.6685,0.9196684684221379,656.9460605287059
3674.5156,0.9196938188107536,662.5741213639184
3675.3608,0.9199321039298536,604.4486379117508
3676.2063,0.9201604574285408,547.1977787434947
3677.0542,0.9203116238016251,777.1205424552568
3677.9,0.9203631376641351,504.44708528748936
3678.748,0.9202810164540517,641.4228904186886
3679.5945,0.9200905875907972,563.3521762255842
3680.4429,0.9199581197193114,751.1233138529327
3681.2896,0.9201210851921597,593.8042720751021
3682.1365,0.9206686007221038,617.6826309670035
3682.9856,0.9213969689806176,590.6602919633406
3683.8328,0.9218994438922884,510.50872147496864
3684.6824,0.921801313502849,561.454677164738
3685.53,0.9208277077225892,607.1840697645167
3686.38,0.9187194629396354,638.0402144926569
3687.2278,0.9153317114989397,541.9131663809034
3688.0762,0.9109212423685711,635.8453531344163
3688.9265,0.9063072224049725,661.8780450410272
3689.7751,0.9025093583080764,726.9708087057832
3690.626,0.9000514215822935,614.0488946614491
3691.475,0.8988229591729245,541.7914973277186
3692.3264,0.8984531178326645,641.4232071682802
3693.1758,0.8988889863330751,584.8382454537832
3694.0254,0.9005030944613038,660.103304145791
3694.8772,0.9036758065557131,552.4111642394843
3695.7273,0.9081254357056826,616.818247460939
3696.5793,0.9126905515135552,608.427008895646
3697.43,0.9157355395500665,586.2070234553693
3698.2825,0.9161717826756509,597.7585553386613
3699.1333,0.9141039814125056,654.3135735294134
3699.9841,0.9106909598568965,734.5979894095825
3700.8374,0.9073250932869997,870.6787012063253
3701.6887,0.9048931517042367,705.1554490503355
3702.5425,0.9034483073017651,626.0111054538081
3703.3943,0.9025139122052357,579.0452743745548
3704.2483,0.9015026633561837,653.2824762272081
3705.1003,0.9000561506698019,585.8561329245445
3705.9526,0.898088499707663,698.1268286105594
3706.8074,0.8957211571095481,673.9921911225289
3707.66,0.8932603143243766,644.5683149045655
3708.515,0.8911253169724438,762.576416771705
3709.3682,0.8897811941358211,551.6221840793256
3710.2234,0.8894726712848836,680.2293725510464
3711.0771,0.890052628383206,583.0344496923173
3711.9307,0.8910004292402888,733.4563626641483
3712.7866,0.8917117095755948,715.1754801718585
3713.6409,0.8918325199871114,640.8100437209632
3714.4973,0.8914221112551645,644.0007778857894
3715.3518,0.8908266725608851,708.3262407471201
3716.2085,0.8904164237793707,585.8217732942071
3717.0635,0.890381565076926,764.2344207834677
3717.9185,0.8906269269250304,780.1366685103397
3718.776,0.8908030702121121,644.4627356371997
3719.6313,0.890490099854522,638.3872225053404
3720.489,0.8895169735025139,575.2591815443845
3721.345,0.8881936583233039,748.6338114193445
3722.2031,0.8871581285064635,721.2930016068026
3723.0593,0.8869199841944272,729.7438045783921
3723.9158,0.8874374869208099,809.4986393120453
3724.7747,0.8881730403499974,599.6883372338118
3725.6316,0.888518821830208,717.2998512513705
3726.4905,0.8882395992101568,645.8192932027198
3727.348,0.8875529025577833,766.9966824258892
3728.2073,0.8868723674238688,757.9545177649911
3729.065,0.8864981029397968,740.6066518204494
3729.9229,0.8864871746424332,808.2604094875832
3730.783,0.88675204150287,717.960599204549
3731.6414,0.887173956388943,860.9074969628034
3732.5017,0.8876247512506108,715.3416262166263
3733.3604,0.8879344115887202,671.4309169041159
3734.2214,0.8879245304403437,550.5512840817281
3735.0803,0.8874563911177178,618.5372603827757
3735.9417,0.8864177353701441,748.337819837042
3736.8013,0.8846803102250121,604.4373653699876
3737.661,0.8821071574563555,600.7227965028808
3738.5227,0.8786954644254824,716.0818142199817
3739.3828,0.8747822435870626,621.2721008357961
3740.245,0.8710082354863309,649.6380494495135
3741.1055,0.868172652001228,787.092462011764
3741.9683,0.8668714358613555,660.5760985917143
3742.829,0.8673534475800788,735.7097199176071
3743.69,0.869414617494396,752.7683314590379
3744.5532,0.8724109198875613,710.2308382163972
3745.4148,0.8753601266307018,546.1671947839127
3746.2786,0.8774133425207701,708.3590986265293
3747.1404,0.8783084141756636,693.5408006685651
3748.0044,0.8785400631075241,702.391183134969
3748.8667,0.8789245993535905,876.11572044749
3749.729,0.8799433671459821,732.7717379609333
3750.5938,0.8813421026114343,762.2205406041676
3751.4565,0.8823032248975989,677.8783904258554
3752.3215,0.8821282941727028,515.7400370691719
3753.1848,0.8808067196859021,721.0092944269887
3754.0503,0.8789918702199998,720.0464168204956
3754.9138,0.8774577588032322,615.2205468257104
3755.7776,0.8765447970822653,687.529247804395
3756.6438,0.8761119600485473,523.3961019009367
3757.508,0.8758287720772607,859.1480691983232
3758.3745,0.8754661536727,650.906689952926
3759.239,0.8750075737686879,696.44618368441
3760.106,0.8745824023713883,732.1044948425872
3760.971,0.8743633274306115,743.7177695201468
3761.8362,0.8744772749965233,790.9800281022714
3762.7036,0.8749784580264953,684.4822470854111
3763.5693,0.8758238678469648,862.058443312011
3764.437,0.8768671095774169,558.0091696712295
3765.3032,0.8778736637433971,622.3453993470896
3766.1714,0.8786248835996551,765.0980902948984
3767.0378,0.8789934504154443,695.262498786792
3767.9043,0.8789626155239036,611.9693594976294
3768.7732,0.8785286088557301,759.03843735983
3769.6401,0.8775990636290152,760.9955719227041
3770.5095,0.8759859369342082,622.6252308173526
3771.377,0.8736023012879232,688.5035920187806
3772.2466,0.8706279072066211,617.3168069269534
3773.1145,0.8675300722451554,714.2383366851981
3773.9824,0.8647516958276918,672.4882389120227
3774.8528,0.8624764273699728,767.5974424482934
3775.721,0.8606798164940465,664.2608950333276
3776.5918,0.8593843762579856,794.2359902337962
3777.4604,0.8589292522591734,921.4018352688176
3778.3315,0.8597925669283394,972.094911478116
3779.201,0.862113317501542,699.350571584278
3780.0703,0.8653272767327168,673.2625481058221
3780.942,0.8683530696391315,656.0685870103309
3781.8118,0.8702409234713031,600.5120312647502
3782.6838,0.8708239952596014,660.889568694129
3783.554,0.870642822703945,898.1917044783256
3784.4265,0.8702971733026923,606.0453975724884
3785.297,0.8698509948960509,671.4437654232479
3786.168,0.868945679766473,764.7965869548633
3787.041,0.8674791293621612,685.228230150338
3787.912,0.866067515196755,771.5782992652032
3788.7856,0.865676176714664,728.9843320663531
3789.6572,0.8667855314992393,701.8183553397474
3790.531,0.8688465389645486,690.3043318494206
3791.403,0.8705462332549228,659.6252594744221
3792.2754,0.8706927237621608,661.3657242870773
3793.15,0.8689524612771836,703.7047185201852
3794.0225,0.8660283845910965,638.9291734448684
3794.8972,0.8631225501848626,843.6894319828829
3795.7703,0.8611816055723442,614.534660756924
3796.6455,0.8603056259047982,715.9710342670944
3797.519,0.8598706106562399,659.2610015353359
3798.3926,0.8591396766966685,703.6683700189792
3799.2686,0.8578540726544375,655.7140413354099
3800.1426,0.8562574134397313,840.8319774937095
3801.0188,0.8546009756415622,809.6343689411683
3801.8933,0.8528352398624123,715.2616227514245
3802.77,0.8507893293071465,698.3304619603864
3803.6448,0.8486656619640653,781.8624039361412
3804.522,0.8470925459930367,719.5551998273338
3805.3972,0.8466935805361874,727.4837655598417
3806.2727,0.847515407560495,777.1328697620593
3807.1504,0.8490062628220798,630.0998604337136
3808.0261,0.8504715402728981,614.8157280082523
3808.9043,0.851608067826615,998.8696861361975
3809.7805,0.8525887997991232,793.6481758613868
3810.659,0.8538191450520303,775.8170841805891
3811.5356,0.8555785515066933,807.232538739547
3812.4126,0.8578738118983528,708.399646036642
3813.2917,0.8604576173606198,605.1042570542315
3814.169,0.862904205965393,783.8575439341312
3815.0483,0.8647406594851854,747.9792647955377
3815.926,0.865511689291397,685.0450225797387
3816.806,0.864972795724244,656.2447123121871
3817.684,0.8632228818527966,749.95798232588
3818.5623,0.8606782777354773,755.6894933767614
3819.4429,0.8578499019475917,685.2979132423966
3820.3215,0.8551372676533389,579.6186455709307
3821.2024,0.8527074417094889,757.4435162085731
3822.0815,0.8506387220487298,719.8026524708613
3822.963,0.848974446286873,768.7742459876034
3823.8423,0.8477368294180557,903.1177892296879
3824.722,0.8468042656217912,778.7460230132733
3825.604,0.8458928043348548,699.7234696726798
3826.4841,0.8446556044509566,726.3006777929852
3827.3665,0.842851440365902,707.8198223197821
3828.2468,0.8405275830567639,760.7235341762718
3829.1296,0.8379797227694542,686.1440489698614
3830.0105,0.8355853536394927,896.4929823478515
3830.8916,0.8334750563381047,727.122415396417
3831.7751,0.8314163506501712,854.907418882138
3832.6565,0.8289884970068191,674.0019322481987
3833.5403,0.8259296521267242,802.0454466543129
3834.4224,0.8225159276326823,901.423622091399
3835.3064,0.8194776761995601,805.8204566867794
3836.1887,0.8176320096949842,919.8538567612441
3837.0713,0.8173455316725093,706.6644397143596
3837.956,0.8183882630733488,839.8594151101114
3838.839,0.8201526446646404,760.6022761388167
3839.7244,0.822079935384822,769.3380820161132
3840.6077,0.8238930722499936,822.0843900090007
3841.4932,0.8256370366024259,765.8092185603375
3842.377,0.8274976420900273,756.1587094134471
3843.261,0.8296408535270997,825.4576237918563
3844.1472,0.8320449288050635,719.0008786289198
3845.0315,0.8344340149232042,742.3768347312883
3845.9182,0.8364465428882045,760.9053250873449
3846.803,0.837840906559802,840.8290532504955
3847.69,0.8387174519526733,621.4856643527344
3848.5752,0.8394566415241806,807.1493897827286
3849.4604,0.8404949735447265,817.833978676672
3850.3481,0.8420430994888772,758.1449926196734
3851.234,0.8439492161526347,688.4081119727011
3852.122,0.8458540657359455,816.4832061745972
3853.0083,0.8474252816807264,731.2986007073238
3853.8967,0.8485605469980937,677.7792798601962
3854.7832,0.8492954658868823,800.7342346646789
3855.6702,0.8496651623865623,769.1612046917996
3856.559,0.8496633422622772,670.0880245230504
3857.4463,0.8493569926673548,698.3540680300879
3858.336,0.8489226954603951,665.0892427113413
3859.2234,0.8484971422452192,785.2331414484983
3860.1135,0.8479628598209824,833.8869280038269
3861.0015,0.8469238955062125,671.705038393698
3861.8896,0.8449209301059651,733.063417999969
3862.7803,0.8418251811472174,700.6704514080072
3863.6687,0.838203766622941,657.2023646877565
3864.5598,0.8351735616090293,780.7877147411341
3865.4487,0.8338243685889956,878.0639961159836
3866.34,0.8343999760075392,709.8242577456147
3867.2297,0.8361250210408068,658.8002383147663
3868.1213,0.8377320799884792,798.8653506847238
3869.0112,0.8381793333831697,725.3384608671774
3869.9014,0.8370695445540435,491.6101099166747
3870.7937,0.8346021423073898,778.2138112267334
3871.684,0.8313215571939637,756.3219046359476
3872.577,0.8276442184031642,808.3822720479899
3873.4678,0.8234758549404921,792.2257944053238
3874.361,0.8179676528928977,786.277384476646
3875.2524,0.8100521152578325,652.1799448605395
3876.1438,0.7994249939809448,775.5326087727244
3877.0376,0.7875525450915419,826.4376963376641
3877.9297,0.7776217582447903,977.5795467720307
3878.8237,0.7726735202543308,1021.1943685590064
3879.716,0.7737266962627786,732.1335341948303
3880.6108,0.7791052545242344,923.6981375229561
3881.5037,0.7856300655718558,822.487864506103
3882.3965,0.7904460447168581,813.3937691568235
3883.2917,0.7920074042863191,740.2028430874725
3884.185,0.7901925030639221,806.8814385804269
3885.0808,0.7859551231170122,875.0675818857513
3885.9746,0.780799256805329,1007.3861135036132
3886.8706,0.7761194502901628,855.1612601805119
3887.765,0.7728464809577406,887.7411776167017
3888.6592,0.7712338030374725,861.2603377547608
3889.556,0.7710190496098059,985.0144425081475
3890.4507,0.7716728511576375,867.1483645240431
3891.348,0.772695469497643,871.4420906372346
3892.243,0.7738329429196964,855.0678705249013
3893.1406,0.7751658020242561,915.0126401658305
3894.0361,0.7770076730275731,829.6114473819273
3894.932,0.779758905878509,767.326397282143
3895.83,0.7836850404106751,840.4197465283446
3896.7263,0.7886832175738645,879.0997355135254
3897.625,0.7943208018129372,780.782580603605
3898.5215,0.7999517470302266,909.6194921530741
3899.4207,0.8051633084873384,752.9192753360696
3900.3176,0.8098523759469172,1032.2882848535069
3901.2148,0.8142243274724401,835.2953139875781
3902.1145,0.8184866304237545,960.9201599786105
3903.0122,0.8226600680363567,821.1970083666546
3903.912,0.8266800576008638,810.4940923378798
3904.8103,0.8304438158756533,798.3936977235081
3905.7107,0.83397194166954,806.654360614875
3906.6094,0.8373556532248357,735.3699130540232
3907.508,0.8407477895002069,787.1465707197312
3908.409,0.8442349549227975,703.1842605229486
3909.308,0.8477362615694798,658.5190127265632
3910.2097,0.8510876444491952,656.3978045928967
3911.1091,0.8540982983031936,705.8797886732011
3912.011,0.8567268368476354,748.6863003766749
3912.9111,0.8590408403256474,613.0574025918312
3913.8113,0.8611800527674855,719.0954024971588
3914.7136,0.863216975411261,645.4813361191259
3915.6143,0.8650948355525999,751.0992278709592
3916.517,0.8667407835415393,717.9904346648335
3917.4182,0.8681556266387719,707.1304971093281
3918.3215,0.8694532026442073,747.164129414744
3919.223,0.8707324326439304,781.1868041316328
3920.1245,0.8720282086220035,682.9814864124672
3921.0286,0.8733325230500462,713.3886753487498
3921.9307,0.8746204059521065,666.0304037718122
3922.835,0.8758286170839621,800.5238295456359
3923.7373,0.8767839542990268,665.2360465612729
3924.642,0.8772717704010414,690.366434717864
3925.5452,0.8771278196001795,635.1468255922892
3926.448,0.8763158507552273,687.281360071803
3927.3535,0.8749199348060683,784.5663312427569
3928.257,0.8731389303458607,653.5367778542397
3929.1628,0.8712023591992801,708.6447797175948
3930.0667,0.8692925103348539,719.7136335418243
3930.9731,0.8674088327664022,784.0475496634127
3931.8774,0.8654264651820595,737.1048174228802
3932.782,0.8632387149085352,743.1821294801206
3933.6887,0.8609513828964214,619.3233065631196
3934.5938,0.8588509317448122,803.1440356080664
3935.501,0.857095684813916,719.6398820680428
3936.4062,0.8555510205020933,741.5278981613341
3937.3142,0.8538872773991301,770.7878189034794
