wavl,flux,ivar
3566.9744,4.192691971880712,6.550486561443536
3567.795,4.1880024906389455,4.880020737099383
3568.6177,4.182140326731552,6.362617013768529
3569.4385,4.175594796181846,7.054118042650551
3570.2617,4.169217091499516,7.3099079287058055
3571.083,4.163346016099145,10.460508782346341
3571.9065,4.157416599673631,6.384594132500999
3572.7283,4.151239917946106,5.966887513995893
3573.55,4.145760733040116,7.00172531753255
3574.374,4.142182822289378,9.332405574582722
3575.1963,4.140482520034633,6.416558823435811
3576.0208,4.13949161321502,6.5699793226594645
3576.8435,4.138717509633529,6.274701072467775
3577.6682,4.139429854961314,7.295587214603206
3578.4915,4.143657570651036,6.882539323013543
3579.3145,4.152165812656635,9.827396195483233
3580.14,4.163438181239318,6.4148219245622755
3580.9636,4.174020454997734,5.94941020049611
3581.7893,4.179847602690704,5.8247116566208605
3582.6133,4.177067449248667,5.375637157095091
3583.4395,4.163230574753727,6.584369996869655
3584.264,4.139132244682987,5.1050977558606
3585.0884,4.109932434856884,8.370764359242365
3585.915,4.083860753309351,7.741342970809519
3586.74,4.0683102174567365,6.891495815105714
3587.5671,4.06523655013137,7.8763302333561205
3588.3923,4.070282566557114,9.971751792722605
3589.22,4.0752132060517745,7.307202775322548
3590.0457,4.0723282854297835,6.493850635399785
3590.8716,4.058556188998522,5.85964785176332
3591.6995,4.036902464911376,7.107018725640798
3592.526,4.014848677518207,5.719877440383096
3593.3542,3.9998715195464394,6.669605112965101
3594.181,3.9958906541469186,5.690747321288926
3595.0098,4.001525134034446,8.102309470098476
3595.8367,4.010923832567815,6.118832111468619
3596.6638,4.016049276622675,7.142532716485941
3597.4934,4.009944202925125,5.955090848175821
3598.3208,3.9906966661108276,7.470636585573743
3599.1506,3.9632860310965903,5.71308611559574
3599.9788,3.937536197635845,9.54344167527669
3600.8088,3.9214991668000776,6.691890815861694
3601.6372,3.9168871436300523,7.979323210644516
3602.4678,3.919752304047515,9.208409186113547
3603.2964,3.9260481756008723,6.473309912827724
3604.1252,3.9353455893538976,6.244902424591521
3604.9565,3.9492336393415868,6.1969638202741
3605.786,3.967328729881872,12.782953957589896
3606.6172,3.9866289883100503,7.103017896390918
3607.447,4.003887491827085,8.405824710907023
3608.2788,4.018284216411028,5.797996989949576
3609.109,4.0301510924436394,7.514124659563858
3609.9392,4.038183900081704,8.601836827140682
3610.7717,4.03822008605405,5.62944383316185
3611.6023,4.02617427649904,6.149684699917606
3612.435,4.002463824873098,6.554624167833511
3613.266,3.9739045222828704,7.089398921956786
3614.0994,3.9501775010303817,7.313667395910083
3614.9307,3.9385351246892095,5.68627890863834
3615.7625,3.939260416302541,10.71359467415133
3616.5962,3.946309493775242,6.3822446851937205
3617.4282,3.9517222120958304,6.61756296201959
3618.2625,3.9511639440434614,5.861394279951739
3619.0947,3.945910638680675,9.303781934861401
3619.9292,3.9402562864501616,6.9334117416513035
3620.762,3.9374405895174283,8.226582832797993
3621.595,3.9377700514703076,5.000201761201984
3622.4302,3.939787845409879,7.159610935289513
3623.2634,3.9417608882323107,7.5193469755685305
3624.0989,3.941730108941093,10.355591216374101
3624.9326,3.936715376976545,5.769011503508967
3625.7686,3.9231300022731284,6.241933269710081
3626.6028,3.899145082800203,6.466841424768583
3627.437,3.866758424857537,6.90066632093065
3628.2734,3.8317690136056615,5.894406096658241
3629.1082,3.8015504159391433,6.123078730826764
3629.945,3.781349375442017,6.583205767547169
3630.78,3.7731296424953933,8.988929996491533
3631.6174,3.7753926288878787,9.127230574271954
3632.453,3.784399972755924,7.916825222359514
3633.2883,3.795383095338477,7.642344264066942
3634.1262,3.804018546476493,6.396718144960094
3634.9622,3.8077364562726417,6.010118986879462
3635.8005,3.8063291208431207,6.614127915918661
3636.637,3.8009770853495612,8.772863784894934
3637.4756,3.7929434558193122,10.819222793075712
3638.3123,3.7832995059190906,7.470961302495102
3639.1492,3.7732713248776353,6.84394621644403
3639.9885,3.7644208466811246,7.79133700426552
3640.826,3.7581675114935584,7.7569171496640665
3641.6653,3.7553134853624464,6.4807603807621295
3642.5032,3.7563946509757993,8.797990082701928
3643.343,3.7615542638488417,7.379726905627183
3644.1812,3.7697306162677284,5.79009113550984
3645.0195,3.778317472436031,6.433072307217894
3645.86,3.784188304261448,8.000144764885574
3646.699,3.7855365165855974,7.878876075362889
3647.5398,3.782911221501098,7.632093943219351
3648.379,3.7782042971888443,6.213831684116893
3649.2202,3.7723840467280114,8.595074709682441
3650.0596,3.7640523549951213,6.051170830061031
3650.8994,3.750194820468767,6.152932797005495
3651.7412,3.7289662974964286,7.093663970245382
3652.5813,3.7021097046470612,8.349362606036447
3653.4236,3.6742776792709386,7.112105118747326
3654.2642,3.6510362775881795,6.705980999130493
3655.1067,3.6359183343278745,8.536967846282243
3655.9475,3.629579334438579,5.52842382822998
3656.7886,3.6295494663006957,9.9006106516895
3657.6318,3.6313586177823227,5.959884678662463
3658.4734,3.6303518444413814,9.167860860549027
3659.317,3.6239162218934666,7.322239520153029
3660.1587,3.612729026794957,10.056593917653563
3661.003,3.60007458875376,12.387384876727618
3661.845,3.590239409008484,9.921284679962687
3662.6875,3.5863403158326155,10.46139422621952
3663.532,3.5890988846301948,9.107973294372524
3664.3748,3.5964099403003154,7.3984527520178585
3665.2197,3.6045218416684643,9.902391796555735
3666.063,3.609995719100752,7.840491552824965
3666.9084,3.6113311928266576,9.81114846266139
3667.752,3.6089280849645218,5.839155843416678
3668.5977,3.6043445536015586,8.663154823390236
3669.4417,3.599755003873094,10.39476012171386
3670.286,3.5974654444884937,12.126709135442306
3671.132,3.599014248049464,7.9503779336304845
3671.9768,3.6038211588256055,8.98501687707245
3672.8235,3.6088171744973776,7.880310086610988
3673.6685,3.609965585140247,9.02949680728036
3674.5156,3.605076298315888,11.347818077368313
3675.3608,3.5954470444325666,8.69243905493796
3676.2063,3.584742338294448,11.132953184254252
3677.0542,3.5763026658938464,9.020854645987168
3677.9,3.571451122654677,9.285560393793366
3678.748,3.569753012206908,7.970419346873527
3679.5945,3.570384897869187,8.576163609108928
3680.4429,3.5723871513673857,9.183821255545908
3681.2896,3.5740335627634887,8.904541955290043
3682.1365,3.572683570083714,7.103410357431012
3682.9856,3.565840431958212,7.519313538976824
3683.8328,3.5530385155799062,9.717597386541872
3684.6824,3.536783778632725,7.738532114302261
3685.53,3.5219728845681373,6.639266847667973
3686.38,3.5129941775696967,8.739517028535847
3687.2278,3.511289100922807,8.017626963974081
3688.0762,3.514538805848254,9.645737717077099
3688.9265,3.518644179854416,10.302641286572827
3689.7751,3.5203558926237664,10.716970565476833
3690.626,3.518648922583692,7.479109847376243
3691.475,3.5140930372210235,11.34804394024284
3692.3264,3.5076328561120724,7.248843113124018
3693.1758,3.5003180134291303,6.898069327762735
3694.0254,3.4936118862788703,11.087207322889626
3694.8772,3.4895224003197067,12.790297726187074
3695.7273,3.489855637198893,8.248208996599384
3696.5793,3.4950989080511063,10.334633604807449
3697.43,3.5038515209732117,6.935620882881406
3698.2825,3.5133224084286496,9.949716640685274
3699.1333,3.520567173591875,7.510483126400665
3699.9841,3.5240676086065297,9.57927972168059
3700.8374,3.5239999808576106,8.584798304038884
3701.6887,3.5212889562391476,7.817588319051067
3702.5425,3.516449644406343,11.404344338199
3703.3943,3.5096645247327265,9.836354253025684
3704.2483,3.5017053764020214,10.101656133958272
3705.1003,3.4944616926362198,9.758182485245758
3705.9526,3.489590110227914,7.6268919126746075
3706.8074,3.4867590574142424,11.185497766685359
3707.66,3.483261966848877,9.810703573850342
3708.515,3.4758032619269104,9.038177911138966
3709.3682,3.463220937134289,10.13619081022412
3710.2234,3.447376851358213,15.003339844851228
3711.0771,3.43184761519943,10.916048798562388
3711.9307,3.419065402963552,17.077040713995768
3712.7866,3.408994192404158,7.187066511028923
3713.6409,3.4001796951165044,8.980281876949169
3714.4973,3.391690857674147,10.08167769018981
3715.3518,3.3844415634539717,14.289253459222282
3716.2085,3.380446659122028,10.324260345343252
3717.0635,3.3816018565950143,8.375835622621327
3717.9185,3.3885453166481843,10.428603893035191
3718.776,3.400091133002843,13.61883068156968
3719.6313,3.412875477832628,8.867843758029741
3720.489,3.4224230878709268,10.715823713570254
3721.345,3.4250183217751817,11.964667784736767
3722.2031,3.41993341935276,10.310585708836863
3723.0593,3.409794306659515,9.235456916178297
3723.9158,3.39872454372759,12.395172400209944
3724.7747,3.3897941133394673,11.033542961408566
3725.6316,3.383881481244163,7.858393984173713
3726.4905,3.3803558017453272,9.548110473999682
3727.348,3.378634770660738,11.732716059959998
3728.2073,3.3784573532730695,11.078731245525756
3729.065,3.379163750721054,7.830576681981353
3729.9229,3.3791543938320228,9.931206069768706
3730.783,3.3763972690344044,8.588019323226387
3731.6414,3.3696715329371494,9.707961249439313
3732.5017,3.359471300716674,10.647412894381342
3733.3604,3.347961458507747,10.147677172888597
3734.2214,3.337436620481072,11.977283470497774
3735.0803,3.328953571803285,9.144421364886531
3735.9417,3.3218200443575747,8.959020890036886
3736.8013,3.3150126191975353,11.276300874290857
3737.661,3.3084642081753164,9.935818415171685
3738.5227,3.303320230252852,11.50997367297951
3739.3828,3.300982231940999,8.98757801303536
3740.245,3.30196508068269,10.70920848138665
3741.1055,3.305627009441197,9.475627790493627
3741.9683,3.3105273962050985,9.725557550149798
3742.829,3.314650258972537,9.136208372856627
3743.69,3.315440283000555,8.949621184726933
3744.5532,3.3100579813043356,8.493934202371962
3745.4148,3.2969471231122545,13.398763849607004
3746.2786,3.277708172363318,10.971603982890688
3747.1404,3.257722435340921,9.67703336203497
3748.0044,3.2434540199945205,11.568202300864296
3748.8667,3.239032370582751,10.089398566997614
3749.729,3.2438228784724537,11.323574771682363
3750.5938,3.253545675400059,7.750234045830263
3751.4565,3.263125801945961,8.918714422368913
3752.3215,3.269567767388759,9.567547357324523
3753.1848,3.2726163568423465,14.010895451819085
3754.0503,3.2740053017518917,9.71162072004643
3754.9138,3.2759838643245183,11.254377644610196
3755.7776,3.280151144732043,10.725262472024871
3756.6438,3.286634400220953,10.609710531354091
3757.508,3.2938700137846317,9.385020212067127
3758.3745,3.2995218613193504,9.321907413799215
3759.239,3.301579387011429,12.993255573539896
3760.106,3.299092029417595,11.271685207836127
3760.971,3.2920904031729217,12.04612216005943
3761.8362,3.2814576981434898,10.191155400273104
3762.7036,3.268958420666506,9.743628064374201
3763.5693,3.257041494083725,9.023944120110263
3764.437,3.2476261916793034,11.416164697036418
3765.3032,3.241078021160438,10.869231771235468
3766.1714,3.2356500169478375,13.58026302346665
3767.0378,3.228538314779109,13.71575865092483
3767.9043,3.217637606465849,11.207612585893582
3768.7732,3.203059600048671,11.117547356176226
3769.6401,3.1873512324448243,8.457467242338675
3770.5095,3.1736497415794225,14.282841036186952
3771.377,3.163860600803603,9.260434143586329
3772.2466,3.1573995159996393,10.993124687330784
3773.1145,3.1522516320167595,9.222771520862478
3773.9824,3.1468563475126476,11.222798528519991
3774.8528,3.1417460291622334,10.567520182011846
3775.721,3.139530186460687,11.919619914499094
3776.5918,3.1431247477068163,16.121193349220526
3777.4604,3.153694331713002,12.296938249677511
3778.3315,3.1698091275582096,9.989201706654566
3779.201,3.187976885806313,11.275581917560372
3780.0703,3.2045636105373534,9.710524677393474
3780.942,3.2170858075217437,10.877019409382054
3781.8118,3.2243979532723923,11.061041824309477
3782.6838,3.2262807541762992,9.283980034207858
3783.554,3.2228441891286135,11.15421130058052
3784.4265,3.214759603031519,11.15724447455669
3785.297,3.2036725645975674,10.546173610336457
3786.168,3.1917258784924853,10.85331348239198
3787.041,3.1804965149691724,12.091836109231162
3787.912,3.1701178933742615,12.024495389547697
3788.7856,3.159212175671965,11.252781611528471
3789.6572,3.1462729333974324,10.905095558530727
3790.531,3.1306551946962777,10.619453561337227
3791.403,3.113187252944952,15.01291312280523
3792.2754,3.095413125641886,11.61916803539259
3793.15,3.0789037310965672,12.660780595399531
3794.0225,3.0648327369527353,14.37517509845182
3794.8972,3.053535185838415,11.263819496535111
3795.7703,3.044830261338834,12.981897902598835
3796.6455,3.0380167211392703,12.85797079109733
3797.519,3.0323445578587536,10.69888037344747
3798.3926,3.027281333495085,12.926919617085366
3799.2686,3.022863914414299,10.876205138052024
3800.1426,3.0197187019321414,13.038438311383647
3801.0188,3.018630047269789,11.667033261387145
3801.8933,3.0201756674444735,11.880053507069807
3802.77,3.024566610219929,10.570865387015958
3803.6448,3.031762854426443,13.05817144927287
3804.522,3.0417301468440088,10.879885452229999
3805.3972,3.05420128271815,12.701862489425348
3806.2727,3.0685511981506046,9.929604936636286
3807.1504,3.083774345502858,11.446118627534728
3808.0261,3.099008638188012,9.537353201743596
3808.9043,3.1144385946892115,10.429775468686856
3809.7805,3.1307281335765036,10.099514754979943
3810.659,3.1482840391188796,13.001555726021104
3811.5356,3.16621854694109,9.84324096524479
3812.4126,3.1827503982781273,11.217003852875628
3813.2917,3.195493806363007,11.517307875278467
3814.169,3.201757759278658,10.300045621311728
3815.0483,3.199519070875469,10.180085253436422
3815.926,3.1886399212877676,11.112512443439787
3816.806,3.1715188099052254,10.620664770414432
3817.684,3.1523145793488685,11.939098967472203
3818.5623,3.1348082505799164,12.680241386203294
3819.4429,3.1210806201438985,10.804962912561454
3820.3215,3.1112043251566868,13.177584806556052
3821.2024,3.103210066112158,11.65458341501092
3822.0815,3.093958987844753,10.892690055590714
3822.963,3.0802987096141776,11.169519035475428
3823.8423,3.060866176698823,11.16695562722741
3824.722,3.0365957806726627,12.14371744688355
3825.604,3.0098811678875346,13.96691706616632
3826.4841,2.9830785101035406,11.963768439918988
3827.3665,2.9570290250793856,14.107050777792658
3828.2468,2.931944805649082,12.008197897064875
3829.1296,2.9077563848320533,13.03840761574955
3830.0105,2.8847169770395067,18.347751668923934
3830.8916,2.862447575421777,11.99297173562971
3831.7751,2.839943713074211,12.576094823295339
3832.6565,2.81633224918943,12.9901498211575
3833.5403,2.791247664399797,12.988643134831932
3834.4224,2.7656947018059226,12.04703705875741
3835.3064,2.7415720669923016,16.168549209394833
3836.1887,2.7218686058993717,14.875575420530424
3837.0713,2.7096549716002523,15.356201322166683
3837.956,2.707080689508464,18.53900444369754
3838.839,2.7143074049462776,15.422179355173508
3839.7244,2.729850440742404,12.173408153137352
3840.6077,2.7519762379316535,14.298179563231024
3841.4932,2.78006065151052,14.946598440767723
3842.377,2.813720935420646,17.067466051756398
3843.261,2.851992149484912,12.36314237996485
3844.1472,2.8927037346563607,13.106864026725255
3845.0315,2.932791912234535,11.067033749751465
3845.9182,2.9699130716267987,12.140304575696014
3846.803,3.00219933123645,11.353224117275523
3847.69,3.0290014145399926,15.784634570265652
3848.5752,3.0501547290397295,12.304007200851249
3849.4604,3.0663777738190605,10.70878215082962
3850.3481,3.0791492452411164,10.386297614201238
3851.234,3.090596749566404,12.770866554504996
3852.122,3.1030427196127124,12.598544394016074
3853.0083,3.1173773252756014,12.173831595324149
3853.8967,3.132168040269981,9.200157575543216
3854.7832,3.1438065630998304,8.960749244439294
3855.6702,3.1489344694729695,9.271499908550384
3856.559,3.1469166138335383,10.334118480299619
3857.4463,3.1410791576044925,10.545274985036682
3858.336,3.1371698761497995,10.511590992581947
3859.2234,3.1398798533970127,11.275775060257313
3860.1135,3.1496647138774776,10.76251603776306
3861.0015,3.1624367999357976,12.479044904658998
3861.8896,3.1725641526088846,11.264689756526186
3862.7803,3.176147362447972,10.956288355704269
3863.6687,3.1723050232327887,11.289920018385905
3864.5598,3.162241441308857,12.455027902629482
3865.4487,3.1479019941825803,9.723058617138369
3866.34,3.1311473187140293,10.810703153950973
3867.2297,3.113901712392404,12.519307995694794
3868.1213,3.09765484338417,13.091698917881931
3869.0112,3.083560708690565,10.123563635043235
3869.9014,3.072325018222171,10.703798622095878
3870.7937,3.064314438182669,13.541507392190725
3871.684,3.058828888044402,12.636403529666874
3872.577,3.0530203590349414,12.06422385406755
3873.4678,3.0423238209302466,12.628110289700288
3874.361,3.0223889776920925,11.53983233386229
3875.2524,2.9918326448277384,11.68276545075095
3876.1438,2.952803970848952,12.365700326649643
3877.0376,2.909673782590816,12.728469233220173
3877.9297,2.867152332461022,15.540046047704466
3878.8237,2.827817232253068,14.831929808258915
3879.716,2.792174100706983,11.876317343084846
3880.6108,2.7583775255654226,15.511570522808594
3881.5037,2.7239303005134747,14.649557702042955
3882.3965,2.686352820947948,18.026493854381304
3883.2917,2.644298662882822,16.413761861333715
3884.185,2.59819963986934,15.641531139985329
3885.0808,2.549166481380775,14.851759633026667
3885.9746,2.4992191352756765,17.992325099288202
3886.8706,2.449842695955283,19.16536717366386
3887.765,2.4029296019537005,23.4120502446451
3888.6592,2.3604981471435535,18.873855100832966
3889.556,2.3252634993461965,21.729250312467258
3890.4507,2.3004146727449286,24.092723926525178
3891.348,2.2881725679453586,23.541396532370047
3892.243,2.2896858719050597,21.84254260017702
3893.1406,2.3048040906321843,18.86266308263489
3894.0361,2.332265972735202,24.743116964859425
3894.932,2.370091869868035,18.159584968470302
3895.83,2.415716994745234,16.90985243534344
3896.7263,2.465720716823652,17.64909538933881
3897.625,2.516996702009816,29.075601649846377
3898.5215,2.5664498284254464,13.508531388190569
3899.4207,2.61271131309481,14.780671562381478
3900.3176,2.6553141412792813,15.623336653202784
3901.2148,2.695176906849765,11.101718151044098
3902.1145,2.7335545176779177,14.533538592647737
3903.0122,2.7714249398323636,13.384943378802502
3903.912,2.810080076175338,15.309134357551846
3904.8103,2.850333967878334,12.75874774220242
3905.7107,2.892715935462598,15.969338350762424
3906.6094,2.9359709813634134,12.379209568639352
3907.508,2.977402250359831,10.420909522446243
3908.409,3.01359895383726,12.678668460358828
3909.308,3.042111753517531,11.7165853037004
3910.2097,3.0635053207875145,11.456500187296003
3911.1091,3.0807645725135755,12.983850847388107
3912.011,3.098069074270137,12.69037173312892
3912.9111,3.1182347218770636,12.69838523920863
3913.8113,3.141795681177249,11.594591193708752
3914.7136,3.167432638510361,13.477589309186621
3915.6143,3.1932620515856995,11.319002070111019
3916.517,3.218203937016731,10.479291191111038
3917.4182,3.241310788594238,8.957835415584082
3918.3215,3.2616673224236,12.097358224831032
3919.223,3.278371404754063,9.509359417467657
3920.1245,3.291928507468594,10.923454378541104
3921.0286,3.304447182956307,9.395131382299965
3921.9307,3.318412723920145,10.24392442853143
3922.835,3.3350104924858948,9.900269070284704
3923.7373,3.3529490412375744,8.531629508516883
3924.642,3.3696981360484086,8.77692124581697
3925.5452,3.3830399079918223,9.304591123102544
3926.448,3.392399768912317,10.37705068584494
3927.3535,3.398209020881956,8.609442155155437
3928.257,3.400685740216302,8.665839006247536
3929.1628,3.3994956143833055,9.819852966156198
3930.0667,3.3944023908111967,6.627515780343442
3930.9731,3.38609694650602,9.996270098186551
3931.8774,3.376275772777527,9.70439685191876
3932.782,3.3666850864908247,9.817794738141988
3933.6887,3.358436687487049,11.576734279670358
3934.5938,3.3517835170303556,8.978498957636027
3935.501,3.3459562083916286,11.020307949250586
3936.4062,3.339396402831854,10.449322001234929
