wavl,flux,ivar
3566.9744,0.7410562041320413,364.7785846972489
3567.795,0.7437646401719277,401.82211557124566
3568.6177,0.7470817664963206,355.39849699321155
3569.4385,0.7498106687993578,504.36624465659895
3570.2617,0.7509986595921444,518.710697228875
3571.083,0.7503758471920459,317.9246436129099
3571.9065,0.7484085217613907,409.5406147087791
3572.7283,0.7458141305729367,371.20293424144955
3573.55,0.7429703011135776,353.1092538195044
3574.374,0.7398508494588557,340.6739675337557
3575.1963,0.7365152005536534,384.5867410301048
3576.0208,0.7334481293283488,337.0639116954192
3576.8435,0.7314332785922716,487.2201271195525
3577.6682,0.7309596364142047,377.3540844959932
3578.4915,0.7319454188287783,350.2470541396576
3579.3145,0.733826392831003,560.7564386193349
3580.14,0.735803586838603,445.8509371177033
3580.9636,0.7369892800976335,311.56989516715095
3581.7893,0.7366452678051355,343.9190926595389
3582.6133,0.734443761762191,452.91513292955005
3583.4395,0.7306277692373424,428.31333427149417
3584.264,0.7259866628865195,325.1962551072722
3585.0884,0.7215542315130565,391.38252880200963
3585.915,0.7183079747850925,563.5471482805043
3586.74,0.7168540203426653,510.64847589928814
3587.5671,0.7171390595873727,454.1818160903968
3588.3923,0.7185432761919984,401.85351110244176
3589.22,0.7203266890679674,344.05586844198774
3590.0457,0.7221504706111087,384.67301113174045
3590.8716,0.7242776749040044,441.82635110322246
3591.6995,0.7271660229409279,364.2201120966572
3592.526,0.7307980168305666,415.0947324628258
3593.3542,0.7343986117003743,432.93023298059984
3594.181,0.73671486508995,304.7733459543443
3595.0098,0.736833122206026,307.08603936605385
3595.8367,0.7347334195168845,361.90214488369935
3596.6638,0.7312411924274567,536.2157737961016
3597.4934,0.7273924183415736,435.11024197586534
3598.3208,0.7238528027154078,443.92950295837954
3599.1506,0.7207081845492419,491.9782344009897
3599.9788,0.7178565007150896,404.5776112419279
3600.8088,0.7152287299893315,332.14737469750315
3601.6372,0.7128098163594074,384.878334202849
3602.4678,0.710477586801273,557.0954631466772
3603.2964,0.7081830655183545,346.52484706302016
3604.1252,0.7061665977352468,413.8729949965666
3604.9565,0.7049397828589511,489.1367349351939
3605.786,0.7048612323559603,480.03327801145673
3606.6172,0.7057434935514946,390.09059868978096
3607.447,0.7069752558746638,464.2519282886921
3608.2788,0.7079827095010236,403.46922384099804
3609.109,0.7084861316918737,496.20110723010134
3609.9392,0.7084587321221175,366.8929029324035
3610.7717,0.7080583602247044,397.20535938335206
3611.6023,0.707701540546435,517.2061994930779
3612.435,0.7079157452981883,405.21283955542344
3613.266,0.7088843788511282,442.2808136329594
3614.0994,0.7101788221783367,392.28489766273316
3614.9307,0.7110798788905893,361.29321025034244
3615.7625,0.7112258933244376,490.90247525244735
3616.5962,0.7108676290038902,437.7250779350829
3617.4282,0.7106020417246007,329.4116453609744
3618.2625,0.7108808914436061,462.60839186494644
3619.0947,0.7116779021553429,378.73645897581576
3619.9292,0.7124429046462436,372.5546020993339
3620.762,0.7123261022446057,353.7860430338603
3621.595,0.7106459710253644,411.295156966955
3622.4302,0.7073227332661233,372.19811080279476
3623.2634,0.7030408137588631,524.8074671159181
3624.0989,0.6988439958729351,375.8123209471026
3624.9326,0.6956291719959534,402.88793580390205
3625.7686,0.6936849961596757,426.66930632990517
3626.6028,0.6927950097077613,399.36531703064645
3627.437,0.6925722501355998,654.9277711914865
3628.2734,0.6928370918861771,295.0153372085324
3629.1082,0.6936745043556947,434.4849873104749
3629.945,0.6952308077141679,398.5706868134458
3630.78,0.6974612060740553,320.2747404387344
3631.6174,0.7001212045559465,503.0085930363314
3632.453,0.7028436095333181,469.2456719315537
3633.2883,0.7052923564779413,531.2948026665963
3634.1262,0.7071885851974828,359.88346435342726
3634.9622,0.7083638597719306,374.3938022509389
3635.8005,0.7088737663706293,378.93283420798144
3636.637,0.7089511395558294,397.47900765653503
3637.4756,0.7088534018710614,404.147780689408
3638.3123,0.7086722860442322,689.4015445552207
3639.1492,0.7083029574695971,456.10382781382975
3639.9885,0.7076069221226716,352.14479320577334
3640.826,0.70660801116953,458.45893683638815
3641.6653,0.7054804453207549,456.0216646178259
3642.5032,0.704424474465452,625.9252802566057
3643.343,0.7036139725787348,627.4126436674173
3644.1812,0.7033284347320378,377.07270380113147
3645.0195,0.7039556902527244,375.06319204792266
3645.86,0.7057537340580604,437.0615531156878
3646.699,0.7084689671454864,288.55777516203386
3647.5398,0.7112070352544859,409.9598790713383
3648.379,0.7126213881251848,449.4453382679089
3649.2202,0.711520000826871,336.27005283921284
3650.0596,0.7074950990386187,351.69407068250786
3650.8994,0.7012232500849865,383.21870157811793
3651.7412,0.6942298125719896,309.8228531432421
3652.5813,0.6882968603231496,470.4741144498297
3653.4236,0.6846490616885266,664.6536896398675
3654.2642,0.6836175545380581,536.7536848061764
3655.1067,0.6845970135741329,443.65323236979884
3655.9475,0.686489095317029,469.2976513825597
3656.7886,0.6882770731473332,450.77645654378017
3657.6318,0.6894557887842305,390.97509087843554
3658.4734,0.6900859649053466,496.56098256096675
3659.317,0.6904502117479988,432.52057840682767
3660.1587,0.6905591827447526,788.7174806903739
3661.003,0.6900603097260815,461.2291826293734
3661.845,0.6886710869614857,471.44713136630503
3662.6875,0.6866575773949655,410.7376999635751
3663.532,0.6848030523478945,333.4706538418412
3664.3748,0.683883966148287,421.5373360669485
3665.2197,0.6841612297061506,400.7715899370379
3666.063,0.6853759631742898,306.04739638082106
3666.9084,0.6870594137907924,382.51183052496043
3667.752,0.6887750147045502,495.79111842688786
3668.5977,0.6902272698484601,406.85413415828344
3669.4417,0.6912293209882692,566.9074284203404
3670.286,0.6917065825252049,270.20077033814886
3671.132,0.6916348576654571,440.5432158208332
3671.9768,0.6910167815203815,301.96501726281645
3672.8235,0.6899204865979052,336.3522711181991
3673.6685,0.6885606831599174,366.80483239050915
3674.5156,0.6872727572435933,325.2139582085247
3675.3608,0.6863761679184266,373.95164026887227
3676.2063,0.6859055664819099,468.96896084212585
3677.0542,0.6855096896460249,542.7426232112944
3677.9,0.6846891897265217,409.14562436755847
3678.748,0.6832553443275418,353.25645121451873
3679.5945,0.6815625121142442,314.15854614679813
3680.4429,0.6801458161239298,414.4248926176086
3681.2896,0.67919384278982,429.4139294366959
3682.1365,0.6783701647126968,362.6665037514329
3682.9856,0.677212217874094,926.0995919449342
3683.8328,0.6756544294472162,385.8083616152378
3684.6824,0.674162774952468,495.7738399514346
3685.53,0.6734357945475522,386.5733437801774
3686.38,0.6738524544852788,416.5526529951282
3687.2278,0.6751921781064336,417.1419455754836
3688.0762,0.6768253973828094,421.04619433928787
3688.9265,0.678193255962466,808.822751370297
3689.7751,0.6791296959797654,552.1217949800676
3690.626,0.6797887286120922,673.7692452033922
3691.475,0.6802646985265282,493.65232046093854
3692.3264,0.6803923259227006,499.0895646081833
3693.1758,0.6799193840005581,410.8391371909333
3694.0254,0.6788669262805267,476.9784727338671
3694.8772,0.6775992875966839,360.2645633808566
3695.7273,0.6764721089464176,497.05883373959574
3696.5793,0.6753979869000498,501.96046471375007
3697.43,0.6739430507773487,375.719814423755
3698.2825,0.6718793290159737,472.92995366051497
3699.1333,0.6696649319037015,430.7198104216284
3699.9841,0.6682276319605083,616.9929112047109
3700.8374,0.6683611335774007,467.8777137720484
3701.6887,0.6702831185097734,477.3086381841015
3702.5425,0.6736342095553882,355.8410847339884
3703.3943,0.6775581330892081,349.7384817040132
3704.2483,0.6808334275840382,472.798363052869
3705.1003,0.6821209576275646,519.8700360889574
3705.9526,0.6807173344521499,458.4527799409069
3706.8074,0.6770859330220955,374.66994560818483
3707.66,0.6727597961101174,552.0625652622508
3708.515,0.6694578606477178,486.816936111089
3709.3682,0.6683680024709772,545.3639150876454
3710.2234,0.6697652879397814,426.86375573489465
3711.0771,0.6730271527614966,569.9680953579089
3711.9307,0.6767666064881525,577.821683820803
3712.7866,0.6792492380116864,368.41031808951703
3713.6409,0.6791684896067718,406.81477836791004
3714.4973,0.6764135155341825,392.7073277757628
3715.3518,0.6720689546932376,572.5534209517209
3716.2085,0.6676207962547113,497.01300489318646
3717.0635,0.6642245690487482,515.8583023769028
3717.9185,0.6623369338290735,469.6466051997247
3718.776,0.6618606010124343,384.76354971137596
3719.6313,0.6623282545236677,427.19688070823184
3720.489,0.6630837372655481,420.60967093108275
3721.345,0.663504723476464,465.1511085839463
3722.2031,0.663231090049035,516.711497203134
3723.0593,0.6622899894017602,766.8532954553434
3723.9158,0.6610711699708753,422.2504812732741
3724.7747,0.6601296805794937,536.8174149964781
3725.6316,0.6598740158290569,539.4090134072035
3726.4905,0.6602788145503673,470.46456563412454
3727.348,0.6608865179250617,529.5033576449541
3728.2073,0.6611324128221235,442.7916518508667
3729.065,0.660769703070063,472.5001654119953
3729.9229,0.6600333878943091,495.6973012121761
3730.783,0.659368412002888,508.3957480788671
3731.6414,0.6590219631905264,365.1672540478342
3732.5017,0.6589031563160788,522.0300493467314
3733.3604,0.6588210268375113,476.53560297104
3734.2214,0.6587495878139331,467.65243107610456
3735.0803,0.6588649531396944,424.9837606149129
3735.9417,0.6593857720624406,456.24740232778146
3736.8013,0.6603688678848857,520.3705264797987
3737.661,0.6615855231749074,428.88739913697106
3738.5227,0.6625681807896731,440.2212302090118
3739.3828,0.6628592267825894,420.61778627481
3740.245,0.6623029636931641,453.07769206625943
3741.1055,0.6610978473519176,492.72510516457356
3741.9683,0.6596295432015168,543.2716053005244
3742.829,0.6583194959559318,382.28380138062596
3743.69,0.6574810963849329,416.4238176500118
3744.5532,0.657201068175311,473.53854846778427
3745.4148,0.6572436267746061,336.82318439116057
3746.2786,0.657128032391596,510.6969100442678
3747.1404,0.6563805731968982,571.381439329575
3748.0044,0.654780130146525,501.0744514279318
3748.8667,0.6525112439903196,476.8524048285835
3749.729,0.6501005956495904,579.1758944190582
3750.5938,0.6481483233079233,426.04712328942657
3751.4565,0.6469300048350098,538.9340342451239
3752.3215,0.6461243452655454,415.1649493904539
3753.1848,0.6450758608821795,565.6467698272238
3754.0503,0.6433835107022299,442.5802439780063
3754.9138,0.641402033178786,506.242274083606
3755.7776,0.6400929415779255,464.61185319522207
3756.6438,0.6403824368430804,390.69067909179614
3757.508,0.6425217306941166,551.6093614704176
3758.3745,0.6460508017243084,557.6235195110377
3759.239,0.6502381085946183,527.288422451375
3760.106,0.6545607724222169,444.45922728866674
3760.971,0.6585873399432325,437.2812360642335
3761.8362,0.6617961730580358,359.3468318949516
3762.7036,0.6635555850835239,462.76891003403784
3763.5693,0.6634912860857777,438.02555609451923
3764.437,0.6618073322498316,393.14805896578076
3765.3032,0.6591846135097448,528.3728035620061
3766.1714,0.6563739935262808,476.8614971747392
3767.0378,0.6538956906936755,532.1379876001048
3767.9043,0.6519148566132226,417.15737505266145
3768.7732,0.6503975127601715,618.9113990158999
3769.6401,0.6493172457035292,367.0348598597203
3770.5095,0.6487150359313935,495.3101039517603
3771.377,0.6486219409179862,401.81585819478727
3772.2466,0.6488764355950776,390.18898223550394
3773.1145,0.64910900482055,499.63579564023735
3773.9824,0.6489848513210607,330.3813568975353
3774.8528,0.6485137513533298,454.2131519009649
3775.721,0.6480797774370498,517.7791415067048
3776.5918,0.6480328921610465,535.0340978172467
3777.4604,0.648229751575087,488.9338928171004
3778.3315,0.648019749822185,475.8712894639357
3779.201,0.6467591466207113,471.96894784921165
3780.0703,0.644367567471705,393.97807123158253
3780.942,0.6414437928585167,456.0128092914001
3781.8118,0.638953147385245,366.4429530382134
3782.6838,0.6376760691485406,525.3024849409177
3783.554,0.6378823212604319,390.7846748139491
3784.4265,0.6392635168630209,382.17461730138217
3785.297,0.6411763466099312,495.15754443299596
3786.168,0.6429883194759335,393.3673967611515
3787.041,0.6442285071858348,422.753090758037
3787.912,0.6445313761969075,479.5386318924533
3788.7856,0.6436090843560766,458.0019510983151
3789.6572,0.6414208302600739,420.42699819700124
3790.531,0.638436347307019,423.1589423318597
3791.403,0.6356924939496108,381.8927126361693
3792.2754,0.634284968299614,637.3032803640824
3793.15,0.6347005376060917,570.938907441549
3794.0225,0.636443816146902,484.16228336890595
3794.8972,0.6383965160246802,518.225084215014
3795.7703,0.6396015023640633,394.244085057171
3796.6455,0.6399025769212378,479.245214771205
3797.519,0.6398791658115102,552.7370606149797
3798.3926,0.6402456675932009,414.8340818040469
3799.2686,0.6411987827653479,454.6927158145493
3800.1426,0.6422159085529084,407.0331699977212
3801.0188,0.6424747574569982,395.644647578543
3801.8933,0.641500143449192,463.9653684967542
3802.77,0.6394929241898148,606.3267760288732
3803.6448,0.6370650419191053,479.27349713910974
3804.522,0.6346737717646012,478.4775475340944
3805.3972,0.6324999748664066,521.8504880355165
3806.2727,0.6307414276822687,424.1234027191414
3807.1504,0.6299511158535953,527.031281175453
3808.0261,0.6308240818942079,596.799748686338
3808.9043,0.633593799335116,496.9788582706561
3809.7805,0.6376100120507846,399.98467030805637
3810.659,0.6415569843767205,656.1052810071131
3811.5356,0.644006143321783,323.09188065702824
3812.4126,0.6441590614610055,490.08135240348736
3813.2917,0.6421872526281085,509.4485660747295
3814.169,0.6391080976657083,503.3485322011526
3815.0483,0.6361033120276887,436.1348244286556
3815.926,0.6338882615319038,605.3374691160881
3816.806,0.6324597923752237,461.60195492373947
3817.684,0.6314508765172547,382.5910452339577
3818.5623,0.6305452864511472,399.1229223824408
3819.4429,0.6296855834339576,421.5172103040082
3820.3215,0.6290033895763741,485.41187365874396
3821.2024,0.6286261054851072,515.1835281102261
3822.0815,0.6285582627857,582.4653232151643
3822.963,0.6286738452205678,445.6006935559631
3823.8423,0.6288271493550592,405.3575091462342
3824.722,0.6289491403193831,528.2521963257225
3825.604,0.6290430202800184,474.0962619743924
3826.4841,0.6291228885412508,456.12299051374197
3827.3665,0.6291556429717364,499.6351353198521
3828.2468,0.6289877418339294,537.9461266605064
3829.1296,0.6282721214997383,374.3361435233309
3830.0105,0.6265194678462586,521.5795481531463
3830.8916,0.6233425678133655,522.5672490328369
3831.7751,0.6188203508884286,740.6708794246592
3832.6565,0.6137730884720596,384.1105270467655
3833.5403,0.6094950473690782,479.34494903436314
3834.4224,0.6072310342962866,537.6319830243559
3835.3064,0.6074159716884037,514.7693605069129
3836.1887,0.6094723908974593,556.9945745792069
3837.0713,0.6122256852883629,457.5768893110555
3837.956,0.6146227050397928,374.37833435034736
3838.839,0.6161382866607262,600.8261321015982
3839.7244,0.6167605447717023,608.5191864155829
3840.6077,0.6167029356389322,491.95400252984587
3841.4932,0.616241337065103,451.75551567387896
3842.377,0.6156661165089471,522.873833933177
3843.261,0.6152830707722345,443.79917336394476
3844.1472,0.6154275875196078,670.7626913597193
3845.0315,0.6164026802731347,493.5066834829475
3845.9182,0.6182859086250443,490.48559270809227
3846.803,0.6206940397257886,620.7805600349795
3847.69,0.6229033896185764,492.1294161887296
3848.5752,0.6243014346731982,396.68919650921265
3849.4604,0.6249333774836804,564.9761081258532
3850.3481,0.6255092854444335,496.12775155919786
3851.234,0.6268680844945191,533.858618793217
3852.122,0.6293429069482623,488.2933084425271
3853.0083,0.6324936592731092,661.5102678693105
3853.8967,0.6354582287805537,495.6392583176391
3854.7832,0.6374446934347517,440.7831284877115
3855.6702,0.6381391285045314,604.9875579248273
3856.559,0.6376687931420828,373.63496106157373
3857.4463,0.6363901300047795,451.54913241493085
3858.336,0.6346688657379764,436.31872312669145
3859.2234,0.6328367463508279,492.75890250875557
3860.1135,0.6311666953853253,499.7678437141337
3861.0015,0.6298625502867808,513.3928043083064
3861.8896,0.6289131421110612,471.37557107008206
3862.7803,0.628053518447855,517.8941015051316
3863.6687,0.6268825100996552,394.6723647369383
3864.5598,0.6250798086580446,376.8948481935256
3865.4487,0.6226116016565897,460.306303354431
3866.34,0.6196775210385175,581.8852027048379
3867.2297,0.6166013756947714,550.3676155711522
3868.1213,0.6136540607898121,425.8814214402454
3869.0112,0.6111123721725782,399.1002647491389
3869.9014,0.609255782116532,535.7729103895016
3870.7937,0.6082649193309148,480.92039000196087
3871.684,0.6079639962102279,570.9230026009258
3872.577,0.6077458013310868,525.4093078171811
3873.4678,0.6069270226933323,556.9153314139807
3874.361,0.6052423619138223,801.7062400814506
3875.2524,0.6030861749792634,557.3349134491393
3876.1438,0.6012678554686455,744.9028401774551
3877.0376,0.6005610724919292,712.4026955631225
3877.9297,0.601288577977974,581.7142735820681
3878.8237,0.6031392879472495,520.3072556921641
3879.716,0.6052922355573999,561.5693865372086
3880.6108,0.6067833490874804,507.19720280247316
3881.5037,0.6068546162774647,495.1895201840046
3882.3965,0.6052625815132661,548.3522056310724
3883.2917,0.6023481725055748,550.3026707959142
3884.185,0.5989351461640545,419.9001056216082
3885.0808,0.5959310051255564,500.28338081944804
3885.9746,0.5940080131259243,629.0425588548828
3886.8706,0.5933562091047427,661.8304102576874
3887.765,0.5937680393249645,523.5664452003628
3888.6592,0.5948214892885889,548.7426170422941
3889.556,0.5960935421525188,537.5004600073265
3890.4507,0.5972389861251761,641.2643034984911
3891.348,0.5979971489437459,400.4797329932141
3892.243,0.5981641942813759,528.026633758177
3893.1406,0.5977077455889689,486.7496766760538
3894.0361,0.5968839394196671,598.082923752573
3894.932,0.5961462187677414,580.9534448637315
3895.83,0.5958290656398306,831.0950836224163
3896.7263,0.5959123569623834,606.8943909052325
3897.625,0.596165882662176,481.7577931096897
3898.5215,0.5965262730575136,557.407203246455
3899.4207,0.5972446581261982,567.7119777298051
3900.3176,0.598625395727744,648.5505660923069
3901.2148,0.6007126137027504,402.13173934585916
3902.1145,0.603227309246957,494.32151724238486
3903.0122,0.6057113568943533,435.2761140126192
3903.912,0.6077427367781411,416.6882383521351
3904.8103,0.6089763023108865,626.2722098866038
3905.7107,0.6092579663399409,505.21579303246637
3906.6094,0.6087399194389489,415.0353502393867
3907.508,0.6079421607493676,378.49338982397
3908.409,0.6075490864043587,649.2295138473858
3909.308,0.6080466586606698,543.9295260938775
3910.2097,0.6095028169616732,547.6813497498315
3911.1091,0.6116671988879114,417.05906423835506
3912.011,0.6142474241915595,497.1990417622756
3912.9111,0.6169482286313134,628.0683093453725
3913.8113,0.6193985076203476,357.7333302583631
3914.7136,0.6211041581180747,719.3448483584866
3915.6143,0.6216798394255094,608.7225233006594
3916.517,0.6212094906920369,370.89071796476685
3917.4182,0.620290339965915,439.0081893127434
3918.3215,0.6196676271983462,518.3184162625957
3919.223,0.6197728908304828,447.92484355134405
3920.1245,0.6205365165993162,468.39708697536156
3921.0286,0.6215693170208603,491.44777875596935
3921.9307,0.6224218853086234,569.2782662874444
3922.835,0.6227849686517489,541.374992794749
3923.7373,0.6225558976775012,482.0368220378586
3924.642,0.6218398967194944,606.3958022857215
3925.5452,0.6208659448634714,397.42343819602183
3926.448,0.6198464619099714,578.9151646604364
3927.3535,0.6188762727398508,479.1990311680969
3928.257,0.6179214212459402,481.7683448524541
3929.1628,0.6168765278230245,484.88658230972806
3930.0667,0.6157272398915499,520.2490395502954
3930.9731,0.6146400586108742,530.8836171938922
3931.8774,0.6139332328064359,538.4843636536056
3932.782,0.613837031572461,587.55338786328
3933.6887,0.614297549629887,525.3403492665958
3934.5938,0.6149721780720412,497.78320453875335
