wavl,flux,ivar
3566.9744,0.3594236154953697,2902.55307482975
3567.795,0.359628877018139,2627.7242933244042
3568.6177,0.35975903354073935,6427.085782147342
3569.4385,0.3594139600695261,2120.8233549846086
3570.2617,0.3582718458438514,3638.385321369044
3571.083,0.3562443448763206,2884.492562181934
3571.9065,0.35354995160828356,2953.258918302263
3572.7283,0.35073740133856135,2651.391435654055
3573.55,0.3485078686610347,3077.571775084627
3574.374,0.3475108733916581,3386.8162596933407
3575.1963,0.3481019721995668,2756.5444276070743
3576.0208,0.35020352522734916,3789.5552223864706
3576.8435,0.3533674018199071,4002.233683811086
3577.6682,0.3570117432465007,3959.83459922741
3578.4915,0.3605568813789479,2463.431539425832
3579.3145,0.3635621386255742,5615.247350380941
3580.14,0.36569798482789784,2946.0276592173764
3580.9636,0.3666744454813098,3587.584961925378
3581.7893,0.3662796694261773,2653.0424043371972
3582.6133,0.3644837101461166,3143.396641440337
3583.4395,0.36157684629200837,2669.517920232891
3584.264,0.35820595675372635,3008.102346324867
3585.0884,0.35512704419124674,3591.528941695568
3585.915,0.35290092073011475,3893.1690961553545
3586.74,0.35164041850637034,4106.798695469536
3587.5671,0.3509224754898785,3509.696487488253
3588.3923,0.3500648646922329,3556.723701178775
3589.22,0.3485661893659047,3405.899192172455
3590.0457,0.3465211213140874,3029.7432571930112
3590.8716,0.3446033067410303,2828.972794149707
3591.6995,0.3436535655942257,2349.3638086863866
3592.526,0.3441342218204958,3639.594786332149
3593.3542,0.3458730073478396,3289.3907267943605
3594.181,0.34823755079801955,3410.5989317878775
3595.0098,0.35052495102516784,2797.00749500832
3595.8367,0.3521721893947492,4264.669490415343
3596.6638,0.3528730967484826,2966.6509389861326
3597.4934,0.35257161205239484,4186.890693913523
3598.3208,0.3514687942702471,2617.040420254745
3599.1506,0.34990007455215066,2319.9339841359383
3599.9788,0.3481465517276664,3377.7544509801837
3600.8088,0.3462962313220457,2913.7690411145268
3601.6372,0.34440587239876097,3153.8507099179374
3602.4678,0.342678708127471,3562.133497234882
3603.2964,0.34146760989855374,5287.879562814513
3604.1252,0.34092672573597055,3157.3133878679123
3604.9565,0.3407506924654011,4816.558780454073
3605.786,0.34027091498148393,3566.1676024222397
3606.6172,0.33892188893850744,2655.7172989004475
3607.447,0.3367128824106524,3556.834435016509
3608.2788,0.33422083204079717,3247.093901164142
3609.109,0.3321552772207575,3605.926696497937
3609.9392,0.3308305411027039,3548.9931856989792
3610.7717,0.33015824585650055,3410.4197903692625
3611.6023,0.3300172220867205,4088.679883836841
3612.435,0.33050313294460765,3777.462986832029
3613.266,0.33176298273635,3184.2289405565753
3614.0994,0.3336669756769394,5070.377997860984
3614.9307,0.3357194012775873,2953.084932774746
3615.7625,0.33738841470365705,4202.530324265919
3616.5962,0.3384534451488505,4080.625952654929
3617.4282,0.3391110044347011,2736.3332235812204
3618.2625,0.3397508610642366,3632.2731489725657
3619.0947,0.34057009724884624,3061.454614991958
3619.9292,0.34142994990064335,3705.6920458169116
3620.762,0.34205683355867167,3310.197085634591
3621.595,0.34241016951585923,2854.2255291490064
3622.4302,0.34276417203851106,4187.2039144940445
3623.2634,0.3434325791009048,3313.52578151297
3624.0989,0.3444512253447071,3764.3411414804555
3624.9326,0.3455201242712213,3488.1616671553365
3625.7686,0.34626152451047687,2866.606195987591
3626.6028,0.3465029110661208,3268.113369328472
3627.437,0.34643925924475144,2572.9714912909076
3628.2734,0.3465227210293758,3168.6022074125476
3629.1082,0.34712858898915766,2629.7694741910664
3629.945,0.3481954322514856,4119.245943235983
3630.78,0.34915173000113736,2906.1430858541407
3631.6174,0.349302746956998,3430.4491368928793
3632.453,0.34835401488134576,2521.0909267150814
3633.2883,0.3466653163292098,3597.4040001453304
3634.1262,0.3450007804784559,4113.748287814743
3634.9622,0.3440413823483427,5108.340317101447
3635.8005,0.3439893115219473,2922.434322345726
3636.637,0.34459559955158814,3118.2577329315286
3637.4756,0.34543809283240534,2421.461675482469
3638.3123,0.3461791719661989,2958.101585631517
3639.1492,0.3466459972429203,3420.5279560131926
3639.9885,0.34674720210555854,3408.804874902012
3640.826,0.34642585949012317,2217.002008762896
3641.6653,0.34572318643755173,3401.0401024011453
3642.5032,0.34488603701142967,3152.9920080539882
3643.343,0.344347827896389,2949.17383598994
3644.1812,0.3445424298697997,3207.6201153891334
3645.0195,0.3456089414995144,3999.0548736891697
3645.86,0.3472331022508714,2394.8416084727646
3646.699,0.34872825952434316,3586.1248546393426
3647.5398,0.3493933399699297,3737.7218147809085
3648.379,0.3488673395379805,2847.1521232599184
3649.2202,0.3473477280591042,2905.0301841343107
3650.0596,0.3455200527820258,4600.730574798147
3650.8994,0.3441562804636385,3375.6229939288332
3651.7412,0.34364564899416533,3984.0815197374463
3652.5813,0.34374565262922696,5162.6006021515805
3653.4236,0.3438082173389208,2688.5987545083835
3654.2642,0.3433470509854046,4193.570695531474
3655.1067,0.34247910658860947,3800.9173945116518
3655.9475,0.341889929253968,2625.102613402909
3656.7886,0.3423440478424131,3111.6141767670024
3657.6318,0.344167287970377,3222.8699705139084
3658.4734,0.3469928637115158,5653.714259719709
3659.317,0.3499571421334059,2635.6797645364163
3660.1587,0.3520759881259483,2248.9839756431593
3661.003,0.35270775969490875,2199.624621072272
3661.845,0.35173097772434975,2950.372887037367
3662.6875,0.34949452668105846,3079.518256520458
3663.532,0.3465739986577102,4082.251655612702
3664.3748,0.3435990534123301,3453.759230817962
3665.2197,0.34112809649772147,3323.5645810750043
3666.063,0.33966675183212386,3367.879813382828
3666.9084,0.33952379868726146,2615.3054620166326
3667.752,0.3406694503571486,3497.697994005768
3668.5977,0.34267645009023107,3688.571763337672
3669.4417,0.3448747243263616,3516.1348034407297
3670.286,0.34668909173471,4391.680516614754
3671.132,0.34785233049350367,3169.2161509865027
3671.9768,0.34840671317875577,3514.134465804398
3672.8235,0.34853753724006603,3869.275901725914
3673.6685,0.34836144599193763,2329.920240043676
3674.5156,0.34786694880192415,3749.9896628580123
3675.3608,0.34702564360998506,2332.9678720995894
3676.2063,0.3459354900498276,4015.6623660942137
3677.0542,0.3448377196460696,4252.030071127361
3677.9,0.3439663275847549,4026.6850016020885
3678.748,0.34335925145879737,2995.837733950025
3679.5945,0.3429040892459749,4020.439006298307
3680.4429,0.34252218595236306,4525.738808253138
3681.2896,0.34229981732805614,3211.729109166565
3682.1365,0.34237176463531843,3957.8850639001816
3682.9856,0.3427231732837011,3998.5060123609765
3683.8328,0.34314494289644387,2943.278600470555
3684.6824,0.3434121855617918,3662.0584100937017
3685.53,0.34344703564974377,3384.730935096747
3686.38,0.3432875556312278,4491.642487332656
3687.2278,0.3429053996117245,3179.646827618759
3688.0762,0.3421173002591936,3493.1033265480696
3688.9265,0.3407250391322691,3308.2057344277164
3689.7751,0.33877177251228413,2206.36405209862
3690.626,0.33660973587347953,7001.597832001177
3691.475,0.33476992784352355,3610.5067247845595
3692.3264,0.33367366451174546,3915.296952579589
3693.1758,0.333534623390761,2724.4134885241165
3694.0254,0.3343653835423084,5389.858230954284
3694.8772,0.33604685113192195,4571.75552056217
3695.7273,0.3383077522088387,3588.5569047463405
3696.5793,0.34076457704844243,4554.490594534532
3697.43,0.3429690530907322,3855.2706803045658
3698.2825,0.3445637183274725,3293.776645225016
3699.1333,0.3453357461986191,4882.701630708263
3699.9841,0.34526220551699816,3135.279216071731
3700.8374,0.344441498545601,2516.206896709179
3701.6887,0.34300483960758493,4706.766285851713
3702.5425,0.341018710423804,3160.255936335404
3703.3943,0.3385536478847027,3475.439148531436
3704.2483,0.33577391601703743,3312.7190345205836
3705.1003,0.3330353183487359,3990.9175840960147
3705.9526,0.3307189587974117,3798.515697761267
3706.8074,0.3290751226700789,4668.634106538209
3707.66,0.3281583523399248,4446.495198728058
3708.515,0.32786003301023525,3588.6261018832647
3709.3682,0.3280242138124622,3236.832862713071
3710.2234,0.32850218596338376,4184.992869089929
3711.0771,0.32919402535236325,3505.5980815863236
3711.9307,0.3300762964502099,3496.9149228107053
3712.7866,0.3311659691354837,3098.8565257751525
3713.6409,0.33239378769790096,4289.6780323008725
3714.4973,0.3335132236831038,5136.3126398985205
3715.3518,0.3341078354825359,3027.3212281068645
3716.2085,0.3338086199759566,3739.720583629503
3717.0635,0.3325354318266988,4672.484208548427
3717.9185,0.3306197859356768,3980.850451528403
3718.776,0.328701666746547,3252.926244279466
3719.6313,0.32746569878270326,2884.0864774212714
3720.489,0.32727971214952345,4006.9122218153525
3721.345,0.3280336889482489,3364.7504143613623
3722.2031,0.32921685048884347,4120.980125860958
3723.0593,0.330201546249762,4443.677047222918
3723.9158,0.3305899616591283,2792.6779779610874
3724.7747,0.3303801048820342,6466.8479750516335
3725.6316,0.32989233358024483,3082.3615542707184
3726.4905,0.329480138475269,5459.899753776285
3727.348,0.3292781483877632,3941.837508610759
3728.2073,0.3291734441281993,4255.286898854041
3729.065,0.3289855261051437,4275.459476887954
3729.9229,0.3286421053774221,2548.7098419550293
3730.783,0.3282395646031828,3319.1717540684567
3731.6414,0.3280059472611087,4208.3141850889515
3732.5017,0.32818737915137786,3550.4657640990085
3733.3604,0.32890100054037513,2866.376412610085
3734.2214,0.330025053846652,4801.465772025613
3735.0803,0.33119629834380593,3280.942566141065
3735.9417,0.33198522656315804,3036.5661011128173
3736.8013,0.33209821796152444,3001.662161456514
3737.661,0.33155645387317584,3187.6791174434106
3738.5227,0.33067122592911236,3490.3424080751092
3739.3828,0.32984735367682033,5757.68882268906
3740.245,0.32929460722150133,4126.040565204121
3741.1055,0.32890293816251986,5334.852500572737
3741.9683,0.3283311003884745,3349.91883321446
3742.829,0.32727204497192924,4235.206352269776
3743.69,0.3256708478515973,5245.713883652037
3744.5532,0.3237823900338807,4011.037507875348
3745.4148,0.3220531335646631,3823.9170769606294
3746.2786,0.3208495682869009,5151.981785915701
3747.1404,0.3203177895848504,4736.6704877494685
3748.0044,0.32038450007089747,3931.852789561298
3748.8667,0.3209126902716938,4344.999112356919
3749.729,0.32178456145712614,4749.006683448853
3750.5938,0.32286004851875594,3799.9645917422467
3751.4565,0.32390192145864893,3617.1744807787495
3752.3215,0.32464607718887734,3688.6140186497432
3753.1848,0.32491550864299334,3834.584943604789
3754.0503,0.3246969024337494,3738.1135412019644
3754.9138,0.32408192232987054,2896.291746021146
3755.7776,0.32319468986089983,3931.5910022769335
3756.6438,0.3221993411811308,3878.3929618679476
3757.508,0.3213516004705243,4266.099721233746
3758.3745,0.320945892568872,3335.0673553524025
3759.239,0.3212041774315819,4968.8597971296795
3760.106,0.32214944832864695,3680.07861068814
3760.971,0.3235583915487069,4519.742104873325
3761.8362,0.32503257489821497,3111.5403028816604
3762.7036,0.3261400386945443,3479.757101780391
3763.5693,0.3265964840398963,3570.6457376210374
3764.437,0.3264013932177777,4330.633689217826
3765.3032,0.3257919686842897,3103.1494918345716
3766.1714,0.3250540827268876,3501.8912239890988
3767.0378,0.3242955413040203,4558.359467436079
3767.9043,0.32331585616939057,3174.2183569900403
3768.7732,0.32173919926663563,3060.9760258956026
3769.6401,0.3193898934725352,3412.381256746172
3770.5095,0.31658026461357375,4292.147121782523
3771.377,0.31412153241705115,3994.222426759618
3772.2466,0.3128580122603249,4044.8757831097605
3773.1145,0.3132001192753404,3861.5335028605873
3773.9824,0.3148557102930821,4478.263931762361
3774.8528,0.3170162338418466,4111.471015472841
3775.721,0.3187849842004453,4568.0411357710655
3776.5918,0.3196951910961267,4070.6071247106274
3777.4604,0.3198689975266089,6498.816086612368
3778.3315,0.31980774231971903,4175.095056319432
3779.201,0.3199238032358608,4295.646715060319
3780.0703,0.3202627967794261,3427.526201470242
3780.942,0.3206309840064942,4064.4090660535376
3781.8118,0.3209268492673129,3195.7409511054047
3782.6838,0.32128529457174754,3608.4407895105883
3783.554,0.3218491003537564,5017.031476683664
3784.4265,0.32247354255234284,4076.2527843917237
3785.297,0.3227296165299562,5058.939155573834
3786.168,0.3222844116208458,3236.854795305572
3787.041,0.3212464863884156,4249.184426552996
3787.912,0.3201563550132255,4192.639959514875
3788.7856,0.3195851630158227,3942.0202304202708
3789.6572,0.31974565295026197,3600.395149099916
3790.531,0.3203758905023475,3829.671548267761
3791.403,0.320958518076742,3635.763356358756
3792.2754,0.32104951013218735,4272.644221863436
3793.15,0.3204620085124258,4160.729781490173
3794.0225,0.3192807128892817,3654.5820521078367
3794.8972,0.31774954703110275,5400.735190082592
3795.7703,0.3161686219541935,3287.516235059238
3796.6455,0.31476729922173186,3982.4410095282497
3797.519,0.31368792917153665,4361.939015922976
3798.3926,0.3130005207642653,4003.454478967238
3799.2686,0.31276883376008124,4242.163706866294
3800.1426,0.3130329058517013,5364.777016000502
3801.0188,0.313733307748903,4311.249107874709
3801.8933,0.314661946578182,3250.681812251995
3802.77,0.3154911303590051,4109.043583673114
3803.6448,0.31583549092074953,5059.865584591415
3804.522,0.3154218462798854,3798.1395128556014
3805.3972,0.3143039906382546,3987.5740325898096
3806.2727,0.31294845870199284,3830.817482535261
3807.1504,0.31201442173645705,5159.422711760739
3808.0261,0.31193677432393935,4531.246473595094
3808.9043,0.31265051929994075,2967.0774717131294
3809.7805,0.313725704565148,3844.3110457278112
3810.659,0.31475930801379265,4426.376647732736
3811.5356,0.31562487077879725,4138.844104306965
3812.4126,0.3164460982698126,4211.125308623881
3813.2917,0.3173734110270197,3272.895558598952
3814.169,0.3184226475003817,4919.479877090438
3815.0483,0.3194792129136782,3383.9811936625188
3815.926,0.3203459305416597,4123.509448633447
3816.806,0.3208394562492448,4268.018926278697
3817.684,0.32085205717695214,4144.39439423057
3818.5623,0.32040562030609177,3709.768700219429
3819.4429,0.31961810350336906,4837.091205269106
3820.3215,0.31863097813643965,3951.2460699115445
3821.2024,0.317518205712366,3434.206492299425
3822.0815,0.3162849926122936,4100.291661791403
3822.963,0.31488347120475035,4295.4145547696
3823.8423,0.31329103938087793,4945.191682854656
3824.722,0.31151995157259366,3621.3756033006794
3825.604,0.30959467059810125,4665.059034558909
3826.4841,0.30748859370434783,4062.981388388554
3827.3665,0.30505115316788123,4459.642607250009
3828.2468,0.3021288121444856,4065.1305620723006
3829.1296,0.2986682715956992,5066.00761588891
3830.0105,0.29486753029589546,5809.609028042039
3830.8916,0.29107554492825755,5675.87668646804
3831.7751,0.28767362752703757,6189.930701351749
3832.6565,0.28494639463721655,3919.06235396103
3833.5403,0.2829483836072661,3841.9674807677407
3834.4224,0.2816174535315539,4803.317482008295
3835.3064,0.280893941621135,5022.81012986292
3836.1887,0.28086685465083777,4873.539366532403
3837.0713,0.2816994127338099,5435.786379024939
3837.956,0.28342409796276163,5422.015815065348
3838.839,0.285770889221568,4492.6861226494575
3839.7244,0.28830002521612974,5021.8222522302785
3840.6077,0.29064476417309204,4552.586398766633
3841.4932,0.2927520074875291,4060.4709134104023
3842.377,0.29481642205252273,4874.207460024323
3843.261,0.2971504581306919,4357.050037126381
3844.1472,0.29998404158107794,4770.430381619446
3845.0315,0.3032726071723883,4561.25978509141
3845.9182,0.3066750257353612,4756.860647894707
3846.803,0.3096578400695106,4320.6458597656365
3847.69,0.3119308889781557,4251.910792934499
3848.5752,0.3136613931754277,3671.958649601781
3849.4604,0.3153717303218733,4662.278349506065
3850.3481,0.3174768683671042,3561.2757176179957
3851.234,0.3199461317613129,3983.187585152622
3852.122,0.3224354903453228,3401.9861438624457
3853.0083,0.32459011877114213,4273.001344404877
3853.8967,0.32631447622127524,4039.3275074971243
3854.7832,0.3276861701896287,3163.5751448854558
3855.6702,0.3288302732042851,3339.125462984207
3856.559,0.3298165638366866,3763.0262269393825
3857.4463,0.3306501937959697,3462.11169773452
3858.336,0.3312896607830651,3034.022504300582
3859.2234,0.3316480158184642,3567.5235573559366
3860.1135,0.331671441902538,3663.588460924505
3861.0015,0.3314302278103942,3587.9095926493846
3861.8896,0.33114631131543437,4241.36545782009
3862.7803,0.3310562495510695,4798.7436928140305
3863.6687,0.33117020515272694,3697.1944434260963
3864.5598,0.3311323891302263,4042.19917236739
3865.4487,0.33036836569124095,3426.4487719688764
3866.34,0.3284521126939662,3779.989177625219
3867.2297,0.32544485216171054,3393.1178829004875
3868.1213,0.32186956108401055,3565.568661820228
3869.0112,0.31843884289323465,3511.122317279822
3869.9014,0.3156172899279641,4680.0657041008735
3870.7937,0.31347341574313464,3969.1517062152375
3871.684,0.31179674578924266,5108.983713942444
3872.577,0.3102868023503121,3975.7430634674038
3873.4678,0.3087221449002203,4631.352342635999
3874.361,0.30693708392884905,5372.284715230604
3875.2524,0.30483696824011774,3701.6490552894084
3876.1438,0.30238991067365856,3900.7754172080126
3877.0376,0.29965346849745506,4597.98931370142
3877.9297,0.29675615151973234,3239.969111130071
3878.8237,0.29375794188249904,4831.815919354749
3879.716,0.2906232761029379,4391.830155360657
3880.6108,0.2871866464648302,5424.550674356788
3881.5037,0.2833340724800999,4112.7956603803505
3882.3965,0.27909229038368893,6008.231917661044
3883.2917,0.27468138446616036,5773.368603025362
3884.185,0.27042814640256824,5734.31435915659
3885.0808,0.2665113535255664,5709.626147379258
3885.9746,0.262981379929666,4227.545109123128
3886.8706,0.25979120052177596,4933.310793699761
3887.765,0.25702343918818515,6505.857711366435
3888.6592,0.2549014226213667,5985.458938883409
3889.556,0.2537229266035174,7304.97314520942
3890.4507,0.2536877908529806,8063.292843228378
3891.348,0.2547584723352374,8228.430212991267
3892.243,0.25668859114768033,6462.934121626737
3893.1406,0.2592013302485807,5831.493339840698
3894.0361,0.2621100093442962,6144.586955653494
3894.932,0.2654109970794518,7084.506007124708
3895.83,0.26919752885066883,4977.348941533733
3896.7263,0.27350227767824503,4823.988965843728
3897.625,0.2782650078305088,6116.70344057609
3898.5215,0.28324544868651363,4510.6539524392265
3899.4207,0.28823203254616847,6836.27469443269
3900.3176,0.2930757975833363,4310.634599429893
3901.2148,0.29781457385790056,4189.616147138227
3902.1145,0.3025199593681217,3284.020422212448
3903.0122,0.30713659332446336,3789.0890029870343
3903.912,0.31154473625539725,5107.874569950186
3904.8103,0.3155674654119989,4087.2300158825033
3905.7107,0.3191346287011156,4451.782261016291
3906.6094,0.3222255591919589,5027.830660329762
3907.508,0.3248942352293924,4943.474998857111
3908.409,0.3272495472644634,3763.4055655187162
3909.308,0.32949275789494276,4328.551739948395
3910.2097,0.3319571673997373,4756.150497734736
3911.1091,0.33492153741423186,3806.265782357781
3912.011,0.33843891395324666,4359.42804295559
3912.9111,0.3421829209061158,3185.9210227753597
3913.8113,0.3456754772178603,2923.7503318695963
3914.7136,0.3485862512379399,3180.171856229671
3915.6143,0.35090122609506463,3561.1153648550076
3916.517,0.35287579839113065,3099.5318253748105
3917.4182,0.354751738447244,3115.463881996491
3918.3215,0.3566324543276855,2775.260612457533
3919.223,0.3584566984824273,2817.5355006936165
3920.1245,0.360123902671705,2496.118489152115
3921.0286,0.3615569305222853,3055.134165393404
3921.9307,0.3627175499427715,3718.0727351604273
3922.835,0.3636081781717804,3015.768901452418
3923.7373,0.36420616468060146,3402.6450385683393
3924.642,0.3644549111909332,3140.0426958138996
3925.5452,0.36429125048563116,3135.6120907357185
3926.448,0.36374934246667384,3216.578030173704
3927.3535,0.3630337336633922,3653.9762543671714
3928.257,0.3624919011092559,4236.408401474199
3929.1628,0.3624300359410298,3288.1901620454773
