wavl,flux,ivar
3566.9744,1.8209994349300602,438.5476637248899
3567.795,1.819094749190203,243.0219016347059
3568.6177,1.816799364947903,251.21501811963014
3569.4385,1.8137911378754488,310.68804614134956
3570.2617,1.8103647015130742,332.3298563855057
3571.083,1.8069804761726806,292.58522373839105
3571.9065,1.8035703930338842,280.56423985621274
3572.7283,1.7996556022578691,280.9011883758899
3573.55,1.7949729801046352,271.5341891255447
3574.374,1.790014268992856,265.2184116949706
3575.1963,1.785863540118941,331.08064749910903
3576.0208,1.7834308684699145,370.9681654954646
3576.8435,1.7830410102397343,328.1508907624779
3577.6682,1.7844472069472441,273.22756466755044
3578.4915,1.7871692479019816,322.14338530576913
3579.3145,1.79067632961541,342.94549553747197
3580.14,1.7942978758745602,276.4769225902344
3580.9636,1.7970427856020286,300.6568901782678
3581.7893,1.7978152847680897,354.98904405629094
3582.6133,1.795948377688878,317.1334506483439
3583.4395,1.791858006608005,278.75743872763655
3584.264,1.7871632554171644,355.8359469931044
3585.0884,1.7838633222246083,324.7302688230823
3585.915,1.7831980869373143,324.51667973204667
3586.74,1.7849227062832989,287.0907202234762
3587.5671,1.787561171657412,330.83150169506916
3588.3923,1.7893863152935803,248.7926304060496
3589.22,1.7893826441674647,288.67610091728733
3590.0457,1.7874265723402907,289.4423106112071
3590.8716,1.7838910803291552,274.6244798656205
3591.6995,1.7792492972444376,321.2246988213203
3592.526,1.774100320781353,296.2662502392273
3593.3542,1.769152301168057,313.97399283488573
3594.181,1.7650459187652774,309.12119286647135
3595.0098,1.7618389995551391,345.0725275942732
3595.8367,1.758982348490513,243.45349293187513
3596.6638,1.7557472244134027,304.0106137039983
3597.4934,1.7519249547746618,373.02510232481944
3598.3208,1.7480637659489706,332.035140881382
3599.1506,1.744905264448351,287.60585678035903
3599.9788,1.742739491367101,340.5073670156873
3600.8088,1.741024325803187,320.1383910306748
3601.6372,1.73875308278251,394.6502815185464
3602.4678,1.7350960004338662,268.5436392069528
3603.2964,1.7299692306677754,304.8986587831954
3604.1252,1.723936406649667,339.76603479313513
3604.9565,1.7177349759288363,348.9838074024735
3605.786,1.7119032401691732,367.83804818756056
3606.6172,1.7066771219868075,349.5507475609523
3607.447,1.7023718630434466,284.22397598465966
3608.2788,1.6993653303717562,265.6980643397548
3609.109,1.6978779278021092,641.1116179951703
3609.9392,1.6976296653130274,442.67996571413295
3610.7717,1.6979885998004813,297.23787465735387
3611.6023,1.6984349592202947,346.8455494818541
3612.435,1.6989406355150498,349.33410315583154
3613.266,1.6998826767893704,353.81403483042686
3614.0994,1.7016450039577065,424.7361151116099
3614.9307,1.7041997981344834,332.97147417070556
3615.7625,1.7069651020499397,358.684899191494
3616.5962,1.7088836096280469,287.32894335052254
3617.4282,1.708801967920731,316.32369340803746
3618.2625,1.7061039006132763,330.17231820493026
3619.0947,1.7012008204822775,323.02357752571095
3619.9292,1.6953712212674759,346.86946617215636
3620.762,1.6901443667298386,272.11811887313485
3621.595,1.6864942248678036,382.16527087219936
3622.4302,1.6846802664965927,416.669681671017
3623.2634,1.6844896043836772,372.2396098545429
3624.0989,1.6855500501384277,404.1656490107362
3624.9326,1.6875131805356813,376.07603284739713
3625.7686,1.690022226686993,297.68202639610746
3626.6028,1.6924530766775887,324.2864542402854
3627.437,1.6937590934456002,331.52465004909425
3628.2734,1.6926031582619736,295.11386942047494
3629.1082,1.6879722716753016,304.370254259466
3629.945,1.6798281315218992,338.1747922142735
3630.78,1.6694439055504138,336.41272483875855
3631.6174,1.6587767761861136,312.0094528377212
3632.453,1.6497020175135322,349.8969547324222
3633.2883,1.6430034854661526,338.9579659825579
3634.1262,1.6383713070528831,360.4107069264812
3634.9622,1.6350427612304124,392.70169640975325
3635.8005,1.6324579283275442,356.73837640214265
3636.637,1.630522165208782,343.5950283070784
3637.4756,1.629138950552908,370.2035791460376
3638.3123,1.627853204817155,364.94322837363103
3639.1492,1.6259783456325927,375.84846946107297
3639.9885,1.6231088836613052,418.765087963887
3640.826,1.6193711776819477,453.5901722123749
3641.6653,1.6151170001575264,331.1873133975178
3642.5032,1.6107608638345094,408.804190425798
3643.343,1.6068621522627542,358.4766739685512
3644.1812,1.6043224156757803,458.38407604836453
3645.0195,1.6039395379766805,448.3413855892654
3645.86,1.6057936688890675,367.7901546509444
3646.699,1.6089925262054325,399.8852896854579
3647.5398,1.6121768521093178,357.4716140645106
3648.379,1.6142131865738507,399.058898765004
3649.2202,1.6146883302783082,402.9834463590377
3650.0596,1.6138701028057736,351.07519304196046
3650.8994,1.6124280167498943,350.08445354943063
3651.7412,1.6110906276257015,346.8213380866048
3652.5813,1.6103920302709023,427.9564870357594
3653.4236,1.6104348936398214,377.304763528214
3654.2642,1.6107814541188887,385.8159563070184
3655.1067,1.6106010735250218,323.81705808699223
3655.9475,1.6091212652592108,401.5131622560497
3656.7886,1.6060928869248117,421.0594480979983
3657.6318,1.6019503729833862,261.71043068478355
3658.4734,1.5976467649188726,387.7643857792816
3659.317,1.5940998679894736,536.1587648100025
3660.1587,1.5917456467881603,353.97645119755157
3661.003,1.5903109012515495,391.0206989180579
3661.845,1.5892104488922805,371.0446165047769
3662.6875,1.5880710543850776,422.46430656896524
3663.532,1.5869812839688793,419.65166476024797
3664.3748,1.5862408497855343,418.77680147225044
3665.2197,1.5859365878961065,436.264984229109
3666.063,1.585824415294388,357.364101326502
3666.9084,1.5855534742449418,397.65671145095365
3667.752,1.584971850187509,371.85692739242813
3668.5977,1.5842124243771922,426.8658550074465
3669.4417,1.5835952366418462,340.49019829066464
3670.286,1.5834015915628379,438.8753051595834
3671.132,1.5835557773025322,464.3115261558974
3671.9768,1.5833427179940456,369.51631523328484
3672.8235,1.5816284573389292,475.8203497016406
3673.6685,1.5777645494704717,409.1237008398705
3674.5156,1.5724291362022684,417.6828781088695
3675.3608,1.567571819559334,414.7100041446031
3676.2063,1.5650692494881593,378.39785540180037
3677.0542,1.5654109761700066,441.9602560240053
3677.9,1.5673746827263209,349.32548298932124
3678.748,1.5690292460553052,421.179950152529
3679.5945,1.569070228087587,424.8547623224502
3680.4429,1.5674103956375123,377.9611576148475
3681.2896,1.5646576732630644,475.57553619149814
3682.1365,1.5612554178299605,425.0151525472219
3682.9856,1.5572746789144511,379.562146442893
3683.8328,1.552892888255822,406.5524241250268
3684.6824,1.548604488054663,483.83881737099756
3685.53,1.5449689449435597,390.2639088973261
3686.38,1.5420546176655063,397.99005990594236
3687.2278,1.5395240104865882,440.5109516924838
3688.0762,1.5370253146132458,416.7507729261755
3688.9265,1.5346005990672797,382.6489975277159
3689.7751,1.5326995593736394,442.6604799869612
3690.626,1.5318329454624844,504.7045859037777
3691.475,1.5322406590879347,396.34652680544286
3692.3264,1.5337143927521921,463.5185093212548
3693.1758,1.5356549553923398,535.871986059946
3694.0254,1.5372734584275,436.46186649788706
3694.8772,1.537834283376764,456.2293283791478
3695.7273,1.5369915183396037,421.7261491748327
3696.5793,1.5350658606341596,402.7432932774137
3697.43,1.5330084384788263,443.33499937219824
3698.2825,1.5319312557936353,408.8242904281205
3699.1333,1.5325228249122382,523.7522784957475
3699.9841,1.534651702197542,468.7968375816678
3700.8374,1.5374321331863674,382.49175622615286
3701.6887,1.5395336304100042,451.6041793965519
3702.5425,1.5396840939757894,325.52231583882656
3703.3943,1.5371188278605883,390.00483305136845
3704.2483,1.53193681308444,475.8184256306702
3705.1003,1.5251148151915428,488.6637370721268
3705.9526,1.517929160250399,422.58090688305384
3706.8074,1.5113967090215727,398.1062990245337
3707.66,1.5061079168491462,407.20392918006536
3708.515,1.5022667279728974,420.23906106391127
3709.3682,1.4999533827599139,435.94054678209875
3710.2234,1.4989599222003067,480.4687011646321
3711.0771,1.4986719682502,441.1073759903602
3711.9307,1.4980963145608088,497.5071136556167
3712.7866,1.4962114920151428,550.022503463316
3713.6409,1.4924655310006092,435.87297859639466
3714.4973,1.4870716095814556,442.3593341794036
3715.3518,1.481049251953799,422.9022500743165
3716.2085,1.4757378498475846,414.61289713498775
3717.0635,1.4723373162603652,447.6860987388773
3717.9185,1.4713571363669902,549.4210403919174
3718.776,1.4725233579420471,523.5421799087931
3719.6313,1.47496646012708,565.164017029555
3720.489,1.4776787772445972,549.6081550979021
3721.345,1.4798414703743146,552.7185864001727
3722.2031,1.4809846340526518,448.6872090957877
3723.0593,1.4808807026809139,414.5414928728917
3723.9158,1.4794568966966126,466.0086647236473
3724.7747,1.4767317484009528,459.3246132498439
3725.6316,1.4729087783368295,470.7321153638716
3726.4905,1.4684300866796587,409.27591541794004
3727.348,1.4640494886824849,574.1285168685173
3728.2073,1.4605513104177326,510.0294003974115
3729.065,1.4584317677206469,432.3515247923971
3729.9229,1.457548123738848,499.32389221774724
3730.783,1.4571687322235471,537.5812695888617
3731.6414,1.4563330006186939,466.1513922484611
3732.5017,1.4543952323453908,458.04891944386355
3733.3604,1.4514467591975049,499.0499160364331
3734.2214,1.4481963614013276,475.17198679911354
3735.0803,1.445461993612634,542.5662455658594
3735.9417,1.4435570671837386,515.8608734113586
3736.8013,1.442292976181947,476.53965142629977
3737.661,1.4413356227092962,447.4854522157036
3738.5227,1.4405633220711387,484.4323345290454
3739.3828,1.4400253692154024,487.6877359924895
3740.245,1.4396543338583785,562.8583756501399
3741.1055,1.4391221427338303,501.6399343083116
3741.9683,1.4379390288612652,424.9612536487477
3742.829,1.4356927370479702,496.4913771590919
3743.69,1.4321621172624888,525.8260240407067
3744.5532,1.427333567219496,514.9697705368698
3745.4148,1.421524460588555,438.6050707880142
3746.2786,1.415443714096719,471.52150561996854
3747.1404,1.4102662582529766,513.2749826083109
3748.0044,1.4071199425405099,517.7004438760964
3748.8667,1.4065456694061633,488.22019227133205
3749.729,1.408048254286134,570.4383161336277
3750.5938,1.4103342997032997,616.1777704779337
3751.4565,1.4120174815781001,512.5694471863479
3752.3215,1.4124714866341277,540.7695689092413
3753.1848,1.4120502986834094,571.9567656293333
3754.0503,1.4115645909825798,477.13258932477225
3754.9138,1.41150025082519,558.6319355082882
3755.7776,1.4117319310620544,526.1167392572995
3756.6438,1.411882947640745,502.7159875222114
3757.508,1.4117898362840047,547.5408967488121
3758.3745,1.4115879210219877,508.754051064567
3759.239,1.4114242098192682,534.1384566436299
3760.106,1.4111801058032623,511.0480372820605
3760.971,1.4105114612171432,511.534387790146
3761.8362,1.409133514015018,512.5293527130025
3762.7036,1.4070636444299662,457.8067529079613
3763.5693,1.4046442325285025,524.4289973756099
3764.437,1.4023207371677637,526.9504464363464
3765.3032,1.400461060931766,540.8792877662646
3766.1714,1.3991340912964711,488.7051488348922
3767.0378,1.3979846721796851,499.85655609337135
3767.9043,1.3962401453348765,472.06775773195756
3768.7732,1.3931054898967619,582.5434472844988
3769.6401,1.3884140066074486,498.7322686695646
3770.5095,1.3828856892933532,506.70682975651255
3771.377,1.377873235834441,455.7387424435405
3772.2466,1.374496950590362,481.01977228417184
3773.1145,1.3731163945216023,533.8960523083339
3773.9824,1.37316927621907,438.11903769270816
3774.8528,1.3735829607692334,574.479957520971
3775.721,1.373372833980839,458.717902578387
3776.5918,1.372195583326197,422.4707832874898
3777.4604,1.370520014858168,558.1244499277192
3778.3315,1.369230033250189,585.9566478013836
3779.201,1.3689966989585427,444.76026161283454
3780.0703,1.3698363497989623,573.458597489709
3780.942,1.3712218325258154,538.1433116488525
3781.8118,1.3724615134963285,546.8215047478375
3782.6838,1.3730510943689596,527.1242608574271
3783.554,1.3728170342352177,585.7889234327356
3784.4265,1.3721139900920842,571.0589844492575
3785.297,1.372164112935711,605.5853246363225
3786.168,1.375206927377337,470.3228128918459
3787.041,1.3838016438405203,532.4929093521258
3787.912,1.3987086944294738,526.0935410136497
3788.7856,1.4168140989018796,530.3435975720513
3789.6572,1.430855608005005,567.7766378830738
3790.531,1.433370348892681,475.7855748987902
3791.403,1.421540692587432,536.6408530535846
3792.2754,1.3992354856483522,552.9511891881033
3793.15,1.3739707045625655,545.6885726749799
3794.0225,1.3522926439374836,558.0302114469143
3794.8972,1.3366859445813195,603.8875979762919
3795.7703,1.3266005063377955,619.0334557234988
3796.6455,1.3202784344008485,507.76982727978896
3797.519,1.3164532925870303,613.4323615688509
3798.3926,1.3145425091545302,540.4711011993718
3799.2686,1.3143682301038382,533.5372221424731
3800.1426,1.3157313944507631,559.7699611957266
3801.0188,1.3181461046890712,562.6112355579731
3801.8933,1.3207431925745174,586.936954420901
3802.77,1.322522044870798,505.0328657159898
3803.6448,1.3228090955382712,651.398771676383
3804.522,1.321723235617353,510.7859459135181
3805.3972,1.3201556351341899,701.2431610376813
3806.2727,1.319232487939088,685.5745075434226
3807.1504,1.3196655503064179,583.7994775193289
3808.0261,1.3214323607616043,552.5654864803836
3808.9043,1.3240207758204292,517.2191490706047
3809.7805,1.32688967057246,526.3720286647011
3810.659,1.329781218365821,668.189414816083
3811.5356,1.3325320089482593,577.3213019473006
3812.4126,1.3348582384319494,625.3327008732164
3813.2917,1.3363144751867453,586.9645235139297
3814.169,1.3365495081014185,613.1899179605686
3815.0483,1.3356048373425657,637.6928728339672
3815.926,1.3339588300212375,589.2291769532878
3816.806,1.3322524188628557,527.758478581632
3817.684,1.3308695550755723,618.5725038659028
3818.5623,1.329614827922882,548.3365487384269
3819.4429,1.3278548500884804,556.6038248577502
3820.3215,1.3250251062223712,526.8435475650409
3821.2024,1.3210236407576428,573.9248288365375
3822.0815,1.3162621315309848,517.9918394728505
3822.963,1.3112056991603251,578.7277292444082
3823.8423,1.3060403551343942,577.4464209899537
3824.722,1.3004941396359782,626.7129961236136
3825.604,1.294141829252156,586.7257341128302
3826.4841,1.2868586458431472,531.1961384594683
3827.3665,1.2788792258857968,588.0124451161308
3828.2468,1.270723917142389,688.1472513990802
3829.1296,1.2626841728363678,674.1563860933184
3830.0105,1.2548020551668861,618.2852026131841
3830.8916,1.2468349653228106,630.8300560380823
3831.7751,1.2385089763895472,677.8267569668008
3832.6565,1.229714194519254,752.8320439205153
3833.5403,1.2204803108622935,647.090889765816
3834.4224,1.2113528986868518,702.1158372401126
3835.3064,1.2033029616083177,716.4818349873192
3836.1887,1.1975730213313482,767.6235418354834
3837.0713,1.194977403382849,718.8838303870648
3837.956,1.1955953645710835,762.9128063564505
3838.839,1.1989020201943585,688.5689736675876
3839.7244,1.2043340802491203,704.3529886830161
3840.6077,1.2116226455448853,820.1630777385063
3841.4932,1.2207556109259652,714.4748455322606
3842.377,1.2313549913105375,681.3553771109282
3843.261,1.2425342452612083,699.5076094137331
3844.1472,1.2531576268479083,686.2251785899432
3845.0315,1.2624102677410725,554.3414375667314
3845.9182,1.2703123097163294,620.2241494550227
3846.803,1.2772880647103126,684.3333833867408
3847.69,1.283847661706114,597.4745686312675
3848.5752,1.2902540101986277,543.5319435444231
3849.4604,1.2967292560334875,566.111959263202
3850.3481,1.3034422657073794,586.1082687952007
3851.234,1.310235924680862,581.987447001914
3852.122,1.3165842410151247,531.059284220254
3853.0083,1.3216822247002429,457.07086399413276
3853.8967,1.3250466323214949,675.6460379665385
3854.7832,1.326729091112323,591.4415864345334
3855.6702,1.3272482572682032,562.2478709727352
3856.559,1.3271530222194254,544.9537579702918
3857.4463,1.3267134095163977,553.8303564043478
3858.336,1.325877259624205,608.9303976343145
3859.2234,1.324489078530667,546.8825922581185
3860.1135,1.322520702974619,625.3845943750226
3861.0015,1.3201700485079422,602.8884248050293
3861.8896,1.317657709655804,515.785955712661
3862.7803,1.3150076793655898,667.2918142424483
3863.6687,1.3119941249267444,663.4509875696341
3864.5598,1.308224320303063,565.9977016071028
3865.4487,1.3034332563709068,540.7068281120988
3866.34,1.2975607948508359,635.3703468637781
3867.2297,1.2908661615295722,608.2986682364358
3868.1213,1.2837219394972728,664.696499441199
3869.0112,1.2766135986849556,528.9634683267863
3869.9014,1.2699707014494948,576.2135274953955
3870.7937,1.2640941778063868,658.2586274410614
3871.684,1.2589648276785215,647.5113123622693
3872.577,1.2540164790195716,627.9121798923942
3873.4678,1.2484424873260325,685.8603159139301
3874.361,1.2415256008545807,694.7861763616739
3875.2524,1.233050906052904,615.4282351629989
3876.1438,1.223142473188279,672.1921970533558
3877.0376,1.2120612107758233,651.2034486286682
3877.9297,1.2001725290667482,595.1932660625267
3878.8237,1.1877662167106064,749.2628997464977
3879.716,1.1752269306111598,756.6730973581765
3880.6108,1.1626971380135795,802.3936148385482
3881.5037,1.1502122014626766,869.7080665472132
3882.3965,1.137586149804205,773.8216320821745
3883.2917,1.1246894507666343,736.6920817948486
3884.185,1.1116151638332072,769.1511120307855
3885.0808,1.0982949285143724,867.1246855479909
3885.9746,1.0846078663997814,905.465886859734
3886.8706,1.070276128437895,814.249240706537
3887.765,1.0555789562462592,939.1239843026949
3888.6592,1.0415403239294745,858.0779884254184
3889.556,1.0299585584396642,1045.3478512769993
3890.4507,1.022894096137025,1071.8163074314346
3891.348,1.0216783502148976,1021.6591622025809
3892.243,1.0265163420215384,1174.9785825904885
3893.1406,1.0365274697091473,905.1324284282875
3894.0361,1.0501408823691105,939.6527331840709
3894.932,1.065803105466895,886.8819461363183
3895.83,1.0822172868150641,930.8405854847492
3896.7263,1.0982402244366398,895.6704703166297
3897.625,1.1131655634466782,784.1816523752759
3898.5215,1.1265675379119156,894.4554616404366
3899.4207,1.138803095611948,730.8249728373733
3900.3176,1.1506362454582242,799.7051867474041
3901.2148,1.1629520520564276,838.0945116599022
3902.1145,1.1760094554334066,718.0810907438525
3903.0122,1.1891453011564046,692.5721225851871
3903.912,1.2014599127554413,750.4472781091303
3904.8103,1.2123279886326626,650.9428089058978
3905.7107,1.222018631110217,704.4230041482385
3906.6094,1.2313211660283878,696.2182710654484
3907.508,1.2411619281155657,658.568219631196
3908.409,1.2520811839533286,664.996156369714
3909.308,1.2639816486491573,625.1654821189367
3910.2097,1.2764279183708258,657.9494940522693
3911.1091,1.2886911958460037,566.4225863734788
3912.011,1.3002073215415426,593.2637200957986
3912.9111,1.3104077643173606,557.4113517114579
3913.8113,1.3189240211045437,529.0430542756831
3914.7136,1.3256113286030142,566.6542440026425
3915.6143,1.3307083342145292,564.1158641996985
3916.517,1.3349711631135146,606.7451029362974
3917.4182,1.3392700003690075,608.2852281718124
3918.3215,1.344161557589115,531.3509497731986
3919.223,1.3494811162791456,599.5942152150562
3920.1245,1.3545449865053016,549.9245735543919
3921.0286,1.358602806735088,566.7634521360623
3921.9307,1.3613105038282807,504.30025773928605
3922.835,1.3629535815020781,528.5672157801406
3923.7373,1.3641299179161772,611.3129940395539
3924.642,1.3653358165360177,592.1009218270971
3925.5452,1.3666553161226414,536.9459189792915
3926.448,1.3678219297840875,512.0953840769613
3927.3535,1.3684579142368354,508.40552285118054
3928.257,1.3683128071487447,499.73732530770707
3929.1628,1.3674060652551518,612.4948692284512
3930.0667,1.3660293780366846,504.1285291384395
3930.9731,1.3645983351451851,574.3632844759152
3931.8774,1.3634260509267444,561.4560552608694
3932.782,1.362411968541588,594.8780424795531
3933.6887,1.3609076373563507,511.10526004585995
3934.5938,1.3579324377738047,571.1228547704255
3935.501,1.3527386905024374,288.0950527587743
