wavl,flux,ivar
3566.9744,0.2950149443961372,4357.715003978227
3567.795,0.29350477960957105,2298.6262734817915
3568.6177,0.2921810013132808,3381.5940830701447
3569.4385,0.29126690283664425,5817.060304054227
3570.2617,0.29069753430862816,3231.6967304808804
3571.083,0.2902216434445477,2671.9548511815433
3571.9065,0.2897375968639021,3068.9989032566255
3572.7283,0.2895415723522324,2971.401879936959
3573.55,0.29011230662901,4010.015404426352
3574.374,0.29163318068027283,3274.6709144519755
3575.1963,0.2937167191295425,7530.6183796509
3576.0208,0.29570738707714805,4452.550690445135
3576.8435,0.29719835598078614,5213.128520628068
3577.6682,0.2983313333770627,3652.1419889036133
3578.4915,0.2994966798261401,2202.162136976447
3579.3145,0.3008468666098415,4205.975643190195
3580.14,0.3020768762623843,3935.7555109731497
3580.9636,0.3026724799038378,2436.9812470054826
3581.7893,0.30235544010092524,3390.249973877833
3582.6133,0.3012197025122576,3233.784045477363
3583.4395,0.29950992931100223,4172.629782454519
3584.264,0.2974053018593677,2020.3600015821723
3585.0884,0.29504912377124676,4878.384465981076
3585.915,0.2927862615281196,7554.917229456503
3586.74,0.29121621909177087,5933.703180935522
3587.5671,0.2908453948846095,5767.483887985834
3588.3923,0.2917124175521899,3856.2059302702833
3589.22,0.2932753013421436,3344.682342914447
3590.0457,0.29467819092103875,3280.5021287331633
3590.8716,0.29523401817927025,3496.908874081539
3591.6995,0.294755145257318,3531.3696293296157
3592.526,0.29361095831788653,3714.8067618948285
3593.3542,0.2924279041335794,4223.8074648876855
3594.181,0.29166931773769084,3855.975240217472
3595.0098,0.29138587303997265,3955.647745837096
3595.8367,0.29136842857541967,3110.754512234213
3596.6638,0.2914589445056061,3655.6214879686086
3597.4934,0.2916955936263081,3115.1334987825476
3598.3208,0.2921513828063082,5161.433586099759
3599.1506,0.29270887379198496,3390.3401674958727
3599.9788,0.29304940770161364,2429.7207076831123
3600.8088,0.292934132173579,3585.123326299462
3601.6372,0.2924947690932566,2855.687349588933
3602.4678,0.29225925228851557,3212.786469151265
3603.2964,0.29285102182689077,4451.416022372537
3604.1252,0.2945599042108144,5444.177394681849
3604.9565,0.29711330407698816,2805.899703113546
3605.786,0.2997662941704813,2690.579131517625
3606.6172,0.3017552107229531,2860.7929929059537
3607.447,0.302653028215903,3520.425203276784
3608.2788,0.302510233698274,1728.7415740163042
3609.109,0.3016392893383384,2694.425136671892
3609.9392,0.3003398235446085,2687.8225923292107
3610.7717,0.29878066813024473,4263.535976029049
3611.6023,0.29708117890102853,3441.4912420176615
3612.435,0.2953642902062859,2646.419875280378
3613.266,0.2937704234131588,2879.664894068179
3614.0994,0.29236308618772927,3120.142163115727
3614.9307,0.2911522934826454,2700.4383545811725
3615.7625,0.29011680857052063,3425.6035574914886
3616.5962,0.2892479948787661,2535.4403500471203
3617.4282,0.28855533215787826,3605.2634723738356
3618.2625,0.28808514465098856,3710.9170065125277
3619.0947,0.2879811256561605,4902.162840967761
3619.9292,0.28845044375176515,3351.2443368461927
3620.762,0.2896192480595984,5979.101969143901
3621.595,0.291368966212046,3609.752204295552
3622.4302,0.2932897147712375,3552.437003357696
3623.2634,0.29478334085815283,4322.975116680289
3624.0989,0.2953128650071943,3107.374159364505
3624.9326,0.29458831502132743,2936.843830447544
3625.7686,0.29270716531047386,4336.177741252426
3626.6028,0.2901706549409535,2007.0481160613303
3627.437,0.28769494079674274,2812.4543250107563
3628.2734,0.2859158403516248,3415.343417481135
3629.1082,0.28510157676753634,5424.800249624066
3629.945,0.28502267867110903,4284.403343605589
3630.78,0.285146514644498,3608.323973672465
3631.6174,0.28497219445376964,3431.7533120977537
3632.453,0.28430378187801986,3350.7493374872047
3633.2883,0.2832870759056183,3748.057569752937
3634.1262,0.2822417531141516,3327.8080956980893
3634.9622,0.28146953917984796,4225.243436717916
3635.8005,0.2811269114225258,4916.202717983261
3636.637,0.281227546428095,2158.518419229921
3637.4756,0.2816568604029942,2899.967326018382
3638.3123,0.28221614135094386,3507.9377925826216
3639.1492,0.2827172998255616,5283.178198377867
3639.9885,0.2830654846005056,5184.310184442138
3640.826,0.2832541675536375,3908.9704865432404
3641.6653,0.2832882034831048,5508.543506727845
3642.5032,0.283136423695624,3274.528247275276
3643.343,0.2827965130813884,2993.5365397710807
3644.1812,0.2823792232321323,4202.707572284204
3645.0195,0.2820633402707528,4199.050963267849
3645.86,0.2819357766388761,3502.4006224535324
3646.699,0.28186940346847195,7208.5422698435095
3647.5398,0.2815922069036472,3596.3636015650177
3648.379,0.2809221456924917,4183.765933499387
3649.2202,0.2799387108527643,3055.949175297955
3650.0596,0.27893774349123723,4464.684728854017
3650.8994,0.2781591780194543,4353.931125386776
3651.7412,0.27756889032815657,4961.955526077442
3652.5813,0.2768695211403314,3414.479066189282
3653.4236,0.27574956813992335,2448.764219316405
3654.2642,0.27419827352681553,4066.381905767514
3655.1067,0.27255755504217666,4265.692011122268
3655.9475,0.27131763793247193,5484.89614742839
3656.7886,0.2707754582796875,3473.646052509762
3657.6318,0.270915834248161,3499.1155734562653
3658.4734,0.27149798933064445,4257.022848872923
3659.317,0.2722360098406296,4408.252027963846
3660.1587,0.27293475253746896,4197.214594354133
3661.003,0.2736018941633702,2718.647507078653
3661.845,0.27445814123132,3317.0946724691826
3662.6875,0.27580436256413904,4336.083993625402
3663.532,0.27772404753254093,4113.440854176698
3664.3748,0.2798678762192718,4808.810406269904
3665.2197,0.2816354593645998,4586.797410828658
3666.063,0.28259068316558833,3785.806605196873
3666.9084,0.2828402920741853,5085.760707172633
3667.752,0.2829307866779059,3696.8105228732584
3668.5977,0.2834154119296641,5437.39343684254
3669.4417,0.2844302210820334,3882.9477350251886
3670.286,0.28561762145714936,2886.3460282713772
3671.132,0.28638740389939077,2621.4148016972945
3671.9768,0.2863137491392229,2993.189740452783
3672.8235,0.2854189008971342,3744.395107291206
3673.6685,0.2841587349203008,5061.996338412816
3674.5156,0.2831350131871437,3910.9207510141955
3675.3608,0.2827783203893531,3891.0153508139288
3676.2063,0.28314330566102297,3789.4263603537283
3677.0542,0.28396080633947607,4214.458628387961
3677.9,0.28481805216253814,3029.6720772844646
3678.748,0.2853866015533195,5259.476648251188
3679.5945,0.2855272597342278,3754.29804567819
3680.4429,0.28529808341766316,4170.4516484142505
3681.2896,0.28485013007052595,3616.693118894251
3682.1365,0.28428278023072484,5093.048964593553
3682.9856,0.2835638953157748,4414.2640418683395
3683.8328,0.28260084066623536,3326.069690656253
3684.6824,0.281363090037394,3155.7057611266464
3685.53,0.27995434101251343,6319.2387865803685
3686.38,0.2785335118350821,3982.1495262837407
3687.2278,0.27729831543454014,5920.279500741064
3688.0762,0.2764615396638418,4541.090594323853
3688.9265,0.27619996447961054,4220.593326141828
3689.7751,0.27649558278164826,5255.733526526004
3690.626,0.27706984686119757,4915.670265918237
3691.475,0.2775546660760878,8638.558174920507
3692.3264,0.2777939249292098,5448.767320049406
3693.1758,0.27796335873305406,4527.9552920757105
3694.0254,0.2784063028129779,3824.901964029359
3694.8772,0.27934371229725763,3990.2718382734074
3695.7273,0.28071822201687396,3247.4485601881483
3696.5793,0.2822762993587147,4913.255114998361
3697.43,0.28369156885925145,3396.4681174648995
3698.2825,0.2846882585395185,5385.392567724444
3699.1333,0.2850868361519904,4753.538258840064
3699.9841,0.2848837191140388,5666.584821247815
3700.8374,0.2842714305309997,4581.924397647789
3701.6887,0.283606503038349,5162.415962821845
3702.5425,0.28328393130011453,3814.72800176085
3703.3943,0.2835962667553824,3525.874114163176
3704.2483,0.2845809774660904,4376.080748772002
3705.1003,0.28591702144556763,4803.765556086469
3705.9526,0.28697438899952504,3180.4776978787077
3706.8074,0.28703368491055314,6390.031705350455
3707.66,0.28564857597300203,2743.414105720586
3708.515,0.28290283972982977,3857.9147380220365
3709.3682,0.27940185106913684,3685.0705798237195
3710.2234,0.275913650880425,5148.891002069246
3711.0771,0.27306914418370815,4355.410152040478
3711.9307,0.27114407943682334,4318.430526863465
3712.7866,0.2701141725120477,4137.285848512352
3713.6409,0.2697813636960704,3721.2096376288073
3714.4973,0.26990584770146875,4190.824231958177
3715.3518,0.2703876427782896,3470.8810276059376
3716.2085,0.2713764974716607,5520.925095832696
3717.0635,0.27314858350745763,3863.9738490572113
3717.9185,0.2757914956155901,3395.382132389661
3718.776,0.2789209769407379,3267.949058866457
3719.6313,0.2816678394599234,3732.421876156966
3720.489,0.2831045264798086,5416.057766306541
3721.345,0.2827230625576205,738.1087931234343
3722.2031,0.2807846339324112,3352.1276614077096
3723.0593,0.278174383745235,3749.7036887150853
3723.9158,0.27582152403440463,4530.651145833002
3724.7747,0.27421245671687294,3218.4675522741595
3725.6316,0.2733428764367675,3035.179250408091
3726.4905,0.2729901519921541,3114.5649143081487
3727.348,0.27298363793358943,4830.4810646200385
3728.2073,0.2731908619991913,5565.839329171348
3729.065,0.2734074297170956,7772.649478153211
3729.9229,0.2733612247504782,3127.7449130127043
3730.783,0.2728476970595637,5611.2785519004065
3731.6414,0.2718827866316725,2854.593034093248
3732.5017,0.2707269608570711,3784.6468263289917
3733.3604,0.2697769856598645,6125.56179569871
3734.2214,0.2693281118474056,3726.9329900693983
3735.0803,0.26941258019129877,3452.9353315968947
3735.9417,0.2697962617971761,4490.653509449704
3736.8013,0.27014455333458,3768.9757052354744
3737.661,0.2701921584546399,4645.563711490506
3738.5227,0.2697918336417914,5761.6654469688665
3739.3828,0.2688998292408163,5542.017103487839
3740.245,0.2675751462621023,4832.35958866352
3741.1055,0.2660438667357806,3968.6416837673532
3741.9683,0.2646603284920205,7395.1897296603975
3742.829,0.263766402430402,6928.925990396591
3743.69,0.26343398927129874,3964.350374999108
3744.5532,0.263406874007217,3983.426973396433
3745.4148,0.2632903711293979,6161.117400907788
3746.2786,0.262853891520768,3000.589851296882
3747.1404,0.26218335070925053,3734.3422107665547
3748.0044,0.26158294861440823,5732.524277590873
3748.8667,0.261400453070285,5155.626479582666
3749.729,0.26187702802041307,6390.3702477228835
3750.5938,0.2630549791145328,4347.476763643968
3751.4565,0.2646861625786832,4894.781932585363
3752.3215,0.26630542638063426,4447.983402662172
3753.1848,0.2674446355135284,3428.7165013019758
3754.0503,0.26794258624358236,3711.999434551577
3754.9138,0.26802411861850084,4124.524835895188
3755.7776,0.2681414609087576,5838.596101140246
3756.6438,0.268660535840925,6172.111233508707
3757.508,0.2696163233175812,3007.3413507430687
3758.3745,0.2707075589709573,3849.1642506616176
3759.239,0.2714958410065861,4764.697685078767
3760.106,0.2717057128954696,3774.9108720146874
3760.971,0.27135707346693094,4179.730402914487
3761.8362,0.2706877633109106,5356.697663539713
3762.7036,0.2699339536908692,4479.736690857633
3763.5693,0.26918129282822645,4834.519288277641
3764.437,0.26836401651113884,5173.48975781572
3765.3032,0.2674148397051359,5662.59928740315
3766.1714,0.2663789837224618,2939.496090373766
3767.0378,0.2654433034324667,5819.185529393344
3767.9043,0.26481408880396556,3842.701319930161
3768.7732,0.2645706128591901,5583.750826459957
3769.6401,0.2645714405974449,4706.477044016813
3770.5095,0.26450497228368175,4821.9177255054165
3771.377,0.2640908113837792,3919.4449755793216
3772.2466,0.26329234141611585,4161.759891030707
3773.1145,0.26238757294117776,5580.194589347065
3773.9824,0.2617957005468412,3719.656114193441
3774.8528,0.2618098619449927,4155.169374596344
3775.721,0.2624252156412102,4914.592102625512
3776.5918,0.26340173678305107,6894.837031092194
3777.4604,0.2644618382243486,5197.381577785814
3778.3315,0.26547646371744904,3579.8242024874685
3779.201,0.26645429066665394,5251.411350583265
3780.0703,0.26744335442122424,3748.521501606764
3780.942,0.26839812280364217,5937.831221040636
3781.8118,0.2691376044844912,4758.159655971808
3782.6838,0.26945704084204286,5242.03635365174
3783.554,0.269290382149791,4268.698609789098
3784.4265,0.26881349861041975,3405.5418153353494
3785.297,0.268346605500591,2607.453085208781
3786.168,0.26811273077107634,4454.617716228571
3787.041,0.2680842931968404,3816.0253079385993
3787.912,0.26804079530111025,5447.488277249251
3788.7856,0.26777114688077003,3357.599171712893
3789.6572,0.2672296403296562,3946.727326198733
3790.531,0.26652349119642316,4617.811425244579
3791.403,0.2658164875269442,4013.2203390629766
3792.2754,0.2652388654236645,4580.757410861571
3793.15,0.264873802644818,4022.6477752441756
3794.0225,0.26474105570951073,4758.75382809119
3794.8972,0.26474729242699047,3927.143017231331
3795.7703,0.26468386803863836,3478.562110397134
3796.6455,0.26432039762478376,4971.493855664596
3797.519,0.26354878428004447,3825.628675658913
3798.3926,0.26244189717167715,4256.124805814764
3799.2686,0.26120695534876137,3852.769578209234
3800.1426,0.2601339241970244,5939.198442311286
3801.0188,0.2595407029633844,4800.110131936877
3801.8933,0.25971613149410855,7196.842754506975
3802.77,0.2607369009344221,4385.596891875836
3803.6448,0.2623017084891445,6963.001323043578
3804.522,0.2638166574307359,5468.160657071745
3805.3972,0.2647224477181135,4825.231893077648
3806.2727,0.2649127798204925,3708.9844096563434
3807.1504,0.26480962392031815,5492.906570026326
3808.0261,0.2650761201187946,5176.048273164822
3808.9043,0.26619054442504586,3169.3786217392535
3809.7805,0.2682007285161796,4321.886036546292
3810.659,0.27079505188912006,3348.209351996601
3811.5356,0.2734626231985328,4834.835447288715
3812.4126,0.2757144247706419,2521.75611158882
3813.2917,0.27718441793454834,3812.311654350512
3814.169,0.2776873949836386,3891.8860007568987
3815.0483,0.2772474642942527,5230.078362823506
3815.926,0.27606857921335776,2984.0267056779203
3816.806,0.27450546271587245,4094.2250613993174
3817.684,0.2730174815052284,3259.4125763732436
3818.5623,0.27199168866263657,3147.786573625821
3819.4429,0.2715555481649578,3626.9637294465497
3820.3215,0.2714790482773091,2751.3544233242583
3821.2024,0.27127394985752834,3824.3792449757
3822.0815,0.27046910103471433,3815.770162659395
3822.963,0.2688660688917526,4258.718127531779
3823.8423,0.26664063696124435,3204.7601413355505
3824.722,0.26417293548500637,4817.325484200928
3825.604,0.26180036304964704,3625.693013137231
3826.4841,0.25966033615990736,4437.045856362507
3827.3665,0.2576453639671933,3869.1456854766966
3828.2468,0.25557313229974044,4531.4667426695
3829.1296,0.2533012233256009,3621.417925867088
3830.0105,0.250860879041205,6729.374545206234
3830.8916,0.2484082355513763,4762.930238800918
3831.7751,0.24615753782433042,4367.527330879926
3832.6565,0.2442978418373204,4343.01021842718
3833.5403,0.2428747728803824,3216.947742712362
3834.4224,0.24179013564916152,6257.0998562164295
3835.3064,0.24081615631427275,4603.479323375617
3836.1887,0.23977476637723943,5716.128819378289
3837.0713,0.2387317914753963,4720.992518504032
3837.956,0.23809098978920326,8572.529604706542
3838.839,0.2384214960166262,5097.676659273971
3839.7244,0.2401019283722939,6808.512060213392
3840.6077,0.24307836588371104,7568.284553698499
3841.4932,0.24699212428933973,4449.113878139955
3842.377,0.2514168991125481,5789.60453372657
3843.261,0.25607346276011556,4689.164402080721
3844.1472,0.260721152133382,5418.787592062135
3845.0315,0.264998839950646,3780.327277259475
3845.9182,0.2685610458537899,3847.8008370605776
3846.803,0.27120051236021714,4427.310865825299
3847.69,0.2730344675618355,3882.3999414420673
3848.5752,0.2743783011426449,3165.977121601876
3849.4604,0.27560774512673175,3337.3378775724964
3850.3481,0.27702050893354385,4049.355726023336
3851.234,0.2787796841173686,3890.9818276858796
3852.122,0.28091460180993116,4489.9097078005625
3853.0083,0.28323942197474866,4099.85881582915
3853.8967,0.2853960838867801,4369.820611982108
3854.7832,0.28696811479850465,2593.196926911153
3855.6702,0.2877572236469677,3569.4539062738227
3856.559,0.287867138287536,4240.765425714516
3857.4463,0.2875841904944262,3345.2481614489416
3858.336,0.28717706466559806,3566.8261079303084
3859.2234,0.2868189746423635,2639.8217149101674
3860.1135,0.28659396202345155,3282.718153721378
3861.0015,0.2864885080576873,4844.22438469889
3861.8896,0.2863556856651671,2575.978494224714
3862.7803,0.2859721469529975,4880.91871190028
3863.6687,0.2851781246326874,3798.3149385142515
3864.5598,0.2839572855221109,4278.291769072088
3865.4487,0.28241439021759135,3051.2684183877395
3866.34,0.2806385308523179,3007.4940523546143
3867.2297,0.27866851672032467,4427.883218764082
3868.1213,0.27649800736949565,5293.612080380046
3869.0112,0.27420027015365217,5273.746644526937
3869.9014,0.2719484347403635,3786.721217979024
3870.7937,0.26998353602621833,4775.053246199113
3871.684,0.2685087951046849,5074.9540964426715
3872.577,0.267548467717157,4927.684772001828
3873.4678,0.2669350160269519,3372.4177870681633
3874.361,0.26633251554910375,3233.406236422115
3875.2524,0.2653703635247297,4454.9893808316565
3876.1438,0.2637876336440387,4538.89303614687
3877.0376,0.2615339385077489,3770.040581584777
3877.9297,0.2587547416844621,3585.684497530858
3878.8237,0.25559714966378383,5020.503105965865
3879.716,0.25213253376672706,4804.070328378713
3880.6108,0.24834153533629624,5880.185660973239
3881.5037,0.24432108551751108,4484.184341528694
3882.3965,0.24028484614532342,4819.6938333801045
3883.2917,0.23646903827059199,5280.712744795588
3884.185,0.23297770823761657,4475.946908028563
3885.0808,0.22966398018491313,6705.3187082916165
3885.9746,0.22634496264016313,4130.519798828002
3886.8706,0.22294704746892047,5988.739509786099
3887.765,0.21966271754884842,5694.894766869687
3888.6592,0.21681159351889617,6884.692272960177
3889.556,0.2146898966043817,6524.695997480859
3890.4507,0.21348656833599142,5087.749072671618
3891.348,0.2133080020539625,6459.590964551993
3892.243,0.2143125900070113,7298.713018716002
3893.1406,0.21668475383282496,6370.951252751327
3894.0361,0.22039990531394327,5174.698188293143
3894.932,0.22507708501323576,5308.064615201173
3895.83,0.2300574519644539,7977.090524558213
3896.7263,0.23469485642673477,5745.925645433744
3897.625,0.23872482439245984,5870.085782497379
3898.5215,0.24217867494072923,6212.842452970888
3899.4207,0.2452763516643238,4098.915894335844
3900.3176,0.24822046537200335,4219.804705062716
3901.2148,0.25127602390743264,5072.796094206619
3902.1145,0.2547701466195219,5458.841650621842
3903.0122,0.2589596665951271,3893.3380350017715
3903.912,0.2638949420641863,3589.7133637664656
3904.8103,0.2692069545743584,4374.125003064837
3905.7107,0.27425643376999853,5340.333079893042
3906.6094,0.2783553077372715,2715.2525155392677
3907.508,0.28125911247557434,3538.4009566643085
3908.409,0.28335400231999247,4752.324327269239
3909.308,0.285460708452814,3866.7801865215333
3910.2097,0.2883536399251991,3874.716450136402
3911.1091,0.2922449373667773,3123.273121466299
3912.011,0.29676890994808947,2848.559102571513
3912.9111,0.3012368702597727,3144.6167437548097
3913.8113,0.3051307551453228,3086.528502568946
3914.7136,0.3082551475284844,3108.5810697993275
3915.6143,0.31061005415118853,3260.8826741497583
3916.517,0.3122582935015255,2276.9316225958573
3917.4182,0.31323530177224934,2974.173483630168
3918.3215,0.31362660352053245,2900.496650236112
3919.223,0.3135580456718416,2914.0150898606535
3920.1245,0.3131578989594496,3384.9829048433535
3921.0286,0.312554232296761,2442.5520706720254
3921.9307,0.3119588286826642,2916.274343953453
3922.835,0.31167004270012294,2838.13082693346
3923.7373,0.311926662931,2546.8074479391967
3924.642,0.3127002658903465,3510.3101226248186
3925.5452,0.31365757437412584,3006.761090502408
3926.448,0.31437971597526926,2652.145144109588
3927.3535,0.3146480085433468,3452.4166539334815
3928.257,0.3145755373984695,3247.1428595884418
3929.1628,0.3144766106279542,2727.295146815997
3930.0667,0.31456274238822307,3818.04734155447
