wavl,flux,ivar
3566.9744,2.1292604630388356,367.91807839725817
3567.795,2.1249957564847346,392.200181609238
3568.6177,2.121110309574868,394.73244526526764
3569.4385,2.118662097987398,414.4750965729765
3570.2617,2.117649531683376,397.66539685651605
3571.083,2.116969408888168,437.7850817083648
3571.9065,2.115055899896317,368.62670014957394
3572.7283,2.110987167096117,454.0422123321102
3573.55,2.105131986244884,406.0110530158396
3574.374,2.0988787614324216,416.3144118961927
3575.1963,2.0937774332505255,426.17919679851065
3576.0208,2.0906328715185194,401.64405340336305
3576.8435,2.08936206124299,406.5351428026847
3577.6682,2.08915142436487,437.45196038357386
3578.4915,2.088864475842449,379.2953310894399
3579.3145,2.08749820217177,399.69002606951744
3580.14,2.0847091493854335,399.5341153876345
3580.9636,2.0811500866670505,415.73387147020674
3581.7893,2.078087594248953,394.1254815573648
3582.6133,2.0765505251472165,391.2608553179542
3583.4395,2.076558942092856,416.389390262567
3584.264,2.077294874690904,405.449781318528
3585.0884,2.0779217261846803,393.14948363973707
3585.915,2.0782027136312387,384.29348980783806
3586.74,2.0783590984260725,398.9108315839151
3587.5671,2.078549750329038,445.1061704256772
3588.3923,2.078627922182686,379.0061174267035
3589.22,2.0783048900615926,438.7858782054425
3590.0457,2.07730683011738,414.824542523071
3590.8716,2.0753259513665387,445.45608666834283
3591.6995,2.072042000319581,411.21302598180114
3592.526,2.0674372138708197,402.3840512520987
3593.3542,2.0619532963670633,491.2538511015807
3594.181,2.0562905719833284,392.13044723040434
3595.0098,2.050748594279881,404.7425838081768
3595.8367,2.045123447697928,487.1723073200029
3596.6638,2.03905880751938,415.31373434493264
3597.4934,2.032732244489466,467.55842611744714
3598.3208,2.027070684998496,400.0244514997263
3599.1506,2.023101051593489,462.82253181120274
3599.9788,2.021271204203513,534.5764959075683
3600.8088,2.0209759107179206,400.62148258640286
3601.6372,2.0209429734296047,457.3192519553315
3602.4678,2.020049901534978,466.58728520659423
3603.2964,2.018018059858438,451.90153929604304
3604.1252,2.015443909299966,422.8990263564162
3604.9565,2.013285022380851,371.64625948184994
3605.786,2.0122549636023956,460.92856126919867
3606.6172,2.012405761931143,458.709192519948
3607.447,2.0131048112477408,439.92064156330764
3608.2788,2.0133172550977614,475.827113366013
3609.109,2.0121448218148856,436.182399225201
3609.9392,2.009339788394242,472.02473586688006
3610.7717,2.0054140043578537,467.52476225733386
3611.6023,2.0013406753672873,480.3470833333629
3612.435,1.9979298784471704,439.00064872050297
3613.266,1.9954881007827314,452.1493219316416
3614.0994,1.9937211717328975,484.1447207077474
3614.9307,1.9921209551392733,451.25530922175074
3615.7625,1.9903734686149435,481.797862958129
3616.5962,1.9885862640187635,419.83991975815627
3617.4282,1.9871895000208966,422.47404911198004
3618.2625,1.9866791306128286,417.9018813451215
3619.0947,1.9874556744684395,468.1916382039658
3619.9292,1.9896592150416927,442.05841469925485
3620.762,1.992969750793718,452.75231588259226
3621.595,1.9965565769759734,457.8718437092843
3622.4302,1.9992576958227226,450.983497734569
3623.2634,1.9999968445930574,441.0624191976164
3624.0989,1.9983026300235422,504.9509970738764
3624.9326,1.9946184748026017,444.5379232224235
3625.7686,1.990246808630912,481.76282475060714
3626.6028,1.9868923634043725,446.961998164062
3627.437,1.9857305361033644,416.6416414203683
3628.2734,1.9867357496619338,454.4539121118257
3629.1082,1.9886072063649958,472.7153804512309
3629.945,1.9895023742307334,499.5195199436191
3630.78,1.988090036918413,426.30243357244456
3631.6174,1.9843275996539433,461.09364207274996
3632.453,1.9794887451150458,444.82006965522936
3633.2883,1.9752829169271016,456.00683788314154
3634.1262,1.9727642723947119,517.2509461623175
3634.9622,1.9717398402396658,411.84092534757843
3635.8005,1.9710905910789471,428.34218880475674
3636.637,1.9697952788217337,515.3827722911815
3637.4756,1.9676628653305945,501.138121881075
3638.3123,1.965349227973283,505.0927311874734
3639.1492,1.9637491142355554,474.19865391344865
3639.9885,1.9634069426948884,490.8174832390398
3640.826,1.9641991854586682,518.425651416183
3641.6653,1.9654306077527781,523.2130046128308
3642.5032,1.9662989726047864,436.2453230293421
3643.343,1.9664370651678644,447.83936326406723
3644.1812,1.966016425752399,482.3872296252981
3645.0195,1.9653222977577591,511.4587060597912
3645.86,1.9642376570438074,464.1255344667978
3646.699,1.9622312016297951,467.76111461851974
3647.5398,1.9588621927919747,472.7521090261074
3648.379,1.9544337109214385,409.7459888352272
3649.2202,1.9500874922097875,437.28397798074366
3650.0596,1.947333099036842,511.10366886636655
3650.8994,1.9470585955107478,464.2572811928979
3651.7412,1.9490206178771925,444.13122373710837
3652.5813,1.9520715277068794,425.5492279115641
3653.4236,1.9550070145033558,423.55041480713936
3654.2642,1.9571463576966202,446.5592332796006
3655.1067,1.9584401340016422,452.6687763100015
3655.9475,1.959144554186151,427.8171231877941
3656.7886,1.959592126683513,458.75025524564904
3657.6318,1.9600822044893904,477.45225137179165
3658.4734,1.9608273589924876,463.656479866432
3659.317,1.9618949741539018,465.5548991046751
3660.1587,1.963167765879141,455.85434665133124
3661.003,1.964378825442549,435.23849536012824
3661.845,1.9650948796802497,459.33378883520237
3662.6875,1.964823128704991,430.3641400755051
3663.532,1.9632944692393244,466.3617616063554
3664.3748,1.9608458213535467,518.0439456823093
3665.2197,1.9584036544439474,441.4623261217065
3666.063,1.9570732578918641,467.8802490337827
3666.9084,1.957578310834094,451.30899592951226
3667.752,1.9600102322771007,465.76160824417644
3668.5977,1.9638032166044948,489.3993356503652
3669.4417,1.967811134714031,473.7607099156599
3670.286,1.9707566549981639,489.07929188916495
3671.132,1.9718308197305898,467.2528756742059
3671.9768,1.9711469010875982,455.31977303541044
3672.8235,1.9696299556787333,489.3752168439084
3673.6685,1.968421983725147,449.6528634272066
3674.5156,1.9682377943825078,472.166974676234
3675.3608,1.969078919093832,403.34976985837216
3676.2063,1.9703257137762684,485.6016556566332
3677.0542,1.971086047713297,482.8365322268893
3677.9,1.9705792065732624,471.3838332023346
3678.748,1.9684488949557495,507.2514100344805
3679.5945,1.9649244327813908,464.7219379756998
3680.4429,1.9607173875619464,419.86310998158825
3681.2896,1.9567794237964764,454.36041085424523
3682.1365,1.953855935189444,473.18643757661636
3682.9856,1.9522587966531815,459.1323798499463
3683.8328,1.9518311505402801,478.93115208609305
3684.6824,1.9520537332840213,509.27877684059695
3685.53,1.952261583152685,454.2590867936169
3686.38,1.9518877956896787,453.0033233567678
3687.2278,1.9507136044301203,514.0677623912242
3688.0762,1.949016264310234,466.07998840239185
3688.9265,1.9475196683259484,419.67763650911814
3689.7751,1.94708752693521,447.99600206727104
3690.626,1.948196089510327,491.65671622697414
3691.475,1.9505596599763024,472.2652111754394
3692.3264,1.953303359199765,414.4102978471446
3693.1758,1.9555981107392075,486.25603922862575
3694.0254,1.957283850224426,446.6404313356102
3694.8772,1.9587490121066362,479.91968055314214
3695.7273,1.960286567937526,483.5544016120585
3696.5793,1.961616009106792,456.478850758002
3697.43,1.9619529777790616,470.12431936337015
3698.2825,1.96053688938119,462.6818854958014
3699.1333,1.9571041525036295,517.2104564519641
3699.9841,1.952038030335786,442.17605896107364
3700.8374,1.9462126101872868,460.8096394829951
3701.6887,1.940671064571843,445.14440909211106
3702.5425,1.9360117296805879,505.6649895617032
3703.3943,1.9321500475709934,472.0343167449339
3704.2483,1.928378436258506,468.16005504474197
3705.1003,1.924092324456624,472.2261666895713
3705.9526,1.9193594479683824,474.94417386876125
3706.8074,1.9150185540882756,491.4393446744689
3707.66,1.912132530767676,503.6844058288232
3708.515,1.9111430888994323,474.98083876734404
3709.3682,1.9115828252315519,497.9186667566125
3710.2234,1.9123370096004655,490.48853859897713
3711.0771,1.9122444480309702,455.99635181245566
3711.9307,1.9105339110550736,503.2072683158229
3712.7866,1.9069283728288706,494.436397019102
3713.6409,1.901725807554024,491.43748691146584
3714.4973,1.8957900000151087,511.518128601207
3715.3518,1.8904754636552528,518.5038251783501
3716.2085,1.8869224839001237,544.3792705095445
3717.0635,1.8854052790210778,517.6768590643518
3717.9185,1.885055889298446,523.2572018970541
3718.776,1.8845209701375059,548.8721300401339
3719.6313,1.8829548185749592,503.4069515632032
3720.489,1.8805688168176085,544.3790400611795
3721.345,1.8783493175768717,479.4993642222265
3722.2031,1.8771387190861404,514.1843426349108
3723.0593,1.8769906328333803,521.5986768000628
3723.9158,1.8772738703240037,548.1159502570076
3724.7747,1.8774532268151747,479.37384846100593
3725.6316,1.8776787476589951,517.3679110880253
3726.4905,1.8785821758407093,516.1601394566222
3727.348,1.8804929981944727,549.1823805352386
3728.2073,1.882945318763349,529.857179395482
3729.065,1.884887738752533,481.64150691040305
3729.9229,1.8853902904638136,481.68301470739533
3730.783,1.884088725897202,543.7211204431441
3731.6414,1.8812031023329103,503.032996083018
3732.5017,1.877233805752753,491.5047649862504
3733.3604,1.8727972856154889,529.2020448064951
3734.2214,1.8685306903369638,569.8513328537779
3735.0803,1.8651434263275677,528.5971069085584
3735.9417,1.8631293474663078,532.6148058590272
3736.8013,1.862537602666211,570.6521270448577
3737.661,1.862851304594697,552.395229924233
3738.5227,1.863291139385983,499.77347783052636
3739.3828,1.8631966429527433,527.3635820210475
3740.245,1.862199266064007,557.8646560008036
3741.1055,1.8601530076708324,539.942661711261
3741.9683,1.8570348597668387,548.5616751465652
3742.829,1.8530300414007508,537.8378561799445
3743.69,1.8485323307383845,513.9491269839925
3744.5532,1.8440909374687964,518.3637063542034
3745.4148,1.8402940242354746,550.2187329517561
3746.2786,1.8375399134758288,539.9466928178733
3747.1404,1.8360044630997105,468.2545533374758
3748.0044,1.835580730469432,501.5769028716909
3748.8667,1.8359959002592317,491.52284248707883
3749.729,1.836952345603454,579.1486991550579
3750.5938,1.8382897411530077,517.9644228981814
3751.4565,1.8400113216457163,541.1302000910886
3752.3215,1.842178552238475,567.4618045354025
3753.1848,1.8446572931139804,523.220679332175
3754.0503,1.8470616669008841,466.5157509664318
3754.9138,1.8488727736462252,500.63524078440696
3755.7776,1.8497653471076436,534.5127955014292
3756.6438,1.8497387591862178,538.7136663668316
3757.508,1.8490377742280748,561.9717420195286
3758.3745,1.8479220111419516,514.8951504744084
3759.239,1.8465183390450304,512.829418237733
3760.106,1.844807125288346,565.3937842425385
3760.971,1.8427352799463834,541.1845256973768
3761.8362,1.8402230182062014,551.3762218425815
3762.7036,1.8371760734536435,537.114420732759
3763.5693,1.8336052562456777,520.0359086385628
3764.437,1.8297532561911178,578.1370304411344
3765.3032,1.8261831845235437,533.5505284859332
3766.1714,1.8234421328614978,554.5649731813694
3767.0378,1.8217060818018842,543.595577758689
3767.9043,1.8205931644808497,519.7781686873059
3768.7732,1.819458504678016,509.7190139312017
3769.6401,1.8178414190185639,538.0106881369187
3770.5095,1.8156990884090745,562.1154931375869
3771.377,1.8133820962469782,526.9994085868778
3772.2466,1.8113409431780307,533.3810465008826
3773.1145,1.8099222923578515,584.2177191261612
3773.9824,1.8092971811360943,528.7156316053761
3774.8528,1.8096732356664604,515.8918268265397
3775.721,1.8114248509535196,563.886661773664
3776.5918,1.8148946892710698,535.9774557686962
3777.4604,1.8199158767524595,579.6722501494238
3778.3315,1.8257347466781435,527.7578098476097
3779.201,1.8312657492263624,498.74132067391264
3780.0703,1.8356931607195177,555.2814907943637
3780.942,1.8386653858179383,531.609069522524
3781.8118,1.8401865279912033,518.0965931564771
3782.6838,1.8404495600805117,539.3214064293628
3783.554,1.8396764397125402,505.721730420693
3784.4265,1.8381021513916342,521.7541373113606
3785.297,1.8359847345931368,599.3773872621921
3786.168,1.8334873675203387,566.0684050875628
3787.041,1.8305215394375236,527.1206837192537
3787.912,1.8267363961510017,506.92413628930285
3788.7856,1.821713648469677,542.4167832555011
3789.6572,1.8154454930603803,500.70655829957775
3790.531,1.8084056636517134,580.4690354818449
3791.403,1.8013943198827256,563.3995853173299
3792.2754,1.7949437865911395,548.818966326501
3793.15,1.7890822636208765,580.3467650692123
3794.0225,1.7834600997832726,575.1053290577627
3794.8972,1.7775768415795823,572.9011161657849
3795.7703,1.7712478596301384,631.5366893122352
3796.6455,1.7647681234905521,582.3233943876103
3797.519,1.7590617460321094,584.9466734767939
3798.3926,1.7552546240451952,640.5954955657489
3799.2686,1.7541705173468574,559.0169906878928
3800.1426,1.7559199742573357,558.8278755837184
3801.0188,1.7599064580575583,555.860956865647
3801.8933,1.7651354293105965,546.324347327117
3802.77,1.7706866663206176,545.4402382906966
3803.6448,1.7759874216890077,579.706109334774
3804.522,1.7811055131818245,611.2920728841713
3805.3972,1.786485747731709,564.2915927310544
3806.2727,1.7925381205766986,568.2721754353696
3807.1504,1.7991530367186952,514.9819688468655
3808.0261,1.8056635441927935,538.0259468964996
3808.9043,1.8113563043935481,509.65182783715426
3809.7805,1.815711934696005,559.4413573150456
3810.659,1.8185991982391914,570.4200655416963
3811.5356,1.8201539236617057,530.9036910748732
3812.4126,1.820834435317328,601.9866108584748
3813.2917,1.821322505493633,526.2689801884527
3814.169,1.8222177330116383,569.5142724704936
3815.0483,1.8236445934932872,488.70610916052004
3815.926,1.8251255956488572,544.3704639972703
3816.806,1.8259384712768956,528.8652201620945
3817.684,1.8255629126354178,513.36887005703
3818.5623,1.82386799785333,547.4952328692718
3819.4429,1.8209137093982168,538.3160977910402
3820.3215,1.816742496375327,544.804372104664
3821.2024,1.81122707317371,607.0976669988148
3822.0815,1.8041943609098188,524.8730230751772
3822.963,1.7954379924431934,557.730494103131
3823.8423,1.7849939510454753,557.3913738254661
3824.722,1.7731038800524164,533.5004455538797
3825.604,1.760189908405021,590.7603581915034
3826.4841,1.746724794855894,599.0068350671028
3827.3665,1.7328181167071077,580.4157620208485
3828.2468,1.7185543543380817,565.4666017733159
3829.1296,1.704012762039687,563.041723793597
3830.0105,1.6897264525106468,642.0044319459558
3830.8916,1.676302287283338,626.2728225069792
3831.7751,1.664220484866727,670.2292117972639
3832.6565,1.653721853555352,675.4191827571719
3833.5403,1.6447361305910912,651.8049320957342
3834.4224,1.637477942503204,675.2558770988715
3835.3064,1.6325219017825872,702.8958000926866
3836.1887,1.6307142216943629,706.6845501071452
3837.0713,1.6325236738278617,686.9677103189118
3837.956,1.6376831342629983,678.6606577034049
3838.839,1.6452521060298808,627.186242648361
3839.7244,1.65428141517813,645.1088966681933
3840.6077,1.6641786302682413,682.2628507994035
3841.4932,1.6749229541245296,686.838590198374
3842.377,1.68663236024014,634.1058242709071
3843.261,1.6994993010548842,586.6971671275937
3844.1472,1.7136118261802025,565.1751853844142
3845.0315,1.72871537676738,579.9460865752432
3845.9182,1.7443207554927178,594.8640953140934
3846.803,1.7594771496637605,601.0194115904121
3847.69,1.7734160486851478,574.1139473790236
3848.5752,1.7856816321199818,532.0904433940018
3849.4604,1.7964728493992412,567.3833503399641
3850.3481,1.8062775698391438,534.8548991450652
3851.234,1.8153889325911268,559.3249929779151
3852.122,1.823883092535197,546.2520523980852
3853.0083,1.831579819457905,489.577359439695
3853.8967,1.838442663808128,544.6450510979516
3854.7832,1.8444506340255657,499.2509711318839
3855.6702,1.849498933675185,549.132370183052
3856.559,1.853166232805349,525.3422328879842
3857.4463,1.8548693368715294,497.1806049885064
3858.336,1.8543562182288058,476.9833836010571
3859.2234,1.8521031420291159,510.9764873722836
3860.1135,1.849306651532007,542.7553089565546
3861.0015,1.8473665288898167,552.7016359954868
3861.8896,1.8470488557347005,530.0774268952858
3862.7803,1.8480789489372547,538.74407288813
3863.6687,1.8493565139870225,520.7350163724113
3864.5598,1.8496652759026309,514.6126686217656
3865.4487,1.8482264770482175,524.2413662046836
3866.34,1.8447843132760537,514.5193787659609
3867.2297,1.839364533513712,523.1082114188562
3868.1213,1.8319559188533485,525.7482652352539
3869.0112,1.8226048063145845,560.495035726974
3869.9014,1.8115625909886022,550.7352827395547
3870.7937,1.799530250979788,564.6498761085296
3871.684,1.7876017180833543,595.1985481661529
3872.577,1.7765025730462838,574.3973034187301
3873.4678,1.7662539943081248,561.7094060079751
3874.361,1.7559468670933487,595.1922317640119
3875.2524,1.7446031325045035,586.2317436963939
3876.1438,1.7317679096517866,598.0764199685203
3877.0376,1.7177553655925502,600.3770554864931
3877.9297,1.7032420450685468,606.3042985126548
3878.8237,1.688339304192542,674.9539457500755
3879.716,1.6726435601379415,669.5085611084121
3880.6108,1.6554022938054624,674.8531087241985
3881.5037,1.6363462197051146,609.7150771391075
3882.3965,1.6155528494350035,646.9304557036312
3883.2917,1.5932989855909538,648.1709556672487
3884.185,1.5700461011431408,701.0822439483843
3885.0808,1.5461238980291379,698.8730648633579
3885.9746,1.522414207786462,758.9116040349979
3886.8706,1.5000179333580959,904.9731291856618
3887.765,1.480632927928656,828.9768314841851
3888.6592,1.4660510238182314,888.2258409606906
3889.556,1.4580416200614668,876.1191833169504
3890.4507,1.4578808719073006,844.9913172464118
3891.348,1.4657675114694566,878.4648584427052
3892.243,1.4807128581539573,812.0647557872633
3893.1406,1.5010707558239968,887.2549520068918
3894.0361,1.524761400602275,797.1559058144454
3894.932,1.5499568149876222,765.1350339842054
3895.83,1.5750673019007428,669.4484592053642
3896.7263,1.5987055692465262,729.6316245967303
3897.625,1.6203548575192257,620.6766267071245
3898.5215,1.640041532073635,669.6660035036073
3899.4207,1.65859943465999,672.5404688875664
3900.3176,1.676804841650077,677.4730409698632
3901.2148,1.6953215442754215,668.8445845759401
3902.1145,1.714358693655936,601.8508425429563
3903.0122,1.733570998829679,630.0348459144675
3903.912,1.752538679464721,562.0077876711683
3904.8103,1.7706584056612487,575.5792096579997
3905.7107,1.7877524711755242,605.130960900348
3906.6094,1.8039121556476947,561.495713126194
3907.508,1.8196127242504534,538.488382529574
3908.409,1.8352211221310568,552.6013668345752
3909.308,1.850554593359011,498.7123046408208
3910.2097,1.8651168522323014,481.58861651676773
3911.1091,1.8781286264159383,487.2590196605053
3912.011,1.8892087203804886,554.4560598024055
3912.9111,1.8983840106873853,503.7832171156972
3913.8113,1.9063319310270896,499.4248956437339
3914.7136,1.914078403524066,472.992667694895
3915.6143,1.9224693638093586,489.1671137363828
3916.517,1.9317714654501341,466.84292022081127
3917.4182,1.9413408411421775,525.0815225296825
3918.3215,1.9501290052756675,472.44076143376503
3919.223,1.9571743038817826,444.363166264986
3920.1245,1.9622226653389574,455.6368765352315
3921.0286,1.965663066451638,485.40117345322136
3921.9307,1.9681630505074716,473.7796975272461
3922.835,1.9702844036266336,486.88433328966937
3923.7373,1.9721635783507594,451.3630870644433
3924.642,1.9735497231942236,415.08153458764286
3925.5452,1.9740094918334228,492.3093655588463
3926.448,1.97332900341535,428.58509089057867
3927.3535,1.9718042995875016,455.727460008171
3928.257,1.9702613823255386,467.8423732273925
3929.1628,1.969581900183375,476.2733640985159
3930.0667,1.9700080640601974,448.51085641827467
3930.9731,1.9706644641039068,445.6367902897264
3931.8774,1.9698424792937692,443.72085403119763
3932.782,1.9660197092493445,463.6734403801751
3933.6887,1.9588667844044951,469.3701256982146
3934.5938,1.9495748393809833,453.63174096431806
3935.501,1.9400226514019965,498.72277232775645
3936.4062,1.9317931927228713,547.6244439862178
