wavl,flux,ivar
3566.9744,0.5977139911795366,1764.3411011481494
3567.795,0.6031900229113727,2245.9653926358324
3568.6177,0.6080824533079573,2080.079500096905
3569.4385,0.6105434171508072,1455.0329853433498
3570.2617,0.6100899385988569,1158.6199931577341
3571.083,0.6077554210243087,1448.548789252197
3571.9065,0.6051787026158517,1811.7154714102453
3572.7283,0.6033464515205643,1245.475728221868
3573.55,0.6020372560430444,1427.5781496866168
3574.374,0.600484492497261,1186.2178415876829
3575.1963,0.5984053573008363,1378.458370369572
3576.0208,0.5963095977148998,1465.0643810351917
3576.8435,0.5949686230198457,1489.4422357326007
3577.6682,0.5946239264957753,1768.3110618772932
3578.4915,0.5948115556434976,1415.5972346012823
3579.3145,0.5948173229706416,1714.7835248543104
3580.14,0.5942962749250355,1203.6975055955263
3580.9636,0.5934686793638982,1729.705726720298
3581.7893,0.5927558658615831,1994.4913908035483
3582.6133,0.5923279845308237,1655.96314094831
3583.4395,0.5920263337245019,1748.9363267348253
3584.264,0.5916763299342421,2039.8155026063139
3585.0884,0.5912891243655658,945.8259145513617
3585.915,0.5909344743727761,3037.5769743444494
3586.74,0.590547553256042,1709.4894026711881
3587.5671,0.5899763709183047,1350.6648052377636
3588.3923,0.5892085718690129,2414.379002580366
3589.22,0.5884264135825188,1616.3408197258093
3590.0457,0.5878467719078131,1462.8145209387185
3590.8716,0.5875166082095089,1651.2150908160654
3591.6995,0.5873429439575106,1441.2141784916062
3592.526,0.5872629577048225,1646.8478363234808
3593.3542,0.5872983602658312,1740.9424332277238
3594.181,0.5874135884327077,2068.011805362047
3595.0098,0.5874437561111333,1120.5023972595743
3595.8367,0.5873287484289272,2053.8758806180663
3596.6638,0.5874107401178971,1442.684424296208
3597.4934,0.5883158686721297,2157.3601131866785
3598.3208,0.590368329361762,1282.424546561667
3599.1506,0.5931497083859268,1715.7794480233063
3599.9788,0.5956087655035355,1531.212102432474
3600.8088,0.596736468678633,1030.764519812846
3601.6372,0.5960881966521379,2609.4665753970403
3602.4678,0.5938976526536186,2427.3875960094756
3603.2964,0.5907765314994742,1932.433981842571
3604.1252,0.5872779492844533,3127.1190018685775
3604.9565,0.5837289262376844,1728.8304822844225
3605.786,0.58038146258332,2306.1170460091066
3606.6172,0.5775501551097015,1541.3063977166064
3607.447,0.5757017975180155,2399.59806233255
3608.2788,0.5752500614527682,1731.765569166544
3609.109,0.5764084469226732,2908.8418045209773
3609.9392,0.5791123354587183,2039.1956787585673
3610.7717,0.583045856716541,2163.4889731817257
3611.6023,0.5876327043529483,1777.5796972403223
3612.435,0.5922081935746173,1650.3475517160314
3613.266,0.5961617708167699,1466.1345415099577
3614.0994,0.5992722232628387,1270.0128506541648
3614.9307,0.6016637059426369,2222.036356822082
3615.7625,0.6035449356387113,1677.9811258806503
3616.5962,0.6047892587596941,1749.668820639529
3617.4282,0.6049321134452742,1552.1528170020722
3618.2625,0.6036305005124887,1311.505520402716
3619.0947,0.6011085800653163,2033.33477573355
3619.9292,0.5980964039609163,2267.1029009782615
3620.762,0.595381012644667,1435.9979315247108
3621.595,0.5932774605312292,1216.967256505314
3622.4302,0.5915869680104385,1271.8355250067757
3623.2634,0.5899549291963957,1123.6352734960255
3624.0989,0.5882536075657664,2637.5578465927797
3624.9326,0.5867088940767805,1697.8740698709703
3625.7686,0.5856088125673303,1452.4168042503152
3626.6028,0.5850468987134237,1001.8419741598498
3627.437,0.5849326939148136,1014.0212172310128
3628.2734,0.5852923553914379,1243.8979887936994
3629.1082,0.5864039208891578,3414.8188797374305
3629.945,0.5885361436378083,1877.2137852558544
3630.78,0.5915071664531515,1094.7792701210421
3631.6174,0.5947043526575843,1379.4990109478856
3632.453,0.597481465599804,2040.5931617093845
3633.2883,0.5996031645535768,1547.7930986945794
3634.1262,0.6011093092993337,1712.3065532037253
3634.9622,0.6019413081991666,1537.351555722082
3635.8005,0.6018452209029401,1561.090326422762
3636.637,0.6006213792079643,1437.1168547077
3637.4756,0.5984945657930084,1173.5626437781118
3638.3123,0.5962540543450686,1789.060956817245
3639.1492,0.594884041460568,1870.655507145126
3639.9885,0.5949451972666081,1656.5540567981836
3640.826,0.5961350137472677,1335.1795262688524
3641.6653,0.5975513167102341,1281.2255598710626
3642.5032,0.5984641807517731,1220.2872842387249
3643.343,0.5988980023644507,1292.334611826729
3644.1812,0.5994321261960984,1648.4655802244386
3645.0195,0.6005320639167081,1072.1098220415538
3645.86,0.6020866774683183,1811.844272876942
3646.699,0.6035217285654368,1678.4427370655055
3647.5398,0.6043044706399197,1470.668437191781
3648.379,0.6042823188282682,1672.9841470378942
3649.2202,0.6037157951599381,1797.4571056462594
3650.0596,0.6030953291678166,1758.122179301556
3650.8994,0.6029481894767551,1645.1066048311793
3651.7412,0.6036865842846135,1419.8515738601272
3652.5813,0.6053888699145726,1438.9282725554706
3653.4236,0.6076076071305289,1454.7210419141174
3654.2642,0.60935509432359,1832.097625321451
3655.1067,0.6095355305333415,1223.4741185508537
3655.9475,0.6075795767600989,1419.5580664036656
3656.7886,0.6039228546036347,1590.5098606965223
3657.6318,0.5998846678883512,961.7612203459428
3658.4734,0.5970619785805716,1179.2528758537296
3659.317,0.5965329853644505,1448.5820026754955
3660.1587,0.5984874200658966,1251.807007488311
3661.003,0.6021752168133785,2286.4023845730226
3661.845,0.606079840006775,2413.3873055059935
3662.6875,0.6085018380051017,1278.9739925566382
3663.532,0.6083272742119724,2003.2641641425691
3664.3748,0.6057023534097573,1620.9886243174692
3665.2197,0.6019234081784033,1721.0400142978706
3666.063,0.598621337100919,1196.4053227225374
3666.9084,0.5967335496744545,1946.75017018108
3667.752,0.5961422567428455,1427.2362993460226
3668.5977,0.5959938197220833,1509.1852306786823
3669.4417,0.5955219488471997,1669.990028769768
3670.286,0.594683109627261,1451.3189066501568
3671.132,0.5941727938466101,1672.8580699143135
3671.9768,0.5948428812963392,2240.712426442461
3672.8235,0.5969903488520748,1914.624538590259
3673.6685,0.6000488288380548,1981.4889002624263
3674.5156,0.6029410137665666,1300.6775202096755
3675.3608,0.60470149750364,2329.236095489671
3676.2063,0.6050404596026699,1828.744883573539
3677.0542,0.6043076699737768,3093.0828928850524
3677.9,0.6030615505387961,1486.4822548617572
3678.748,0.6015911690674197,1623.7381213500391
3679.5945,0.599884545153033,1401.966115926952
3680.4429,0.5979219124508107,1571.630485417927
3681.2896,0.5959722309943536,1345.2595451800328
3682.1365,0.5944533544128666,1141.1134241632542
3682.9856,0.593600580035265,2082.7001408088963
3683.8328,0.5932731521057603,1533.7938822951005
3684.6824,0.5931066237970293,1594.271491818656
3685.53,0.5928916588696059,1727.8238301000342
3686.38,0.5927878016543915,1737.4723454135742
3687.2278,0.5931622699243919,2059.0096523260177
3688.0762,0.5941799982376726,1392.1233006252319
3688.9265,0.5955734165959369,1339.6663216573406
3689.7751,0.5968219091210516,1769.8362809220264
3690.626,0.5975849372154264,1646.9960025024075
3691.475,0.5979065746103045,1836.3799390845281
3692.3264,0.5981214096937725,1282.550597727034
3693.1758,0.598596679594112,3324.723745256603
3694.0254,0.599558891731385,1178.0308075092953
3694.8772,0.6010114954965063,1318.5804625412675
3695.7273,0.6026573376304959,2006.344568388229
3696.5793,0.6038953600880815,1202.257029522518
3697.43,0.6039393275589195,1225.843322478969
3698.2825,0.6021985368748445,942.0678499904682
3699.1333,0.5986923040180697,1920.7328769909395
3699.9841,0.5941625838509321,1376.294963877921
3700.8374,0.5897804147930155,1488.571743070481
3701.6887,0.5866312954281273,2354.2175967756325
3702.5425,0.5851439152716006,1559.2720916054413
3703.3943,0.5850367621632997,2380.6243802614335
3704.2483,0.5856205741984285,1181.2795814209028
3705.1003,0.5863073101571314,1663.9710619672874
3705.9526,0.5868806026776177,1652.310282557085
3706.8074,0.5874180864448337,1436.113049832952
3707.66,0.588097253665775,2045.5121852830105
3708.515,0.5891137830571016,1533.9599129968333
3709.3682,0.5906402243298495,1523.3548187858128
3710.2234,0.5927466882019408,1522.725039127441
3711.0771,0.5951927627237661,1615.412947030558
3711.9307,0.5973678849268006,1365.1360423836902
3712.7866,0.5984827032963687,1507.857057175962
3713.6409,0.5980249498269793,1039.6406700632372
3714.4973,0.5961938288208887,1685.1921963254651
3715.3518,0.5938894827101064,1911.677011024116
3716.2085,0.5921600879699584,2425.473562004513
3717.0635,0.5915895865949806,1630.9919189969949
3717.9185,0.5919851286063931,1455.6949147840182
3718.776,0.5925530257198488,1799.3907398450185
3719.6313,0.59214814376014,1671.0002827685073
3720.489,0.589451497542327,1725.6966841537062
3721.345,0.583375559456259,1204.0307730255956
3722.2031,0.5739205258472349,1429.2089853028885
3723.0593,0.5631905013126798,1028.4202568036346
3723.9158,0.5548717964324408,1712.8791365776317
3724.7747,0.5522888267843712,1405.2321402380724
3725.6316,0.556219211503352,2028.1489431573
3726.4905,0.5645827551376552,1670.6625413564968
3727.348,0.574118091400393,2212.4048094585783
3728.2073,0.5823948434745981,1606.7532993161976
3729.065,0.5883335728583877,1646.1574693904026
3729.9229,0.5919061958231958,1554.129281524689
3730.783,0.5934667091102329,1585.8020676637586
3731.6414,0.5934295252468479,1589.0439208518446
3732.5017,0.5921630311531668,2127.7096883954105
3733.3604,0.5900163210111233,1584.215538671157
3734.2214,0.5874661833786239,1546.0007114846376
3735.0803,0.5852711043479971,1354.7347381489487
3735.9417,0.5842522989218392,1497.9303533569148
3736.8013,0.5849250364896045,1343.284981392946
3737.661,0.5872036688381015,1320.4924755680179
3738.5227,0.5905531916823681,1433.4956423223732
3739.3828,0.5942926872132913,1280.1385417126048
3740.245,0.5978373245376317,1430.0339292873757
3741.1055,0.6006112217677587,1115.4297688312722
3741.9683,0.6021345622668876,1365.5443792458823
3742.829,0.6021678642151089,1315.8663546663436
3743.69,0.6008891656834097,1102.7850681687464
3744.5532,0.5987563737191408,1299.3849750805614
3745.4148,0.5962748792828592,1486.6041149974758
3746.2786,0.593773878919147,1529.764785084534
3747.1404,0.5914490554071865,1332.9892445963428
3748.0044,0.5894789948073601,1378.5236444072345
3748.8667,0.5882495629962464,1398.6186126647065
3749.729,0.5882832566584966,2609.9752973337854
3750.5938,0.5898962850453865,1974.451121245666
3751.4565,0.5927391634637234,1626.4492282687959
3752.3215,0.5957952830274257,1720.9088562703114
3753.1848,0.5978713453253885,2632.6634859236365
3754.0503,0.5983901200503038,1200.3583146828462
3754.9138,0.5977430896852637,1684.5181728437024
3755.7776,0.5969969264357694,1555.1701469487057
3756.6438,0.5971024842839927,1368.806096246975
3757.508,0.5982508014941192,1567.1999491222473
3758.3745,0.5998744078189381,2253.0694644994637
3759.239,0.6011751021334822,1740.7377052242934
3760.106,0.601680390741064,1196.0904912881385
3760.971,0.601328586612289,1280.680068247447
3761.8362,0.6002290319145364,1759.321539538784
3762.7036,0.5983874033315457,1487.395390000878
3763.5693,0.5957064543142818,1775.2226004311128
3764.437,0.5921790939320738,1483.6153946339775
3765.3032,0.5882156096139296,1717.645793036253
3766.1714,0.5846570882968297,1430.6072423162257
3767.0378,0.5824651607930418,1566.205215721646
3767.9043,0.5819921314254656,1507.6861417934274
3768.7732,0.5825800882928818,1354.9478396163902
3769.6401,0.5828849742168555,1408.1637977109322
3770.5095,0.5818724359552508,1567.195437700487
3771.377,0.5796634194170096,1715.998372261905
3772.2466,0.5775332805127577,1316.3738950635052
3773.1145,0.5771642853949757,1655.717219174771
3773.9824,0.5795941275627504,2347.744501753168
3774.8528,0.5846005706803287,1235.9123705038505
3775.721,0.5907188024888295,1364.8296544622954
3776.5918,0.5960994285567296,1545.0334430579367
3777.4604,0.5992981613269394,1111.9631712107046
3778.3315,0.5998331316351262,1330.70451553468
3779.201,0.5980198299809756,1989.8811797827163
3780.0703,0.5946918209400022,1724.5710404786237
3780.942,0.5909185858976332,1364.6444472872602
3781.8118,0.5877844618853691,1531.573214591725
3782.6838,0.5860041288929545,1693.9516027740249
3783.554,0.585755015623747,2923.967702669788
3784.4265,0.586722540584447,1880.9144528060247
3785.297,0.5883784706136872,1846.6757171731754
3786.168,0.5902128632055029,1685.3096832774177
3787.041,0.5918057321469544,1231.022040171835
3787.912,0.5928175750192743,1316.4660674793206
3788.7856,0.5929789683574493,1418.0112415039673
3789.6572,0.5919998599694986,1316.5470850744887
3790.531,0.5895620185456288,1290.9145574215358
3791.403,0.5855301940361566,1235.5254483619137
3792.2754,0.5802022405372808,2098.0045560186772
3793.15,0.5743699038536901,1286.307607122676
3794.0225,0.5690749784122311,1379.0862124589983
3794.8972,0.5651046878732039,1527.8607137507554
3795.7703,0.5628536462096013,1179.7506143177102
3796.6455,0.5622652482374102,1186.8121367213027
3797.519,0.5629842990222693,1846.4716317562218
3798.3926,0.5644736346052067,2026.929631064277
3799.2686,0.5662435308088116,1480.666709751522
3800.1426,0.5681192567602263,1409.4334295619865
3801.0188,0.5704086105213221,2811.54541522828
3801.8933,0.5735953528334256,1864.9583768932462
3802.77,0.5778529968352629,1428.141566024482
3803.6448,0.5826838475280333,2111.321093577802
3804.522,0.5872258557735893,2055.319313373812
3805.3972,0.5906805329078325,1699.7866942559995
3806.2727,0.5927333495304523,1581.462584266932
3807.1504,0.5935068133137247,1645.5848790280693
3808.0261,0.5934132001723508,2386.28929757953
3808.9043,0.5930485971316838,1384.8627328297152
3809.7805,0.5931198024921838,1328.9797919853327
3810.659,0.5942930349020207,1539.471629330204
3811.5356,0.5969122367323277,1483.1760351650257
3812.4126,0.6007912032208044,1231.3788309610431
3813.2917,0.6052595548886616,1618.9182280729553
3814.169,0.6094225587177149,1337.2696760394763
3815.0483,0.612582335117962,1403.5817120804222
3815.926,0.6143718382156107,1238.9417642845788
3816.806,0.6148192419937263,1347.7652376472302
3817.684,0.6141830096494617,1190.6442966168
3818.5623,0.612790866936949,1370.4017135709864
3819.4429,0.6108983219884263,1596.3801967755874
3820.3215,0.6086584426052116,1480.145186733821
3821.2024,0.6060994735418109,1198.3770634679872
3822.0815,0.6032384328560607,1750.752640554403
3822.963,0.6001434594899011,1845.946431265913
3823.8423,0.5970475175414618,1651.7694462896814
3824.722,0.5942372346187836,1969.964422716744
3825.604,0.5919231264472224,2294.236982926899
3826.4841,0.5901165866886766,1639.2918071830316
3827.3665,0.5885215249618958,1499.4141711214224
3828.2468,0.58655522372184,2093.075929224765
3829.1296,0.5834161818724549,1542.7962511650853
3830.0105,0.5784692518484384,1628.6512170726064
3830.8916,0.5716238325934488,1663.109953675807
3831.7751,0.5634654478330158,1511.5339828477286
3832.6565,0.5549881713839414,1584.0225482566343
3833.5403,0.5469506012138136,1698.3370549597632
3834.4224,0.5398910836675597,2683.4441067033927
3835.3064,0.5342327181439718,1996.7359686226491
3836.1887,0.5306524250704915,1925.5562879862764
3837.0713,0.5298738042791676,1647.4697939530402
3837.956,0.5323136869187308,3471.2907367404378
3838.839,0.5377291538905856,1569.4184286652226
3839.7244,0.5453368716178297,2041.2631186089884
3840.6077,0.554056184579683,1640.1177796875197
3841.4932,0.5629511504947466,1356.8145391464004
3842.377,0.5712631713242631,1811.13778959653
3843.261,0.5786948565005118,1196.4873953485549
3844.1472,0.5854006995738769,1671.9990219306862
3845.0315,0.5917054826039739,1961.8776511427325
3845.9182,0.5977367849294948,1750.396179749599
3846.803,0.6030814669064785,1621.2410157139718
3847.69,0.6072597030294575,1367.9070347106142
3848.5752,0.6101964735900591,1764.6439342724032
3849.4604,0.6124087676089283,1344.2065152322675
3850.3481,0.6145186431962337,1732.7121693758936
3851.234,0.6167381231514446,1991.8032709463491
3852.122,0.618856513916784,1168.6762145449086
3853.0083,0.6205636443637033,1405.5688727221814
3853.8967,0.6217957394870807,1129.3136048300319
3854.7832,0.6224688765714055,1242.1533501257393
3855.6702,0.6215522587135828,1739.0866940137373
3856.559,0.6157571866649555,1698.5373422770776
3857.4463,0.5992151708867043,1397.5736520360254
3858.336,0.5656563696821223,1550.6961661255032
3859.2234,0.5145219327403907,1425.6133045410807
3860.1135,0.4559269623814531,910.3136760591989
3861.0015,0.4106474393586287,1171.5474864874554
3861.8896,0.3982708688325832,1506.7137989394844
3862.7803,0.42457303455297374,1488.8111355479423
3863.6687,0.4769704648450465,1532.067136788082
3864.5598,0.5343667240296315,1238.9322015570967
3865.4487,0.5797115931130772,1485.7111177676886
3866.34,0.6075644668587192,1327.9408572204795
3867.2297,0.6206955220555667,1274.710504951551
3868.1213,0.6247890650431446,1272.1900501850816
3869.0112,0.6242589095023441,1186.6913396812552
3869.9014,0.6215323831491874,1539.9778145072619
3870.7937,0.6177328118509716,1374.851203810432
3871.684,0.6135406360036302,1232.9879088943014
3872.577,0.6094220529172919,1436.992622260732
3873.4678,0.6055829151407841,1660.4887167785573
3874.361,0.6017448771160517,1239.516750096374
3875.2524,0.597373786276631,1111.4777537672103
3876.1438,0.5920351365776578,2002.9031618843612
3877.0376,0.5857785120810397,1372.9792514786548
3877.9297,0.5792131834457596,1979.852507967372
3878.8237,0.5730485697785285,1474.8732217249267
3879.716,0.5677198421416523,2014.266682425565
3880.6108,0.5630263985676602,1489.4168197063684
3881.5037,0.5583312995903903,2427.826602123409
3882.3965,0.5528064736377107,1692.0396423017585
3883.2917,0.5457669979377017,1742.0057622189904
3884.185,0.5369324870296036,1599.4646124877909
3885.0808,0.5263956729843294,1858.13042153916
3885.9746,0.5147915695353174,2303.27860257988
3886.8706,0.5029819977560541,1969.988993375698
3887.765,0.49210736544180517,1871.3348718822958
3888.6592,0.48328177473768685,2893.1478276891935
3889.556,0.4775197306893167,2427.007263670326
3890.4507,0.4755460714912298,3220.2377918631387
3891.348,0.4775834951108362,1671.7392569573867
3892.243,0.4834498586932433,1953.592373212101
3893.1406,0.4926786408199732,3049.546491140952
3894.0361,0.5042826958762266,2182.621084138224
3894.932,0.5167954923201337,1657.8261109861937
3895.83,0.5284844912670333,1454.8242455040834
3896.7263,0.5379681635932159,1958.3186308702407
3897.625,0.5450478078601262,2130.1683485764734
3898.5215,0.5505585630684544,2243.2048564904053
3899.4207,0.5559087017401187,1605.1210860311285
3900.3176,0.5621444793477407,2610.2944555534264
3901.2148,0.56962271668831,2356.1681585520814
3902.1145,0.5781267543254344,2053.1598576338592
3903.0122,0.5872535921286212,1614.4530131047713
3903.912,0.596829483226466,1529.4918882655022
3904.8103,0.6066014704767936,2068.730462220748
3905.7107,0.6161427440282152,1538.6075263591742
3906.6094,0.624733927109801,1139.6199631259822
3907.508,0.6318595462924157,1378.801914033746
3908.409,0.6373949351521108,1187.9916035762697
3909.308,0.6415099840525386,1304.1582455537769
3910.2097,0.6445853436431835,1227.8669449865783
3911.1091,0.6471274515700728,793.9702884759762
3912.011,0.6498544115254531,1253.0485994475318
3912.9111,0.6534029394726305,1391.8621018752322
3913.8113,0.6579822050957894,1296.697882646406
3914.7136,0.6632538172279074,1434.4879729738288
3915.6143,0.6686117708928055,1314.8844098405084
3916.517,0.6736664346341833,1116.537251894616
3917.4182,0.6782076354950087,1392.6083619908213
3918.3215,0.6820394199451159,1429.0746985770295
3919.223,0.6847819899001123,1047.3946141286851
3920.1245,0.686191983190818,1194.6410845109983
3921.0286,0.6865018641419312,1220.06723485142
3921.9307,0.6864626415701652,1471.619158647075
3922.835,0.6868865914949661,982.0244040549893
3923.7373,0.688058074741264,1216.857728256908
3924.642,0.6895962090661747,1356.2295880575987
3925.5452,0.690885892890273,1045.0097688273734
3926.448,0.6917045510000227,1274.0137754965704
3927.3535,0.6923458273190016,1314.3341552872562
3928.257,0.6931691929205973,1059.6715135599973
3929.1628,0.6941154306072637,1081.2943167042451
3930.0667,0.6946819395987495,940.7633640011101
3930.9731,0.694353085561326,1201.709120901498
