wavl,flux,ivar
3566.9744,1.795963391873398,607.7621439466092
3567.795,1.7909859057146496,640.2782375943399
3568.6177,1.7854074854000326,594.1421127517596
3569.4385,1.7803296077701094,584.6282944229138
3570.2617,1.7764277509483917,671.2215274661743
3571.083,1.773763750765583,585.3395572618733
3571.9065,1.771894029372515,542.9660017838778
3572.7283,1.7703501596119577,590.7919758908156
3573.55,1.7688292065974234,677.0049662098754
3574.374,1.7671812628143262,646.0942014816843
3575.1963,1.7654887717636547,692.220527092676
3576.0208,1.7642928459456608,615.7518447686004
3576.8435,1.7645891218246599,612.7035369813916
3577.6682,1.7671459106035852,660.4849134814971
3578.4915,1.771644327149631,600.9206203069411
3579.3145,1.776556147467122,546.772985313356
3580.14,1.7799770858341004,614.0125767855184
3580.9636,1.780731298622103,599.2184911145165
3581.7893,1.7789576862849523,614.3940292838168
3582.6133,1.7757164101819831,672.5558333751381
3583.4395,1.7721432749572608,629.0453498346703
3584.264,1.7688754617385265,609.7831364251755
3585.0884,1.7658887476071647,653.5312520172606
3585.915,1.7628455366727396,600.6224160442678
3586.74,1.759547703993942,559.1437101794629
3587.5671,1.7560517244941904,645.7513850493913
3588.3923,1.7525247069917496,618.4624091826181
3589.22,1.74889935328272,597.5472625062082
3590.0457,1.7449831461522467,614.5090164597603
3590.8716,1.7407142033037268,611.4589089053119
3591.6995,1.736432117402026,580.6139080151665
3592.526,1.7328045643813021,652.1780284061495
3593.3542,1.7304020510475029,683.6832542511119
3594.181,1.729414841472542,585.4948550784976
3595.0098,1.7295566487374818,600.3588092288883
3595.8367,1.7302699827612626,675.8725961474992
3596.6638,1.730875842459267,626.2472704421965
3597.4934,1.7305967087131355,619.3694773182693
3598.3208,1.7287497267089562,598.9961439530884
3599.1506,1.7252380544304828,536.3143456333092
3599.9788,1.7209512068345654,584.3195666269872
3600.8088,1.7173238430410591,689.7221484450514
3601.6372,1.7154386575618181,629.0777404347892
3602.4678,1.7152985062457153,575.2731954797921
3603.2964,1.7159935532182964,707.8038065963757
3604.1252,1.716322564960125,621.7697378343223
3604.9565,1.7153529983246292,658.6252367888746
3605.786,1.7127462863146303,587.4620790554509
3606.6172,1.7088467482696161,707.559802774045
3607.447,1.7045984757416306,771.1077138609268
3608.2788,1.7011267532579912,585.4159636499655
3609.109,1.6993792651789625,707.2576222916207
3609.9392,1.6997641687120875,748.2523977153539
3610.7717,1.7020018829083239,727.7278121562558
3611.6023,1.7050774994823787,610.8943176442403
3612.435,1.7076451301712798,651.5001863786921
3613.266,1.7086896467338912,654.7980182517381
3614.0994,1.7081329417823337,725.7272162358084
3614.9307,1.7067301760744191,645.8422767948601
3615.7625,1.705405437193313,789.2834386789236
3616.5962,1.7046388688100333,740.3929869727962
3617.4282,1.7043643246077669,677.2493406628391
3618.2625,1.7042534119478803,655.6264260336395
3619.0947,1.7040004827503676,731.7441932012372
3619.9292,1.7033766122134018,638.5695315903114
3620.762,1.702214378028935,709.6205432112382
3621.595,1.700462562719611,630.3001687061054
3622.4302,1.6982875214644817,708.2599707221397
3623.2634,1.6960605118761107,735.5517928799848
3624.0989,1.6941045906977723,785.8226224128771
3624.9326,1.6925314949687016,689.6142453170727
3625.7686,1.6912343761147621,661.4596953934787
3626.6028,1.6901270370945047,666.0476388329187
3627.437,1.6892185762220886,734.4928885712146
3628.2734,1.6884662028813144,659.5680869575846
3629.1082,1.6875616338808788,674.1570616134646
3629.945,1.6859164199052026,670.3053734051301
3630.78,1.6829836132625735,744.0830635070504
3631.6174,1.6786648619833502,660.977665997774
3632.453,1.6736807844621866,633.3706799634826
3633.2883,1.6693603814240376,631.5593470195522
3634.1262,1.6670225749674155,779.4807748018303
3634.9622,1.6671839447625978,671.2630759493557
3635.8005,1.669163804167337,710.0062632693914
3636.637,1.6715194100297583,640.4503149192161
3637.4756,1.6730190711681778,704.3475222592684
3638.3123,1.673336587811367,691.3138665633307
3639.1492,1.6730050485473273,695.7898409446263
3639.9885,1.6726893432394714,612.5988088575317
3640.826,1.672593595687523,674.0931252866167
3641.6653,1.6724796898698613,583.0295985839758
3642.5032,1.6721064860145554,774.454664926585
3643.343,1.6715019784423748,628.1564596405341
3644.1812,1.6708490249299452,807.3611025807404
3645.0195,1.6701956282459391,758.3841073751847
3645.86,1.6693429765356138,671.822588927377
3646.699,1.6679879605832333,694.2419676490083
3647.5398,1.6659305605417452,775.8209405590836
3648.379,1.663217757537728,700.9518426601038
3649.2202,1.6600878364454088,660.9158062395778
3650.0596,1.6569653170302137,729.5890079274236
3650.8994,1.65436010688666,730.3158013330496
3651.7412,1.652767219072431,615.9092126169656
3652.5813,1.6524165221881104,626.6830562252345
3653.4236,1.6530784585479648,696.0781685407192
3654.2642,1.654207653055509,724.3602022648075
3655.1067,1.6553457049062954,647.5131485101034
3655.9475,1.6564125692782914,707.4346445161153
3656.7886,1.6576510224764966,647.9019321158964
3657.6318,1.6592337917926365,698.5127453852103
3658.4734,1.6608959743829723,703.506006595181
3659.317,1.6619888280546036,810.0641472595295
3660.1587,1.6619313349862843,612.9797360753872
3661.003,1.6607889428404081,634.8507520960552
3661.845,1.6594015090983345,655.8151318439157
3662.6875,1.6588480784781163,716.1774395378494
3663.532,1.659700280487792,643.6931792950536
3664.3748,1.6616481020703664,613.1590065276841
3665.2197,1.6638308289070511,708.3097116163867
3666.063,1.6654589955351116,621.6829768152583
3666.9084,1.666300441419869,691.5565085127781
3667.752,1.666662558792241,670.1792841481878
3668.5977,1.6670742001282952,668.056498105178
3669.4417,1.6678220355543896,730.9372458422507
3670.286,1.6686571611987921,685.9006056404357
3671.132,1.6688742769495624,574.7434113065825
3671.9768,1.6677762256883442,675.6020748967719
3672.8235,1.6651613246597212,691.3140805697948
3673.6685,1.6614525264140143,676.2469849620925
3674.5156,1.6573515605542046,698.5339623171623
3675.3608,1.6535134816990027,710.4821803953784
3676.2063,1.6502709795423876,621.9840620373601
3677.0542,1.6476669515976357,675.5484839758745
3677.9,1.6456075011085423,736.9120977679684
3678.748,1.644022134521145,717.5660212214771
3679.5945,1.643020788276054,659.5956450447324
3680.4429,1.6427150935745978,707.0911121815525
3681.2896,1.6429208524995946,787.0571016469659
3682.1365,1.6430258413316101,718.1710933962078
3682.9856,1.6422891253492204,699.3209557684964
3683.8328,1.640351558737182,718.0361152200819
3684.6824,1.6374478483775723,671.8843388232758
3685.53,1.6342242987952764,742.6166248860695
3686.38,1.6313150619119006,761.2771739235953
3687.2278,1.6292341314811551,712.1399632563412
3688.0762,1.628344955612904,707.7799249425823
3688.9265,1.628835005512925,691.9845209751855
3689.7751,1.630529644499782,678.1101624159002
3690.626,1.6329229670809537,787.7862022625254
3691.475,1.635511783043884,645.6192341085401
3692.3264,1.6382306697938578,685.5024879663646
3693.1758,1.641373845590082,687.5796358883088
3694.0254,1.6451466337893914,658.0862815051521
3694.8772,1.6491632904465783,686.039314855857
3695.7273,1.6524414656512647,749.094874251707
3696.5793,1.654041986317476,624.6280987927249
3697.43,1.6536659057017375,710.8613320268123
3698.2825,1.6518126973857108,736.4439874353612
3699.1333,1.6493111769060143,723.6411717469365
3699.9841,1.6466962645679277,689.5411066635864
3700.8374,1.6440154300234915,665.1036443878354
3701.6887,1.6411262015596362,705.1228019154404
3702.5425,1.6380105996784364,670.6491597077259
3703.3943,1.6348907942065218,732.9201375369864
3704.2483,1.6318867269883917,788.1226808156406
3705.1003,1.6288326511416231,733.8975497434237
3705.9526,1.6253775165078475,646.1338595781773
3706.8074,1.6214347313741564,742.8083213759006
3707.66,1.6174270477755142,729.2952045438641
3708.515,1.613910636352556,722.7345508525797
3709.3682,1.6111269046715377,795.1385255832248
3710.2234,1.6087350486813958,709.9827523486197
3711.0771,1.6061975709353453,677.8999757845554
3711.9307,1.6032495905899844,776.251560739291
3712.7866,1.6000657677640313,830.9035346277556
3713.6409,1.5970353264310646,753.1267107725829
3714.4973,1.5944344895255014,719.1742924056776
3715.3518,1.592507542429978,813.6626108604177
3716.2085,1.5915725968302408,690.2959632459292
3717.0635,1.5919615623991095,767.2320786144976
3717.9185,1.5936439519058319,691.8463291410797
3718.776,1.5960103940848593,729.0334731168077
3719.6313,1.5980259082472816,702.6173254872699
3720.489,1.5987583632651563,731.4778336380335
3721.345,1.5977634412602582,723.4131727261187
3722.2031,1.5952012732891079,870.9758830623214
3723.0593,1.5917102875812026,838.2758810356746
3723.9158,1.5881408092958544,695.6560682415227
3724.7747,1.5853232292889863,773.8125286162539
3725.6316,1.5838103878105414,807.8316278498598
3726.4905,1.5835961063945811,848.6034862325629
3727.348,1.5841352564196975,713.1274451011644
3728.2073,1.5846476054152805,743.7045051548793
3729.065,1.5845575646365797,726.4146477241189
3729.9229,1.583715073116432,751.0638372107755
3730.783,1.5822562681339818,781.7235939779416
3731.6414,1.5803831759684217,724.9112975870581
3732.5017,1.578239172522096,831.8491058512999
3733.3604,1.5759524895098478,716.2888555655863
3734.2214,1.5735947536376367,721.0427991770706
3735.0803,1.5712041741115559,782.069402573904
3735.9417,1.5687649108320658,746.8935018622401
3736.8013,1.5663107312417357,760.0287780507605
3737.661,1.563903890418134,777.3965408872987
3738.5227,1.561639579562944,786.9136311376906
3739.3828,1.5596255258910097,836.0822254254495
3740.245,1.557851379160969,769.1642692962862
3741.1055,1.5561186689471929,739.7954002471856
3741.9683,1.554056840619966,731.1241190190259
3742.829,1.5514583006447695,773.8009546513346
3743.69,1.5485656295978458,681.8850225943357
3744.5532,1.5460794788682541,728.5913043456187
3745.4148,1.5447812850572074,776.1748795621075
3746.2786,1.5450204783702077,904.3336589483586
3747.1404,1.546557794095342,916.5768750273899
3748.0044,1.5487719379295533,749.509250639449
3748.8667,1.5510252191758247,756.0470518447097
3749.729,1.5529985743772645,875.6049801033716
3750.5938,1.5547186010697787,773.6572585441932
3751.4565,1.5563367731641327,842.049406235698
3752.3215,1.5579276225510574,793.2174771519974
3753.1848,1.5594117704626538,764.0990405058023
3754.0503,1.5606827992290806,821.2339011193393
3754.9138,1.5616258568462342,714.4254796366291
3755.7776,1.5620948168841438,716.0224344552364
3756.6438,1.5619122792856694,733.6010454770377
3757.508,1.5610002766167133,782.0310258540638
3758.3745,1.5594542209067288,818.2835632476513
3759.239,1.5574853533847972,808.7093353127881
3760.106,1.5552717540851435,788.9170177857987
3760.971,1.552984264025406,780.2554494878807
3761.8362,1.5508186775787167,861.2747757941258
3762.7036,1.5489936087829488,876.2739863062951
3763.5693,1.5475663318945603,820.6638864637549
3764.437,1.546197692590827,788.1278490847575
3765.3032,1.5442546868258817,754.5356941163682
3766.1714,1.5412391096836273,749.9676192603354
3767.0378,1.5373347667516821,706.2181503017434
3767.9043,1.533427426387739,808.7491393628595
3768.7732,1.5306024498001682,853.6987597978724
3769.6401,1.5294984831155016,869.4692372654267
3770.5095,1.529971576999179,799.0687250403612
3771.377,1.5313140864048407,814.9327534861071
3772.2466,1.5326578977231093,768.8110706015966
3773.1145,1.5332959058308675,763.3836483496901
3773.9824,1.5329174506380174,763.3544159431601
3774.8528,1.531688080322135,761.9344707708598
3775.721,1.5301956120053486,774.4468812712346
3776.5918,1.529182308972888,865.0458828702233
3777.4604,1.5292837056836495,744.8808760402892
3778.3315,1.5308240745792148,861.7467370667315
3779.201,1.5337269040664039,943.709058089883
3780.0703,1.5374989671728783,804.891696068629
3780.942,1.5412754546050704,716.1516322849711
3781.8118,1.5439686417766447,722.4444582628444
3782.6838,1.54464842732813,789.2146999689302
3783.554,1.5428757242537772,739.0907028255272
3784.4265,1.5389635032287254,813.9514379463892
3785.297,1.5339739834962953,814.2102266432379
3786.168,1.529252467662601,784.1342495010507
3787.041,1.5258308129382239,829.9909762756758
3787.912,1.523978213512214,745.6468785003116
3788.7856,1.523178362782137,827.7332739635324
3789.6572,1.5226451718220817,850.7308326325976
3790.531,1.5217860745299987,793.5284136521273
3791.403,1.5203276368006244,841.5343767641476
3792.2754,1.5180931836329727,770.5783796649213
3793.15,1.5148451016236357,900.5221874176236
3794.0225,1.5104132997778261,792.3163446958661
3794.8972,1.50483291193686,838.0042502123098
3795.7703,1.4985150991458336,800.8050293668375
3796.6455,1.4921252367406332,865.521839739845
3797.519,1.4866162599300978,880.804872719205
3798.3926,1.4829499659748342,914.4175123705587
3799.2686,1.481791978732876,888.95438342985
3800.1426,1.4831067200045045,872.4725535392511
3801.0188,1.4860472233651891,748.8825648310313
3801.8933,1.4893473798858543,788.9499751412579
3802.77,1.4920583340687659,871.6093272662242
3803.6448,1.493986440369202,973.6780367706341
3804.522,1.4956849275998736,786.7607491765885
3805.3972,1.4979476908151137,889.0090548134476
3806.2727,1.501385943848215,810.421381197064
3807.1504,1.5062323316027797,931.2381620081579
3808.0261,1.5122966015573212,874.2926353935525
3808.9043,1.519096654348192,794.3231883745742
3809.7805,1.5258213520217365,741.1733340195533
3810.659,1.5316352242628783,713.5504732439548
3811.5356,1.5358105740025418,865.8610619084052
3812.4126,1.5380320329219004,787.2212704838136
3813.2917,1.5384309052025118,769.0046601160544
3814.169,1.5375383613236557,865.7226695056606
3815.0483,1.5360414099805384,779.1154007683336
3815.926,1.534443451247336,721.2376358136372
3816.806,1.5328088963997544,817.7356489804973
3817.684,1.5308513370884524,834.0905447681787
3818.5623,1.5281845392182687,781.0333331948385
3819.4429,1.5245547349144382,837.7778413453286
3820.3215,1.5199274620070329,816.9465197358752
3821.2024,1.5143877372145311,816.6377167344535
3822.0815,1.5082316060720227,776.7563422062921
3822.963,1.5018460919045207,934.6823391862192
3823.8423,1.4956216974190075,851.1432059340534
3824.722,1.4895548717528366,854.8260883016989
3825.604,1.48318027022949,834.1985741330493
3826.4841,1.4758584440773568,847.5706122833466
3827.3665,1.4671130226125393,819.6990709334533
3828.2468,1.4571084765676918,897.2199636596731
3829.1296,1.4464606160712326,875.010673181563
3830.0105,1.4360606082836274,859.0303322702001
3830.8916,1.4264463837421983,875.6956295466327
3831.7751,1.417698764223669,960.6673388789378
3832.6565,1.4097046399395643,949.2217914584386
3833.5403,1.4024035522629335,996.6524006556326
3834.4224,1.3962058033374327,1100.1216295117285
3835.3064,1.3917798079424808,965.5601763496616
3836.1887,1.3898288351169514,1057.4037144857627
3837.0713,1.390667798494293,897.900095848736
3837.956,1.3941230883994515,992.3152430349561
3838.839,1.3996439572875243,1016.8978030116632
3839.7244,1.4067339769355252,865.7484457547862
3840.6077,1.4151621016868938,1035.6283184576562
3841.4932,1.4251297854242135,968.1032451919901
3842.377,1.436875228144885,1089.089817919692
3843.261,1.4504480905101707,845.4356460279273
3844.1472,1.4653667028478856,875.4834913914573
3845.0315,1.4804895014743695,886.9171454316764
3845.9182,1.4946054179836432,849.3754785190619
3846.803,1.5066726426032095,794.6702793515985
3847.69,1.516458968757484,815.8267083028768
3848.5752,1.524304725946896,804.310524325131
3849.4604,1.5309320964550002,842.2300981090037
3850.3481,1.536968222697868,803.5874056367487
3851.234,1.5427148007441303,834.8835540534537
3852.122,1.5482785493224127,778.6298822369636
3853.0083,1.5535104562567525,893.5987184685433
3853.8967,1.5581299421467143,756.0904807330786
3854.7832,1.5617268778411562,803.5561531108992
3855.6702,1.564053315064773,754.9120167437792
3856.559,1.565130423760148,781.0558929011904
3857.4463,1.5652124860753722,763.8482875397319
3858.336,1.5646151091859792,773.9796552097632
3859.2234,1.5635599324219371,822.1640910458935
3860.1135,1.5621246171521674,762.6083288093783
3861.0015,1.5603198793715447,803.954623911251
3861.8896,1.558153872317517,780.9106624355168
3862.7803,1.555712280717492,860.8260866701036
3863.6687,1.5531849125080754,826.6028532617546
3864.5598,1.550713465713891,820.2002588584355
3865.4487,1.5482588435528182,734.9452483734852
3866.34,1.545422237505904,841.9179902705491
3867.2297,1.5415818302987756,791.0812971184155
3868.1213,1.5361314967975237,768.2330041700396
3869.0112,1.5289025562042415,742.1493130493416
3869.9014,1.520281545429424,861.1831935618222
3870.7937,1.5111213806293886,813.3357361017645
3871.684,1.5024271698136642,836.5544038323122
3872.577,1.4947139074073772,870.5116189456517
3873.4678,1.4878235308384482,844.8641378515337
3874.361,1.480803011967594,818.692301823905
3875.2524,1.4725178131696046,872.4043645766695
3876.1438,1.4621738835241644,911.3503752152762
3877.0376,1.4497006371385068,864.9593021837098
3877.9297,1.435718888696961,934.7014882620963
3878.8237,1.4209005879080723,870.4696110251166
3879.716,1.4058611897524178,929.4904069416318
3880.6108,1.3908183334549513,1039.7010618050483
3881.5037,1.3758806583537118,971.9167438508937
3882.3965,1.360819618084057,972.8216675902323
3883.2917,1.3452495174452552,1029.7540142964692
3884.185,1.3289734827933994,1045.2755601004837
3885.0808,1.311989034321236,1171.125547964765
3885.9746,1.2949849634372195,1136.8906234407582
3886.8706,1.2789951436987808,1144.5400886504342
3887.765,1.2655081253363463,1102.2820164961254
3888.6592,1.255907744630784,1181.6181936813223
3889.556,1.2512326177848203,1237.8888696762008
3890.4507,1.2518606565366122,1328.716417422595
3891.348,1.2573971629852463,1203.7747813343306
3892.243,1.2669806684768201,1121.0175276894981
3893.1406,1.2798457868068678,1262.1484118428916
3894.0361,1.2953337324525833,1037.294187983944
3894.932,1.312974164890371,1024.20669240182
3895.83,1.3321624563717769,1026.8765848906844
3896.7263,1.351962998265191,1017.5945963965543
3897.625,1.3716566446647382,1009.6420366807229
3898.5215,1.3906406394473825,1081.8642549701235
3899.4207,1.4089621279742348,926.204444288943
3900.3176,1.4267727590834012,957.8284104570305
3901.2148,1.444346269543227,852.8695434302728
3902.1145,1.4616512994235973,874.2020593617128
3903.0122,1.4782574510110684,869.1777489990291
3903.912,1.4938726197265402,793.6203347367596
3904.8103,1.5082482743445995,880.8019502103671
3905.7107,1.5215029517871208,901.388664080079
3906.6094,1.5338581718764703,794.451267279501
3907.508,1.545811415219786,757.7291326789987
3908.409,1.5579208504911617,846.1981652939842
3909.308,1.5704971768625189,873.668218713677
3910.2097,1.5836722008012474,729.8791068071956
3911.1091,1.5972351239177351,779.2479546929741
3912.011,1.611011344220194,768.059044974204
3912.9111,1.6245809832444895,699.0820396900642
3913.8113,1.6374433360556049,705.4085211700983
3914.7136,1.6490294809792212,697.0437123914214
3915.6143,1.6589084859226628,648.0158311362775
3916.517,1.6671933776224925,671.0858796201421
3917.4182,1.674302166170648,636.0549880111607
3918.3215,1.6807297973969406,663.2196567188274
3919.223,1.6865205294131849,658.4589868271529
3920.1245,1.6913136568568325,659.6844006358509
3921.0286,1.6946479646986363,601.3514600309496
3921.9307,1.696407344215817,630.9814687272234
3922.835,1.6969981243827903,699.4836736549172
3923.7373,1.6970367436236609,639.9257401427375
3924.642,1.6970177830192927,620.1889052471813
3925.5452,1.6971809423093305,666.6762552524946
3926.448,1.6975706332213958,676.4859667123415
3927.3535,1.6981068116383198,654.0025884258995
3928.257,1.698598574803717,613.8417848347341
3929.1628,1.698767142007188,670.6626294705968
3930.0667,1.698255412792936,685.2908831225262
3930.9731,1.696639065223298,694.7048244013063
3931.8774,1.6935180509007859,647.5156663725486
3932.782,1.6886844155413212,670.9100959618532
3933.6887,1.6823279940986344,629.9743563271194
3934.5938,1.6750924673137968,790.2267824299054
3935.501,1.6676764658730365,736.3386254419155
3936.4062,1.6605623882856115,681.8770213830278
3937.3142,1.653707405255502,675.1876310540013
