wavl,flux,ivar
3566.9744,10.121626762386411,59.13594661077716
3567.795,10.103115930572297,62.44662261865172
3568.6177,10.084535895488196,65.75012519506004
3569.4385,10.066337216064646,63.94828029970842
3570.2617,10.048300611950285,62.774388955929055
3571.083,10.031003265258166,63.70843230838045
3571.9065,10.015837580224817,66.55297994553186
3572.7283,10.004586668048697,66.89444786293238
3573.55,9.997908377341615,60.68162519477434
3574.374,9.994882971537981,67.17878525229763
3575.1963,9.993519408806515,65.33092518413957
3576.0208,9.991862396946356,61.833265763732534
3576.8435,9.988982755693021,66.97573612890325
3577.6682,9.98509268336296,68.74613684249591
3578.4915,9.980987364371451,66.02734475886133
3579.3145,9.977239566857588,69.22802180630794
3580.14,9.97391711214828,66.43043309520952
3580.9636,9.970702254730584,67.85276896505486
3581.7893,9.966843235762099,67.29208365733825
3582.6133,9.961179697918787,69.83630739065815
3583.4395,9.952475062468533,66.54559509649808
3584.264,9.940426034760865,61.702950338287984
3585.0884,9.926073839460965,72.44570029886799
3585.915,9.911326622726978,62.15804954033435
3586.74,9.897907675727113,68.83068710471431
3587.5671,9.886164368320665,65.91413848000062
3588.3923,9.87507954451878,67.58575980342621
3589.22,9.862358542618145,65.97574727378262
3590.0457,9.84542723696312,69.48742826765873
3590.8716,9.822341843520515,68.22903301039479
3591.6995,9.793091212617767,65.07445020775017
3592.526,9.760439567921942,67.67669500214284
3593.3542,9.728767982736725,70.6623090260068
3594.181,9.702624281414492,69.75254886092576
3595.0098,9.68414831414518,69.21684230825254
3595.8367,9.672678805558439,74.97685051430375
3596.6638,9.66523761813672,68.09159537784949
3597.4934,9.658575976399817,66.93469793360141
3598.3208,9.650920408361936,68.8326140069646
3599.1506,9.642550458609088,65.04221445039484
3599.9788,9.635359068449494,67.87724552975907
3600.8088,9.631153118835671,69.6172994134308
3601.6372,9.630161505268415,71.10687528379327
3602.4678,9.630401209731989,68.56800117920847
3603.2964,9.628841146704188,66.24539919042975
3604.1252,9.623656758613844,69.98848061669747
3604.9565,9.615892499152972,69.83994435596234
3605.786,9.609139358727466,69.60090434645183
3606.6172,9.606943779349777,71.48099117434205
3607.447,9.610246464114232,71.54756902501978
3608.2788,9.616468989617168,68.96471539175052
3609.109,9.620811275846238,70.52567378210327
3609.9392,9.618663373516158,70.0003879620009
3610.7717,9.607365865691229,71.63980887015637
3611.6023,9.587120370046456,71.61613889236413
3612.435,9.560574162316634,72.5568147210517
3613.266,9.532351021221954,68.61545473766256
3614.0994,9.507164610642118,73.14991508785782
3614.9307,9.488506565109605,74.37196194395264
3615.7625,9.476849106612995,73.12350858537785
3616.5962,9.470037501702576,72.7498965372742
3617.4282,9.464988184289341,75.90803469697843
3618.2625,9.459725363847689,71.96856651769244
3619.0947,9.454271966024963,73.82870440516426
3619.9292,9.449513542012985,73.09203593730717
3620.762,9.44570420696381,72.98982546413013
3621.595,9.441734582003958,71.38532129179349
3622.4302,9.435755166356982,76.57196202066625
3623.2634,9.426343801353397,73.90868851504374
3624.0989,9.413265981321526,74.82745081030437
3624.9326,9.397956149434536,75.54726636819302
3625.7686,9.382948109482085,75.13123610879494
3626.6028,9.371291405596997,72.92904860886519
3627.437,9.365195989134607,75.41779799868061
3628.2734,9.365086879005217,75.80048301127343
3629.1082,9.368931875581781,71.72892418950833
3629.945,9.372586842205436,73.23134950319849
3630.78,9.37127406907061,77.92469011865552
3631.6174,9.361764148331892,68.9557713271327
3632.453,9.344112626410924,73.64572832457857
3633.2883,9.321512453231719,76.22330836945191
3634.1262,9.298362801651145,78.56107277755544
3634.9622,9.278054123431092,75.772941971767
3635.8005,9.26143333339793,74.59983399966562
3636.637,9.247956708540949,79.24725706443185
3637.4756,9.236611154169712,74.2548569226315
3638.3123,9.226689878973643,71.83441955100581
3639.1492,9.217454124622158,79.37980897594927
3639.9885,9.208340400204122,79.89629940142198
3640.826,9.19948581901752,80.57176615772742
3641.6653,9.191736797664925,78.08712761502572
3642.5032,9.186289287436152,79.8310832092541
3643.343,9.183685934052326,78.98298169151317
3644.1812,9.18330941867745,76.08180327752477
3645.0195,9.183468047134387,80.92589197739129
3645.86,9.182213167519814,76.91118823343946
3646.699,9.178333803230055,82.03822117559814
3647.5398,9.171987644970102,70.6962333817452
3648.379,9.164771820504429,77.86076777833419
3649.2202,9.158879068315958,73.86860751322439
3650.0596,9.155981880457084,77.07241869787167
3650.8994,9.15613613567578,79.17546599860557
3651.7412,9.15782929923854,73.02351057167925
3652.5813,9.158959048735145,77.71660418280479
3653.4236,9.158217458107224,76.88748715318606
3654.2642,9.155829705217647,78.9912115098203
3655.1067,9.153182363197882,75.1362673244823
3655.9475,9.151763124125656,76.8417738093236
3656.7886,9.152278996710619,77.48884765681713
3657.6318,9.154704248326825,77.06174504115626
3658.4734,9.15877756224632,79.29673543534508
3659.317,9.164377804217072,75.6546764147211
3660.1587,9.171380901382355,76.66225724959966
3661.003,9.179609386131295,80.73550596835857
3661.845,9.188641695309173,71.61126325185529
3662.6875,9.197891344098796,76.16990712615203
3663.532,9.206405199257874,73.89338462125598
3664.3748,9.212807682460662,72.91787336931733
3665.2197,9.21558102785707,80.58226306606966
3666.063,9.213371928829883,76.25506489550402
3666.9084,9.205740170313593,78.0188644790671
3667.752,9.193932468619062,77.5347115943243
3668.5977,9.180676649673675,83.77377505203498
3669.4417,9.169040008227492,78.30602770890542
3670.286,9.160379678029742,77.20008045358044
3671.132,9.153604229460402,70.14489385719774
3671.9768,9.146086827496397,75.79809785445184
3672.8235,9.135490327314368,77.94900429580494
3673.6685,9.121436003610647,79.42864528210131
3674.5156,9.105493526236373,83.35332307834335
3675.3608,9.090408146133909,80.0402926162174
3676.2063,9.07843053844146,79.91764252130707
3677.0542,9.070444372935437,81.33713315770063
3677.9,9.06573902826529,83.51613578275479
3678.748,9.062456051811305,83.63545587443306
3679.5945,9.058870414310098,79.50663783982154
3680.4429,9.0542377104883,78.97283228866299
3681.2896,9.048744250870907,81.65022265129826
3682.1365,9.04251307251736,81.42625182366719
3682.9856,9.035189095139529,80.91024514628346
3683.8328,9.026709034232905,83.37971253502583
3684.6824,9.018061129386572,82.45714871089302
3685.53,9.011243633586751,78.22808318619383
3686.38,9.007900324087453,78.75726998707572
3687.2278,9.008474941551118,83.2706343112609
3688.0762,9.012274071465594,79.25773458115341
3688.9265,9.018367079509087,77.10441877916976
3689.7751,9.026057172054687,82.79881655163383
3690.626,9.034742719436103,79.55541170089165
3691.475,9.043327163067596,76.63876102220286
3692.3264,9.050440097973087,80.3970173228469
3693.1758,9.054782318527746,81.67813258687585
3694.0254,9.055516229087099,77.17385503450019
3694.8772,9.0520912780982,77.89622473922329
3695.7273,9.044323503273596,78.00296348730869
3696.5793,9.032584736804207,77.66192144870485
3697.43,9.018022817796782,79.69707809635855
3698.2825,9.002012388483069,82.85953864258518
3699.1333,8.985743772756965,81.30096421481444
3699.9841,8.969500743815383,81.9108529863691
3700.8374,8.9526693454677,81.53734559866889
3701.6887,8.934347878836,79.66167601998437
3702.5425,8.913903256893619,79.53484044650165
3703.3943,8.89215370235191,87.65725570318698
3704.2483,8.871005696073828,87.68239846529718
3705.1003,8.852874902717357,89.35961903435272
3705.9526,8.83890319793459,82.09538354821527
3706.8074,8.828395326650986,83.01032383287216
3707.66,8.819398786894112,85.39868633406334
3708.515,8.809907489923441,83.58345151943281
3709.3682,8.799196631851114,88.56155536371999
3710.2234,8.78766780408134,88.47303887232009
3711.0771,8.776152071486125,85.3038008158115
3711.9307,8.76487651042221,85.03110207130158
3712.7866,8.75338349716874,84.53252565579511
3713.6409,8.741238893473145,84.88270418461141
3714.4973,8.728538173640388,83.21834593394988
3715.3518,8.716414870876452,91.75004557214588
3716.2085,8.70652847595318,82.38044809281364
3717.0635,8.700590523251442,82.95832301531036
3717.9185,8.699397948366885,84.82873566233377
3718.776,8.702432298939359,90.31634807947282
3719.6313,8.707835880100285,86.33989755095546
3720.489,8.713049299678241,87.74277490093259
3721.345,8.715562755823322,86.86557422553184
3722.2031,8.713723288332943,85.21726120426446
3723.0593,8.707101474113168,88.21863759799683
3723.9158,8.696463461368932,85.25898111126652
3724.7747,8.683445524647427,84.57331729903433
3725.6316,8.670186554969654,85.41462737503228
3726.4905,8.658331459747288,88.63349924691023
3727.348,8.648377308095197,86.75663288307463
3728.2073,8.639122113453308,88.25165962346271
3729.065,8.628607789950333,87.3439755131348
3729.9229,8.615530534341545,85.53701459207177
3730.783,8.600305277847724,90.55455757077983
3731.6414,8.584764621184407,87.19090996378903
3732.5017,8.570559811056981,90.72981499819049
3733.3604,8.55841761321717,87.60506231987601
3734.2214,8.54787355857087,90.21503863629258
3735.0803,8.537976551689923,91.28762089767109
3735.9417,8.527473765700083,87.23210671476096
3736.8013,8.515466688733397,92.27549575965456
3737.661,8.501909172812152,90.77994314572157
3738.5227,8.488170468198527,93.2910163837265
3739.3828,8.476724821738571,95.52970573035573
3740.245,8.469431461782818,92.90441984035954
3741.1055,8.466121788347106,91.01928255609378
3741.9683,8.46423288837544,88.66335288279721
3742.829,8.460564137175844,87.65601477536099
3743.69,8.453624367520174,89.45381954317541
3744.5532,8.444754389834424,93.38376764182713
3745.4148,8.437214873652731,95.51210557675995
3746.2786,8.43387832370327,89.32120128913505
3747.1404,8.435798414779212,91.38411028037672
3748.0044,8.442137200068194,93.46692249546625
3748.8667,8.451114835125708,91.46616729011318
3749.729,8.460961251198635,89.35456398880468
3750.5938,8.47004902096471,89.45058891428269
3751.4565,8.476541801695392,89.73560529153106
3752.3215,8.478718754235308,87.84867485405141
3753.1848,8.475826195308597,94.23239217877723
3754.0503,8.468998018862278,87.23649060915135
3754.9138,8.460848836447143,93.63861138824807
3755.7776,8.453511280958612,90.56467767901164
3756.6438,8.446870195178507,93.7662449278202
3757.508,8.43853981083645,87.56667444335105
3758.3745,8.425726041502953,91.28948486587205
3759.239,8.407981793286059,89.87997629406617
3760.106,8.387900291050837,94.39241727825986
3760.971,8.369828676094862,96.88369282892684
3761.8362,8.356675983110764,98.25468637843827
3762.7036,8.348532098956856,94.31380766349346
3763.5693,8.343523264473324,97.19283971575207
3764.437,8.339712461345387,96.91018319506092
3765.3032,8.336293844331816,90.85377383815306
3766.1714,8.333095240622006,94.21061966533694
3767.0378,8.329820364246507,92.83116519222574
3767.9043,8.325879214595943,93.53783049136614
3768.7732,8.320784007469241,91.7336488849468
3769.6401,8.314335738254417,96.78864173966417
3770.5095,8.30633734963692,90.24047818423958
3771.377,8.296785513388473,91.84461288225071
3772.2466,8.286125089803477,93.15425306183947
3773.1145,8.27556407814337,95.77398276860703
3773.9824,8.266452041188222,97.49687494646926
3774.8528,8.259811248706459,94.68375965811795
3775.721,8.256265444191724,94.87308949834846
3776.5918,8.256050297221279,97.52965880077151
3777.4604,8.259107146031704,97.1779371420142
3778.3315,8.26512264496804,98.51786613198654
3779.201,8.273698390576007,95.41760477212333
3780.0703,8.284512294635313,94.70097242064006
3780.942,8.29693598757981,94.64617496190864
3781.8118,8.309444193275526,95.23610641375706
3782.6838,8.319946457418718,91.7643218085993
3783.554,8.326464078116532,90.94104917258495
3784.4265,8.328192175391164,94.94455796447943
3785.297,8.325471496801654,93.99369090934685
3786.168,8.319137389856564,95.51511315723036
3787.041,8.309695365587684,94.06036474929523
3787.912,8.297310183685292,93.43397280411557
3788.7856,8.282268989163212,96.82647924003496
3789.6572,8.265961998223696,94.58469957821706
3790.531,8.250497502358774,93.6700435398635
3791.403,8.237854690909659,95.27790421284024
3792.2754,8.22842544203432,96.3740771119397
3793.15,8.220975978795197,97.75479689726777
3794.0225,8.213573680299334,95.0687937273687
3794.8972,8.204532998817209,96.21544816538598
3795.7703,8.193163737989792,94.11493809597118
3796.6455,8.179766599133329,94.84613945220555
3797.519,8.165702555496724,91.18703716106417
3798.3926,8.152652058784346,100.27651725283852
3799.2686,8.14183981168833,96.84509195044537
3800.1426,8.13346875558332,96.41879654167974
3801.0188,8.126537902578114,97.81120169151717
3801.8933,8.119624078022067,101.37188387555368
3802.77,8.11160895472048,96.49814064147832
3803.6448,8.102546612526735,106.24897439470725
3804.522,8.093706978896916,103.03800306789599
3805.3972,8.087203209308376,98.10544249449052
3806.2727,8.084818941660743,97.28888700915535
3807.1504,8.087168940817884,103.43740892076866
3808.0261,8.093174223345423,101.17045969655216
3808.9043,8.100357418435864,100.81946579195794
3809.7805,8.105770349480443,96.83975841982901
3810.659,8.107559558366331,101.75173152116344
3811.5356,8.10584809359245,100.87265370905553
3812.4126,8.102459330748001,100.82693526768276
3813.2917,8.099474453257566,96.62203033052549
3814.169,8.097813488735856,102.67524683707352
3815.0483,8.096677855016937,101.69845941317038
3815.926,8.09422546841564,100.36257950878795
3816.806,8.088788073605341,97.47435195152484
3817.684,8.079988090120205,99.12532896766214
3818.5623,8.068870728268227,101.46296947677328
3819.4429,8.057112785097557,101.59719797736744
3820.3215,8.04593141867977,98.03056345015288
3821.2024,8.03524274134225,100.24311020280712
3822.0815,8.024332776003993,100.59810272533805
3822.963,8.012627422875806,102.78918881665481
3823.8423,8.000269310962231,104.690601143621
3824.722,7.987379387971475,98.7295862236932
3825.604,7.9734848637537885,104.89369012607006
3826.4841,7.957835186065487,105.03291458139353
3827.3665,7.940153815778881,103.73379188337539
3828.2468,7.921695211451828,100.02168121595801
3829.1296,7.904508991404543,105.67947805365263
3830.0105,7.890379195520402,109.30801426950258
3830.8916,7.87933373255158,102.302118401594
3831.7751,7.86990646537106,108.15045042777281
3832.6565,7.860472333072718,105.15088952924025
3833.5403,7.850422551639494,106.51744195570474
3834.4224,7.84073294173153,109.40082806785055
3835.3064,7.833080056832835,105.48364135455395
3836.1887,7.828881629528312,106.83034237821927
3837.0713,7.828419389951505,108.54594899081108
3837.956,7.830894641743724,111.43102909667043
3838.839,7.834995708223489,107.85325174851671
3839.7244,7.839725434791161,107.10130300032395
3840.6077,7.844747522330768,102.63202330457682
3841.4932,7.850339783134234,106.21218363749654
3842.377,7.85688521121199,107.64275132374362
3843.261,7.8645604239136,110.60626284108993
3844.1472,7.873054878239703,108.27407895328192
3845.0315,7.881494093067037,102.15358352972936
3845.9182,7.888898849065737,105.41625934765952
3846.803,7.894472857545021,105.57272776192845
3847.69,7.8979060061695,99.85518032408007
3848.5752,7.899101966496663,106.90261742792441
3849.4604,7.898141247514125,107.71072178480749
3850.3481,7.895465785226707,100.40475495887345
3851.234,7.892138898060326,104.74471257026347
3852.122,7.88946150998569,106.19016956175652
3853.0083,7.888179518680344,103.85542548779034
3853.8967,7.88780473551395,107.16044705565403
3854.7832,7.886833033480199,101.7955417698032
3855.6702,7.883625060034019,105.06144908137803
3856.559,7.877391440244218,103.591783930536
3857.4463,7.8687782737816505,108.70596760253049
3858.336,7.859511695383731,104.58260897403316
3859.2234,7.851554647142097,107.88237956219959
3860.1135,7.845748995501856,106.61264948256773
3861.0015,7.841429680464971,106.68532733179518
3861.8896,7.8368618185893295,102.75414877448016
3862.7803,7.830518072648118,107.43912089180019
3863.6687,7.822020553543581,106.51018537809873
3864.5598,7.81196168615774,106.8838626280822
3865.4487,7.801419382054554,106.44929664408535
3866.34,7.7912316437966735,105.1676275665525
3867.2297,7.7821175146608015,110.04815264461672
3868.1213,7.7745456540941875,110.52240063360762
3869.0112,7.768810797060752,104.67876689859959
3869.9014,7.764842199242588,104.00157765276268
3870.7937,7.762371661267688,106.6009610762771
3871.684,7.76106260003321,103.81362324575824
3872.577,7.760378524615935,107.1710795427454
3873.4678,7.759394110124883,112.22128436579744
3874.361,7.756832283477703,105.94483156301332
3875.2524,7.751594015367029,111.9286825902099
3876.1438,7.743273808167137,104.86904716053517
3877.0376,7.732229717882962,109.18357229310939
3877.9297,7.7192598803578685,111.0128850413341
3878.8237,7.704904517493004,105.49634332782541
3879.716,7.6895121473130805,111.21369174126558
3880.6108,7.673161557592513,111.95964482161638
3881.5037,7.656026069088765,109.81859399570051
3882.3965,7.638019507756282,116.03273845793427
3883.2917,7.618982432758525,111.0477387417277
3884.185,7.599271945022311,114.05740953049678
3885.0808,7.5797475510180865,112.52401172571048
3885.9746,7.561858800868226,114.36423566883846
3886.8706,7.546575087462536,115.99862891239115
3887.765,7.534327194158847,117.81150281685434
3888.6592,7.5251209192509725,116.29104091113253
3889.556,7.519369970933052,114.99075168594958
3890.4507,7.518124362561137,118.96998568645725
3891.348,7.522322471399741,119.09664038607795
3892.243,7.531861259353045,112.68927959772222
3893.1406,7.545459441420789,117.00582715951865
3894.0361,7.56120184176418,113.16869729681454
3894.932,7.577772088213097,113.97865650662065
3895.83,7.594763863006488,111.55647841468128
3896.7263,7.612161107151251,112.39141215224477
3897.625,7.629907029327362,114.14117561513784
3898.5215,7.647188047802834,113.64986421044723
3899.4207,7.66314928546709,108.61162985736382
3900.3176,7.677337417109005,115.1662961607006
3901.2148,7.690526706443061,110.23837125150966
3902.1145,7.704309283717217,112.06565626776994
3903.0122,7.720149259050561,105.56308547008031
3903.912,7.738810214542155,111.135833430577
3904.8103,7.759783281126491,109.43838134049255
3905.7107,7.781948668138872,108.98013923968061
3906.6094,7.803847268224425,108.21103897108434
3907.508,7.824428564227657,105.03604784954062
3908.409,7.842891788515853,105.00607172505075
3909.308,7.858379247372459,105.26789325743871
3910.2097,7.870354884894523,106.47062916666803
3911.1091,7.878692775907503,103.45433825213259
3912.011,7.884082362249371,105.95945362641723
3912.9111,7.887578517799351,108.68841464194004
3913.8113,7.890245209560565,102.3033986028181
3914.7136,7.892775652885346,108.15896537799304
3915.6143,7.895315894103647,106.3534291389611
3916.517,7.897478668941933,104.0376157750927
3917.4182,7.898554683376747,99.03928199069652
3918.3215,7.898054088325134,105.63767302025664
3919.223,7.89605500800909,105.31723598352708
3920.1245,7.893079530095184,104.81853261886157
3921.0286,7.889697509741831,102.45090548030169
3921.9307,7.886314644606726,102.74440312541182
3922.835,7.8830458506164485,105.84069887463899
3923.7373,7.87970752308004,101.53179117397961
3924.642,7.875776157144143,104.69654477679394
3925.5452,7.870775226814027,103.69190662988724
3926.448,7.864675096156476,107.2254703880515
3927.3535,7.858022651522933,105.15794284028564
3928.257,7.85156481857135,107.15976226384092
3929.1628,7.8453824338901725,106.10433429418487
3930.0667,7.838602714269663,109.12148697246808
3930.9731,7.829685649621933,102.91535384990395
3931.8774,7.817658850853759,106.23905151150772
3932.782,7.802884673411012,107.40038838938806
3933.6887,7.787084765990655,109.97008666318777
3934.5938,7.77246319757969,110.16810649656108
3935.501,7.760265019855809,109.92733232192128
3936.4062,7.750407241665106,113.96483959421651
3937.3142,7.741475998358473,107.90569921594371
3938.22,7.731676066041816,109.54223052928333
3939.128,7.71940911649941,110.44225173742089
3940.0342,7.703986109342375,114.41263003007064
3940.9407,7.685557775715781,109.50475730997003
3941.8494,7.664861453719667,107.40071808254874
3942.756,7.642798836027868,116.70835435491958
