wavl,flux,ivar
3566.9744,1.1910593707264239,659.0963523763743
3567.795,1.1929184286301249,579.4356144357843
3568.6177,1.1946525408864432,644.6756250061657
3569.4385,1.1953782098494952,517.152265692585
3570.2617,1.1944598474413404,632.5508289498009
3571.083,1.191851223258149,589.0984433958581
3571.9065,1.187964387464448,550.2058843350247
3572.7283,1.183320838776313,699.5309032264852
3573.55,1.178260816578473,671.7274772204719
3574.374,1.1730926695814585,585.0819805709707
3575.1963,1.1683158268360216,747.6378271772116
3576.0208,1.164362583012799,663.2592177244538
3576.8435,1.1613066273834574,630.9109793149706
3577.6682,1.1586988179897244,687.0150680320511
3578.4915,1.155943821834235,570.6982643134592
3579.3145,1.1526463122477113,657.5257343942475
3580.14,1.1487901639109557,704.099567821628
3580.9636,1.1447356935681086,848.8865707398592
3581.7893,1.140959565609606,687.0918390316056
3582.6133,1.1378975329136953,688.5856851801123
3583.4395,1.1358106300664867,738.286623142412
3584.264,1.134969702731964,791.7050380814625
3585.0884,1.1357120571954282,759.6907680090134
3585.915,1.138299409317758,858.8989805348958
3586.74,1.142538701245628,843.9691129483267
3587.5671,1.147670614997077,707.0258120939604
3588.3923,1.1525414149432032,767.5875669678743
3589.22,1.1561931945218398,634.7496177168912
3590.0457,1.1581695982169355,661.8332528079851
3590.8716,1.1586834648247017,769.2421853492467
3591.6995,1.1583995892494485,668.066591246643
3592.526,1.15809401514884,640.1122137045921
3593.3542,1.158186431335325,844.5773554260314
3594.181,1.1584118573432893,702.2969352004133
3595.0098,1.1579599313317916,710.7019170981358
3595.8367,1.1561047080922842,817.9451939875634
3596.6638,1.15280008879766,531.9074546227473
3597.4934,1.1486596194708467,731.596162811767
3598.3208,1.1443996258606042,609.0344634186789
3599.1506,1.1402255617181039,570.7180224569825
3599.9788,1.1360506756204007,791.436993771279
3600.8088,1.131985776170294,740.5135631249696
3601.6372,1.1286883729981327,778.8456724935165
3602.4678,1.1269327649585799,643.7408127874656
3603.2964,1.1270953352768316,835.8928840708496
3604.1252,1.1289485450782433,732.6302019666969
3604.9565,1.1319951330447056,1162.8381587577376
3605.786,1.135796195023121,792.0962900778301
3606.6172,1.1401170251539494,657.0413139915868
3607.447,1.144679173339723,689.8453988509642
3608.2788,1.1490568793544846,585.1534027686895
3609.109,1.152639450757762,674.9248491688116
3609.9392,1.1549031764439932,566.0513538296975
3610.7717,1.155605505291464,562.2246862755321
3611.6023,1.1549607737389769,611.7110800660013
3612.435,1.1536372978971479,939.5536343687376
3613.266,1.1524724429435615,680.7435656336879
3614.0994,1.1519641958439133,790.6975950660324
3614.9307,1.1519387399177163,684.0167725558604
3615.7625,1.1516619814019067,592.4751222946554
3616.5962,1.1503816335603987,714.5065371275994
3617.4282,1.147868463520076,736.1371790130722
3618.2625,1.1444955597166233,670.9333221841524
3619.0947,1.1409531606609682,767.4024516113634
3619.9292,1.1377888472461948,716.8739608203615
3620.762,1.1353019307737584,775.5483560826304
3621.595,1.133503031879063,827.6647892727465
3622.4302,1.132178680501071,849.8053695962019
3623.2634,1.1309919891121445,665.5047244132793
3624.0989,1.129709378617721,806.3104577043166
3624.9326,1.128442078561275,699.7429793949085
3625.7686,1.1274898869674852,740.8260915689528
3626.6028,1.1268936154825753,900.11111087538
3627.437,1.1260636126213044,580.0513680104926
3628.2734,1.1239738526081515,691.1685337825164
3629.1082,1.1198726643269965,738.9891234596874
3629.945,1.1139148797730691,776.0688181926371
3630.78,1.1073472712932593,766.7216959139346
3631.6174,1.1018001127263146,739.3130560103323
3632.453,1.0984941447347958,905.4340285036725
3633.2883,1.097556224832177,688.1019218080968
3634.1262,1.0982049446039428,878.4795063793383
3634.9622,1.0993630800164291,919.1262760603039
3635.8005,1.1003383967452118,676.6175923910511
3636.637,1.1010996948078284,847.8775878301699
3637.4756,1.102102399645712,723.223266241969
3638.3123,1.1037887122129104,978.4543260386641
3639.1492,1.1062236136709607,840.2146896546222
3639.9885,1.1090613450007398,733.1376325975377
3640.826,1.1117095032664464,674.3065054857856
3641.6653,1.113532505866535,756.9364808303458
3642.5032,1.1139078848901505,798.5044159581116
3643.343,1.1124934316464992,765.4763804255415
3644.1812,1.1095864660420527,775.3538875638402
3645.0195,1.106228611503427,717.335369756184
3645.86,1.1038014908357623,695.0276776705244
3646.699,1.103288826561533,713.8463359731494
3647.5398,1.104709264660281,875.3378425012697
3648.379,1.1072213888481257,696.1303231225204
3649.2202,1.1097129505131298,857.1826691777097
3650.0596,1.1113155159820485,746.151602127503
3650.8994,1.1116823843344323,737.4846316007724
3651.7412,1.1109526875512723,808.7620308490284
3652.5813,1.109652968484004,570.7022459517591
3653.4236,1.108463079597187,807.3238280439596
3654.2642,1.107927246320589,734.5769636659738
3655.1067,1.1081831138053626,903.4949435509114
3655.9475,1.1089297182860829,892.6964903371211
3656.7886,1.1096487632861147,726.5457818637284
3657.6318,1.1099589285449087,1027.7226058026279
3658.4734,1.109866490857438,1037.2631712686516
3659.317,1.109747141110107,629.4062900943995
3660.1587,1.1100732235047075,794.328674871519
3661.003,1.1110598715806541,690.9608793118325
3661.845,1.1124168428174783,661.6747190394369
3662.6875,1.1134705362737494,723.9039428836036
3663.532,1.113638546069729,657.5492236650264
3664.3748,1.1129313602015156,767.1083556078552
3665.2197,1.1119401313940123,743.2816128889496
3666.063,1.1112990563203633,843.973992784803
3666.9084,1.1111581860583593,619.9659234567247
3667.752,1.1111881289360195,584.402657870623
3668.5977,1.110942343169467,774.4821783553756
3669.4417,1.1101792770287626,731.3442568595264
3670.286,1.1089690603085607,763.2818345650318
3671.132,1.1076554417486815,804.3252960255683
3671.9768,1.1066596189783264,872.0881212718633
3672.8235,1.106109471641278,764.742690722331
3673.6685,1.1056743476467685,828.273532871485
3674.5156,1.1048419171620194,755.1351887377832
3675.3608,1.10346361657775,903.5888694936812
3676.2063,1.1019468996122834,997.5238195184146
3677.0542,1.1009116057451889,716.0513006944262
3677.9,1.1006551601569203,733.7196330486942
3678.748,1.1009133418242611,792.1683710876016
3679.5945,1.1011337271008739,745.4099397420489
3680.4429,1.1009879059081917,913.4179425433836
3681.2896,1.100734468863121,714.7649939933286
3682.1365,1.1011289991543645,654.5782481443634
3682.9856,1.1028859293885425,828.5557843559802
3683.8328,1.1060171040692461,1067.8664479305014
3684.6824,1.1096323160655301,661.9028054378659
3685.53,1.1122652107494078,887.3262895271395
3686.38,1.1126870293322086,903.3180769997065
3687.2278,1.110559259783942,658.9875062404185
3688.0762,1.1066875795886821,706.6139857620973
3688.9265,1.1025715607867947,840.4690976429679
3689.7751,1.0994870784911863,759.1509835901661
3690.626,1.0976688361531146,803.2437996002293
3691.475,1.096540371290807,804.2500236475817
3692.3264,1.0956606696456195,937.1480495640454
3693.1758,1.0954960126279916,858.7241605635221
3694.0254,1.0970546674822441,787.1586572295832
3694.8772,1.1007784289376514,681.5480355785947
3695.7273,1.1057264125570168,679.2305647850648
3696.5793,1.1099836154908975,590.4695470870155
3697.43,1.1117620476286427,662.9015304843126
3698.2825,1.1105101081050295,817.6782151709198
3699.1333,1.1071598308282395,673.5886041124795
3699.9841,1.103538137085969,839.4733780947873
3700.8374,1.1013265709924334,839.1328775383345
3701.6887,1.101211095013113,897.9566971292035
3702.5425,1.1026897481972633,729.0952425742404
3703.3943,1.104636832642604,827.5804893616807
3704.2483,1.1059988840345356,747.7091233242378
3705.1003,1.1060700499875846,759.6157339517052
3705.9526,1.1045467502319568,695.7064307960252
3706.8074,1.1015845791410852,685.6666734232994
3707.66,1.0979014887501999,784.6061346258734
3708.515,1.0944355571512379,907.7607807038514
3709.3682,1.091838759060017,833.6637602792896
3710.2234,1.0900610743765986,696.4595095466108
3711.0771,1.0886158095589225,688.5661117393545
3711.9307,1.0870777916912462,848.2215641510581
3712.7866,1.0853780784315161,828.2624198930163
3713.6409,1.0836558901145334,755.396928064321
3714.4973,1.08189100769864,859.5767319084646
3715.3518,1.0798201675926735,837.816043438541
3716.2085,1.0771338433715854,743.1403871072241
3717.0635,1.0738953240357287,774.7137741965804
3717.9185,1.0706885716493402,868.9833063554529
3718.776,1.0684280897001934,880.543941129938
3719.6313,1.0678729134045728,775.7623074786549
3720.489,1.0691611971455561,762.3211798807145
3721.345,1.0718100747735997,818.5867931589115
3722.2031,1.0750752410789004,867.7457855868994
3723.0593,1.0782105957927621,783.5461899181877
3723.9158,1.0805826036397423,719.29072645989
3724.7747,1.0816742209939976,758.1541225394785
3725.6316,1.0812916424262882,767.6019338028863
3726.4905,1.0797777618484299,724.619692064978
3727.348,1.0779171773961518,686.259977650492
3728.2073,1.0765347921680337,756.3316355912101
3729.065,1.0761302337446488,717.6642600635851
3729.9229,1.076720879436995,741.1589992035742
3730.783,1.0779777677916913,814.0534483378241
3731.6414,1.0794078349708514,850.3330390080737
3732.5017,1.0805242239835477,816.0095583241546
3733.3604,1.0809350653577114,712.4085273054125
3734.2214,1.080448351705459,799.1752705638204
3735.0803,1.0791059294160916,799.6735209390845
3735.9417,1.0771573107469639,926.0267216812093
3736.8013,1.0750706242478267,728.9149349469458
3737.661,1.073462363943874,790.0567485109556
3738.5227,1.0729165231298696,906.0010668785226
3739.3828,1.0736381648583053,675.6100285724528
3740.245,1.07519760186643,753.0156681210705
3741.1055,1.0766352905980925,786.5445698398822
3741.9683,1.0769749075744397,687.0293249450443
3742.829,1.0757759785754728,670.5342212996864
3743.69,1.0733858733899049,921.2268253864135
3744.5532,1.0706445843018173,881.9283667938664
3745.4148,1.0683631971657606,612.3363640573011
3746.2786,1.0668990149647795,769.6245737329689
3747.1404,1.0662057354042742,774.2055861960176
3748.0044,1.0660544224609574,905.7734006955344
3748.8667,1.0662864934498428,547.6982449594815
3749.729,1.0669260154184947,896.9103138915159
3750.5938,1.0681674750052472,811.4362961045921
3751.4565,1.0702086919337335,814.3925277582682
3752.3215,1.073069238307987,1066.844712747979
3753.1848,1.0764276270438582,837.3074159325787
3754.0503,1.0797185505130635,854.2919555166962
3754.9138,1.08229097842517,773.2224068167084
3755.7776,1.0837463309400486,902.2741353702864
3756.6438,1.084097331874592,910.2514604517725
3757.508,1.0837304399272922,804.0152484312845
3758.3745,1.0831293058625355,872.7532944573511
3759.239,1.0825579560972944,762.9706589568998
3760.106,1.0819188763762269,730.3671067181183
3760.971,1.0808648764143414,894.5426294300069
3761.8362,1.0789821426114867,794.2571740403517
3762.7036,1.075956223555468,994.0797799083017
3763.5693,1.071777325165212,802.0146589697661
3764.437,1.0668767136430781,765.5889189843933
3765.3032,1.0621651728958716,800.138437607678
3766.1714,1.0585241664575415,958.4711583069769
3767.0378,1.0562788925356097,856.2495444953871
3767.9043,1.0549784916487772,786.7915432462836
3768.7732,1.0539096369319103,925.936793418484
3769.6401,1.0527806283173764,877.0415070140015
3770.5095,1.0519564246001392,793.6977481680194
3771.377,1.0521217795999955,898.0887712160178
3772.2466,1.0536812352210039,878.0209175709235
3773.1145,1.0564441071169264,882.8039832774022
3773.9824,1.0598056340838735,787.6590625193264
3774.8528,1.0631643586036075,802.5643654500017
3775.721,1.0662111346294008,800.567352481067
3776.5918,1.0690526516814396,774.4024039078648
3777.4604,1.0719847864046834,902.800557559488
3778.3315,1.0753088466044305,786.2490983044348
3779.201,1.0790498642800221,889.1120049888464
3780.0703,1.0829231661030125,780.8153560534664
3780.942,1.0864062574265871,892.6359486273551
3781.8118,1.0889567527612063,919.7972389163435
3782.6838,1.090335306873183,638.3903051346192
3783.554,1.0906281400309525,896.4008020168012
3784.4265,1.0899951331622824,808.6204244018505
3785.297,1.0882698773716994,744.0986487331224
3786.168,1.0849160624107124,788.8564751575632
3787.041,1.0795208661258238,794.1257668147141
3787.912,1.0725066029701908,800.3555457988615
3788.7856,1.0651893502464662,844.6326030830475
3789.6572,1.0592877662583409,1089.9892919631748
3790.531,1.0558065055603092,925.458862367807
3791.403,1.0545336409424266,823.3257562801556
3792.2754,1.0541580963602273,956.8061914223725
3793.15,1.0530263936873743,745.2857305372628
3794.0225,1.0498690261774852,791.0856392107308
3794.8972,1.0441843047704737,799.4826025555305
3795.7703,1.0364425714717644,824.5267659254614
3796.6455,1.0279681368651479,1015.3608588664214
3797.519,1.0208291887527472,837.4236797934918
3798.3926,1.0171183128397077,841.1426018495022
3799.2686,1.0181696316055084,1003.7414761385974
3800.1426,1.0238221861157129,963.4966546409446
3801.0188,1.0324346807504783,1038.9435212893914
3801.8933,1.041575137170027,801.5430890686051
3802.77,1.0492605396261478,760.0959885600408
3803.6448,1.0545896798368342,769.1404296625799
3804.522,1.0579258819716464,837.3899575790831
3805.3972,1.0602409142537692,944.6561361601374
3806.2727,1.0625168624261094,863.6059079439106
3807.1504,1.0653265176648024,838.788362644075
3808.0261,1.0687519295725185,746.7613175922218
3808.9043,1.0725264093431575,826.4542155181376
3809.7805,1.0761142240009995,840.6097175927133
3810.659,1.0789987917001147,777.9129464203127
3811.5356,1.0808928263493822,908.6670549146977
3812.4126,1.0819569233395547,723.1787366713788
3813.2917,1.0826910342995868,837.3496889554241
3814.169,1.0836382450591877,825.8712660866729
3815.0483,1.085072063261663,720.334653473502
3815.926,1.0867915086916284,799.21904373972
3816.806,1.0881751939056445,704.5559043166476
3817.684,1.0884350600462014,788.5207878683756
3818.5623,1.0870760040565983,737.2851842601294
3819.4429,1.0841704774501877,812.1294504924083
3820.3215,1.0803175190574688,742.2459493788173
3821.2024,1.0762855775393756,808.4776740843507
3822.0815,1.0728774472430944,695.110055840096
3822.963,1.070764980745916,932.667237642428
3823.8423,1.070236738539416,849.6622031852688
3824.722,1.0706429508613278,853.0849085239407
3825.604,1.0702284958641588,913.9159475432382
3826.4841,1.0668091075124964,669.1653565184578
3827.3665,1.059058541695449,881.503172594931
3828.2468,1.047448333426101,859.4433841034448
3829.1296,1.0336402956245174,872.5774949131672
3830.0105,1.0192924831532262,1007.3052137909724
3830.8916,1.0047790784915311,953.0542813977885
3831.7751,0.9894581827854798,1058.6684986294317
3832.6565,0.9729049791703817,853.1460766164125
3833.5403,0.9557198907877361,1240.4363276875968
3834.4224,0.9401507549911914,1065.317087985955
3835.3064,0.9290733723681919,1271.6698153934078
3836.1887,0.9248979177181467,1110.2779250171247
3837.0713,0.9282439231634924,1076.32066285871
3837.956,0.9378479631704889,1193.1028532032826
3838.839,0.9512504209352577,978.4462580235393
3839.7244,0.966197121800641,816.7290166761699
3840.6077,0.98121877346718,932.9910118374103
3841.4932,0.9958801011819769,1030.3374269031303
3842.377,1.0099820485614674,934.4113597381354
3843.261,1.0233332269042525,842.9776908831584
3844.1472,1.035583575280638,861.9116441265115
3845.0315,1.0463678451073737,813.5075597200496
3845.9182,1.0556347967938329,990.6345045172745
3846.803,1.0633297439466924,989.637199155145
3847.69,1.0694745829612453,915.6587851060824
3848.5752,1.0742117350922138,736.3531407044817
3849.4604,1.0782156736322506,784.7710654356731
3850.3481,1.0825925971606403,783.4774495009345
3851.234,1.0882873063783722,827.8265064352084
3852.122,1.0955423110231142,770.5664707862187
3853.0083,1.1036225946905125,777.3766104217741
3853.8967,1.1113355293105578,800.2389363617497
3854.7832,1.1175206475030561,713.8918270806729
3855.6702,1.1217137327597275,829.0071153036049
3856.559,1.1242777402919615,674.8122248671845
3857.4463,1.126150175444273,739.855376876174
3858.336,1.1282326549299377,608.6641914878442
3859.2234,1.1307356915164706,721.7624314657209
3860.1135,1.1331025350534327,704.736423118355
3861.0015,1.1344119653715743,702.8851103351747
3861.8896,1.1340691827069425,729.9277832791814
3862.7803,1.1321165280453032,696.198997852476
3863.6687,1.129115795597272,710.9801743345311
3864.5598,1.1256721021585738,727.5684141406934
3865.4487,1.1221646732707133,684.0882269554509
3866.34,1.1186454101736785,718.5586087946041
3867.2297,1.1150260583488345,683.8624791069275
3868.1213,1.111059274604412,730.749933014388
3869.0112,1.106400738710967,813.6843939708716
3869.9014,1.100672784023566,861.7855885175252
3870.7937,1.0937358486622566,740.1564356362883
3871.684,1.0859288113752579,904.8726930718276
3872.577,1.0778525508742205,803.7641530442642
3873.4678,1.0701493836877505,851.9879263925611
3874.361,1.0629728178609337,914.8975251035297
3875.2524,1.0560569376364473,808.0916536648942
3876.1438,1.0488730476894474,780.8234012100895
3877.0376,1.0410241729121663,982.8240185666696
3877.9297,1.032390549727632,791.8555426086114
3878.8237,1.0228255986066637,926.7427711167617
3879.716,1.0121631797158035,998.0720836807241
3880.6108,1.000101426225701,912.1616369172098
3881.5037,0.9865111535756343,1176.4280883951653
3882.3965,0.9712694132079513,932.2857314780927
3883.2917,0.9542890006052012,1040.0823114156224
3884.185,0.935646084039784,1071.287219986525
3885.0808,0.9152714707088337,1118.1145647011444
3885.9746,0.8934736253403973,1207.5936600927087
3886.8706,0.8710500293431732,1500.5707261541747
3887.765,0.8503082469261911,1314.3053977822149
3888.6592,0.8347027569350552,1444.8275376951806
3889.556,0.8277837592369307,1781.4374279348217
3890.4507,0.83136850731256,1493.5696248261988
3891.348,0.8444778161397011,1300.4433252028527
3892.243,0.8639924188624905,1124.7491106045231
3893.1406,0.886634532135918,1239.5679268887275
3894.0361,0.9098888822205337,1025.3506496379002
3894.932,0.9326117904469311,1163.4970111095963
3895.83,0.9543383023315318,963.1074823852038
3896.7263,0.974607897248159,1027.438695343766
3897.625,0.9931102544593928,1053.2318758791537
3898.5215,1.009388323251525,800.5331857373444
3899.4207,1.0234784899691407,854.6627482060582
3900.3176,1.0357158877779309,852.8109960371181
3901.2148,1.046852601442534,767.6389219446805
3902.1145,1.0575685667848762,789.0327434177551
3903.0122,1.068197498569356,798.15211923537
3903.912,1.0789936403939793,828.7759611440412
3904.8103,1.0901013254821055,793.025041400428
3905.7107,1.1016774999408587,815.9296370733905
3906.6094,1.1133841750824391,867.2552552425922
3907.508,1.12439272560437,714.8656806913554
3908.409,1.1336533634732862,648.8770994954707
3909.308,1.1405187240290384,665.4343465955071
3910.2097,1.1453101619537935,775.2658298403077
3911.1091,1.1489900704259295,667.7759778999641
3912.011,1.152656555819191,786.638176673822
3912.9111,1.1569339668913308,704.3994211873463
3913.8113,1.1618616341296126,709.2624169988696
3914.7136,1.167025879665846,683.3947326646999
3915.6143,1.17182669715916,715.2189067714232
3916.517,1.1758385098465995,580.4313370230238
3917.4182,1.1788441352060886,685.1511728962824
3918.3215,1.18085051336655,564.3632104682441
3919.223,1.181968426186542,586.8495710012479
3920.1245,1.18248200010349,663.4372978336816
3921.0286,1.1829167807045131,640.6889005651332
3921.9307,1.1840098451893593,676.866696050393
3922.835,1.1864442655079361,649.3041736550799
3923.7373,1.1904034929807203,795.6457538293452
3924.642,1.1953748073931307,616.6377802773532
3925.5452,1.2002469534331857,671.1016713381115
3926.448,1.2038464920608876,634.4625074930443
3927.3535,1.2053261747299904,613.9849900257392
3928.257,1.2043475671828452,596.8584226150132
3929.1628,1.2010874995362917,713.2593720971083
3930.0667,1.1960745994368527,625.3819240338263
3930.9731,1.1898429532549684,634.8490605046203
3931.8774,1.1828875322035883,700.5251121464146
3932.782,1.1758098126720362,573.2472085570927
3933.6887,1.1697317959794256,647.8820979000039
3934.5938,1.166086305965533,774.2275930829431
3935.501,1.165567546074019,695.5247112632187
3936.4062,1.1674388858237206,755.4827819594631
3937.3142,1.1699095244826143,698.7348481283357
