wavl,flux,ivar
3566.9744,7.1179325424223645,2.616982415865995
3567.795,7.104888041332516,2.5701598176085403
3568.6177,7.088937343893985,2.41436302451514
3569.4385,7.0751235020044545,2.4479355193853065
3570.2617,7.065534267775561,2.9410028444663707
3571.083,7.058617386943482,3.077002051431827
3571.9065,7.050693317289813,2.2278769100989826
3572.7283,7.0390056387046,2.3511397065394184
3573.55,7.023475739387445,3.21744135137442
3574.374,7.006854996266945,2.685711803189636
3575.1963,6.99367562708295,2.5889024076864504
3576.0208,6.987623852165064,3.128099460147521
3576.8435,6.988714708129222,2.6204107161873513
3577.6682,6.991658899827845,2.472023272836561
3578.4915,6.9883550004025725,2.572150513532096
3579.3145,6.973505026939908,3.1504353140387584
3580.14,6.948858053622847,2.5051513559019587
3580.9636,6.923018187507078,3.294273161393256
3581.7893,6.906049104219954,2.712312186120475
3582.6133,6.903880460589893,2.771647899589121
3583.4395,6.914874968046868,2.6318870776667063
3584.264,6.931225935512327,2.9206760456757017
3585.0884,6.944051335125617,2.468574443161618
3585.915,6.948451371907064,3.1870009183821173
3586.74,6.944921116130474,3.2745336783453007
3587.5671,6.936368075821715,2.8598615794579874
3588.3923,6.924097058023779,2.4085631306909994
3589.22,6.906795902480012,2.8445759832571023
3590.0457,6.8835720176906605,2.6619567306430985
3590.8716,6.856382148402973,4.030751369887484
3591.6995,6.829522086605253,3.118379630664145
3592.526,6.806548154893933,3.2065416228760446
3593.3542,6.787585234631441,2.930265295556611
3594.181,6.77059900976017,2.6262045634247237
3595.0098,6.753794021757963,2.559585115964216
3595.8367,6.737546482599468,3.0728127092498667
3596.6638,6.723297696485737,2.703705626061406
3597.4934,6.711854978739483,3.8011916977536546
3598.3208,6.7023620020837384,3.4763979791478103
3599.1506,6.691919684933589,3.55024367491342
3599.9788,6.676021667898372,3.645469268632611
3600.8088,6.649607212068234,2.6707469399223283
3601.6372,6.611180989033662,2.7155072645290197
3602.4678,6.567054936770589,3.0152248628365137
3603.2964,6.532626222223019,4.421457888954459
3604.1252,6.525026327874594,3.260820967076648
3604.9565,6.553574707966739,3.215441096112659
3605.786,6.613151816483101,3.535184564079885
3606.6172,6.686933488525679,2.3755318225226523
3607.447,6.753593935887771,2.7332468395341185
3608.2788,6.7969998307268495,3.3820728448550312
3609.109,6.810344272779042,2.9882887016017237
3609.9392,6.797051654045359,2.7020553045980256
3610.7717,6.766649981160239,2.707771865110362
3611.6023,6.730616557111219,3.6643917906369796
3612.435,6.6983785550960935,2.6499311959901855
3613.266,6.675973234430117,3.320938608953824
3614.0994,6.664253720370686,3.017836263435064
3614.9307,6.659141896666943,3.163641160046359
3615.7625,6.653746837926613,2.5747489569381865
3616.5962,6.642947847976644,2.7860885241788096
3617.4282,6.626790457401464,2.7954540801936125
3618.2625,6.609343570579677,3.0691244965957774
3619.0947,6.594661041527748,3.0532830122794814
3619.9292,6.58323015730608,2.924384132089797
3620.762,6.572984625074793,3.172604007978561
3621.595,6.562100078027705,2.4456913888067424
3622.4302,6.5506280856702,3.562270560046278
3623.2634,6.539483399878114,3.276725969419719
3624.0989,6.528654350655929,3.329532101551841
3624.9326,6.517610625510983,3.136811230524548
3625.7686,6.506610652779938,2.826623608983733
3626.6028,6.497441868726302,3.2918974321271044
3627.437,6.491857084630685,4.040040991856397
3628.2734,6.490157088530748,2.934678889969466
3629.1082,6.491643920023813,2.8420256437380758
3629.945,6.496556358604521,2.8402745798667226
3630.78,6.506855728340538,3.454298969578122
3631.6174,6.524738195113612,3.0699769509390036
3632.453,6.549957571053748,3.559485858279179
3633.2883,6.579275157503865,3.096734308854659
3634.1262,6.607739291010463,2.499582156407044
3634.9622,6.6305526047668115,4.268349472053773
3635.8005,6.644870795266436,2.6809676174714703
3636.637,6.649285460065381,3.0546950124849688
3637.4756,6.643472405056608,2.9704112142683736
3638.3123,6.628007538683418,2.5568965401917274
3639.1492,6.60487472081999,3.677762165828999
3639.9885,6.577602185308034,2.756827336926817
3640.826,6.550587984908878,3.1185216253616472
3641.6653,6.527053219439575,3.976941579823268
3642.5032,6.508507912747721,3.7124287737778867
3643.343,6.494470097099956,3.0788741262335844
3644.1812,6.483730592628393,3.139310798445598
3645.0195,6.475287225224428,3.175878642916619
3645.86,6.469071379250681,2.7497743160152703
3646.699,6.465545856778262,2.9303731337460026
3647.5398,6.464614295967167,3.2602865886869856
3648.379,6.465174966147437,3.7237668207186125
3649.2202,6.465556640080602,3.2209152018299987
3650.0596,6.464321831775542,2.8657753613608805
3650.8994,6.460594590411894,3.632910689887984
3651.7412,6.453964264727836,3.544983414117781
3652.5813,6.444704824541373,3.123874198558548
3653.4236,6.43406888698786,3.094657048543423
3654.2642,6.424325058129779,4.154639486228779
3655.1067,6.417437144709062,4.854990136060262
3655.9475,6.413799221685125,4.244485209546755
3656.7886,6.411729733103113,3.9918019896175005
3657.6318,6.408468730520922,3.078753711045077
3658.4734,6.401569126829172,2.8426758835057053
3659.317,6.3897148368962675,3.384993448979148
3660.1587,6.372977942741203,4.109578458260433
3661.003,6.352125855215869,3.4959039818081297
3661.845,6.328382730325836,2.669577421020008
3662.6875,6.302999200982283,4.69872603092367
3663.532,6.277977594290471,3.121503026876719
3664.3748,6.256568512796614,2.9351213020171927
3665.2197,6.2423827356256965,3.5358492963667394
3666.063,6.238240917598935,3.1818988152896677
3666.9084,6.2440481946081885,4.056513107927948
3667.752,6.255691784100916,4.351694540154052
3668.5977,6.266100867725217,4.377086031629103
3669.4417,6.268742326814009,3.57358660207333
3670.286,6.2621367794142655,3.995993427029301
3671.132,6.25109248967754,4.835227056710289
3671.9768,6.243525657169663,4.02066410616423
3672.8235,6.244895134794148,4.128854385512619
3673.6685,6.255169500453351,2.865476223492949
3674.5156,6.269847314337356,3.4898592390886716
3675.3608,6.282950762797497,3.2877417181283612
3676.2063,6.289927836600107,3.2083960386535306
3677.0542,6.28874729971288,2.8225437287024753
3677.9,6.280200122591572,3.3759222449771427
3678.748,6.2672615431961995,3.31315828147588
3679.5945,6.253812407932326,3.456588620465293
3680.4429,6.242488095245348,3.8538762978768664
3681.2896,6.233514854365868,3.315163706973997
3682.1365,6.224901276960702,2.9742748880137446
3682.9856,6.21456926790075,3.4742787918964044
3683.8328,6.202525301145726,2.91565357360296
3684.6824,6.190967720209995,3.3173872770481863
3685.53,6.1828201714432005,3.4166773320055968
3686.38,6.179542881040615,2.8047735991884823
3687.2278,6.180707630749518,3.370988821247607
3688.0762,6.184790461659206,3.9580546345520022
3688.9265,6.190267380198468,3.9348185117695227
3689.7751,6.195789766537658,2.88885040849813
3690.626,6.199830508292009,3.1847205826492617
3691.475,6.200323345586305,4.253069711436758
3692.3264,6.1953130576751505,3.4475756433316778
3693.1758,6.184348275965973,3.2033591638711116
3694.0254,6.169389775170981,4.11466029614072
3694.8772,6.154019865142146,3.451299555856811
3695.7273,6.141151340988481,2.928446453634895
3696.5793,6.130760735126235,3.422618391012742
3697.43,6.120516410790377,3.9268077150850846
3698.2825,6.1081135735659355,3.8885103578314237
3699.1333,6.093554752159267,3.257212245241191
3699.9841,6.078498637127772,3.2797335589938132
3700.8374,6.06401580702739,3.8192967839756116
3701.6887,6.049504522779219,3.014990721054148
3702.5425,6.034005794293151,4.095862021391012
3703.3943,6.019119665690588,4.290421860634361
3704.2483,6.008905798387425,4.157063365081226
3705.1003,6.007022554761745,3.74365288099572
3705.9526,6.0130556128411365,4.292981472738588
3706.8074,6.022283552441022,3.973265035869667
3707.66,6.0284712107558995,3.9796824833301416
3708.515,6.0274858056724545,3.6703843531262192
3709.3682,6.018614103845618,3.935972119006744
3710.2234,6.003841386253924,3.5999355102873127
3711.0771,5.986657538680061,3.7833522950329703
3711.9307,5.9707664274944445,3.5046856795346106
3712.7866,5.958738841683417,4.57051092046605
3713.6409,5.950374154011073,3.2956244874287974
3714.4973,5.941963798005466,4.1098012207778005
3715.3518,5.928668251538195,4.134544482233199
3716.2085,5.908031379039986,3.552831269899629
3717.0635,5.882384947223791,3.5119721503830625
3717.9185,5.8573688246121804,4.3856973376831805
3718.776,5.838814127725692,3.657899109244588
3719.6313,5.830025164371486,3.325381235953849
3720.489,5.830301716900052,3.830302046124283
3721.345,5.83578304093176,3.797143200168612
3722.2031,5.841592866446907,4.000941455418618
3723.0593,5.844470638080462,3.9938514562547387
3723.9158,5.844262178435765,4.729314791134083
3724.7747,5.843011888598579,4.569883707060395
3725.6316,5.842957269269394,4.15576957155685
3726.4905,5.844952058009941,3.69240974704214
3727.348,5.847914289212372,3.5503341817493927
3728.2073,5.849103138562649,4.454595082982149
3729.065,5.8452982489787955,3.0334666798734147
3729.9229,5.834670735604383,3.049854317082304
3730.783,5.817770579298799,4.33414532671471
3731.6414,5.797027470463131,4.098567171433751
3732.5017,5.77511779472318,3.6654186812366225
3733.3604,5.754874621800682,4.533812352204297
3734.2214,5.739250454611803,4.371796933358587
3735.0803,5.731226791110671,4.1622801040434565
3735.9417,5.731981691379295,4.1931921161023995
3736.8013,5.73980098912447,3.983005078149704
3737.661,5.750397364223728,4.574034357496539
3738.5227,5.758722705677808,4.7004659908802875
3739.3828,5.7608243982256475,3.9863262611286805
3740.245,5.755178634228571,3.625976348458236
3741.1055,5.743126452656368,4.622157380229357
3741.9683,5.728519725539682,4.854831705040545
3742.829,5.716594241924241,3.6080654312281917
3743.69,5.711332005684234,4.048941879546232
3744.5532,5.713486910233858,3.861127798099532
3745.4148,5.7203005139048715,3.870307431917632
3746.2786,5.727363611250709,4.491325488351771
3747.1404,5.73084887757341,4.2611846754061204
3748.0044,5.72894043741418,4.068587784957291
3748.8667,5.721841057340932,4.776504422764315
3749.729,5.711013207547739,4.499151956364831
3750.5938,5.6982149811249805,3.975244918527802
3751.4565,5.685101849180156,3.87523223647257
3752.3215,5.672843676266291,4.201179464629059
3753.1848,5.662179755214865,5.290437226691989
3754.0503,5.653006087532089,4.237705715982984
3754.9138,5.644886479451461,5.235432901746771
3755.7776,5.637645630648845,4.650872578545579
3756.6438,5.6316851344239565,3.918771694604585
3757.508,5.62727159836535,4.198578482540044
3758.3745,5.623677038068388,3.798194167819063
3759.239,5.619701117968158,3.643765139629276
3760.106,5.614785726617549,4.763927346382882
3760.971,5.609378614393325,4.361867549743643
3761.8362,5.603719920469623,5.007961920337363
3762.7036,5.596943639375518,4.316084921024991
3763.5693,5.587736642336679,5.010132211969798
3764.437,5.575387520738108,3.8445305206615594
3765.3032,5.559919507597433,4.19312919836307
3766.1714,5.540908002060792,4.502635758614665
3767.0378,5.517665336763035,4.362792997942203
3767.9043,5.490468984122769,4.755162913222789
3768.7732,5.4619114392203745,3.9320555182768357
3769.6401,5.436339076901055,4.6606439842097975
3770.5095,5.416901576351254,5.636623093440557
3771.377,5.404518594221417,4.490370138576646
3772.2466,5.398391603829279,4.519626949064171
3773.1145,5.397993735426978,4.726142449678857
3773.9824,5.403087329799266,4.087563660022101
3774.8528,5.412503216242298,4.702087434465465
3775.721,5.423603989133999,5.485887219198431
3776.5918,5.434156897653809,5.296410950609606
3777.4604,5.444062255587113,4.914729288918731
3778.3315,5.455351979664377,4.266531541858719
3779.201,5.469560514790707,5.253533860861501
3780.0703,5.485757358599614,4.554922190717217
3780.942,5.500618050808194,4.3285126680524035
3781.8118,5.510270590796453,4.6484997186348185
3782.6838,5.5123222573604735,5.1921819562846805
3783.554,5.506288429532214,4.2520675814666395
3784.4265,5.493555048234143,3.9293242237550716
3785.297,5.477446209760064,4.7728824581181275
3786.168,5.462441872008986,4.448954487204602
3787.041,5.452501023556535,4.792893492426187
3787.912,5.448978499813242,4.8540883361678295
3788.7856,5.449619112848648,5.014466330643212
3789.6572,5.449600961606682,4.236210568392032
3790.531,5.443338891407491,4.921219568995849
3791.403,5.426219653367782,3.3896203440414254
3792.2754,5.395876695329051,4.206301845607861
3793.15,5.35321610530887,5.056139620656579
3794.0225,5.303177912518797,6.250108886783714
3794.8972,5.252780924845575,4.966004608915273
3795.7703,5.209400552179899,5.115324871517803
3796.6455,5.177310949826754,4.578230534829218
3797.519,5.157272133179681,4.93416071298226
3798.3926,5.146870608545946,5.196815803988178
3799.2686,5.142983851200508,5.075880933212717
3800.1426,5.143724962860079,5.373688651185917
3801.0188,5.149125479907749,5.351427675387772
3801.8933,5.160436028126743,5.280086251955572
3802.77,5.178721152924077,5.612471500207131
3803.6448,5.203234222283013,4.838095373478099
3804.522,5.231419120610809,5.524142469680361
3805.3972,5.259566714565575,5.307362486308485
3806.2727,5.285052717302473,4.4555221750527965
3807.1504,5.3070519291041105,5.701625579951738
3808.0261,5.325946764077621,4.729033926800949
3808.9043,5.342549336270778,5.44415556450094
3809.7805,5.357027956953741,4.3534178592067025
3810.659,5.369294865476744,4.220799400787735
3811.5356,5.379093369364079,4.8475270144904705
3812.4126,5.386324995669496,5.286476341921351
3813.2917,5.390716929012852,4.329872632955642
3814.169,5.391709507229595,5.278396404042358
3815.0483,5.388963602578188,5.0591086742831655
3815.926,5.383007389470116,4.046857800309372
3816.806,5.3750486443926615,5.168032876528872
3817.684,5.365821369007081,5.620737176666421
3818.5623,5.354409035799652,4.5846042169023145
3819.4429,5.338815435011229,4.793640297722683
3820.3215,5.317892863957842,4.943693598068291
3821.2024,5.292155623630854,4.842376947029988
3822.0815,5.263623617556229,4.336930373124596
3822.963,5.234066424429975,5.114910566261274
3823.8423,5.204611205808024,4.215734306232962
3824.722,5.174956155695897,5.3217958396408305
3825.604,5.143487795445745,5.143278727825509
3826.4841,5.10792544452395,4.4859649168818825
3827.3665,5.066163775636135,5.149521052625188
3828.2468,5.018796985487004,5.387293173878692
3829.1296,4.968887137123851,5.671654226981774
3830.0105,4.9212573605537395,5.243217634936638
3830.8916,4.879024271175705,4.7447502393576375
3831.7751,4.842501321434647,5.281536328795351
3832.6565,4.809966083331379,6.357800797297814
3833.5403,4.778865486886157,6.701422296744043
3834.4224,4.748323778649604,5.351255599503405
3835.3064,4.7193625944100885,5.582221682916486
3836.1887,4.6949084289843395,6.355909410378605
3837.0713,4.677897624848597,6.2096234314431245
3837.956,4.670167275841785,5.776368640623246
3838.839,4.672193140623653,6.554705094389648
3839.7244,4.683918716589002,6.06050021255119
3840.6077,4.70563327265812,6.595052047811633
3841.4932,4.737996045660952,7.78954284040074
3842.377,4.780331931267381,5.763296170064757
3843.261,4.8298749449300855,6.114505675892341
3844.1472,4.881791251261375,6.2123847244253145
3845.0315,4.93058628972651,4.8640829457389945
3845.9182,4.973432578605032,4.942823345108072
3846.803,5.010747952330734,4.598214572722849
3847.69,5.046332538576505,5.357564934023207
3848.5752,5.083988786231961,5.391947655406649
3849.4604,5.125360597340681,5.730866368778379
3850.3481,5.168878489654698,4.792066640668396
3851.234,5.2106459917817585,5.583176181525243
3852.122,5.247318232895522,4.896940900594964
3853.0083,5.276698704800079,4.642665136914961
3853.8967,5.298455622680512,4.6771971564035
3854.7832,5.3127980053009995,4.367981491092165
3855.6702,5.320413557790804,4.652191512562776
3856.559,5.322629590767421,4.924362431726218
3857.4463,5.32210242014575,4.79248425236324
3858.336,5.32241302750741,5.048562718822051
3859.2234,5.3262394371063095,5.25812103263291
3860.1135,5.333595852039628,4.660025427338149
3861.0015,5.341770957477993,4.511914144121378
3861.8896,5.347375308983964,4.654496329257071
3862.7803,5.348243384901901,5.291653607322183
3863.6687,5.343936482648604,4.909599912900165
3864.5598,5.33496909832191,5.290342378014995
3865.4487,5.322150081563675,4.853757464930877
3866.34,5.306162351237625,4.874913246433498
3867.2297,5.287733042867767,4.258552249632611
3868.1213,5.267196461657872,4.346402405627793
3869.0112,5.24464748903391,4.4319764872703695
3869.9014,5.219449236256176,4.290642458883007
3870.7937,5.190136262966125,4.236292097746248
3871.684,5.1550420128199885,4.844035482885536
3872.577,5.113075984697926,4.589547437193581
3873.4678,5.065671092566858,6.525229115451744
3874.361,5.015753885509397,5.943641261294201
3875.2524,4.96678661037229,6.045740743095224
3876.1438,4.919843195900771,7.32117346738147
3877.0376,4.8733199782794925,5.713069572316055
3877.9297,4.8247077216806185,5.995984722126943
3878.8237,4.772081916607322,5.325386520494883
3879.716,4.715857302704786,6.412249362153369
3880.6108,4.656604514797234,5.969475817304019
3881.5037,4.594246518184041,6.498804429091163
3882.3965,4.526951224293971,6.409392892108421
3883.2917,4.45308207133763,5.969335383856454
3884.185,4.373298955637527,7.31909687845835
3885.0808,4.28911729983227,7.4404709635459945
3885.9746,4.203354667791322,8.328238598737414
3886.8706,4.118035318329872,7.998272227106507
3887.765,4.0367183242022735,7.078349575702594
3888.6592,3.964238422737619,10.948224384729736
3889.556,3.9071059541705284,9.163649615921193
3890.4507,3.872094558994727,9.904592800419884
3891.348,3.863026477948754,8.829618377099042
3892.243,3.8799996277636155,8.87767022587843
3893.1406,3.91931843937559,10.030905979380162
3894.0361,3.9744118144675693,9.148087610965012
3894.932,4.038402684020971,8.775327847141611
3895.83,4.106140761269815,8.249394503576633
3896.7263,4.175166803783295,6.95970340439296
3897.625,4.246538309616416,7.259688541791728
3898.5215,4.321184817242171,7.09435206927082
3899.4207,4.3990525519752826,8.166426125960083
3900.3176,4.477173804435214,8.23835529315672
3901.2148,4.55292789640098,5.947316131143217
3902.1145,4.625179032159,6.062364682801362
3903.0122,4.693630249559841,7.012097444930927
3903.912,4.758354012533434,6.485224272899789
3904.8103,4.817781148062421,6.165465188577231
3905.7107,4.871385073369425,6.033062896495
3906.6094,4.920832584625286,5.055947603169477
3907.508,4.970649981414693,5.528142678297049
3908.409,5.024769628121556,6.147120627453515
3909.308,5.082763615304158,5.74764170653614
3910.2097,5.140381833208942,4.742003565491438
3911.1091,5.1914885596614875,4.873867696642201
3912.011,5.23262360755574,4.789298157213721
3912.9111,5.263385010732466,4.688968529367533
3913.8113,5.286476647499817,4.5973470120931506
3914.7136,5.306098950100298,5.043004122947606
3915.6143,5.326752159368739,5.260347821052404
3916.517,5.352282290410844,4.827297350636491
3917.4182,5.384067088287514,4.694638021745476
3918.3215,5.420888762398164,4.69623949233318
3919.223,5.459392014504096,4.25397326194792
3920.1245,5.496489766075454,4.3042386151559064
3921.0286,5.530140110843574,4.357918563936161
3921.9307,5.558799369463579,4.143669897150263
3922.835,5.581342622099999,4.445329963901449
3923.7373,5.596859117547315,4.635735058980617
3924.642,5.60620446835727,4.475739083392761
3925.5452,5.612271630522431,3.7699706320871855
3926.448,5.618982438330172,4.775951452273918
3927.3535,5.628719077837238,4.331314712618287
3928.257,5.640431530219268,3.710827624024869
3929.1628,5.650568850147309,3.747949426215822
3930.0667,5.655775365601538,4.554391834412459
3930.9731,5.6554192954508435,4.187586162539503
3931.8774,5.651233593219708,4.275109778435866
3932.782,5.644995464605392,4.314668718936455
3933.6887,5.636564234043842,4.707694865769367
3934.5938,5.624103211269896,4.526513131181417
3935.501,5.6056403372979995,4.682370859543413
3936.4062,5.5809638884227715,3.942578768861493
3937.3142,5.551764991553316,4.72062454758223
3938.22,5.521380404334697,4.057945365371991
3939.128,5.492699692527024,4.30234888953788
3940.0342,5.467223245479703,4.635131553673793
3940.9407,5.443978622895317,3.9491378720892434
3941.8494,5.420226541751562,4.983337921415495
