wavl,flux,ivar
3566.9744,4.7282817969626105,25.033942330253257
3567.795,4.718140293397596,28.333704164712856
3568.6177,4.706341374111078,28.541263785475817
3569.4385,4.694881433773319,37.87790606287248
3570.2617,4.685175030393868,31.65887243449143
3571.083,4.677782380742044,30.46505601341743
3571.9065,4.672522483213847,30.704035469641735
3572.7283,4.669519734913524,35.83259660873132
3573.55,4.669512562805218,23.942261084514634
3574.374,4.673301722194938,35.27936691696587
3575.1963,4.680574508384536,31.22401334374373
3576.0208,4.689304971307157,31.72657439090058
3576.8435,4.695983458883355,36.53484193297463
3577.6682,4.697039576141856,25.73618508507616
3578.4915,4.69023364534672,33.12691513752775
3579.3145,4.675439757113151,26.16110142623048
3580.14,4.65431874755658,23.617194476866736
3580.9636,4.63004791198071,33.00790130711278
3581.7893,4.606436583558738,28.71738481768968
3582.6133,4.587439296874888,33.654313755813575
3583.4395,4.575501266888951,32.23120847563858
3584.264,4.571091693824567,25.66873800227876
3585.0884,4.5726540432826654,30.62055414078829
3585.915,4.5772044487593835,32.157388174742934
3586.74,4.580401441269286,30.83404258500747
3587.5671,4.577283550925783,29.906072402657944
3588.3923,4.564260154165889,30.941856206379228
3589.22,4.541269007629204,32.67628357981707
3590.0457,4.512649973239513,36.388254830905105
3590.8716,4.485165734171725,34.6626170333487
3591.6995,4.465583844679076,26.27980657312297
3592.526,4.458401557640473,42.55590586885375
3593.3542,4.464095566435377,33.20614589686879
3594.181,4.478969000957836,42.04504530905219
3595.0098,4.496614228464046,27.610672823166947
3595.8367,4.510371844955971,31.892911388096202
3596.6638,4.516167509475296,26.97517915592662
3597.4934,4.513139162038885,30.684709829838383
3598.3208,4.502580971602311,37.578740686090875
3599.1506,4.486044803715785,29.85824551034291
3599.9788,4.464869870800296,28.333740903527048
3600.8088,4.440719430749785,37.731153775490405
3601.6372,4.417054306397627,44.882568108012585
3602.4678,4.3985266305860184,29.200154185930458
3603.2964,4.3893450876111295,43.34787783008914
3604.1252,4.390353149667378,37.552316141755675
3604.9565,4.398424522265652,33.90405042715529
3605.786,4.408387121543969,32.69331568013345
3606.6172,4.416617679778757,27.28755616033367
3607.447,4.422583318684894,36.00891062333218
3608.2788,4.42762361351262,33.43330040490161
3609.109,4.432183984015448,37.65267890085856
3609.9392,4.434550794773707,30.926749235989668
3610.7717,4.431806604140417,30.151189246826792
3611.6023,4.42228137189947,35.97678856664356
3612.435,4.407185027645763,35.50883957439325
3613.266,4.390265126637388,41.97261610585863
3614.0994,4.375262258144318,31.18052087793804
3614.9307,4.364204248815672,33.069704385112146
3615.7625,4.357097999794016,36.364310080318056
3616.5962,4.353437092919739,34.314015102270275
3617.4282,4.353010024204154,34.611653659004375
3618.2625,4.355307012557698,37.25550453926559
3619.0947,4.358666095326819,39.58044075060769
3619.9292,4.360638887536278,34.7739443765451
3620.762,4.359353153384594,40.09032623849275
3621.595,4.354586064367868,30.053478782272283
3622.4302,4.347632392169766,26.761458554033638
3623.2634,4.340715150509687,36.33353701769618
3624.0989,4.336328024300452,36.9843844266473
3624.9326,4.336967508405981,40.79695589691956
3625.7686,4.344447866308856,34.570250202973
3626.6028,4.358681523655571,35.92384261196918
3627.437,4.37646347253007,29.803859184259505
3628.2734,4.391619445251945,31.694223964213645
3629.1082,4.397807411086305,28.29889943865273
3629.945,4.39313900344121,39.5445075202043
3630.78,4.3819723898702305,47.517077162587384
3631.6174,4.371805802158791,36.3240118419881
3632.453,4.3679677594286614,38.41959351226768
3633.2883,4.370490269893869,40.497951546435104
3634.1262,4.375746628807472,29.73918360252855
3634.9622,4.379850568149962,30.29910051129494
3635.8005,4.380868271353936,34.91968259507089
3636.637,4.37853725710307,38.708224617074876
3637.4756,4.373231492682959,42.68711713066722
3638.3123,4.365728135374736,37.920403121792454
3639.1492,4.357573703958664,39.87326677664397
3639.9885,4.351099489389828,41.590310204958534
3640.826,4.348456396294127,33.283929120552536
3641.6653,4.350178143470294,34.71652199530531
3642.5032,4.354592844911133,36.259874848987906
3643.343,4.358350144551299,31.723804368895497
3644.1812,4.357837079486409,35.6333096986923
3645.0195,4.35094950657825,33.92284567436394
3645.86,4.338193002181626,37.73151752338571
3646.699,4.322929645799968,37.78248447270766
3647.5398,4.309884749481017,39.3480570711403
3648.379,4.302830316736087,40.436554613889776
3649.2202,4.301743319448564,32.66168457254242
3650.0596,4.302255937582628,40.96760939006275
3650.8994,4.2982106118252235,40.46366582477725
3651.7412,4.285994673721862,45.28000196311078
3652.5813,4.267214451293533,41.15679704400351
3653.4236,4.246917813291612,45.29398313757508
3654.2642,4.229750195640998,42.58916028750563
3655.1067,4.216845893284942,32.71718773641344
3655.9475,4.206935550797994,32.007592184545786
3656.7886,4.198814507437681,36.66161954974746
3657.6318,4.192821570104318,34.915609620176234
3658.4734,4.190129650521461,38.75079252556608
3659.317,4.191549245324939,35.76555148503307
3660.1587,4.197175652424542,61.98714159623344
3661.003,4.206141381015051,39.87205582621207
3661.845,4.216087837022821,34.92206644888325
3662.6875,4.223897812158904,33.070407230725394
3663.532,4.227578044403029,35.09728404870889
3664.3748,4.227867675864989,45.58448770356044
3665.2197,4.227383806257078,44.69689028440857
3666.063,4.227734601438538,46.46391949758718
3666.9084,4.227607242955522,38.873992720819444
3667.752,4.223841610318925,35.27253812708142
3668.5977,4.21446432644938,38.26947811755248
3669.4417,4.201002114424228,31.682301157585847
3670.286,4.187769858750256,40.28763395821518
3671.132,4.178989185046576,33.82418707870587
3671.9768,4.175867217525039,39.495475511511344
3672.8235,4.175798823020316,39.11999474554129
3673.6685,4.174434370142778,36.28160605763774
3674.5156,4.168580960466934,29.860370803697947
3675.3608,4.158002185998709,37.523165841264415
3676.2063,4.144994987100773,42.253863088537926
3677.0542,4.132696975234526,43.93640340722489
3677.9,4.12348423095286,38.94212207361098
3678.748,4.118085192818986,39.61267364630031
3679.5945,4.116217655819554,39.42239134999531
3680.4429,4.117136154863429,38.9097768339979
3681.2896,4.119746374610658,46.55480938849551
3682.1365,4.122245251144832,44.80886292676031
3682.9856,4.122151201025966,38.294498828743365
3683.8328,4.117145670651875,45.35519286334534
3684.6824,4.106224962694962,30.77235921653554
3685.53,4.090584164370761,48.54208866263651
3686.38,4.073215168413538,35.31541835447624
3687.2278,4.057991774434496,39.43998993721856
3688.0762,4.04774653854957,36.62150964561332
3688.9265,4.043282852637009,47.55423596429422
3689.7751,4.043262500745624,42.50849676652687
3690.626,4.045148322707098,32.213561965366516
3691.475,4.0465761554754955,34.91767603243296
3692.3264,4.046160379420547,37.41924528230263
3693.1758,4.0433321885231415,45.99628439975765
3694.0254,4.037865692869794,39.285599174652376
3694.8772,4.0300297492668395,37.23424964433149
3695.7273,4.021370305277455,38.74349987010147
3696.5793,4.014574764652528,52.1407926537295
3697.43,4.012232504745027,44.39480081376884
3698.2825,4.014991364197404,41.36723577102642
3699.1333,4.020887332341774,42.56986304924195
3699.9841,4.026181327255482,43.59143362286731
3700.8374,4.027135757630508,39.60999503465689
3701.6887,4.021886932709661,47.24295485249729
3702.5425,4.011370025810951,44.586918438223776
3703.3943,3.998715907573839,40.01313048071832
3704.2483,3.9871693108164186,41.210465231715155
3705.1003,3.978639636854224,40.849460799389625
3705.9526,3.9730524294720913,41.89152496387192
3706.8074,3.968914403788502,44.341266699381976
3707.66,3.964015194320377,42.798276195614605
3708.515,3.9562497680828863,43.544913172017026
3709.3682,3.9448709403986055,41.19837281777248
3710.2234,3.930994748449344,42.61910351603994
3711.0771,3.917259480769273,60.51405393218552
3711.9307,3.906284684012815,48.60317904863499
3712.7866,3.899544992231265,38.048024812340685
3713.6409,3.896870830522415,37.462806807646906
3714.4973,3.8964356066858974,39.9289040800841
3715.3518,3.895696328024762,48.57445276875161
3716.2085,3.8929352190616306,53.65379105181109
3717.0635,3.8885788090454003,42.29171824201158
3717.9185,3.8849455545383256,45.996575108811584
3718.776,3.884538758070708,39.95922476663436
3719.6313,3.8880851541071513,45.855852901273735
3720.489,3.8937581144629156,45.91451286174789
3721.345,3.8980890648797106,47.124327271336774
3722.2031,3.8981089052200026,46.69896698109909
3723.0593,3.8930238045392818,53.96360246346938
3723.9158,3.8844470014295327,46.5328149684363
3724.7747,3.875138958138732,46.8964379725375
3725.6316,3.867402563454822,45.51553156136137
3726.4905,3.861748327743363,45.00190106234385
3727.348,3.857066415228282,38.82236148561947
3728.2073,3.8516940542898226,53.72031935722498
3729.065,3.844849234637323,47.7542749248419
3729.9229,3.836991899295394,51.49051152693951
3730.783,3.8293437455125114,44.39516765761978
3731.6414,3.8233010815281894,52.84380732554186
3732.5017,3.820002758132028,44.02202864992509
3733.3604,3.820093829872801,43.94479188743234
3734.2214,3.823052055650534,50.73500950211796
3735.0803,3.826828691440785,46.95256634511265
3735.9417,3.8286645024907706,44.56154705248432
3736.8013,3.8268031520013803,45.523165367063534
3737.661,3.821793076905636,47.14423332406075
3738.5227,3.8157716200534613,56.46353851412855
3739.3828,3.8103787204667587,46.103988894326015
3740.245,3.8051502736452307,53.799128618631514
3741.1055,3.7982726343048308,40.25458790574581
3741.9683,3.7884051097258715,46.25328475121813
3742.829,3.7758664713435675,51.667788513682375
3743.69,3.7616887652755637,47.40657888232736
3744.5532,3.7464531769666274,48.02276872422803
3745.4148,3.7306523898886725,45.87096709041111
3746.2786,3.7158100239713927,49.54515073549567
3747.1404,3.7050786698133913,46.88026676696517
3748.0044,3.7011739403157717,53.16844383880978
3748.8667,3.7044099168939773,49.297164249412305
3749.729,3.7124990773869038,45.96521940097475
3750.5938,3.722393640859507,54.00555727545795
3751.4565,3.731541936834256,46.495820039059616
3752.3215,3.737991979159494,41.6828892282631
3753.1848,3.7398475904977753,54.33625379382185
3754.0503,3.735862352610864,48.91310297994409
3754.9138,3.7263349836702133,56.278558334264375
3755.7776,3.7132090939433224,51.21613700229986
3756.6438,3.6991819702110558,55.89952797769444
3757.508,3.686676045596306,54.45629363573404
3758.3745,3.6769682200876015,61.480703965969
3759.239,3.6706175116093225,51.214575510325645
3760.106,3.6678992993871717,52.090626596119165
3760.971,3.6691721930947727,48.29268298220393
3761.8362,3.674266019562664,47.53214365038971
3762.7036,3.6816918347027285,46.59416099611613
3763.5693,3.68842383899009,56.23549571659777
3764.437,3.691100739986076,52.64732226097759
3765.3032,3.687643781036221,48.46726493688762
3766.1714,3.678334517473529,49.96972705648816
3767.0378,3.665500600543953,57.87367110127473
3767.9043,3.6519380614568933,49.94790245881527
3768.7732,3.639441156159554,52.94605770755619
3769.6401,3.628391144646534,48.914094197817505
3770.5095,3.618272722064023,46.17487997562531
3771.377,3.6091720921538353,44.2674938272865
3772.2466,3.6020797901078754,58.55747596214143
3773.1145,3.5982231908316935,47.113316745766355
3773.9824,3.5977444012693884,55.65067460128343
3774.8528,3.5996881513307257,48.661563303858244
3775.721,3.602989733075112,63.74319109852661
3776.5918,3.6071469253499377,53.748869940665
3777.4604,3.611495514860495,53.16590054900209
3778.3315,3.614525190193937,70.41890304652759
3779.201,3.6144415964901677,55.60818962366661
3780.0703,3.61078978747113,55.43770365707084
3780.942,3.6050124930635157,57.607421281086616
3781.8118,3.5994778807945917,52.38783519980084
3782.6838,3.5959177144596706,63.27337863672325
3783.554,3.5948981023194255,62.83522726666214
3784.4265,3.5959499410858835,54.843808804473596
3785.297,3.5979028710383965,47.34777795799669
3786.168,3.5992260946477144,57.995744310992464
3787.041,3.5985908899919727,44.473154169759596
3787.912,3.5954363305685337,51.88082555950545
3788.7856,3.5899887908236963,51.961402235318275
3789.6572,3.5828957449423724,43.79546500309555
3790.531,3.5747007087508686,55.369754410924266
3791.403,3.565786669629027,58.26980450062153
3792.2754,3.5561625423165055,54.38361774374691
3793.15,3.545420742875901,54.9136964700284
3794.0225,3.5329572440112647,51.24254520342765
3794.8972,3.518399858134476,60.5077114027705
3795.7703,3.5027186007899505,53.39240403367842
3796.6455,3.488301166191002,57.40232116433202
3797.519,3.4782912047834644,57.32787983178958
3798.3926,3.4745639628936846,50.64824036800247
3799.2686,3.4765371313038744,60.399024176124975
3800.1426,3.4812943861709953,60.790614144387234
3801.0188,3.4852209614925442,69.59755716404413
3801.8933,3.485935654314025,47.44808642357497
3802.77,3.483532504023164,53.87354722883591
3803.6448,3.4802180369573517,56.674157196212505
3804.522,3.4785705970611516,58.32273071614539
3805.3972,3.479733845314321,57.50366996094079
3806.2727,3.482809433775652,61.18825876803263
3807.1504,3.485861788726991,61.67877098976321
3808.0261,3.4873733000278184,47.26848886140382
3808.9043,3.487011898057621,58.16001415235739
3809.7805,3.4851660968013136,52.919589543982156
3810.659,3.4820177269040578,65.9566266860481
3811.5356,3.4772120756536746,57.969986705323336
3812.4126,3.470438397829121,56.20485647065096
3813.2917,3.462402076352644,59.07809456465668
3814.169,3.4551265595325584,58.758961736977206
3815.0483,3.4508912069068156,57.01639336646939
3815.926,3.45092085470766,51.232270570161674
3816.806,3.4545363887672393,72.73286477622293
3817.684,3.4595137013117983,55.19005521621198
3818.5623,3.4631429140892345,62.185769362446
3819.4429,3.4631204978652814,51.49203070060747
3820.3215,3.4581190262394284,53.700979364703386
3821.2024,3.4481027364868733,51.95917971167626
3822.0815,3.43448540600316,57.29519001100877
3822.963,3.4195253079758574,71.01622169165769
3823.8423,3.405633674649446,52.57572624108339
3824.722,3.3941976091551522,61.06057260479031
3825.604,3.3852019968716482,60.65597679632967
3826.4841,3.3774572723374097,54.52140237712158
3827.3665,3.3692814056530804,56.70797074016634
3828.2468,3.3596419954459793,55.282421128244785
3829.1296,3.3484097316096126,65.37364464876835
3830.0105,3.336240858126896,68.9999777209768
3830.8916,3.323856307342243,53.29361828430626
3831.7751,3.3118889093713775,63.623672546928866
3832.6565,3.301068099485565,61.650899814169335
3833.5403,3.292121611821768,65.85566240039105
3834.4224,3.2858510751478116,62.19426000081405
3835.3064,3.282491744363421,74.81381033385622
3836.1887,3.2812516573836588,64.91363761159997
3837.0713,3.2801507580050493,62.09099933503445
3837.956,3.276859731709507,52.27846372299191
3838.839,3.2702173534139485,68.4924398766307
3839.7244,3.261368345864915,61.404925361206836
3840.6077,3.253734842168,59.16451744070987
3841.4932,3.251230529321974,62.457367287931184
3842.377,3.2562450025381047,61.17832023657452
3843.261,3.2685020951475834,66.19590103392149
3844.1472,3.2856134934757684,66.10694859283048
3845.0315,3.304130833017945,61.7394229410498
3845.9182,3.3209582249012977,65.79787213431923
3846.803,3.3339381011244718,53.99250838884047
3847.69,3.3428487729663825,64.17192890516606
3848.5752,3.3490321663978375,60.17101077654268
3849.4604,3.354347685479415,64.71445842385211
3850.3481,3.359710259659562,55.00124456060536
3851.234,3.3646860540561834,53.661816042453815
3852.122,3.3683544058620263,54.67172615227823
3853.0083,3.370066035821901,60.632461470001466
3853.8967,3.3694613493295607,65.08539762235225
3854.7832,3.365805863371931,56.370354606334935
3855.6702,3.3580794775002545,63.20827751028534
3856.559,3.3464203137160853,60.605705859653945
3857.4463,3.3337414593388717,61.40425949666788
3858.336,3.3248493973907944,60.39825205791421
3859.2234,3.3233926514737946,69.45768070366371
3860.1135,3.328785134139965,60.906770522561516
3861.0015,3.3366599560922174,60.38856169435756
3861.8896,3.342371961442894,71.09321250812049
3862.7803,3.3439944679628097,58.61302484255179
3863.6687,3.3424434598712316,60.07787324609233
3864.5598,3.339343707494392,56.170166957445986
3865.4487,3.3351071972610025,60.40551178734219
3866.34,3.3286504381038897,57.46813398825179
3867.2297,3.318601325084654,66.11193500802642
3868.1213,3.3043579546890895,56.00914836689893
3869.0112,3.2866649795221883,64.67109285396842
3869.9014,3.2670773959941948,57.981732276902186
3870.7937,3.247507276185363,59.834765348863286
3871.684,3.2300964904287803,64.39130712694902
3872.577,3.2167936122995178,72.65582685210292
3873.4678,3.2092548961628324,70.9342344779847
3874.361,3.2076630683498073,69.41424612387212
3875.2524,3.2099244372957108,63.76624273348356
3876.1438,3.211642390403976,73.58032005142732
3877.0376,3.207734974785003,62.2431492453711
3877.9297,3.1950008540640464,58.087138560933994
3878.8237,3.173762044911862,75.35746793846614
3879.716,3.1475379699430595,65.85837447290194
3880.6108,3.120306736491366,83.04137842247721
3881.5037,3.0947708721605323,69.36770297305124
3882.3965,3.071620019640285,79.1605654649505
3883.2917,3.050837559513574,78.01073249756803
3884.185,3.0325537222108228,80.05195023249838
3885.0808,3.0162560662382583,62.21858140996805
3885.9746,3.000581460934312,68.7213337827592
3886.8706,2.983454842383179,69.21620130864005
3887.765,2.9637703864386205,74.0978428972527
3888.6592,2.942243233407427,76.70853470204953
3889.556,2.9214460838585508,80.34264556294141
3890.4507,2.904880929421357,84.48525235964236
3891.348,2.895227335580591,79.80993967241822
3892.243,2.89373548594755,77.48954692328707
3893.1406,2.9000201059758406,76.69638186382575
3894.0361,2.9127438972407003,72.88388053098242
3894.932,2.9304770389634216,67.62648863170679
3895.83,2.952075558756836,87.95828080229529
3896.7263,2.976204384688409,82.26231290628157
3897.625,3.001198596352519,75.22175250233128
3898.5215,3.0245419697213327,67.38208298788113
3899.4207,3.0440283887145654,69.49658935920229
3900.3176,3.058261265462014,68.86345515678015
3901.2148,3.067740245693208,67.87353825785603
3902.1145,3.0747862364643943,72.72128389509436
3903.0122,3.0829701886287033,74.45976685378218
3903.912,3.0958664434952374,66.19800634443278
3904.8103,3.1151658252559855,66.8640046596986
3905.7107,3.139961887600324,69.31993117107277
3906.6094,3.166979309471941,71.65425214319575
3907.508,3.192600779204556,73.61901840375639
3908.409,3.214314439674147,75.77144534298901
3909.308,3.231134028070543,78.06764238200503
3910.2097,3.24337601569071,69.35197072241513
3911.1091,3.2510113747641025,58.61301457537551
3912.011,3.251294151620884,64.87712847640331
3912.9111,3.2327855974605857,69.54292124837967
3913.8113,3.164699891303477,74.7981420568559
3914.7136,2.985432238341901,71.99766874684123
3915.6143,2.6114813477924845,60.73869169632523
3916.517,1.9829151292237646,63.01916289285935
3917.4182,1.155874128940042,63.63399929016968
3918.3215,0.3446539103834202,60.25781467074849
3919.223,-0.1364197250005407,116.50581477554573
3920.1245,-0.07263026636854791,69.49379052120263
3921.0286,0.506714626583886,73.5650755068697
3921.9307,1.3425454441881368,65.08159184468965
3922.835,2.136016776801251,54.22435270626721
3923.7373,2.704661871778842,71.25348304084055
3924.642,3.0313837196090336,72.80710444022515
3925.5452,3.1849073564044263,56.19112692459907
3926.448,3.2462011083038833,59.011369848288254
3927.3535,3.2680853670542542,62.824890325611236
3928.257,3.275683358644094,59.943505295795084
3929.1628,3.2782961888838207,55.03906052332237
3930.0667,3.278001535738112,59.413270157133894
3930.9731,3.2741466677332167,60.54290906737107
3931.8774,3.265711441120593,67.72659302716147
3932.782,3.252885535046814,65.77442703416648
3933.6887,3.237743261284746,70.18513432155746
3934.5938,3.223632370270538,64.14072277948075
3935.501,3.213203344095668,76.10879592997519
3936.4062,3.2071511834607027,62.15806249289547
3937.3142,3.203896209633826,64.94760797161076
3938.22,3.200755401453752,57.72025662801724
3939.128,3.19510757969385,65.12233384713123
