wavl,flux,ivar
3566.9744,0.8353841236109719,394.85618642050184
3567.795,0.8342922819840441,526.5795974801933
3568.6177,0.8322771231143565,461.67547954178724
3569.4385,0.8294986099561181,345.2413565994311
3570.2617,0.8258864884211559,511.64329778949167
3571.083,0.8215411881817423,499.98985351258284
3571.9065,0.8168914807139833,459.93148067032456
3572.7283,0.81260806272229,579.6135621844302
3573.55,0.8091767090871418,557.9189729688982
3574.374,0.8067825545528786,464.723366641165
3575.1963,0.8054933583624155,461.41418771707646
3576.0208,0.8055024891354597,537.3715899887688
3576.8435,0.8071632041470724,609.2025465508184
3577.6682,0.8105943738473337,723.532420820945
3578.4915,0.8152119640536576,425.42079705851535
3579.3145,0.8198173576265935,444.44742455656433
3580.14,0.8231463249751292,378.1667454953551
3580.9636,0.8243794777276156,382.2309138005918
3581.7893,0.823330858600104,560.73718251582
3582.6133,0.8202535793557382,404.2264006168365
3583.4395,0.8156267961349395,439.0073215624608
3584.264,0.8101135758435515,491.55715789608746
3585.0884,0.8044982610441732,479.3243564424626
3585.915,0.7997251791352319,569.942179911886
3586.74,0.7967655208687876,364.942207119408
3587.5671,0.796116354889808,435.3800202835896
3588.3923,0.7974695475028086,435.2515091732289
3589.22,0.7998148288465805,403.89612980089714
3590.0457,0.8020437695177076,496.7069248856555
3590.8716,0.8035796107484755,473.7403197274307
3591.6995,0.8043987968814045,422.6464170780336
3592.526,0.8045935384974812,588.6796679830328
3593.3542,0.8039978446788691,405.6254667864756
3594.181,0.8022672758556331,593.3648614625288
3595.0098,0.7992653912487391,437.6196105004724
3595.8367,0.7953529074544463,533.1306383343831
3596.6638,0.7911995573163267,551.3840222890526
3597.4934,0.7874581600575213,602.2497003373336
3598.3208,0.784550231269666,540.517164821027
3599.1506,0.7825248675271194,686.0830023763073
3599.9788,0.7811302762265467,535.9992839387243
3600.8088,0.779860773425245,504.0831129540722
3601.6372,0.7782424876377618,852.6388001929195
3602.4678,0.7761099568478511,644.6997620024728
3603.2964,0.7737154019356698,681.4360545307612
3604.1252,0.771448153419905,695.6259242685414
3604.9565,0.7695552492559566,626.8555083089555
3605.786,0.7681518871004147,370.1553759889804
3606.6172,0.7674791853162685,449.58301430501535
3607.447,0.768095544169604,606.0283834493192
3608.2788,0.7705455854790147,646.498085151859
3609.109,0.7747366339417259,756.2631315475276
3609.9392,0.7797121559979279,621.191458250528
3610.7717,0.7840697589538637,459.6865785285402
3611.6023,0.7867054902930714,484.3272801822055
3612.435,0.7874001712209991,452.71610317249394
3613.266,0.786723839076892,618.1964553171781
3614.0994,0.7856043588781234,550.1570062085082
3614.9307,0.7848382983543954,498.09377941867774
3615.7625,0.784785624598691,520.0530844520587
3616.5962,0.7853394363400683,474.09467392786615
3617.4282,0.7860847082513388,622.6720881986099
3618.2625,0.7866189924632889,476.01603891350334
3619.0947,0.7867765011534017,589.2610681665739
3619.9292,0.7865784029954419,495.66742675220337
3620.762,0.7859954246720343,460.04156582585733
3621.595,0.7848683326619937,457.3050036194381
3622.4302,0.783050707485031,722.5132605472195
3623.2634,0.7805654926892102,753.8635254049719
3624.0989,0.7775881461990725,512.8637303970462
3624.9326,0.7745177386862946,504.2928049046481
3625.7686,0.7719514541362976,676.2945135351313
3626.6028,0.7705552566647481,539.3448240734627
3627.437,0.770624050128343,428.975304373397
3628.2734,0.771847629265463,481.5051876115702
3629.1082,0.7734586522083086,400.1985175946729
3629.945,0.7747486291397432,531.6308654656851
3630.78,0.7755003253443015,607.3064938148494
3631.6174,0.776143904927617,609.4567342737282
3632.453,0.777479919582077,862.2410016757809
3633.2883,0.7801517994143499,459.1101645193125
3634.1262,0.7841399288947137,1192.1520775736055
3634.9622,0.7886185659387406,584.9061048034285
3635.8005,0.7924743797090641,421.70880450123775
3636.637,0.7948355651329921,429.4056913275787
3637.4756,0.7954130702628316,513.288469369188
3638.3123,0.7943508476766222,352.82729561826335
3639.1492,0.7921373501942862,438.5726652836098
3639.9885,0.7896154603417371,715.1071868837575
3640.826,0.7878483166363551,649.2788029370126
3641.6653,0.7875357807877092,549.9928189647258
3642.5032,0.7885374591279323,749.0026642199922
3643.343,0.7899561051692986,441.96552188896527
3644.1812,0.7908326772751791,442.43431848115756
3645.0195,0.7908874901375491,626.5785534277538
3645.86,0.7906140641935879,456.0527273251164
3646.699,0.7906784201047506,536.0053220003034
3647.5398,0.7911657869389384,547.8426643142125
3648.379,0.791457313190948,475.9882115003747
3649.2202,0.7908815292594576,411.4134598297706
3650.0596,0.7894165534214351,1046.1161273886028
3650.8994,0.7876738238466922,577.8728951775461
3651.7412,0.7862744366809021,422.2947852330972
3652.5813,0.7853521465624936,616.1405599770943
3653.4236,0.7845967995324253,541.2531096033433
3654.2642,0.7836739815788984,426.28475512862576
3655.1067,0.7825116423062718,477.96424552914533
3655.9475,0.7813641436520641,505.9310519407451
3656.7886,0.7806435280394995,769.4317626092644
3657.6318,0.7806956866971556,672.6272520139794
3658.4734,0.781655927876915,467.4723029799232
3659.317,0.7835477066848031,553.6433491727197
3660.1587,0.7864138882669761,626.7578794640305
3661.003,0.7901772438253634,586.6337009243412
3661.845,0.7940959327603402,614.2509138082911
3662.6875,0.7966478793321212,453.8587459455522
3663.532,0.7961263019230272,479.85783908673653
3664.3748,0.7917908364823927,549.2371885634536
3665.2197,0.7844577060488389,499.26095551472866
3666.063,0.7761549517367168,449.34838629222645
3666.9084,0.7689990111699126,699.7530765557375
3667.752,0.7645328138996393,654.3269540353597
3668.5977,0.7633270357964765,560.7294729934271
3669.4417,0.7651081982790907,469.6628422994949
3670.286,0.7688990634527082,641.2003199862849
3671.132,0.7733587831815264,464.4736041438001
3671.9768,0.777160438235147,498.81793851977477
3672.8235,0.779404046349511,484.3411859071064
3673.6685,0.7797070101229643,521.5901752568216
3674.5156,0.7782029849687876,503.891369777235
3675.3608,0.7754096590380878,388.37961327654557
3676.2063,0.771962589607659,571.4612659310222
3677.0542,0.7682577837786472,642.8329695777236
3677.9,0.7642962371265302,545.5823790022954
3678.748,0.7598970452043539,615.3608592824353
3679.5945,0.7553545181618523,755.822140297515
3680.4429,0.7515543952035801,632.924805690776
3681.2896,0.7495433066253894,545.1078726442277
3682.1365,0.7497240065715016,690.1172593346184
3682.9856,0.7515891354023493,602.6779982289708
3683.8328,0.7539669200411171,662.1453418515848
3684.6824,0.7556168533027433,702.1817124992002
3685.53,0.7557315937304787,366.12352809215685
3686.38,0.7543138801225265,634.8573117234945
3687.2278,0.7521904869592286,490.9684992495087
3688.0762,0.7506055604172942,509.88193978360533
3688.9265,0.7505955310890812,797.0640630950523
3689.7751,0.7524321418672197,511.79885850565915
3690.626,0.7555282358772868,619.0345859875498
3691.475,0.7588250235832437,465.3446315046866
3692.3264,0.761442667924701,692.4375971565072
3693.1758,0.7629682473746328,618.6728207311605
3694.0254,0.7634743661115366,448.46463316231655
3694.8772,0.7633303025103811,467.60592950136606
3695.7273,0.7630797449349392,492.1679562947199
3696.5793,0.7632877964756,535.3226560756966
3697.43,0.7643566680234665,416.52518483464155
3698.2825,0.7663879255725108,790.0847364863032
3699.1333,0.7690791783194522,492.75616562706705
3699.9841,0.771728947249073,579.5539641267145
3700.8374,0.773361130901241,723.434278881318
3701.6887,0.7730937901099938,676.2185136607152
3702.5425,0.7706386676896901,443.6630744922246
3703.3943,0.7665268655801911,448.21622386748476
3704.2483,0.7617965646246967,654.4745789753232
3705.1003,0.7574916784333122,659.5018450032946
3705.9526,0.7541577942171661,745.9535458038308
3706.8074,0.7518609610940841,544.3606049766736
3707.66,0.7504460403631636,626.9770929689195
3708.515,0.7497210363196124,604.7123469259213
3709.3682,0.7495368805088403,420.1984211558334
3710.2234,0.7497184644344214,666.9144105294658
3711.0771,0.7500313195956602,636.7850701466015
3711.9307,0.75018650082603,630.3411609019618
3712.7866,0.7499057807022719,584.9722589020745
3713.6409,0.7490713264208813,544.3466955787862
3714.4973,0.7478582963304572,729.0615092200386
3715.3518,0.7467006425771611,804.7647524991186
3716.2085,0.7459871015686015,532.9868705888414
3717.0635,0.7457823495157911,666.5110013216118
3717.9185,0.7458092603586286,618.5641675725674
3718.776,0.745751693192466,466.29854300733484
3719.6313,0.7454963304361992,560.1723384999082
3720.489,0.7450481565283614,607.052107712721
3721.345,0.7443170297092718,652.880752073792
3722.2031,0.7431599117211883,688.6800816864717
3723.0593,0.7417258158285012,840.028396995754
3723.9158,0.7405686136954593,648.3947085980531
3724.7747,0.7402674329944231,601.3159578832934
3725.6316,0.7408479274371289,542.7051839617242
3726.4905,0.7416499909968761,565.1319983530165
3727.348,0.7418005506705883,574.8706010033958
3728.2073,0.7408152335893213,549.4335505564417
3729.065,0.7387752418785948,689.2575998291958
3729.9229,0.7360126980686152,676.3887169690423
3730.783,0.7327336254199525,763.1487343242503
3731.6414,0.7290070913447854,516.8021300266363
3732.5017,0.7249968423359088,873.793393053961
3733.3604,0.7212428656298392,786.4482488207956
3734.2214,0.7184552107703263,613.6947540400705
3735.0803,0.7172072484907351,502.28369606575086
3735.9417,0.7176274737946096,720.8403636734404
3736.8013,0.7194326728610858,658.3528332945662
3737.661,0.722078838980923,618.9293517451439
3738.5227,0.724916621453149,470.58253829263487
3739.3828,0.7272543924860708,597.1730766280303
3740.245,0.7285175156723476,475.4688358038095
3741.1055,0.7284264223201115,464.8180720629533
3741.9683,0.7272144656363891,693.0206623406633
3742.829,0.7255567475054537,806.3619664457709
3743.69,0.7241544690001259,915.793947210443
3744.5532,0.7233387187675995,667.1817239190475
3745.4148,0.7230444969537305,545.4750211676746
3746.2786,0.7231033994895278,948.2979541509187
3747.1404,0.7234901634741404,800.3147546977943
3748.0044,0.7242367586215336,479.9069265444564
3748.8667,0.7251954126820588,817.5780818943119
3749.729,0.7260381926910444,611.4275307708547
3750.5938,0.7265420574791226,579.2055390282168
3751.4565,0.7268651576988194,515.0402035922859
3752.3215,0.7274860326269438,1012.3958852123847
3753.1848,0.7288060079304788,673.5982303225129
3754.0503,0.73081779238342,660.5146804554857
3754.9138,0.7330549748175353,691.7416921626962
3755.7776,0.7349026935994423,507.2993618037106
3756.6438,0.7359666387748587,849.6528231165926
3757.508,0.7363243694181619,457.2085903671988
3758.3745,0.7364671847157982,637.3983324134264
3759.239,0.7368790144691059,723.7560480391415
3760.106,0.7376021240992764,499.62998240875226
3760.971,0.738137464630123,582.2285095479667
3761.8362,0.7377912520840049,571.0645193313587
3762.7036,0.736105460714439,516.6327131676054
3763.5693,0.7330884490094932,527.9793366936929
3764.437,0.7291071403670054,635.3654660439396
3765.3032,0.7247420635857157,690.668630893638
3766.1714,0.7205875692694343,588.9427397630932
3767.0378,0.7172518394517083,561.8477927572205
3767.9043,0.7152311006486048,705.3303035300908
3768.7732,0.71479942424842,708.054015745003
3769.6401,0.7158296061050715,648.2151236482995
3770.5095,0.717784196321155,669.5396335859488
3771.377,0.7199492624381346,573.5710547650804
3772.2466,0.7218039810831549,658.3972668852437
3773.1145,0.7231259789939652,605.1336643052495
3773.9824,0.7238583289531985,839.5088313050234
3774.8528,0.7238312133540162,702.0546647882492
3775.721,0.7227450084621242,787.3156401653337
3776.5918,0.7204703956956054,456.7374020806328
3777.4604,0.7174119414350316,545.5860952589809
3778.3315,0.7144460156641187,597.8416846128633
3779.201,0.7125629531504655,736.2225603969223
3780.0703,0.7123150420044965,764.8025453088402
3780.942,0.7135955683217576,540.331547626743
3781.8118,0.7157408172164399,661.4935612467509
3782.6838,0.7179476998049275,536.9817808888076
3783.554,0.7196163822352273,588.9582984226962
3784.4265,0.7204835372770696,527.2288658033522
3785.297,0.7204522365580088,579.9439934636998
3786.168,0.7194822055416662,605.6927947789459
3787.041,0.7175983949295354,715.0669266969256
3787.912,0.7150051769265952,614.3808444541072
3788.7856,0.7120787804988059,642.4017383089232
3789.6572,0.709360642663697,811.6520475234934
3790.531,0.7073726463799774,799.5273722460155
3791.403,0.7064270474615824,600.4677398002332
3792.2754,0.7063349885238149,732.4458658364385
3793.15,0.7064155381723484,651.1892914207588
3794.0225,0.7058943133607811,642.5806144007686
3794.8972,0.7044732784876532,555.8207383478044
3795.7703,0.7025651463329893,665.3785042748623
3796.6455,0.7009289095854789,828.3030861460123
3797.519,0.7001341948232407,691.6941390724021
3798.3926,0.7002504484747274,592.8871407556724
3799.2686,0.7009874956359713,571.3272786763232
3800.1426,0.7019615850917108,834.4963688420727
3801.0188,0.7028965946765594,642.8961018757711
3801.8933,0.7036532908378486,717.7916073256533
3802.77,0.7042204261025243,568.3374370379908
3803.6448,0.7046762608373066,600.0771277967253
3804.522,0.7051806296821186,779.342375057777
3805.3972,0.7059155725581352,664.1700452233583
3806.2727,0.7069986539976313,711.8996413129976
3807.1504,0.7083811800761323,634.8184122665484
3808.0261,0.7097948359783977,504.52717322440776
3808.9043,0.7108266420967426,646.1832024820399
3809.7805,0.7110404583137127,705.3089360645345
3810.659,0.7102098520492809,478.32256514698213
3811.5356,0.7085068839969263,648.4502590873687
3812.4126,0.706478935320614,825.925628352525
3813.2917,0.7047666033243307,715.9458740624457
3814.169,0.7037707784225672,713.918011415458
3815.0483,0.7034894206014569,625.8718997471339
3815.926,0.7036332610109696,549.8307832551006
3816.806,0.7037984838824314,762.1963630980839
3817.684,0.7036630979858276,643.439474806508
3818.5623,0.7031730150665418,605.2630510081216
3819.4429,0.7025716267677381,657.232447705975
3820.3215,0.7021790140280243,645.7367341278909
3821.2024,0.7020616071566818,615.9742745220365
3822.0815,0.7019301891274335,664.8851720855895
3822.963,0.7013097527227719,688.6081695335971
3823.8423,0.6998257675718645,664.8631262670733
3824.722,0.6974263501080158,539.6712429849164
3825.604,0.6944913218946694,655.9798779168013
3826.4841,0.6917361184670211,863.3795163550412
3827.3665,0.6897385400763371,867.2123885124175
3828.2468,0.6885381717246049,863.306709514439
3829.1296,0.6875539974345737,659.0545914342571
3830.0105,0.6860124164898334,817.6892315046806
3830.8916,0.6833434747520608,647.4808981472787
3831.7751,0.6792764096868721,588.77299676669
3832.6565,0.6738328166767609,647.3953772500923
3833.5403,0.6673442649537217,788.172469101863
3834.4224,0.6607298037264923,697.2630998569412
3835.3064,0.6552643689844968,723.8980146456335
3836.1887,0.6521571327056271,980.260614184833
3837.0713,0.6518845748980945,801.549583541967
3837.956,0.6540259908601169,751.1722124373159
3838.839,0.6574755838539103,659.4762709041831
3839.7244,0.6609984539675745,661.7327090541085
3840.6077,0.6637252794549771,580.1411561060339
3841.4932,0.6656180514047939,707.0688394067298
3842.377,0.6674838437949602,678.0794792917817
3843.261,0.6705308118111745,752.146286867236
3844.1472,0.675545885227837,897.0151426118081
3845.0315,0.6823199036115075,729.4274510292637
3845.9182,0.6899152717503466,588.3066548965189
3846.803,0.6971240297469198,625.855755160329
3847.69,0.7030239700122479,679.4532715308371
3848.5752,0.7070142501562657,571.2386081234313
3849.4604,0.7090750246874683,678.900278976571
3850.3481,0.7098581204329646,601.2898830940223
3851.234,0.710499365841865,734.0523725759081
3852.122,0.7120528494153787,572.0136076994899
3853.0083,0.7149365522062536,611.0229612948915
3853.8967,0.7188819083514743,598.8811730329708
3854.7832,0.7231893497008409,617.2778764230048
3855.6702,0.7271650925649753,665.9324106166852
3856.559,0.7303089720082933,568.9001331235743
3857.4463,0.7323338336927249,634.7877685323824
3858.336,0.7331103737451913,604.4718239139186
3859.2234,0.7325730667654257,639.6174176420488
3860.1135,0.7308254829803744,526.456661678523
3861.0015,0.7283144173984807,649.9189229762593
3861.8896,0.7257863188071602,695.1038987515656
3862.7803,0.7239809836751969,656.7554686374256
3863.6687,0.7232208148593215,615.4368098894156
3864.5598,0.7231993541940205,546.9507127168096
3865.4487,0.7231858650750704,538.2085215420778
3866.34,0.7223683834508909,656.2487953201415
3867.2297,0.720131784511574,725.4658373467538
3868.1213,0.7162033686123895,679.9623816055256
3869.0112,0.7108382295020883,677.0838949331101
3869.9014,0.7048102245884538,745.2557990807339
3870.7937,0.6991631202151294,653.0498694911101
3871.684,0.6947141843099133,915.5714073710215
3872.577,0.6915286301066815,603.4092144431077
3873.4678,0.689015550504132,672.0097308813993
3874.361,0.6862880333097545,702.8462880034886
3875.2524,0.6827305680543597,647.3318802272922
3876.1438,0.6782285302351819,1016.5136284604532
3877.0376,0.673145300402883,837.5124460494254
3877.9297,0.6681396369673729,958.3562209306953
3878.8237,0.6637602908885786,1175.002585782772
3879.716,0.6601785244370934,1027.8606588515427
3880.6108,0.6568989695089021,683.9397869023561
3881.5037,0.6529650098836107,799.4654383866143
3882.3965,0.6474043716511994,802.567459633849
3883.2917,0.6397432317550494,1072.9487219484945
3884.185,0.6302091404269883,617.8896032134319
3885.0808,0.6193543542922024,764.366751877529
3885.9746,0.6080070460392812,755.7972052996196
3886.8706,0.5970495596301922,746.3408047255956
3887.765,0.5876195065612204,811.2325341054543
3888.6592,0.5807260111866531,945.5324202422196
3889.556,0.5770120786249213,940.5780572320386
3890.4507,0.5766080860003295,851.4917223343878
3891.348,0.5791585449054892,993.465042812347
3892.243,0.5839847677066682,942.2844784566048
3893.1406,0.5902718161031962,815.7788045660267
3894.0361,0.5971502095023224,919.3164030236301
3894.932,0.6040267426131499,921.0115914680725
3895.83,0.6107025282895834,939.319029282708
3896.7263,0.6173545244449871,811.2424042580299
3897.625,0.6244810246168658,907.0305741661315
3898.5215,0.6323862093956023,984.6704613109022
3899.4207,0.6409386209407699,808.3762249338475
3900.3176,0.6493362806499272,787.3837522203381
3901.2148,0.6566486079466153,655.5895310427265
3902.1145,0.6622906540439905,762.1715002782196
3903.0122,0.6663318071855214,658.2176498994249
3903.912,0.6695153582022458,737.609892185034
3904.8103,0.6727786274827099,820.9209017016652
3905.7107,0.6768528159400027,772.3963430677566
3906.6094,0.6819683318315459,740.218546383766
3907.508,0.6880448244125142,701.5224011500793
3908.409,0.6949861725040803,619.4878291311152
3909.308,0.7027628784031172,701.6516495713348
3910.2097,0.7113621616205692,785.3588009592137
3911.1091,0.7203946080698649,512.7456077676765
3912.011,0.729265265689788,674.5112806885189
3912.9111,0.7372937029496068,696.7276768379695
3913.8113,0.7441480063599765,500.88895341472755
3914.7136,0.7497893510155471,682.8183346972837
3915.6143,0.7542366863591047,477.5344425370717
3916.517,0.7575024009862625,576.7934359197898
3917.4182,0.7595664914885418,570.6884627799853
3918.3215,0.7605838766411647,622.9826305380373
3919.223,0.76091188029599,614.5740636628809
3920.1245,0.7610129257073137,650.3632299661691
3921.0286,0.7612216254109562,543.7245222746847
3921.9307,0.7616376161906288,589.0198643973054
3922.835,0.7622740047840266,498.03243529471973
3923.7373,0.7632701982173746,693.0919998649326
3924.642,0.7648819984323794,647.5608516241745
3925.5452,0.7671759126317661,703.2218127178916
3926.448,0.7698538519531561,517.7344742974951
3927.3535,0.7723945209282647,515.0096015651687
3928.257,0.774338533599514,574.6488423721951
3929.1628,0.7754768345890686,627.3442531468501
3930.0667,0.7757056003411477,543.099429014682
3930.9731,0.774918230205446,428.40534803197727
3931.8774,0.7731048799137796,532.3389461716126
3932.782,0.7705851319964423,505.03031163467773
3933.6887,0.7680242288293266,605.2548624904013
3934.5938,0.7660607615554189,611.2840456775372
3935.501,0.7647991235235032,523.6981801609827
3936.4062,0.7638171223591443,601.6656380407709
