wavl,flux,ivar
3566.9744,1.0289485953339987,885.0986268864046
3567.795,1.0296793602260588,1090.6610679159137
3568.6177,1.0287941839323251,995.2831158551686
3569.4385,1.026027655799212,1131.556561160924
3570.2617,1.0214302599724545,1010.3173214597308
3571.083,1.0155662228108244,1170.8954122331484
3571.9065,1.0093489986717226,1114.6037071451262
3572.7283,1.0038871394398088,974.5840352901744
3573.55,1.0000023580843302,1346.5884888967523
3574.374,0.9979211499727909,1056.7465207823589
3575.1963,0.9972256023581455,913.12178369033
3576.0208,0.9972768030948824,1086.1114667216239
3576.8435,0.9978832593102764,1150.2948241252154
3577.6682,0.9994630474711349,1055.4691444429016
3578.4915,1.0024344224001154,1058.1134588107443
3579.3145,1.0064480136403304,1129.9292222122342
3580.14,1.0102733123639085,1050.2635109071016
3580.9636,1.0124921214289087,927.1377545357105
3581.7893,1.0124937078694036,970.9300043527757
3582.6133,1.0107374631675956,935.9209705903996
3583.4395,1.0082198616504128,1156.8487179860285
3584.264,1.005676276870953,1070.5203341154927
3585.0884,1.0031759928745536,1058.3962030255684
3585.915,1.000456514759574,883.7564420166341
3586.74,0.9975103881711951,1212.6881078773704
3587.5671,0.9947289362254358,1169.5509288155392
3588.3923,0.9926533625096455,1078.5685692596567
3589.22,0.9915790617688238,995.5532945930889
3590.0457,0.9915826887232079,904.1799990415061
3590.8716,0.9926786369469791,909.0018572445142
3591.6995,0.9948585984940594,1007.5177872423651
3592.526,0.9978855645695356,1134.3546418129433
3593.3542,1.001246529648199,1063.1599530656217
3594.181,1.004291001538448,932.5050882960439
3595.0098,1.006531579244244,1294.4251069603076
3595.8367,1.0076583793687883,998.4345434600556
3596.6638,1.0075242566694118,1209.4125697946108
3597.4934,1.006145342666197,958.063957872141
3598.3208,1.0038468320914284,1154.0780670495706
3599.1506,1.0012183923223532,1124.8237664717412
3599.9788,0.9988840181334925,1225.601744794077
3600.8088,0.9970794212348054,947.6783172611002
3601.6372,0.995542839741742,1130.5573984012253
3602.4678,0.9937240968454931,892.4796810371938
3603.2964,0.9912490324756806,799.975022979065
3604.1252,0.9881435686490169,1289.9904757751726
3604.9565,0.9848221318292893,1240.519635641484
3605.786,0.9819901969734123,908.3732183846416
3606.6172,0.9804162840096723,1066.8690805587248
3607.447,0.980664880816132,1726.3570305062124
3608.2788,0.9826833232550306,996.0455070260097
3609.109,0.9856788412914284,965.4342367874619
3609.9392,0.9884866059122513,1208.3462544478446
3610.7717,0.9900999709660567,1059.9325638113683
3611.6023,0.9900017506272918,1062.3621453686437
3612.435,0.9882011895488906,983.5207099599835
3613.266,0.9850989682676803,1169.085781572965
3614.0994,0.9813155005842567,1369.0135271204551
3614.9307,0.9775875055213045,1234.0175942580986
3615.7625,0.9744853671085086,1376.2048175542354
3616.5962,0.9722335276596181,1069.906804997281
3617.4282,0.9706743066128917,1289.0177448656118
3618.2625,0.9694684452762794,965.6291913681071
3619.0947,0.9684525404516291,1014.846200707274
3619.9292,0.9677106525202317,1151.932019117799
3620.762,0.9673672498551134,1291.2513860618012
3621.595,0.9673110123379012,1225.6873856218597
3622.4302,0.9672373601031686,1158.099190122933
3623.2634,0.966934853839942,1314.0338995161796
3624.0989,0.9664533957759427,1045.7553700264345
3624.9326,0.9659380210614523,1211.2514826122037
3625.7686,0.9653178240188713,1099.9546612931078
3626.6028,0.9642715655878639,1080.6685336880337
3627.437,0.9625414874653644,1057.616049591026
3628.2734,0.9603207201198226,1226.2166253389446
3629.1082,0.9583189640190356,1163.0873948713138
3629.945,0.9572909843744044,1309.2153086765934
3630.78,0.9574542215989627,1394.981714194691
3631.6174,0.9582368574325724,995.1412143556491
3632.453,0.9587060054096529,967.4383636481006
3633.2883,0.9583261397985204,1044.990943126088
3634.1262,0.9573231462254791,1244.426936416003
3634.9622,0.9563710452674941,812.5163305402397
3635.8005,0.955885182732404,1204.7953092464502
3636.637,0.9556141660486897,1040.5988846541352
3637.4756,0.9547962131214355,896.5901548895467
3638.3123,0.9527587133065191,1097.3911109694031
3639.1492,0.9494335622057997,1064.540834180151
3639.9885,0.9454350260346519,1142.7045021566819
3640.826,0.9417340060076294,1192.1132271271144
3641.6653,0.9390889463021185,1158.3225754452856
3642.5032,0.9378091538732636,1207.6702944692872
3643.343,0.9376893659430482,1152.2297704335185
3644.1812,0.9381753868628354,1345.3296743635585
3645.0195,0.9385465514162704,1225.5400825667316
3645.86,0.9381090930531466,1338.3732908208951
3646.699,0.9364134595983119,1145.2340918120026
3647.5398,0.9334614769623724,1187.5873988652409
3648.379,0.9298453363582355,1179.5752984309938
3649.2202,0.9265321823617353,1357.418054777315
3650.0596,0.9244607178498013,1076.7940490616384
3650.8994,0.9239807586240424,1055.4869568142708
3651.7412,0.924697151023933,1423.4923820599474
3652.5813,0.9257223851558497,1352.7416486952354
3653.4236,0.926270720110286,1181.9853351370332
3654.2642,0.926122208093823,1448.5250555817015
3655.1067,0.9256221341865264,1113.9201014019409
3655.9475,0.925207893491677,1118.492497199545
3656.7886,0.9249325896324401,960.7246672979057
3657.6318,0.9244355698515733,1531.3212458795165
3658.4734,0.92329679758038,1252.530125698732
3659.317,0.9213728192766188,924.0779030708883
3660.1587,0.9189208038654765,1121.413526486985
3661.003,0.9164477495109573,1252.974148541539
3661.845,0.9144927280965223,1737.0865838579944
3662.6875,0.9133078690601243,1087.561811050867
3663.532,0.9128381108344485,1089.0473088596405
3664.3748,0.9129516677688762,1104.4302038593119
3665.2197,0.913658613792969,1305.8826720540972
3666.063,0.915019965521709,1194.1266342156619
3666.9084,0.9169146543929403,1049.1108463420287
3667.752,0.9189560570450946,1684.9931964830078
3668.5977,0.9207006890354222,1322.3108911231725
3669.4417,0.9218042931025022,1045.4060564041158
3670.286,0.922112470660645,1631.5114642268597
3671.132,0.9215799413414818,1365.6125814621012
3671.9768,0.9201566679598653,1169.2523028100973
3672.8235,0.9177001013798731,1263.1138591120368
3673.6685,0.9141256715393221,1373.3819937931007
3674.5156,0.9096933899814773,1322.6622885454187
3675.3608,0.9053232078282697,1452.631945390221
3676.2063,0.9023101353855131,1635.2892472570925
3677.0542,0.9016599424191175,1266.5982677327022
3677.9,0.9033608143861879,1430.2170666369539
3678.748,0.9062934934838931,1192.127646439573
3679.5945,0.9089058455757184,1223.527190789065
3680.4429,0.9102149362450918,1409.9799170410129
3681.2896,0.9102497818381552,1232.576430974325
3682.1365,0.9097438719296633,1168.9656707461877
3682.9856,0.909333693113423,1275.6085080311598
3683.8328,0.9090014790355376,1117.3374081817112
3684.6824,0.9081392733410442,1133.7959402275237
3685.53,0.9061311562322492,1145.4611577079015
3686.38,0.9029040007906698,1077.5411142473763
3687.2278,0.8991460454577364,1424.6884867356391
3688.0762,0.8959703948853429,1653.96076590497
3688.9265,0.8943961188281486,1422.102280017476
3689.7751,0.8948233091312382,1295.9668273132047
3690.626,0.8968069713520146,1196.41904014299
3691.475,0.8992903573360538,1434.0577551818506
3692.3264,0.9012145540377205,1313.9652821598047
3693.1758,0.9020457764511951,1698.2196248413375
3694.0254,0.9019568151585381,1180.4697667540759
3694.8772,0.9014647449737077,1555.4700831270538
3695.7273,0.9009424223985268,1144.2932709031884
3696.5793,0.9003651748878506,1119.2393231848464
3697.43,0.8994836006565942,989.3376973309364
3698.2825,0.8981930533280363,1105.8443528348357
3699.1333,0.8967945584393234,1201.7756299696864
3699.9841,0.8958319803182486,1339.5707124160815
3700.8374,0.8956270028244099,1284.9953305696256
3701.6887,0.8958581602049591,1083.4152157366466
3702.5425,0.8956294997460191,1398.0146950919686
3703.3943,0.8940948509845427,1249.6677705225436
3704.2483,0.8911330209584144,1169.2369564854748
3705.1003,0.8875174713374686,1430.9909494076555
3705.9526,0.8843213126312964,1440.643313025787
3706.8074,0.882202374461497,1345.1457112298626
3707.66,0.8811224153182106,1415.888431745894
3708.515,0.880633568648651,1264.0819490509327
3709.3682,0.8804385796397969,1379.4887664430535
3710.2234,0.8805950708447828,1575.5089033057004
3711.0771,0.8812815290988231,1317.339689611813
3711.9307,0.8824254878932767,1525.9577200675885
3712.7866,0.8836088710873645,1161.2618797613018
3713.6409,0.8842956014000778,1283.8034475249926
3714.4973,0.8841629216569881,1238.7198551242313
3715.3518,0.88321373284564,995.1113225369556
3716.2085,0.8816916063902349,1271.3696090459082
3717.0635,0.8799642248660582,1462.6492088621847
3717.9185,0.8784263320348848,1266.3514990274907
3718.776,0.8774787890201512,1275.6562277089427
3719.6313,0.8774647463417702,1753.0539664131436
3720.489,0.8784862073720576,1379.0623630734883
3721.345,0.8802304745352041,1511.891831748821
3722.2031,0.8820447709737962,1336.0389675066353
3723.0593,0.8832939492094795,1404.5015288314607
3723.9158,0.8838107636403167,1377.0806288461188
3724.7747,0.8839261004454095,1384.4134602907054
3725.6316,0.8840867422398128,1315.5013208907685
3726.4905,0.8844060371406322,1346.6974632013955
3727.348,0.8845710115667577,1322.2805643150627
3728.2073,0.8841600093797908,1406.8454744356127
3729.065,0.8830086549502634,1326.1359356067255
3729.9229,0.8812648697348671,1279.330065100582
3730.783,0.8791627767428375,1366.8206220620887
3731.6414,0.8768747621470133,1272.2427235923449
3732.5017,0.8745837999347491,1534.1773947239103
3733.3604,0.872716516519609,1384.8513381418634
3734.2214,0.8718496320162232,1505.03409388973
3735.0803,0.8723725554491423,1320.1858201668201
3735.9417,0.8741253725520238,1330.2198889588826
3736.8013,0.8764124096363936,1463.0663356476114
3737.661,0.8784288338568859,1350.9239293470716
3738.5227,0.8796968101084554,1367.3246047636533
3739.3828,0.8801720573028308,1398.8743610784106
3740.245,0.8800144036041087,1377.285234403551
3741.1055,0.8792971164600185,1322.4710127183575
3741.9683,0.87798860288653,1287.9905161558386
3742.829,0.8761546577065985,1699.114122540956
3743.69,0.8740565382152758,1516.9465368657268
3744.5532,0.8721058356758632,1153.3576229558932
3745.4148,0.8707782021945482,1647.8302666365596
3746.2786,0.8704786904293823,1341.0499381682623
3747.1404,0.8714003574240359,1394.4421459242574
3748.0044,0.8733476819739103,1369.4750375358558
3748.8667,0.8757152849403855,1273.0297952039095
3749.729,0.8777396215578578,1250.4232198068303
3750.5938,0.8787924214477107,1572.3294281905082
3751.4565,0.8785885114394372,1256.3591671038055
3752.3215,0.8772816988415321,1288.7354037255602
3753.1848,0.8754138980878745,1405.7518772136154
3754.0503,0.8736546831471719,1304.2408835001847
3754.9138,0.8724438259522658,1246.974037240811
3755.7776,0.8717309586494972,1307.7439450659717
3756.6438,0.8711736950172302,1237.136395410392
3757.508,0.8705560078350831,1579.0553532723302
3758.3745,0.8699640274127379,1575.4174593175171
3759.239,0.8695792772421725,1306.112434451442
3760.106,0.8693834814863903,1642.1558224154844
3760.971,0.8691638553977643,1502.4372854715352
3761.8362,0.8687219003020437,1253.3752885399504
3762.7036,0.8680165100001789,1253.7964349944298
3763.5693,0.8671464256678878,1448.9556510598086
3764.437,0.8662520124768188,1599.054406638531
3765.3032,0.8654504560867741,1541.5374739020826
3766.1714,0.8647472926879396,1407.2381649482195
3767.0378,0.8640133263654876,1325.862815751155
3767.9043,0.8630407252715078,1353.06656856417
3768.7732,0.8616799398492233,1529.8792070464847
3769.6401,0.8599502944681143,1484.5165736717458
3770.5095,0.8580116258268723,1629.9206592742214
3771.377,0.8561186167484771,1597.544639805968
3772.2466,0.854486591181461,1404.1543104238096
3773.1145,0.8532694452290851,1570.632238690241
3773.9824,0.8525401155467216,1487.395612242762
3774.8528,0.8523154450932457,1471.9057909230226
3775.721,0.8525000635151868,1419.9375385424285
3776.5918,0.8528259815843913,1252.0244298763614
3777.4604,0.8529236715742883,1485.1035411474368
3778.3315,0.8525328407578269,1286.9012488084848
3779.201,0.8516782521028413,1312.300649539803
3780.0703,0.8506523144910891,1685.6964469681845
3780.942,0.8498209576771603,1500.7579216490874
3781.8118,0.8494182589659012,1532.655788825186
3782.6838,0.8494778552074159,1440.3386047018075
3783.554,0.8499641905835087,1630.3669820589998
3784.4265,0.8508971295568207,1632.4838572165831
3785.297,0.8522635864593269,1401.9427371548481
3786.168,0.8538094959927304,1274.3744829327347
3787.041,0.8549640848803506,1432.5251018483254
3787.912,0.8551017415225342,1320.97637460727
3788.7856,0.8539716578175928,1366.742818913974
3789.6572,0.8518693489424523,1376.8923178135497
3790.531,0.8493882199071521,1252.3554890621344
3791.403,0.8470634928543719,1809.0175270827922
3792.2754,0.8451203736166856,1409.464898368361
3793.15,0.8435169539026138,1597.3598089367001
3794.0225,0.8420520754901403,1391.671596049416
3794.8972,0.8404046105160139,1420.2063831550322
3795.7703,0.8382627000111805,1466.9200722684075
3796.6455,0.8355103674045754,1476.288693867564
3797.519,0.8325180970117393,1489.9474451719914
3798.3926,0.8301348953244037,1626.7335003807948
3799.2686,0.8293529488468409,1657.4452874630779
3800.1426,0.8307008353411134,1496.1053030797934
3801.0188,0.8337981837652277,1787.4127171825508
3801.8933,0.8374602410212094,1285.1647431327435
3802.77,0.8404222098055244,1420.4325342083507
3803.6448,0.842059606971493,1437.5163991842815
3804.522,0.8427130588328772,1314.6504828676648
3805.3972,0.8432312584700201,1515.7535993627273
3806.2727,0.8442588985403799,1440.6458331379454
3807.1504,0.8458358241845619,1375.2766060190327
3808.0261,0.8475904609192982,1354.3000043863367
3808.9043,0.8492567541085917,1348.2465389346703
3809.7805,0.8508836208396917,1506.6351679160693
3810.659,0.8526922542707465,1291.1588695235655
3811.5356,0.85473680240011,1535.103676041051
3812.4126,0.8568340472832089,1224.1620901847527
3813.2917,0.8587018391390222,1448.5195301716028
3814.169,0.8601447333079183,1603.3764058752492
3815.0483,0.8611507375275153,1516.8271621303156
3815.926,0.8617908678410976,1610.3483641272937
3816.806,0.8621198100012732,1315.491247665717
3817.684,0.8620861046327034,1276.1543217756546
3818.5623,0.861533451826761,1477.162421890471
3819.4429,0.8602595200210374,1426.114148541258
3820.3215,0.8581442757647948,1500.0071904707668
3821.2024,0.8552046341648547,1333.1426004607222
3822.0815,0.8516050974412035,1334.250883816191
3822.963,0.8475069184788028,1631.9535161993383
3823.8423,0.8430866789563849,1514.6638764319073
3824.722,0.8385178104441808,1433.139766529506
3825.604,0.8340266472198486,1394.6441014255954
3826.4841,0.8298547437430598,1692.8701538681032
3827.3665,0.8260766850389917,1374.6152067302537
3828.2468,0.8226371894420768,1616.4307334990983
3829.1296,0.8192830721019895,1710.8665551377883
3830.0105,0.8156420108912211,1662.4515309007425
3830.8916,0.8112696442087494,1596.7734256438757
3831.7751,0.8059878958474539,1603.9360223985032
3832.6565,0.8003120884534782,1621.430096540547
3833.5403,0.795356650985867,1872.1031414897286
3834.4224,0.7923349177336428,1636.7871964454055
3835.3064,0.7916482036432743,1745.4438487057387
3836.1887,0.7926365585182924,1539.4292886249011
3837.0713,0.7941102051352571,1564.329155872642
3837.956,0.7952660692284619,1509.9651834275198
3838.839,0.7961256822732067,1653.7476224961752
3839.7244,0.7972639347710397,1371.4612487794675
3840.6077,0.7992167920952157,1543.1856288340502
3841.4932,0.802236748477381,1500.0446325205087
3842.377,0.8063565541150622,1650.812193253672
3843.261,0.8115583522998027,1729.1560950090136
3844.1472,0.817671439560526,1521.9860809530865
3845.0315,0.8241317014079053,1439.9291425687288
3845.9182,0.8301233590855039,1597.6792959568984
3846.803,0.8348724148207558,1592.8654023937738
3847.69,0.8382812477927796,1385.7376420210617
3848.5752,0.8410102017899559,1584.3034124850788
3849.4604,0.8441481937268901,1825.9851545606691
3850.3481,0.8485414891520858,1599.1883401479993
3851.234,0.8543032826232857,1563.1376362788053
3852.122,0.8608593320982694,1470.2156300564761
3853.0083,0.8671078916298338,1385.0007664957568
3853.8967,0.8719422567707387,1348.2816907538386
3854.7832,0.8745698873559544,1300.3596317943498
3855.6702,0.8748956840545817,1378.1411616383707
3856.559,0.8734918202652979,1504.44956873056
3857.4463,0.8713609621960249,1496.974477817248
3858.336,0.8694875350199889,1581.3093686239672
3859.2234,0.8684886396974989,1318.5418852252353
3860.1135,0.8684264764610494,1358.9013774429873
3861.0015,0.8689691873420979,1265.2898869474302
3861.8896,0.8697065588878786,1226.9659204883676
3862.7803,0.8703983422664245,1419.6494339563833
3863.6687,0.8709505118854585,1433.3539237291425
3864.5598,0.8712193213141898,1419.716601080914
3865.4487,0.8708427557268549,1214.5068455985668
3866.34,0.869318882881782,1538.4645599841713
3867.2297,0.8663139063657312,1514.7782934460124
3868.1213,0.8619397842316627,1360.4249164280934
3869.0112,0.8568425369939661,1475.4861929457234
3869.9014,0.851811457799893,1541.8028382929008
3870.7937,0.8473232318608996,1676.6754745411783
3871.684,0.8433421702374004,1562.105988029808
3872.577,0.8394476725569455,1296.4525754642052
3873.4678,0.8352998161431585,1522.6456702600703
3874.361,0.8307457983725067,1655.8946078203403
3875.2524,0.8257926677820744,1586.7460457009502
3876.1438,0.8203471876060868,1315.7394923119814
3877.0376,0.8142150124447773,1563.9505250837897
3877.9297,0.8072871922049226,1512.8077203098555
3878.8237,0.7995449400347838,2230.6154060774697
3879.716,0.7911323998860472,1829.20556404129
3880.6108,0.782104570312451,1919.4208093549626
3881.5037,0.7725440350769703,1674.3264510150232
3882.3965,0.7625166433389234,1815.3696986887985
3883.2917,0.7522609155268484,1656.842425826398
3884.185,0.7422836350127627,1836.1024217314675
3885.0808,0.7330056848038052,1856.9416397224786
3885.9746,0.724714011020972,1989.8012517262523
3886.8706,0.7173136600680778,1975.7035291327388
3887.765,0.7107076943343119,2400.0285594897705
3888.6592,0.7050544018996462,2081.1412842494406
3889.556,0.7010155607363199,2098.0905194743377
3890.4507,0.6995489356348438,2334.94394093657
3891.348,0.7012758238166572,2161.376929037331
3892.243,0.7059919024335953,2057.1794485573764
3893.1406,0.7127105242283384,2008.2307387788626
3894.0361,0.7201628171234863,2156.4916015835743
3894.932,0.7276405498202269,2006.3399406165574
3895.83,0.7352185829772862,2224.670359753661
3896.7263,0.7433562645724031,1909.1325468936966
3897.625,0.7524458560802446,1730.8422070956058
3898.5215,0.7623216887394026,1970.5836833274807
3899.4207,0.7725636196566819,1712.7623373837191
3900.3176,0.7826316799088423,1519.737872521707
3901.2148,0.7923096223197822,1785.7348883598502
3902.1145,0.8016599787842968,1340.7149121673642
3903.0122,0.8108708703932141,1727.722143681011
3903.912,0.820245608759628,1445.3904033292474
3904.8103,0.8297955032851431,1723.1924570582178
3905.7107,0.8392193099910547,1497.7336282468716
3906.6094,0.8478166503640885,1362.3008774587988
3907.508,0.8550146216669189,1532.4803789241232
3908.409,0.8607094551244939,1622.1420576776584
3909.308,0.8653011867048266,1431.1303545950188
3910.2097,0.8694550181966447,1391.511147390602
3911.1091,0.8736155850053292,1371.9863563915042
3912.011,0.8779570405348318,1375.272285651725
3912.9111,0.8824261310359474,1329.67177311963
3913.8113,0.8869905920085923,1391.498448555809
3914.7136,0.8916782421746857,1212.2712265841294
3915.6143,0.8964736699963882,1431.3715874230809
3916.517,0.9012684913070174,1151.433589805388
3917.4182,0.9057285146156995,1378.3466767326868
3918.3215,0.909496461406097,1268.055267741214
3919.223,0.9123676057227684,1367.5210218023701
3920.1245,0.9145190051418597,1196.330759196902
3921.0286,0.9163825924114495,1247.9092472425427
3921.9307,0.9183407744841993,1561.9753425498907
3922.835,0.920513535142078,1093.1633140153533
3923.7373,0.922728557412582,1194.35180236674
3924.642,0.9247512936518887,1202.721886886685
3925.5452,0.9263750728885055,1176.2434936415136
3926.448,0.927410759529343,1317.9310641954291
3927.3535,0.9276084777027318,1077.2086514380167
3928.257,0.9267727726845345,1254.8102686589546
3929.1628,0.9249789501952536,1431.3896902858592
3930.0667,0.9226262419630468,1242.421172836943
