wavl,flux,ivar
3566.9744,17.049934037417344,63.38036271229992
3567.795,17.052636763477366,64.29719037169033
3568.6177,17.045060969308413,62.71111758116419
3569.4385,17.026218337798383,65.51554792686169
3570.2617,16.99931149829896,62.639519101556544
3571.083,16.97080402142599,65.4175050984827
3571.9065,16.947255842653988,66.59733388555684
3572.7283,16.93348301908976,65.85773009903059
3573.55,16.930965830126738,66.38840551102952
3574.374,16.938018004972303,66.35624713333051
3575.1963,16.950455961500243,65.970333811096
3576.0208,16.96354651735463,66.47381039970604
3576.8435,16.974113359873126,65.66678708006995
3577.6682,16.982062225220737,64.30149259410574
3578.4915,16.98920258217292,67.28037612565461
3579.3145,16.996555974776026,63.77404503895819
3580.14,17.002073497070096,63.80406187512399
3580.9636,17.00112792385964,66.14940741410867
3581.7893,16.989725882442844,64.46189281940543
3582.6133,16.96778833679617,63.96904512536969
3583.4395,16.939625643379653,67.33245234771836
3584.264,16.911901330460257,65.01570001891315
3585.0884,16.889597260606518,61.3999630774853
3585.915,16.87405520686552,66.93626233013906
3586.74,16.8635455273388,65.23985532165399
3587.5671,16.85510880393538,63.801004502186274
3588.3923,16.846397034172167,63.84456988784552
3589.22,16.835586375970944,68.1616139356183
3590.0457,16.8211265254936,64.82353580678607
3590.8716,16.80193029322028,64.90814349988175
3591.6995,16.77846449176931,66.18997017518707
3592.526,16.75325080150163,67.06623509025758
3593.3542,16.729566208834882,69.69137858955206
3594.181,16.710354860661262,66.60485188527035
3595.0098,16.696613028188622,66.15352350806276
3595.8367,16.687172103368344,69.17259757675696
3596.6638,16.679170339154552,67.62705206964031
3597.4934,16.670279830284592,67.32743913988897
3598.3208,16.660759229358074,68.66298929835882
3599.1506,16.653232743880004,67.82196145288208
3599.9788,16.65055495554957,70.61645422938403
3600.8088,16.65298527299971,66.48206040890419
3601.6372,16.657474647304372,67.8645275349229
3602.4678,16.659566980410332,66.9561136724434
3603.2964,16.656395568689096,66.73801936519365
3604.1252,16.648430368579998,68.10377401906777
3604.9565,16.63868313038299,67.81095956771595
3605.786,16.630764426806778,68.09678781173622
3606.6172,16.62709130939042,66.69084011016773
3607.447,16.628307345681083,67.59815015958746
3608.2788,16.632711085272,67.15126501131792
3609.109,16.635893901488085,66.79124038894743
3609.9392,16.63173737014628,65.09258624091024
3610.7717,16.615129406109524,68.05965620868479
3611.6023,16.58524488483955,68.44413638886616
3612.435,16.54595017915318,69.84915320024456
3613.266,16.504115353349817,67.7705130471585
3614.0994,16.465786813394757,69.98312376010247
3614.9307,16.435280128413794,70.42949863071013
3615.7625,16.41467019598768,68.51727990141013
3616.5962,16.404630795934693,68.7660295957455
3617.4282,16.403953427565867,70.741257910255
3618.2625,16.40901104149121,69.43569064328501
3619.0947,16.4147605177327,70.3463859928496
3619.9292,16.417127813600498,71.06703338688216
3620.762,16.414911161407225,70.02302927748151
3621.595,16.409867719488528,71.27189909109904
3622.4302,16.40498280938853,67.69592784931075
3623.2634,16.402562762921782,73.8697084778741
3624.0989,16.403104225836266,69.4058285466723
3624.9326,16.40544018002599,69.78478237802481
3625.7686,16.40760654736308,70.05761033280125
3626.6028,16.40787976506456,69.2133029510249
3627.437,16.405578186044206,70.26946409223868
3628.2734,16.40125500655832,69.67256141422422
3629.1082,16.396348392271587,69.94958163665564
3629.945,16.39205228622974,71.69795407953805
3630.78,16.388047223691895,72.10900352051736
3631.6174,16.38183609568836,70.19881500322865
3632.453,16.370134003983786,69.51948141399805
3633.2883,16.351453006271367,70.17447716663439
3634.1262,16.327817568090207,71.25324604563713
3634.9622,16.30387757736793,69.41967614917574
3635.8005,16.283214803163933,71.7278822571063
3636.637,16.266389105850426,74.69452269906607
3637.4756,16.25090147621847,69.77741882696444
3638.3123,16.233978168834074,70.31965408513936
3639.1492,16.21458961327959,70.32764871703178
3639.9885,16.194283431229724,73.32900548952811
3640.826,16.17638704494165,72.25125285515982
3641.6653,16.163697306408466,71.09708822016675
3642.5032,16.156995048454807,70.49476150229427
3643.343,16.154243738946366,69.21706118908244
3644.1812,16.151744608962154,72.4751263168522
3645.0195,16.146171224855717,72.18067479630707
3645.86,16.13649111105715,72.29810073927692
3646.699,16.124567507393106,72.88394105934839
3647.5398,16.113675115922124,72.72810842065763
3648.379,16.106295829382198,71.15072367608121
3649.2202,16.102018245803208,73.21020342878751
3650.0596,16.097572798179687,73.50676132366186
3650.8994,16.088990489732687,74.12670306319941
3651.7412,16.07508461525034,75.63814815280448
3652.5813,16.059534435104393,72.42290724965136
3653.4236,16.0488577603742,73.2005425538843
3654.2642,16.047917528785625,74.76898214415432
3655.1067,16.056072867153393,75.3011213362298
3655.9475,16.067769985724034,72.54697821070467
3656.7886,16.07677948838429,74.42816751296262
3657.6318,16.080167991854427,74.71884498413972
3658.4734,16.07931891307257,72.1122851059719
3659.317,16.07799702787116,74.43401293809906
3660.1587,16.079366144327178,75.21333664170554
3661.003,16.084017969814663,74.18639512581294
3661.845,16.089800821324513,73.65852394182808
3662.6875,16.093299046939407,73.05545641411497
3663.532,16.091555557883407,74.16661451423103
3664.3748,16.083257149395298,70.7936672692791
3665.2197,16.068956951384727,73.58650436786013
3666.063,16.050892347052383,71.23472411717142
3666.9084,16.031762277305305,73.45378760927227
3667.752,16.013576137806243,72.9164711223788
3668.5977,15.99638633484348,73.55338691252332
3669.4417,15.979311019483623,75.02595955134684
3670.286,15.961910795818671,71.73278627784525
3671.132,15.945100861455145,73.61381534375393
3671.9768,15.930313055739814,74.63981056254843
3672.8235,15.917849224050487,75.01122514580783
3673.6685,15.90687908700584,74.98185865704846
3674.5156,15.896312053353805,75.19115371542813
3675.3608,15.886209592879268,75.1003153015448
3676.2063,15.877761249819317,75.3239880306251
3677.0542,15.87237405476751,74.96843596150173
3677.9,15.870393244015967,73.87419494937751
3678.748,15.87060859250408,77.04751329853507
3679.5945,15.87120324946209,74.6729355670161
3680.4429,15.871108744427346,75.72693859748523
3681.2896,15.870698365580969,75.80110639893515
3682.1365,15.871376468076528,75.76534802821206
3682.9856,15.874475390097698,74.96884360270762
3683.8328,15.880056364482225,75.58475248507985
3684.6824,15.886464710096444,77.5206386912906
3685.53,15.89090328772441,76.56422678927449
3686.38,15.891209909079208,76.25288015031666
3687.2278,15.887405568512674,75.36868987416503
3688.0762,15.882019682600683,77.02088826391162
3688.9265,15.878662484727712,75.06771053837765
3689.7751,15.879702204668213,77.50857320921918
3690.626,15.884533519678817,72.90979550045061
3691.475,15.889763515270559,75.07813327098488
3692.3264,15.891324299050511,74.90642196984645
3693.1758,15.88691541769208,75.12819095300355
3694.0254,15.87728243449587,74.85134690758667
3694.8772,15.865448399978927,74.13625927704808
3695.7273,15.854852858338301,76.13554169458337
3696.5793,15.847275273818324,74.68976413383328
3697.43,15.84228526921783,75.50815160133482
3698.2825,15.837742445779085,75.64822675826981
3699.1333,15.83125771678578,76.62175127685481
3699.9841,15.821407833889372,74.7054201221764
3700.8374,15.808374297296139,78.75710985806477
3701.6887,15.793865008857576,76.27226313117283
3702.5425,15.779832504711433,77.20782583488021
3703.3943,15.767415379402335,75.71915547424787
3704.2483,15.75591580156382,78.02116156727858
3705.1003,15.743467426098254,75.11510002584627
3705.9526,15.728104431574552,76.03649386373706
3706.8074,15.709028071455348,79.13628740536092
3707.66,15.687172718960268,78.13323458741034
3708.515,15.664303441484522,77.9254051460489
3709.3682,15.642583285898692,77.64250289286193
3710.2234,15.623566158919788,78.02644742624247
3711.0771,15.60838274592426,76.54222399205237
3711.9307,15.597451683329856,79.41735897814074
3712.7866,15.590804379124942,81.01153451172182
3713.6409,15.58865700024527,76.72070435449147
3714.4973,15.591659044324114,81.39870859802613
3715.3518,15.600297134428425,78.24234777756114
3716.2085,15.613650819486015,78.07501050445855
3717.0635,15.628695031421831,77.48375495425006
3717.9185,15.641551122245628,78.12873333739556
3718.776,15.64923634015887,78.04560683432581
3719.6313,15.650754999533765,77.69963095010189
3720.489,15.64694707239843,76.17196837131242
3721.345,15.639196784981879,77.78061300017461
3722.2031,15.628241813871192,76.5811328946523
3723.0593,15.614233765331512,75.4782109618645
3723.9158,15.597471764429109,78.63200156627816
3724.7747,15.579161837769165,79.89240827304211
3725.6316,15.561161649490442,76.50335143848878
3726.4905,15.544579245365497,79.06426150635379
3727.348,15.52958333455557,80.49645308600905
3728.2073,15.515676519590647,77.79033796570896
3729.065,15.502831979036394,77.85788433040811
3729.9229,15.491556782193639,78.69162535310285
3730.783,15.482436234837891,79.0529814384256
3731.6414,15.475425601870041,77.4990677433323
3732.5017,15.469596902334045,80.43104996298938
3733.3604,15.463942335803187,80.12535533868456
3734.2214,15.458072728367695,79.22408727334366
3735.0803,15.452594954618657,80.4880749167273
3735.9417,15.44860555779326,79.45365716258877
3736.8013,15.44702288242185,79.27124109262985
3737.661,15.447675883078473,81.38341429632514
3738.5227,15.448962301162998,82.33548760537977
3739.3828,15.44846503938749,79.79679297736574
3740.245,15.444537207518302,80.32236829750497
3741.1055,15.437629123144273,77.54686033806269
3741.9683,15.429956443677812,77.88451178951622
3742.829,15.423984083490593,81.33776427248527
3743.69,15.420810591662566,80.06724059646348
3744.5532,15.420061497263415,81.30231039796242
3745.4148,15.42062464286696,79.76696385261829
3746.2786,15.421257500573148,76.38898221405294
3747.1404,15.42074476883718,81.84204392814402
3748.0044,15.4182141549442,78.43756865523376
3748.8667,15.413955245352273,78.3581140585463
3749.729,15.409825089620023,81.19806601196026
3750.5938,15.40830362099623,79.5719862464587
3751.4565,15.410560309320108,81.0235865931085
3752.3215,15.415295743680204,78.71937844929334
3753.1848,15.419585017965753,79.29547467122062
3754.0503,15.421075499431797,80.32335586882301
3754.9138,15.419491085216489,78.56350092449037
3755.7776,15.416479433147268,78.72806608430767
3756.6438,15.41395366486507,83.86519072863031
3757.508,15.412346378508046,80.57796413409417
3758.3745,15.41003174071196,80.88353573378538
3759.239,15.404499970319971,77.28787336025357
3760.106,15.3940341685384,81.51761345837856
3760.971,15.378777518362432,80.54739405503658
3761.8362,15.36029323760914,81.9382022761385
3762.7036,15.340838757260226,80.80377954539402
3763.5693,15.322875698055496,81.29098153678522
3764.437,15.308108774538892,81.89418922591877
3765.3032,15.296939351032716,80.0153617278897
3766.1714,15.287804655604663,79.57180920847809
3767.0378,15.278043843322347,80.93087647977535
3767.9043,15.265246335622113,79.87162419005635
3768.7732,15.248613663265305,82.23460749027616
3769.6401,15.229756004704797,82.50656382678032
3770.5095,15.212200625126982,84.13192677964507
3771.377,15.200595958217985,82.49165275156598
3772.2466,15.198507777646906,83.44913383889543
3773.1145,15.206994945736854,84.14254756642451
3773.9824,15.224333048782157,83.9898870356505
3774.8528,15.247340534184948,82.756177721359
3775.721,15.272544833160357,83.29491170520238
3776.5918,15.29750913185909,80.86353619453786
3777.4604,15.320770552513233,80.94862328185505
3778.3315,15.342586069337772,82.70767185281727
3779.201,15.36392627749549,82.93577272395159
3780.0703,15.385539648621588,81.31289496642054
3780.942,15.406740652068471,81.15536851545028
3781.8118,15.42541353117583,79.62970968417288
3782.6838,15.439355247520368,80.84757635987903
3783.554,15.446654430193888,82.28121696729225
3784.4265,15.445863333464068,80.08539499622565
3785.297,15.435744057032688,80.9255486826071
3786.168,15.41578530025913,82.11992843520271
3787.041,15.38684505509432,80.78896843194299
3787.912,15.351410685500161,83.40445496794442
3788.7856,15.311988691061268,79.71510458956746
3789.6572,15.270678863132419,81.16111552712952
3790.531,15.228316465324237,80.98671618417093
3791.403,15.185897946190462,83.74434699242312
3792.2754,15.14426810200717,83.97014967498227
3793.15,15.104035185325314,84.74758082377178
3794.0225,15.065297070746924,81.13527396621667
3794.8972,15.027066734234669,86.15996841219734
3795.7703,14.988970506894058,84.60415521751196
3796.6455,14.951794836772235,85.84901185178354
3797.519,14.918638647260186,85.57277945693255
3798.3926,14.893539690869401,87.31055677875607
3799.2686,14.88027239670884,87.96237225004323
3800.1426,14.881119255725547,89.37787392415186
3801.0188,14.896180782980416,87.47217757426958
3801.8933,14.9236621897537,86.2302006991542
3802.77,14.960987606563156,87.47983274908889
3803.6448,15.005276541923903,89.17408163042347
3804.522,15.054432536101253,86.11041224549095
3805.3972,15.106031153762759,82.99986036220798
3806.2727,15.157950483899693,82.91020664352308
3807.1504,15.208422911798868,84.20768256569016
3808.0261,15.256252306532945,82.23343643994856
3808.9043,15.30138691470548,80.3861851992981
3809.7805,15.342977147548082,81.98392768006374
3810.659,15.37968812855951,81.70820057584153
3811.5356,15.409549395918251,80.13898544341806
3812.4126,15.431750276199676,81.01128171267742
3813.2917,15.446806191780551,81.81128444987247
3814.169,15.455866852968406,80.23090508282621
3815.0483,15.459827010204409,81.69581105801724
3815.926,15.458516138822132,80.72841016410032
3816.806,15.4508220639208,77.98733485869779
3817.684,15.435171516004289,81.33067444883991
3818.5623,15.410126054945913,77.03998961105295
3819.4429,15.37514314339319,79.13694217567507
3820.3215,15.33159885586998,80.4274879659543
3821.2024,15.28203096526648,83.10334149978586
3822.0815,15.22981755560556,82.11398572635488
3822.963,15.176820033056202,83.46554329575694
3823.8423,15.123463812678581,84.35258690849928
3824.722,15.068188081889206,84.18447679177748
3825.604,15.008749520226148,86.92904502824139
3826.4841,14.943475176501922,85.85725453218721
3827.3665,14.87061723896163,87.02239456312483
3828.2468,14.789947064557325,88.20888415109454
3829.1296,14.701734107001394,89.19364755809855
3830.0105,14.608393272718123,93.07977336826987
3830.8916,14.51241693790787,91.59266599168352
3831.7751,14.416156494933423,92.71528354151887
3832.6565,14.322311314448385,94.56510973778687
3833.5403,14.23294214612228,94.54929592227805
3834.4224,14.152635280733037,95.63629372459435
3835.3064,14.08748576306169,100.10601272295636
3836.1887,14.045719187047606,97.02744621170294
3837.0713,14.034819414832976,100.57440249522894
3837.956,14.05994992945434,99.83425579822537
3838.839,14.121568832402597,99.49078769871004
3839.7244,14.215122743327813,96.88147439730312
3840.6077,14.33077671450267,93.26782224915864
3841.4932,14.457693716874134,92.21907386932604
3842.377,14.585546079316819,92.95011528729243
3843.261,14.709157537885883,90.59903091635033
3844.1472,14.827987042831442,87.47702085470128
3845.0315,14.943155147964992,86.3619869056448
3845.9182,15.05640029597802,82.83741232827568
3846.803,15.166333232247254,83.35392701656669
3847.69,15.271407224974684,82.89047698207781
3848.5752,15.369452768454877,81.68917342042639
3849.4604,15.460018318233146,81.4520186853706
3850.3481,15.543390660606674,78.53033754152119
3851.234,15.61962817802867,78.90912504072344
3852.122,15.689982307474926,81.79808124066787
3853.0083,15.755050520242538,76.05872899887842
3853.8967,15.815313548584674,77.84430068646584
3854.7832,15.869336642119341,75.75449102614594
3855.6702,15.915323247248333,77.99232267237382
3856.559,15.951850553533387,76.38284838824305
3857.4463,15.978870614321659,76.42437892388982
3858.336,15.998226039718375,74.47771366691164
3859.2234,16.012158979678937,75.35342275472775
3860.1135,16.022354401239053,75.77551659731733
3861.0015,16.02873370185954,74.74494677392303
3861.8896,16.029739937567033,74.3777331341058
3862.7803,16.023050836966547,76.58529759417266
3863.6687,16.006816896307768,76.16518207697429
3864.5598,15.980267563618835,74.55426757207118
3865.4487,15.944282764821615,77.23897312003251
3866.34,15.900530321359538,76.41934657355624
3867.2297,15.851505077883447,78.29796733077167
3868.1213,15.79886599543421,78.63580891465608
3869.0112,15.743474005166375,77.72828786741937
3869.9014,15.684457598068324,80.79433458823823
3870.7937,15.620016192322725,77.86874131898549
3871.684,15.548717957304886,75.89485556877986
3872.577,15.468962616731147,81.84264900913574
3873.4678,15.380390296746148,81.35276835265262
3874.361,15.281856891675853,84.65016252102384
3875.2524,15.172858141017603,85.3798533541831
3876.1438,15.052292536066131,86.18420718606983
3877.0376,14.919849373027457,86.86909420210138
3877.9297,14.777508396191156,89.20214433563496
3878.8237,14.626483858567973,90.39372830076547
3879.716,14.46825295682108,96.7248365530499
3880.6108,14.301701742480647,93.37416161283564
3881.5037,14.127311726936645,97.00433556442198
3882.3965,13.94600129268804,99.60723779948009
3883.2917,13.760227759509958,102.93266021422505
3884.185,13.573980713759124,108.58219874110688
3885.0808,13.38809254286163,110.06167484366833
3885.9746,13.204432505254951,112.42541228429835
3886.8706,13.024684352157857,118.56897754718626
3887.765,12.856089515941592,117.77709745188514
3888.6592,12.709445803405513,120.40895399290835
3889.556,12.598999095473344,126.0141478247394
3890.4507,12.539682798593782,131.12617694084094
3891.348,12.540659801891548,129.86815701002106
3892.243,12.602557194199377,127.69005563059832
3893.1406,12.717281898113715,125.89058176573754
3894.0361,12.870458159644166,118.07164701688879
3894.932,13.048704742143624,115.25837420738172
3895.83,13.24265752225234,112.30982230227475
3896.7263,13.445515936393756,108.323747869975
3897.625,13.654317331747734,105.36521233427227
3898.5215,13.864083935474543,103.56789175492078
3899.4207,14.07214396427633,98.21463056754726
3900.3176,14.275039944025291,93.32254727059072
3901.2148,14.473336894751542,92.39507282521643
3902.1145,14.669055607412142,90.58161360154435
3903.0122,14.86256232388373,89.54280546900146
3903.912,15.054587957203822,86.53415579343226
3904.8103,15.242835309426447,83.05285324838204
3905.7107,15.426530934308502,81.123495549683
3906.6094,15.604019139743642,79.99073018402652
3907.508,15.775178790969536,77.99216418662166
3908.409,15.939187574836284,75.43624622983667
3909.308,16.09290737016348,76.46459846620978
3910.2097,16.234501142027586,73.03325244376913
3911.1091,16.362504944577363,72.26145818873007
3912.011,16.479569983005742,72.80056060729792
3912.9111,16.58893910489568,70.20404412856928
3913.8113,16.69451353202159,67.78801184740384
3914.7136,16.798572779022496,68.43698228477074
3915.6143,16.900491325226742,68.78969231230074
3916.517,16.99858109017784,67.18974402222287
3917.4182,17.089265546603727,66.24607241812168
3918.3215,17.170225114626362,66.68283320309473
3919.223,17.240326315391098,66.30424962797251
3920.1245,17.301525250643643,64.85081566651837
3921.0286,17.35726875964776,65.66182505763318
3921.9307,17.410158498765007,64.70958463333743
3922.835,17.46114173876724,63.9463766266278
3923.7373,17.508303253546543,62.80912929520471
3924.642,17.549097276455484,63.52272439112722
3925.5452,17.581155164223027,63.474971270508014
3926.448,17.60386654912901,63.84613722830334
3927.3535,17.617839415186065,63.81872338421123
3928.257,17.623939251616452,63.09546647490613
3929.1628,17.622643317186355,62.63371165675602
3930.0667,17.613605839380547,62.09258236785752
3930.9731,17.596138103339985,64.13742006623016
3931.8774,17.570469069113418,63.317752154518644
3932.782,17.538243067957204,62.68774912179246
3933.6887,17.502269746762746,65.48384040653313
3934.5938,17.46527910712406,63.83290068392533
3935.501,17.4276558508262,64.22896327142374
3936.4062,17.38752691768816,64.34878187411088
3937.3142,17.34098626202349,64.64290446537952
3938.22,17.284571432320217,65.24161120671795
