wavl,flux,ivar
3566.9744,1.273123968657663,2062.22862065585
3567.795,1.272146388289761,2333.0324819454336
3568.6177,1.2697560337379261,2209.739080974185
3569.4385,1.2660753279234689,2141.1008637675445
3570.2617,1.2615080327009314,2221.211356826187
3571.083,1.2568423004037255,2310.1184808548605
3571.9065,1.2529096777993953,2367.43018892499
3572.7283,1.2502534189503773,2146.277025298401
3573.55,1.2487876715251698,2174.827215907431
3574.374,1.2479467690299406,2176.235543421004
3575.1963,1.247130545029549,2201.8728723015447
3576.0208,1.2461785170721196,2078.577399642353
3576.8435,1.2455884770098649,2350.8657859428986
3577.6682,1.2462641687012113,2034.5571274013098
3578.4915,1.2489104264589166,2040.979127017514
3579.3145,1.2533662409371849,1914.9556465435762
3580.14,1.2583982215608884,2195.438511796468
3580.9636,1.262207697696407,2085.4221159235835
3581.7893,1.2635906931533738,2299.491542907418
3582.6133,1.26260966117784,2262.0672970506585
3583.4395,1.260422290125044,2257.5080465793817
3584.264,1.2584253419801286,2404.9941172660647
3585.0884,1.2573957711746508,2234.7262092835167
3585.915,1.2572007271603263,2080.911216087068
3586.74,1.2570899143852008,1978.0990286361516
3587.5671,1.256374013193728,2212.2177361373106
3588.3923,1.2550581688476692,2155.5090557061653
3589.22,1.253923488950436,2191.252419243236
3590.0457,1.253998729190955,2180.2883454410076
3590.8716,1.2557431756711568,2222.4010665233977
3591.6995,1.2586273722152952,2072.3905572033523
3592.526,1.2613139351358955,2098.49821515853
3593.3542,1.262391577538675,2260.8053596210284
3594.181,1.2610959106127502,2118.1994036012393
3595.0098,1.2577098265272069,2152.6535221697486
3595.8367,1.253383469901083,2338.8361084665016
3596.6638,1.249387576819686,2227.954011452659
3597.4934,1.2464420854236669,2259.9819605339676
3598.3208,1.244544445778158,2151.4405626344947
3599.1506,1.243265560721999,2293.325244015291
3599.9788,1.2422104663489688,2214.5071878006765
3600.8088,1.2410860651374722,2290.13609853051
3601.6372,1.2396833409461203,2000.0978632007534
3602.4678,1.2380275504421403,2500.2401105691997
3603.2964,1.2366598568235996,2407.070076931579
3604.1252,1.236475361461812,2279.3207191480587
3604.9565,1.2381689838630112,2141.40660827702
3605.786,1.2416712285934497,2085.530204985238
3606.6172,1.2461242982888554,2444.259727625572
3607.447,1.2502290442703081,2430.617581341037
3608.2788,1.2528876926921002,2375.2999018534047
3609.109,1.253605760484336,2237.2698568443743
3609.9392,1.2526590769481232,2139.829316033424
3610.7717,1.2508295541332357,2227.8125116770293
3611.6023,1.2490039985037742,2373.012698765077
3612.435,1.247718184028553,2344.10587147878
3613.266,1.2469691090655985,2258.5818025624026
3614.0994,1.246325160241633,2221.311224068038
3614.9307,1.2453636271983972,2280.099443491299
3615.7625,1.2440443577706792,2403.5509878635094
3616.5962,1.2427727909356974,2275.0015692146444
3617.4282,1.2421367463464459,2112.8505339277363
3618.2625,1.242541888943447,2555.12295745952
3619.0947,1.244041905031617,2119.0602627207754
3619.9292,1.246394077359474,2160.1507760055774
3620.762,1.2491704916093038,2125.8049692825666
3621.595,1.2518729603585161,2325.5343074176335
3622.4302,1.2539221532700229,2140.0672803499624
3623.2634,1.2547067608512028,2101.926957812318
3624.0989,1.2538611931896595,2257.1278095720604
3624.9326,1.2516595334448892,2178.239478703856
3625.7686,1.249368860064496,2298.0357419781058
3626.6028,1.2493197074565752,2209.1226682122397
3627.437,1.254238938747987,2541.408634536863
3628.2734,1.2657424198259193,2589.6779115537715
3629.1082,1.2821818397032574,2254.5845581232898
3629.945,1.2981307349333726,2476.488053721699
3630.78,1.306448065913632,30.577817777775532
3631.6174,1.3029567619121298,2190.102378473165
3632.453,1.2892195120714225,1950.0842949174084
3633.2883,1.271195336195263,1933.8548245389472
3634.1262,1.2550135726494815,2351.193305887424
3634.9622,1.2439451183943728,2116.4383030072318
3635.8005,1.2379256732466288,2418.2136024126953
3636.637,1.235570857480325,2406.082917678171
3637.4756,1.2356611978027832,1979.3227111165218
3638.3123,1.237633893303395,2341.5927873235955
3639.1492,1.2411355031867333,2542.2069481261024
3639.9885,1.2455267350214272,2305.56902858577
3640.826,1.2497178769606898,2080.053343271263
3641.6653,1.2525640236338875,1939.5518620267264
3642.5032,1.2532969347770104,2080.179350292575
3643.343,1.2519000614837752,2037.6905938534162
3644.1812,1.2489956929470365,2197.144019255565
3645.0195,1.2453411028929542,2247.0141631859783
3645.86,1.2413704053376462,2279.981223082012
3646.699,1.2372436148803563,2189.59816627181
3647.5398,1.2332180382258195,2340.2014720501197
3648.379,1.229992153255128,2241.1521086641023
3649.2202,1.2282873743861742,2287.4796846914505
3650.0596,1.2282045455320953,2254.375920050501
3650.8994,1.2289262088615083,2262.2284547559693
3651.7412,1.2292327820517708,2267.8678412759923
3652.5813,1.2282772070254435,2234.812244770518
3653.4236,1.226018903253268,2583.130437505042
3654.2642,1.2231688735632895,2377.2468290443367
3655.1067,1.2207504841104584,2270.500298421834
3655.9475,1.219599859999862,2437.066401899351
3656.7886,1.2199242564636885,2374.207733176628
3657.6318,1.2213325362257939,2011.1723031664135
3658.4734,1.223135530286087,2328.0351651154347
3659.317,1.2246448109656192,2410.0402029598663
3660.1587,1.225246065612939,2318.561947941772
3661.003,1.2245796102588193,2299.4676123870227
3661.845,1.222861741713072,2161.2913875492086
3662.6875,1.2210693090457627,2469.290109938214
3663.532,1.2206803042960936,2204.0209233074197
3664.3748,1.222979042870437,2265.766446195998
3665.2197,1.228331386058321,2428.037982362524
3666.063,1.2357939327068013,2064.177978071124
3666.9084,1.2434705674858504,2416.0810220393587
3667.752,1.249155594212826,2324.417077968409
3668.5977,1.2513654781584493,2348.6584586301747
3669.4417,1.2498743930028506,2256.3867517961694
3670.286,1.2457957629757839,2054.6442288141543
3671.132,1.2408930131012723,2068.318522391099
3671.9768,1.2366561880557643,2340.8864615726575
3672.8235,1.2336034325703684,2189.1716246370024
3673.6685,1.2314726983047193,2288.0138393143357
3674.5156,1.2297927899217702,2048.1188169124075
3675.3608,1.2283980252479434,2372.7633471164195
3676.2063,1.227361473876359,2417.0882385921923
3677.0542,1.2266798413434303,2322.2241641746077
3677.9,1.2260854891497763,2251.5900712892512
3678.748,1.2251903723126014,2649.7074114637994
3679.5945,1.2238343926967994,2167.6315694727946
3680.4429,1.222238411138743,2013.785978470452
3681.2896,1.2208473517734606,2388.4534804205646
3682.1365,1.2199020890342864,2245.6410440775244
3682.9856,1.2191853251557916,2185.515912959904
3683.8328,1.2181812456587322,2159.6470656330043
3684.6824,1.2165185496630342,2088.079648992121
3685.53,1.2142875959063246,2232.6858947388796
3686.38,1.211878668986312,2269.665302730779
3687.2278,1.209745174588626,2230.955769043839
3688.0762,1.2083226509721419,2436.703323768453
3688.9265,1.208154096807779,2675.090640851721
3689.7751,1.2096953255797744,2280.9398904457908
3690.626,1.2128302882528457,2461.1680139197224
3691.475,1.2166161889919966,2535.326707100485
3692.3264,1.2198318449354202,2136.5920651764695
3693.1758,1.221792640020064,2262.4657748987693
3694.0254,1.2228176363301193,2297.731477976739
3694.8772,1.223808278656577,2224.1429955298927
3695.7273,1.2255037722223212,2346.470441077112
3696.5793,1.2279954760781893,2418.765828339378
3697.43,1.2306573466023203,2134.8828624302487
3698.2825,1.2325309571600125,2239.412795567634
3699.1333,1.2328708860535216,2334.5405970700913
3699.9841,1.231688055230162,2217.503860726046
3700.8374,1.2298129424035913,2137.3320407911656
3701.6887,1.2284921274542484,2216.107928494292
3702.5425,1.228687921021446,2160.788907826367
3703.3943,1.2305971597037069,2217.347510622187
3704.2483,1.2335634712463623,2190.2125581745545
3705.1003,1.2363554700803618,2163.010599236813
3705.9526,1.2377622805969521,2240.277276104169
3706.8074,1.2371181159149796,2307.6143998881275
3707.66,1.2346377116679323,2000.649515031247
3708.515,1.2312657429625085,2096.957182980113
3709.3682,1.2281468478432986,2337.726191071331
3710.2234,1.2258651006808792,2659.071580342047
3711.0771,1.224132802504847,2180.5750729564393
3711.9307,1.222040969035145,2552.0369196482234
3712.7866,1.2188384480500836,2435.917081303828
3713.6409,1.2146760437449255,2312.972199826594
3714.4973,1.2106194817456317,2480.888987340514
3715.3518,1.2080022182511163,2455.225019535216
3716.2085,1.2074413351969666,2188.3214580164
3717.0635,1.2085892332196264,2223.0291849775545
3717.9185,1.2106701918103222,2449.281119178309
3718.776,1.2132694874002414,2393.121270548782
3719.6313,1.2165266840388693,2214.838252559264
3720.489,1.2207469632151458,2260.0693114308556
3721.345,1.225700409948734,2291.7531162878367
3722.2031,1.230415500393758,2245.522108361213
3723.0593,1.2334605855595624,2226.6975573991385
3723.9158,1.2338692801837963,2100.0994540213887
3724.7747,1.2317858969990345,2238.726638467135
3725.6316,1.2284456140250746,2309.0805021751116
3726.4905,1.2253346742221922,2272.7805315930723
3727.348,1.22339540116624,2434.502832569027
3728.2073,1.2227110896750568,2382.9321832989444
3729.065,1.2228057693016952,2222.9452076608086
3729.9229,1.2230470218696712,2446.503973287941
3730.783,1.2229638527047606,2424.8178197768502
3731.6414,1.222432439111931,2286.9361065901003
3732.5017,1.2217211279922149,2349.0124909921624
3733.3604,1.2213337557656179,2441.377038049616
3734.2214,1.2216933516136643,2153.5644982238546
3735.0803,1.2229126085232689,2296.6972427697415
3735.9417,1.224769611650601,2475.642097331181
3736.8013,1.2267466296373224,2471.922206009889
3737.661,1.2281511651077623,2477.751363226397
3738.5227,1.2283453798974822,2242.2564452295715
3739.3828,1.2271451754169584,2147.9162586563493
3740.245,1.2250444946935157,2272.113031922006
3741.1055,1.222980969510791,2373.68611027408
3741.9683,1.2217005078662948,2237.520699039356
3742.829,1.2213057722605654,2274.851457033911
3743.69,1.2212288914604505,2067.3268646684155
3744.5532,1.2206744695964726,2097.2444394429936
3745.4148,1.2191122691393521,2071.3072032297137
3746.2786,1.2164942375003576,2047.2038139217227
3747.1404,1.213222301083928,2242.695422892655
3748.0044,1.2099219587127068,2312.7823929016877
3748.8667,1.2073305594251253,2408.381684819936
3749.729,1.206102280075374,2299.649684061642
3750.5938,1.2066806980895832,2221.316237605028
3751.4565,1.2090713659637982,2351.0475435398084
3752.3215,1.2126795548984801,2285.016283880121
3753.1848,1.2163678258908706,2111.4197711442157
3754.0503,1.219041128011739,2167.7965724137466
3754.9138,1.220285442522837,2233.3584061664014
3755.7776,1.2206968095973718,2174.108644546491
3756.6438,1.2214429103079774,2198.4436057403514
3757.508,1.2234753357110881,2276.4285459622542
3758.3745,1.226959662919275,2188.5893721267535
3759.239,1.2311801461263936,2163.4213044045123
3760.106,1.23502332462458,2132.6848427835444
3760.971,1.2375265698382385,2407.2433020467583
3761.8362,1.2384215347400158,2210.858342795401
3762.7036,1.2381227705577662,2192.2022717611612
3763.5693,1.2373007793751591,2261.62264196268
3764.437,1.2362864985820488,2386.713290389036
3765.3032,1.234850412050722,2062.439189505392
3766.1714,1.2325163770311323,2225.5958146467606
3767.0378,1.229153573213197,2152.638091639246
3767.9043,1.2251782319986029,2308.2034063558763
3768.7732,1.2212488299259214,2317.928770841618
3769.6401,1.2178126288361364,2255.4267925282848
3770.5095,1.2148861866595422,2343.96466248864
3771.377,1.2124210204195491,2434.3254203859865
3772.2466,1.210582297205331,2278.3046492203794
3773.1145,1.209749488415062,2352.951622088263
3773.9824,1.2101161855471247,2333.762254954233
3774.8528,1.2114829081947378,2259.960340491873
3775.721,1.2134207695240777,2256.6644395898875
3776.5918,1.2156743125193017,2109.843738600638
3777.4604,1.2182666878905724,2281.3751221630437
3778.3315,1.2213704852983507,2140.513734325379
3779.201,1.2250020787182632,2316.476432001044
3780.0703,1.2289883019187562,2199.399858023132
3780.942,1.2330514522075418,2230.320928618087
3781.8118,1.2369177207874016,2339.474224938659
3782.6838,1.2404335952048025,2300.569616136739
3783.554,1.2434487295443881,2191.108526478635
3784.4265,1.2458320413743442,2193.2018344741523
3785.297,1.2474279003291395,2106.2014277541152
3786.168,1.2481129041988446,2221.5994435237435
3787.041,1.2477144123957684,2135.82921593642
3787.912,1.2460014309869778,2325.6657463250363
3788.7856,1.24281775910528,2109.44279078095
3789.6572,1.2383741378870528,2227.3603681115123
3790.531,1.2332681538770967,2234.2994884261266
3791.403,1.2282804295552423,2185.123343175395
3792.2754,1.223817370193705,2237.5340963178915
3793.15,1.2196236135345113,2258.1285547690204
3794.0225,1.214871179512341,2329.6134051453273
3794.8972,1.2085178694833387,2368.615686345425
3795.7703,1.2000277645351292,2482.6533523581616
3796.6455,1.1897842571655994,2406.966005544613
3797.519,1.1793566610750417,2245.551750117799
3798.3926,1.1708695995461353,2509.0733809187104
3799.2686,1.1661862375617862,2554.3819305522334
3800.1426,1.1661347516521112,2363.960531769567
3801.0188,1.1702335772087784,2399.069185719964
3801.8933,1.1771571854350233,2706.7963037992117
3802.77,1.185486861106099,2409.4660440760717
3803.6448,1.1940212173314741,2456.4319081566728
3804.522,1.2019647531471185,2117.6649317245747
3805.3972,1.2087145453372536,2331.2459550233434
3806.2727,1.214066272924727,2220.068029991514
3807.1504,1.2182158926706637,2146.7026500957754
3808.0261,1.2216698706272369,2278.351746823244
3808.9043,1.2251123976415335,2116.421264867329
3809.7805,1.2291275082393245,2306.987406859212
3810.659,1.2340793815188558,2174.092051273749
3811.5356,1.2398552538665226,2173.6690660095887
3812.4126,1.2459309037859219,2084.997315359706
3813.2917,1.251619973392222,2025.8047420252503
3814.169,1.2564202298885443,2086.549680267236
3815.0483,1.2602449222343717,2195.726160608492
3815.926,1.263124810808163,2169.588805330134
3816.806,1.264980643547686,1976.2006517788295
3817.684,1.2655078368869097,2022.3559050060383
3818.5623,1.2644354661951154,1962.2693449939075
3819.4429,1.261806916994413,2107.35211776641
3820.3215,1.258168812526994,2094.0128999352173
3821.2024,1.254394544621508,2053.111354450841
3822.0815,1.2513442999305973,2064.0146817265168
3822.963,1.2493045438917716,2084.10665277087
3823.8423,1.2477376377531464,2169.058766937428
3824.722,1.24539300884033,2146.0223353118304
3825.604,1.2408670162841198,2104.216457163326
3826.4841,1.2332799026729477,2190.0121580404652
3827.3665,1.2225453762745615,2206.4804315155416
3828.2468,1.2094757524350497,2362.530347664892
3829.1296,1.1952550700274185,2188.966456266859
3830.0105,1.1812140831798859,2425.2925821726
3830.8916,1.1680931705093693,2592.1602736165214
3831.7751,1.155830000045314,2434.8605082432696
3832.6565,1.143795972488914,2577.6634271521407
3833.5403,1.1312979283489102,2577.3282699463653
3834.4224,1.1187009820591054,2589.3309168056344
3835.3064,1.107465729099534,2914.544659489208
3836.1887,1.0996672500502263,3074.4154636967382
3837.0713,1.0967014879788812,2758.36259611033
3837.956,1.0987443991229602,2866.838778634689
3838.839,1.1049342117519094,2845.8643487568215
3839.7244,1.1141573621416812,2917.023095501028
3840.6077,1.1254884901946967,2817.269015114953
3841.4932,1.1383998305304637,2481.5597894438592
3842.377,1.1523330897891517,2187.8842498378035
3843.261,1.1667678617332657,2540.5107774900466
3844.1472,1.1812419658161122,2426.89895172846
3845.0315,1.1954257873689824,2287.0450371464144
3845.9182,1.2094516312260655,2007.0702974237981
3846.803,1.2235825382657022,2452.65724414013
3847.69,1.2383002789516067,2428.5064363093925
3848.5752,1.253751662033827,2135.3160485827325
3849.4604,1.269714190688164,2119.789658201748
3850.3481,1.2854423582525536,1894.3429882053008
3851.234,1.2997225516716961,1960.6080400674668
3852.122,1.3115742328272533,1888.2455687258562
3853.0083,1.3204773313511646,1730.7935769741734
3853.8967,1.3268406070987588,1861.4274145965862
3854.7832,1.3315570861704504,1930.23953854823
3855.6702,1.3355114055330983,1883.161657828321
3856.559,1.3390698826041803,1878.4537646717577
3857.4463,1.3421309649274427,1611.2863851401207
3858.336,1.3445789392111083,1906.22056383742
3859.2234,1.346552280882952,1810.461161312361
3860.1135,1.3484675236397936,1811.0869508877565
3861.0015,1.3506411814569883,1960.5286319878162
3861.8896,1.3529178138397957,1856.6586580791763
3862.7803,1.3544547271067573,1785.642558983166
3863.6687,1.353975855007306,1714.8242830470303
3864.5598,1.3504637903995098,1891.5273222256465
3865.4487,1.3438204447366406,1820.1530761358667
3866.34,1.3348884131306815,1958.7469863803851
3867.2297,1.3250712224259846,1875.9115816441745
3868.1213,1.3154780471119045,1862.7435137527543
3869.0112,1.306623661579472,1732.6983945540276
3869.9014,1.2982962916851297,2072.4744326554055
3870.7937,1.2900053952657842,2044.6606363419635
3871.684,1.281499906197978,2120.0743877001214
3872.577,1.2728419212129665,2031.497216428079
3873.4678,1.2643834313934723,2089.7910608969173
3874.361,1.256195540643954,2023.0281614009293
3875.2524,1.2479810037704453,2060.2779685852815
3876.1438,1.2390703122262274,2431.7399125483676
3877.0376,1.228871645437624,2253.50747701669
3877.9297,1.2172458233086765,2446.7381735885797
3878.8237,1.2042526737413473,2167.1297226574115
3879.716,1.190036299962931,2507.230225813562
3880.6108,1.1744158799668047,2407.125402850616
3881.5037,1.1571937469303788,2568.6121626024687
3882.3965,1.1380301220542144,2514.229065129167
3883.2917,1.116660148975302,2611.8101945814797
3884.185,1.093333524517838,2690.2513501266158
3885.0808,1.0687322056904571,3185.2570940119267
3885.9746,1.0444334468779959,3027.349152782405
3886.8706,1.0219865888336186,3175.603887561849
3887.765,1.0027480406575555,3207.487292783708
3888.6592,0.987337317446358,3483.8957901083313
3889.556,0.9761503711251905,3546.29743525126
3890.4507,0.9698353525058788,3371.2789379687397
3891.348,0.9690971359193278,4139.169974249829
3892.243,0.9743662038908729,4129.0462633327
3893.1406,0.9854022887069593,3553.9731274597443
3894.0361,1.0011878118622792,3331.4509984970773
3894.932,1.0204238228111746,3128.7069294918438
3895.83,1.0418310466701286,2805.85452211936
3896.7263,1.0642078231000918,2887.1702112761645
3897.625,1.0869265659586094,2926.4110712189677
3898.5215,1.1094422840087101,2714.701666956064
3899.4207,1.131515668512654,2637.3266251824925
3900.3176,1.1524683440443833,2795.302674871305
3901.2148,1.1715717956950271,2247.877768572221
3902.1145,1.1881724693684785,2316.0253675159756
3903.0122,1.2021822640356457,2272.2133860654785
3903.912,1.2148222447500665,2166.6000748334204
3904.8103,1.2281800082800416,2091.0658627093358
3905.7107,1.2444112108649779,1948.4764907276108
3906.6094,1.264183824270094,2036.3404701543202
3907.508,1.286463918285121,2093.528951049506
3908.409,1.309291139830898,2121.997727692144
3909.308,1.3308971235918043,1928.9352738612006
3910.2097,1.35074074230997,1904.306665280381
3911.1091,1.3689078865634459,1711.6887230711961
3912.011,1.385892518867395,1776.9089984883535
3912.9111,1.4016916626638931,1821.8849115768874
3913.8113,1.4158925747022648,1673.117398434098
3914.7136,1.4278159457145556,1683.37718279071
3915.6143,1.4370523232054948,1625.200933612482
3916.517,1.4441188422616789,1574.1075331061213
3917.4182,1.450184676491563,1584.0186480853279
3918.3215,1.4565423200778118,1532.261610921483
3919.223,1.4638227922921594,1490.1075513879055
3920.1245,1.4719411003965797,1458.9098233640846
3921.0286,1.4803965730601227,1480.5077807562461
3921.9307,1.4886095276240707,1579.1481070219852
3922.835,1.4961965653262828,1571.3965060115336
3923.7373,1.5027525816709577,1444.2043250769984
3924.642,1.507982874605649,1373.458954515341
3925.5452,1.5117256940151267,1499.8446927076886
3926.448,1.5141510050154021,1393.1275324980384
3927.3535,1.515605566970367,1395.7671640816948
3928.257,1.5163468394378214,1424.8467900605674
3929.1628,1.5163876483396244,1436.0150356790373
3930.0667,1.5155171880996705,1466.7523264036884
3930.9731,1.5134772906517526,1584.7896502740025
3931.8774,1.5101710397995922,1434.4256516866944
3932.782,1.5057505785566438,1467.9081569610173
