wavl,flux,ivar
3566.9744,0.7144675511384343,1146.7282297979857
3567.795,0.7131965750289151,1007.7232011164829
3568.6177,0.7118214289063107,1228.8823717855157
3569.4385,0.7100117602489393,832.5407762205448
3570.2617,0.7075084183824829,1426.8691360813546
3571.083,0.7046238726533531,948.9132739878786
3571.9065,0.7022152423650889,979.6148796774704
3572.7283,0.701182964262967,950.3032306912568
3573.55,0.7017564525263669,1135.4829942409224
3574.374,0.7033285596789345,852.2444467573229
3575.1963,0.7048421621514791,735.8082150272971
3576.0208,0.7054325650493418,1079.3519872988509
3576.8435,0.7047609266893026,972.8360936748421
3577.6682,0.703008041400107,1166.072853832737
3578.4915,0.700684335013868,771.7237133663419
3579.3145,0.69836376517585,1248.9853105076425
3580.14,0.696436120954365,1120.6501248621037
3580.9636,0.694993347861938,1093.0265692023634
3581.7893,0.693926693439635,1384.33441209208
3582.6133,0.6932521158151396,912.8232632724089
3583.4395,0.6932293052867278,855.4330895214874
3584.264,0.6941889627900499,1452.3979488174964
3585.0884,0.6962470904709234,853.0930772046061
3585.915,0.6992367174581156,905.2827259927085
3586.74,0.7027982937149246,1161.8577298615019
3587.5671,0.7065603717409538,1067.756691388425
3588.3923,0.7101379160224682,976.9965454396065
3589.22,0.7132588072106749,877.2378737189775
3590.0457,0.7157217697794817,873.2558326649507
3590.8716,0.7174069093786979,1113.5534592923918
3591.6995,0.7181837515844958,1055.7436114874051
3592.526,0.7179497232092864,1209.3397953143606
3593.3542,0.7167044400786658,960.3664563482987
3594.181,0.7145553618361371,792.4945204439638
3595.0098,0.7116781856054772,1149.6346619491208
3595.8367,0.7084027733196574,707.658446296788
3596.6638,0.7051950111385449,1087.7139018902644
3597.4934,0.7025671685479271,1189.3573837308709
3598.3208,0.7009146359544384,1020.3109074973347
3599.1506,0.7003990805031458,1620.136232741004
3599.9788,0.7010117837236808,1014.7378014695933
3600.8088,0.7025066646307514,1169.699372637694
3601.6372,0.7042787847968276,901.5850465232618
3602.4678,0.7054965639457275,926.8898455544903
3603.2964,0.7055251189292074,969.9732814420718
3604.1252,0.7043656108573495,705.8157893264275
3604.9565,0.7025905897994259,1041.1381211194598
3605.786,0.7009231377020552,1996.5942446021463
3606.6172,0.6997994158944031,819.4379126210863
3607.447,0.6992864750927862,1355.8086455681935
3608.2788,0.6991104153489709,837.0482634693599
3609.109,0.6987294972739633,1085.4514787132557
3609.9392,0.6975138881711846,925.8913539018166
3610.7717,0.6951144081373837,1698.5381527281072
3611.6023,0.6917975878872167,902.9998578153828
3612.435,0.6883164516491792,895.1492703142414
3613.266,0.685527743502581,1181.9127810631262
3614.0994,0.6839046550749684,1274.8549708340634
3614.9307,0.6834343808019867,1249.8976102798886
3615.7625,0.6836903549964461,1090.3060835972428
3616.5962,0.6840722522056305,877.884363611217
3617.4282,0.6840533740038421,1260.709504103864
3618.2625,0.6834068642250264,1204.9650355423958
3619.0947,0.6822761112803675,1204.880500396177
3619.9292,0.68103729645985,1414.0408488645849
3620.762,0.6801274409347424,1157.4323209443432
3621.595,0.6798964150042108,962.743537920155
3622.4302,0.6805010676585304,1113.0346375234062
3623.2634,0.681709641501844,1007.4182318194033
3624.0989,0.6828367279009623,935.5901501155051
3624.9326,0.6829984814338199,1293.008886114271
3625.7686,0.681669450247969,1065.0637692392465
3626.6028,0.6790988454766079,1218.7090586857519
3627.437,0.6762669355378382,1163.4615613874505
3628.2734,0.6744473887186467,929.0288529470843
3629.1082,0.6746134250799902,1106.7988685741311
3629.945,0.6769180283646536,1839.4331749257876
3630.78,0.6805787213404093,1435.1667859928186
3631.6174,0.6843571309993283,928.4943928331178
3632.453,0.6872510337486262,1148.0068220090352
3633.2883,0.6890498444214714,738.1998636947071
3634.1262,0.6901208194061267,1011.0993973121356
3634.9622,0.690813970078157,1136.1928052557842
3635.8005,0.6910882279886522,1481.7059976664523
3636.637,0.6906363557168042,833.4018772845594
3637.4756,0.689305904262624,973.5602533988655
3638.3123,0.6873665221240218,981.346040579397
3639.1492,0.6854505979568651,1236.990676146528
3639.9885,0.68437072361667,1153.280256522369
3640.826,0.6848352056091862,1302.2907315285063
3641.6653,0.6870117145419973,1722.7907117425293
3642.5032,0.6901883735925264,951.3291209376821
3643.343,0.69300343368392,1443.7743831123419
3644.1812,0.6942269722258492,896.416194942054
3645.0195,0.6936562015516232,1089.121917136916
3645.86,0.6922439355640171,1119.0304414271147
3646.699,0.6914468214481541,1113.7403717354937
3647.5398,0.6922195889732252,917.2922391025212
3648.379,0.6944090054656645,1075.1243354698117
3649.2202,0.6969126891032117,962.7724863975126
3650.0596,0.6984410605024308,754.2873753275713
3650.8994,0.6984051846201315,905.9798987811874
3651.7412,0.6970467740763536,1186.3172572936014
3652.5813,0.6948168631908338,1133.4444515361824
3653.4236,0.6917217447061861,1148.59250600682
3654.2642,0.6876311646330049,1047.3894537618307
3655.1067,0.6831012366321912,2208.726428090192
3655.9475,0.679738763436929,1226.2020953277015
3656.7886,0.6792483395078288,1103.7985766290394
3657.6318,0.6821509896703751,1282.0457567536573
3658.4734,0.6871634249389371,897.5741400190675
3659.317,0.6919607449913983,829.4957791710182
3660.1587,0.694569455801972,902.0314749266531
3661.003,0.6945847376523344,1300.9069371659327
3661.845,0.6931982767000798,923.7383390661677
3662.6875,0.692216639580199,1453.3300020835616
3663.532,0.6927802810738173,1088.554451484046
3664.3748,0.6946786940209102,1420.9785411625835
3665.2197,0.696679344196982,1258.5786433167327
3666.063,0.6974827061238354,871.0320902557098
3666.9084,0.6966427654027477,1345.4115723208447
3667.752,0.6947378225864179,1296.3323357298705
3668.5977,0.6927652259519566,1732.3746653716275
3669.4417,0.6913634206069816,1301.6897241721506
3670.286,0.6904388770508583,868.1392315289467
3671.132,0.6894771892975895,1835.6338677627155
3671.9768,0.688112282015482,933.7708179711013
3672.8235,0.6864666798161063,894.5251962928876
3673.6685,0.6850845634988022,1300.48571643787
3674.5156,0.684512618940501,1519.7181457228073
3675.3608,0.6849729921155676,1492.0716632147396
3676.2063,0.686271619473162,1512.49880702667
3677.0542,0.6879041975661979,1490.937326927241
3677.9,0.6891676962511353,1183.9641762247065
3678.748,0.6894247192221356,1271.8532632128658
3679.5945,0.6884190459997807,1326.1314686204603
3680.4429,0.6864302124656657,1193.669754573986
3681.2896,0.6840397406379153,1216.9459799078388
3682.1365,0.6817104089484113,1236.9553378307708
3682.9856,0.6796716271415062,970.1517830105556
3683.8328,0.6781046547372038,921.5314586190292
3684.6824,0.6772385992669027,1112.0042440583863
3685.53,0.6772346406141112,1386.6420669916345
3686.38,0.6779093903387547,1240.6073387750903
3687.2278,0.6786872199349265,1560.691068019182
3688.0762,0.6788918675493425,1191.409693574806
3688.9265,0.6781659754841838,1192.5324985493364
3689.7751,0.6767276316456021,1093.7596596849787
3690.626,0.6752324319736709,936.9979731790438
3691.475,0.6744136734926004,2006.5869967599715
3692.3264,0.6747155826690595,1409.260652312113
3693.1758,0.6762087961938463,1036.7830047200334
3694.0254,0.6787559124022451,1024.7334039028078
3694.8772,0.682219187546968,987.54093981273
3695.7273,0.6863422308280523,1022.983558370451
3696.5793,0.6904304705038798,1343.3714993455042
3697.43,0.6931555758928569,1105.852456464211
3698.2825,0.6932453872089351,1085.4070104743457
3699.1333,0.6905001481576104,1174.5039616731099
3699.9841,0.6861854347824151,1455.161540646208
3700.8374,0.6822125840587889,1089.032287811898
3701.6887,0.6799293630503651,1176.8113143503476
3702.5425,0.6794680107459878,1102.4970015410427
3703.3943,0.6801680081562834,972.0156852455625
3704.2483,0.6812471177171542,1313.81559999395
3705.1003,0.6821272685079499,1417.7679889097808
3705.9526,0.6824084408577029,1276.611888404832
3706.8074,0.6818144872259692,1056.45367152645
3707.66,0.6802990691554017,1505.412461200086
3708.515,0.6780456017507197,1277.9520445270932
3709.3682,0.6753145346240446,1169.0138366753936
3710.2234,0.6722596066075178,1172.2298283171667
3711.0771,0.6691319310095407,1234.703665855665
3711.9307,0.6665268576966252,1215.6071841972803
3712.7866,0.6653242708717215,1251.2426029313767
3713.6409,0.6660989509537839,1517.62034049361
3714.4973,0.6684945582252133,1282.611677967859
3715.3518,0.671269994810626,916.4681073303802
3716.2085,0.6731109932570949,945.9161808862083
3717.0635,0.6734311279251189,1319.542500655291
3717.9185,0.6726408121602105,1110.8713478292611
3718.776,0.6716754834823976,1267.0261142810343
3719.6313,0.6713119699681503,1666.7682006990117
3720.489,0.6716955954909386,1081.011211426965
3721.345,0.6723764066233826,1160.8472246891283
3722.2031,0.6727383967014204,1165.3328067131356
3723.0593,0.6724924538742715,1335.1593030312688
3723.9158,0.6718913504766799,1427.172177655599
3724.7747,0.6714680127652971,1299.2080426823982
3725.6316,0.6714966318918896,1376.292436778375
3726.4905,0.6716276867013691,1077.7288407181886
3727.348,0.671091571210745,937.5210191606315
3728.2073,0.6693119444713973,1375.9639003156562
3729.065,0.6664219793368029,1095.3385872907115
3729.9229,0.6632231055582579,1000.8890163961348
3730.783,0.6606932504511179,1140.9109921083748
3731.6414,0.6593880614463005,1411.0372580758844
3732.5017,0.6590888831828035,1024.4395044075295
3733.3604,0.6590258147282615,1504.7185099294334
3734.2214,0.6584167485954192,1309.1551492812193
3735.0803,0.6569831947186806,1108.226641759887
3735.9417,0.6550863906334491,1005.9420731019643
3736.8013,0.6535096829518815,1204.5573144132381
3737.661,0.65295131559277,1035.5406860072076
3738.5227,0.6536066395686895,1363.0667778378531
3739.3828,0.6550514365449047,1117.61652013796
3740.245,0.6565893916681492,1284.6685358532488
3741.1055,0.6577715878704578,1003.7020506761775
3741.9683,0.658717343266226,1386.931079841866
3742.829,0.6598529308473401,971.80607277447
3743.69,0.6613318704987825,1172.3523915880462
3744.5532,0.6626396853477521,951.8736179562623
3745.4148,0.6628444409667511,998.990305699475
3746.2786,0.661369670909671,991.1016681901497
3747.1404,0.6585969532036186,1252.1746464855419
3748.0044,0.6557667111914081,1266.0465673568413
3748.8667,0.6542978706760751,1431.0451678154648
3749.729,0.6548622337538206,1100.6044539935892
3750.5938,0.6569744384417727,1225.9638158651494
3751.4565,0.6592995821398256,1292.6404328444337
3752.3215,0.6606381089072799,977.6577604449195
3753.1848,0.6607697109523508,1036.0111029057005
3754.0503,0.6605886883559552,1750.32282344331
3754.9138,0.6613248583773395,972.5553541966676
3755.7776,0.6634774850881131,2392.4758257861126
3756.6438,0.6662925070276636,1067.2825200303264
3757.508,0.6681701430608137,1246.7748381182232
3758.3745,0.6678251927279101,1216.9999816717784
3759.239,0.665185493832449,1041.8636048487826
3760.106,0.6613590742704659,1477.3445089151892
3760.971,0.657776603307326,1234.8962017292345
3761.8362,0.655194735924202,1243.425484113204
3762.7036,0.6535495691250738,1262.5467175811923
3763.5693,0.6524832507177576,1320.7121262547062
3764.437,0.6518227276970577,1064.9524579084725
3765.3032,0.6515547406326803,1618.8511800270328
3766.1714,0.6514772067255625,1478.135027512371
3767.0378,0.6511610267872083,1235.1434118237744
3767.9043,0.6502887888739911,1178.7398922526982
3768.7732,0.6489127060721945,1533.5240964597274
3769.6401,0.6473425463755781,1449.4712633316306
3770.5095,0.6458401988302734,999.8721303933225
3771.377,0.6445870160911726,2013.6835864150369
3772.2466,0.643782309524008,1202.8464761115765
3773.1145,0.6436605274886752,1416.320866568845
3773.9824,0.644229257226415,1481.357745861781
3774.8528,0.6450600131382941,1155.6130045276172
3775.721,0.6454242507683527,1202.3224813594288
3776.5918,0.644855076827934,1400.6122708820928
3777.4604,0.6436928971628403,1218.119243192336
3778.3315,0.6430779332344254,1512.1920662267244
3779.201,0.6442799011815127,1043.329449559044
3780.0703,0.6478153036647278,1402.4930284523996
3780.942,0.6531001719135472,1247.6299681969926
3781.8118,0.6587267079124232,1488.5023636694993
3782.6838,0.6632561745412587,1178.1866060748393
3783.554,0.6657397680135619,1085.2504368970924
3784.4265,0.666021282266092,1373.9090598912699
3785.297,0.6645323308276114,1391.0950411201445
3786.168,0.6619566141150419,1122.232089320064
3787.041,0.6589193709137373,1562.9479838608468
3787.912,0.6558864858940342,1074.99907328991
3788.7856,0.6530823646191597,1171.599262560843
3789.6572,0.6505581520842313,1237.240622045993
3790.531,0.6482090993995302,1075.5278492210207
3791.403,0.645944725313257,1218.4451615345642
3792.2754,0.6437050262838675,1195.2335863508413
3793.15,0.6414030101937899,1948.2243514385646
3794.0225,0.6388681854906881,1470.004334728283
3794.8972,0.6359142236446673,1138.138383077253
3795.7703,0.6326188145172669,1311.841679146251
3796.6455,0.6293456581099185,1466.7490956406243
3797.519,0.62658648250072,1159.8832808381221
3798.3926,0.6246350977443227,1135.5202729028595
3799.2686,0.6235666706082075,1317.403702732696
3800.1426,0.6233895777106145,1648.520428911198
3801.0188,0.6241142009065191,1265.1023670466598
3801.8933,0.62567364555356,1008.0504511511868
3802.77,0.6278679523265811,1419.8673155942092
3803.6448,0.6304478629078903,1602.0836006903914
3804.522,0.6333099734123929,1117.1555541449459
3805.3972,0.6364075570413387,1525.438858436606
3806.2727,0.6395935916212797,1137.7120697721477
3807.1504,0.6425096079692123,1272.0001339563837
3808.0261,0.644759304696133,1253.9079054047509
3808.9043,0.6462711427012028,1265.2950246565217
3809.7805,0.6473772870296309,1792.9856134244342
3810.659,0.6486092305943597,1676.7645444613447
3811.5356,0.6502555035166385,1084.3735563847636
3812.4126,0.6521920903621771,1340.5019719917195
3813.2917,0.6541171705979854,1171.8010157931235
3814.169,0.6559386312450384,1277.370339365364
3815.0483,0.6578915872944373,1208.8124579423113
3815.926,0.6601364367203156,1340.4426637348954
3816.806,0.6623732797009033,1541.9853914331286
3817.684,0.6638148978988444,858.1483817519836
3818.5623,0.6636969335893896,1297.896323760011
3819.4429,0.6617507763165447,1076.2458040946137
3820.3215,0.6583263086335033,1650.3434652447745
3821.2024,0.6540255990924134,1298.1214364012878
3822.0815,0.649374030893603,1440.7226127551958
3822.963,0.644642710357302,1411.235530048302
3823.8423,0.6400700540084291,1644.3839046820885
3824.722,0.6358739953778476,1454.8857281641328
3825.604,0.6321793216207754,1457.3193042920423
3826.4841,0.6288928730956366,1218.539853632381
3827.3665,0.6256524183767926,1144.9958201576403
3828.2468,0.6220444412818484,1795.304052634684
3829.1296,0.6176840645945948,1271.8805340175827
3830.0105,0.6123697465115816,1454.1705909801703
3830.8916,0.6060628536902334,1480.4663857617647
3831.7751,0.5989801463369654,1202.9551119065686
3832.6565,0.591708290076256,1474.7253196705117
3833.5403,0.5849949280371167,1496.73354574221
3834.4224,0.5796590288053026,1480.175026062681
3835.3064,0.5762493186369539,1441.384035333953
3836.1887,0.5750899600077228,1496.4435424540627
3837.0713,0.5762876811802645,1593.5269252988594
3837.956,0.5797462055844671,1332.4288451244001
3838.839,0.5849973343928816,1513.074712078086
3839.7244,0.5912701499476408,1445.1449852697883
3840.6077,0.59768697161957,1174.9494863307234
3841.4932,0.6037729854173494,1347.978547079925
3842.377,0.6095590409796985,1462.622894737459
3843.261,0.6155659127328681,1560.8352185192116
3844.1472,0.6224282893524903,1588.8328977263125
3845.0315,0.6304555846272939,1311.7843824823321
3845.9182,0.6394386783109468,1284.931840395207
3846.803,0.6484245464318421,1392.5790395371002
3847.69,0.6562399109659357,1097.5558869806719
3848.5752,0.6620361731028692,1029.2724876607576
3849.4604,0.665959267110782,1157.1716973085504
3850.3481,0.6689574781393007,1372.89616878361
3851.234,0.6720129803026624,1195.748777518983
3852.122,0.675471577625836,989.2885342126486
3853.0083,0.6789443170794326,933.9638298992622
3853.8967,0.681968015146282,1040.4334303994058
3854.7832,0.6844674653069756,1171.3577963910582
3855.6702,0.6867395642706906,1353.9592480941506
3856.559,0.6889757916774446,982.1649850789137
3857.4463,0.6909713795139493,1268.6889690329272
3858.336,0.6922872149377403,1132.7182558838444
3859.2234,0.6926005853108089,993.0769303849897
3860.1135,0.6920477901406342,1031.1016056426936
3861.0015,0.6912075072848418,1095.5314772550005
3861.8896,0.6906780077726181,1573.3143222685749
3862.7803,0.6905470318404778,1092.4503703093728
3863.6687,0.6902689098690484,777.8268967898246
3864.5598,0.6891718177332936,1086.1201067150903
3865.4487,0.6871418038797945,1167.5836026315608
3866.34,0.6846782452048858,1396.2110359548342
3867.2297,0.6822745211804766,1399.5496407306523
3868.1213,0.679702495792392,1093.665508434783
3869.0112,0.6761504451796841,1071.2671713319135
3869.9014,0.6709657924246305,1087.9992660174046
3870.7937,0.6642757116990308,1389.5461103838225
3871.684,0.6569353820170317,1343.5014642334395
3872.577,0.6498275079035197,1325.4503266092527
3873.4678,0.6434936745538307,1482.3796461570407
3874.361,0.6378287248860923,1034.8035175730106
3875.2524,0.6323339781709256,1356.3559354388876
3876.1438,0.6263661609293492,1361.6284025997938
3877.0376,0.619551197791499,1373.028908959974
3877.9297,0.61198667466161,1528.5763385743237
3878.8237,0.6039703236675732,1544.3650766473081
3879.716,0.5958717705207585,1882.1619915855354
3880.6108,0.587858076012177,1666.5454695220683
3881.5037,0.5799954851735367,2057.8380990041587
3882.3965,0.5720854367862783,1415.5959371697177
3883.2917,0.5637353580694875,1745.7726506175404
3884.185,0.5545969200201032,1934.1868353790132
3885.0808,0.5445212610011746,1327.9517761440195
3885.9746,0.5339980004113156,1817.531566042746
3886.8706,0.5239533570297171,1816.8756983734156
3887.765,0.5156009144337902,3146.096344768848
3888.6592,0.5098250642786628,2123.380658515547
3889.556,0.5069907742984571,2417.989763614864
3890.4507,0.5070065016974501,1901.9718561967952
3891.348,0.5095442353027034,1240.3819700171791
3892.243,0.5142401858455585,2560.4040002023303
3893.1406,0.5207760570290533,2047.1406323409944
3894.0361,0.5287357105507964,1644.3693838207255
3894.932,0.5377074946433844,1787.1699623702868
3895.83,0.5472556253854057,1909.889527341518
3896.7263,0.5568664442300455,1636.2240748639094
3897.625,0.5662245833670766,1535.9531695806793
3898.5215,0.5752267296527112,1752.432084875221
3899.4207,0.5842426015164619,1685.3628828866792
3900.3176,0.5936503680732288,1544.6857417458814
3901.2148,0.6035916531810901,1502.791530037872
3902.1145,0.6137721684948061,1365.5887744668244
3903.0122,0.623678901793636,1253.8333295960601
3903.912,0.6331095190457156,1251.0993280609318
3904.8103,0.6420494878496331,1091.585397857875
3905.7107,0.6506478408787738,1310.624064953776
3906.6094,0.6589225272180215,1294.0521036827804
3907.508,0.6669249157221565,945.6869593473995
3908.409,0.6747426158283171,1282.5941378189889
3909.308,0.6823642282706889,1111.63437273818
3910.2097,0.6896453440314966,1461.8204345942822
3911.1091,0.6961464917891091,957.389149713209
3912.011,0.701488688740122,1171.3912730645616
3912.9111,0.7055263569087661,932.9959314097791
3913.8113,0.7085592137872488,1203.8671102899855
3914.7136,0.7111221928142151,1066.1669132713105
3915.6143,0.7136950641805073,1204.716985592375
3916.517,0.716582708775175,979.1222475581008
3917.4182,0.7198689696062723,1087.433836602713
3918.3215,0.7234995022330453,971.2901991877569
3919.223,0.7272293936205534,1079.2320266386753
3920.1245,0.730751903677555,1052.3633119370634
3921.0286,0.7338581780735295,921.2191827943838
3921.9307,0.7365780957627182,846.7408393298425
3922.835,0.7391984374837468,773.0163390511555
3923.7373,0.7419983675086774,850.8023272263985
3924.642,0.7450669361859581,870.991823954629
3925.5452,0.748113769161499,918.7728079091539
3926.448,0.7505532752047397,938.9805439765188
3927.3535,0.7517539236313862,804.5286032594499
3928.257,0.751462036557509,778.0024392225669
3929.1628,0.750102015508004,920.7333295066878
3930.0667,0.7485774571435035,871.7939176917646
3930.9731,0.7476540827977721,1050.3747582608194
3931.8774,0.7474747087764017,756.4886658871116
