wavl,flux,ivar
3566.9744,1.7586729670162498,183.10905206016304
3567.795,1.7520350346659066,249.62233698900098
3568.6177,1.7441082911640033,178.29343782599415
3569.4385,1.7350978932777863,174.98484783720588
3570.2617,1.725916711149883,190.48791888333596
3571.083,1.7180558128960275,233.7478235663013
3571.9065,1.7125130955151084,230.45729326484712
3572.7283,1.7094259029863805,214.12613741827172
3573.55,1.7082826148426569,174.13931147399182
3574.374,1.7085758490672038,237.68411295827062
3575.1963,1.709915155090859,212.87850119282496
3576.0208,1.7117582193267167,206.27255178644324
3576.8435,1.713324648021183,164.7050478933136
3577.6682,1.714028505763474,222.47864372852422
3578.4915,1.7138936593035372,238.11220078838073
3579.3145,1.7135197025010378,185.78281915849598
3580.14,1.713591370922946,215.54576298198214
3580.9636,1.7143957552311733,214.85974662034383
3581.7893,1.715590025913912,237.3980798918505
3582.6133,1.7162123467782626,191.86924735711943
3583.4395,1.7150394651397833,240.6655720088188
3584.264,1.7112964885043478,240.26374249503513
3585.0884,1.705320974610676,197.95606424673636
3585.915,1.6985255382750413,227.7926462719609
3586.74,1.6925924311947473,258.72126098199476
3587.5671,1.6882905675173199,269.03289451413013
3588.3923,1.6852014963097661,215.29220852090626
3589.22,1.6822551784772917,233.34725555122796
3590.0457,1.678875972856573,210.86043749019902
3590.8716,1.675494765434275,223.62299668820245
3591.6995,1.6731239796490291,222.005894759264
3592.526,1.6722987893790142,194.2600040737356
3593.3542,1.672339279753999,227.64675295923465
3594.181,1.6716699832563606,227.1800576634646
3595.0098,1.6688593018325975,209.7067993049857
3595.8367,1.6636434927427022,213.11270105630982
3596.6638,1.6571293228388853,226.0642754156303
3597.4934,1.6511337834784927,238.20547224898954
3598.3208,1.647055677869864,206.3190321738113
3599.1506,1.644903149506167,220.7011652157918
3599.9788,1.643613852374164,238.2530758477117
3600.8088,1.6422203565697682,213.67328872340013
3601.6372,1.6409460275052161,223.83095145261274
3602.4678,1.6409396683481638,259.24834017830307
3603.2964,1.6429333942106714,226.21913288369726
3604.1252,1.6462198861581638,217.11253531777015
3604.9565,1.64908036207974,190.5087289181717
3605.786,1.650157430758005,239.64220285313468
3606.6172,1.64946134526549,265.38798725795044
3607.447,1.648011629053435,287.9930423597962
3608.2788,1.6467172205436338,252.65843197278681
3609.109,1.6456374376423124,262.93097705241564
3609.9392,1.6441780768295478,238.84195468354653
3610.7717,1.6418844800107164,244.63109204275196
3611.6023,1.638993030987558,232.57139108241296
3612.435,1.6362486952723312,220.61769494003383
3613.266,1.6344009669510935,307.6372287188746
3614.0994,1.6336778912518126,266.24242804314963
3614.9307,1.6336667878508946,220.07576463121515
3615.7625,1.633506344282241,233.96132181062225
3616.5962,1.6323748538274518,251.26538965489974
3617.4282,1.6299936165714408,215.99912161807032
3618.2625,1.6267089223925901,244.3021665367348
3619.0947,1.623110077126001,233.56065706353328
3619.9292,1.619446327797688,249.9995151597043
3620.762,1.6156763650389299,225.98262419892828
3621.595,1.6119029833415839,205.62073454980185
3622.4302,1.608728757647961,254.93384584656025
3623.2634,1.6069271598294903,286.9513323451275
3624.0989,1.6067266286226294,223.8464804396273
3624.9326,1.6076504898118325,222.13716864933363
3625.7686,1.6089979540810389,240.8798014786949
3626.6028,1.6103827881839743,215.63571936379637
3627.437,1.6117032131473517,211.9598089323629
3628.2734,1.6125978377970687,307.76615720411655
3629.1082,1.6121177359321062,242.95424090918652
3629.945,1.6091163778427329,228.67506062106094
3630.78,1.6031560933435618,211.83535864026283
3631.6174,1.5950759151427412,246.5446214455708
3632.453,1.5868538138004702,258.2619077369193
3633.2883,1.5804068328165595,318.39196038490894
3634.1262,1.5766343443164814,266.2642654285876
3634.9622,1.575273363094127,238.46331313968338
3635.8005,1.5754665263061223,217.19860361632365
3636.637,1.5763639227274926,259.6004148205453
3637.4756,1.5770406900188902,238.05758379354106
3638.3123,1.5761994686529675,285.96206242439234
3639.1492,1.5724910014516773,282.51088654417
3639.9885,1.565461825209481,333.8175508879092
3640.826,1.5563763850195873,260.14027626469334
3641.6653,1.5476108142715561,335.1776746240377
3642.5032,1.541298433386402,290.9371016960458
3643.343,1.5379858689957584,279.851897343183
3644.1812,1.5368533838881324,265.4392790879841
3645.0195,1.5368000160967186,277.99857265693794
3645.86,1.5374735346194657,233.97444909092164
3646.699,1.5393970041213787,271.2975704610369
3647.5398,1.5434355563457751,299.286984434017
3648.379,1.5498919763786614,254.67295930214664
3649.2202,1.5577281174664632,308.4588517253604
3650.0596,1.5641793866392975,223.84860956998443
3650.8994,1.5658347852644319,268.39402251289306
3651.7412,1.5604496158891321,252.69281021071131
3652.5813,1.5485167946459153,253.19821482257612
3653.4236,1.5329095098561931,276.9134935121506
3654.2642,1.5173202868471005,226.61798552907368
3655.1067,1.504160428526594,263.63616379012893
3655.9475,1.4940441505360387,319.75610256396584
3656.7886,1.486061130705907,274.0939673664357
3657.6318,1.4789941469817727,335.84686073988485
3658.4734,1.472307144900487,313.2595110020249
3659.317,1.466373902953269,300.7230029892755
3660.1587,1.4623289407588322,326.5054724634356
3661.003,1.4613985923549189,289.6707137511059
3661.845,1.4642746181235284,282.97868931207967
3662.6875,1.4705105976701323,280.231750892582
3663.532,1.4785185428282992,237.3643526508366
3664.3748,1.4862385849285622,285.4410060573754
3665.2197,1.4922799646886367,292.1033128775285
3666.063,1.496241663866361,252.32522044299904
3666.9084,1.4984709034208934,302.6282565517276
3667.752,1.4994219793146777,254.14279713721876
3668.5977,1.4994768324846486,354.2804197079465
3669.4417,1.4989622680723895,302.58496932864415
3670.286,1.4980760092619754,296.05089109274985
3671.132,1.4966102937536212,296.08551263121325
3671.9768,1.493861590614056,298.641951306389
3672.8235,1.4889535585790254,232.7351568122703
3673.6685,1.4815157428363552,292.147580877778
3674.5156,1.472022147241461,296.5473827266443
3675.3608,1.4618807559396991,276.709363568338
3676.2063,1.4528084447778842,287.42765935011613
3677.0542,1.446233881844967,303.7638541574541
3677.9,1.442743049216049,359.1606020292309
3678.748,1.4417914424616716,270.44524723733974
3679.5945,1.4421724514182677,395.9802369386931
3680.4429,1.44267453693557,305.5071280607764
3681.2896,1.4426063876691202,318.4634651985725
3682.1365,1.4418456644362865,267.03656387919847
3682.9856,1.4405139910809834,346.6194892290326
3683.8328,1.4387067014064225,301.41045530115326
3684.6824,1.4365200025308602,291.82457138838004
3685.53,1.4343646813025128,310.06479878373375
3686.38,1.4329480067065474,386.9335740145163
3687.2278,1.432839785658917,293.6582605561647
3688.0762,1.433905304394476,262.3902477940929
3688.9265,1.4353031035205819,254.1837656296031
3689.7751,1.4359896452682706,327.9412958922245
3690.626,1.4352837747970701,262.3871951490615
3691.475,1.4330608257144724,322.89024953603064
3692.3264,1.42968149244122,264.47818802933745
3693.1758,1.4259267546504069,294.2642107967524
3694.0254,1.4227861786002016,305.14259088745234
3694.8772,1.4211803271381032,311.2008554991256
3695.7273,1.4215716107523344,323.17928419165935
3696.5793,1.4236842748808871,273.0089844845858
3697.43,1.4265703850136902,335.4933036308972
3698.2825,1.4290685001407022,318.00562670025704
3699.1333,1.4303587704523926,270.72608304205426
3699.9841,1.4303517880402001,302.22124904529016
3700.8374,1.4295059013062013,262.1181316335442
3701.6887,1.4283481177558601,302.6558274589292
3702.5425,1.4270738155907816,314.62215083476576
3703.3943,1.4255798791196574,312.8189812466852
3704.2483,1.4237053045935617,252.213332971114
3705.1003,1.4214634609983479,320.56352680811995
3705.9526,1.4189851315353477,291.5760120389683
3706.8074,1.4163482853335554,334.35471963870674
3707.66,1.4134461408093801,269.4710610701186
3708.515,1.4099646883462658,307.1948001992421
3709.3682,1.4057001216171991,295.01419478530744
3710.2234,1.4007920536603506,434.97804703128054
3711.0771,1.3958225097449073,304.078097345969
3711.9307,1.3913877112956303,349.1200733198281
3712.7866,1.3877267784996719,329.52859386913275
3713.6409,1.3848245225555635,254.127775850587
3714.4973,1.3828127449802146,291.72256892915436
3715.3518,1.3822288498317457,351.3935158379229
3716.2085,1.3835495937036797,326.67829750704465
3717.0635,1.3865588946840302,347.82196070531614
3717.9185,1.390226372019332,371.8094099224383
3718.776,1.3932272617486852,285.14860222005524
3719.6313,1.394565590565855,278.66091874740295
3720.489,1.3938826007802088,294.77916396211833
3721.345,1.391305872584944,365.0030482245012
3722.2031,1.3873217170481582,278.21538767335795
3723.0593,1.3828542827276653,306.56001352509907
3723.9158,1.3790752776120327,298.57032782500517
3724.7747,1.3769282786049166,320.9009152466053
3725.6316,1.3765749574775537,373.15581007646637
3726.4905,1.3772441216671942,379.8968487706759
3727.348,1.3776444280143394,347.7540810483193
3728.2073,1.3765643273589716,371.12242637596387
3729.065,1.3733639585087694,325.8649424490845
3729.9229,1.368132618249779,393.96827579064
3730.783,1.3614849741564523,331.2819539509907
3731.6414,1.3542583978226879,347.8311378230618
3732.5017,1.347176096900257,349.94145849295535
3733.3604,1.3409877883414234,316.16085189917135
3734.2214,1.3364225507441672,333.89579579144845
3735.0803,1.3341221616035863,333.1008897764006
3735.9417,1.3341645871414427,362.4248284590538
3736.8013,1.3358941055825544,384.26284889530905
3737.661,1.3381540634931546,369.67477349820103
3738.5227,1.3398635743129226,291.091636594544
3739.3828,1.3404541962234238,332.7175744912842
3740.245,1.3399582039090487,347.59188796370336
3741.1055,1.3387008435904673,363.59199257378475
3741.9683,1.3368908789783196,359.6907548186674
3742.829,1.3344767575287322,313.6087557416521
3743.69,1.3313145258489576,315.85664172043664
3744.5532,1.3274657517276385,375.58649880496256
3745.4148,1.3232928008958131,396.27076837450113
3746.2786,1.3192474798416,344.35583917979716
3747.1404,1.3158628727979844,365.71287388180093
3748.0044,1.3136711716029137,334.730508174939
3748.8667,1.3130777942688683,339.1332200047301
3749.729,1.3139837938004395,294.9396534509898
3750.5938,1.3157253499699042,393.965054350441
3751.4565,1.3174433404631314,351.57485938737256
3752.3215,1.318676870783896,392.15541687256035
3753.1848,1.31948039490791,391.1608427449103
3754.0503,1.3199918804767499,401.8399366951108
3754.9138,1.319855477024942,309.8259000196795
3755.7776,1.3182550502402965,304.48403517948094
3756.6438,1.3146139399065144,277.17458732026324
3757.508,1.3093839815668509,434.9178587838888
3758.3745,1.3039646204332562,398.868727278435
3759.239,1.299948073608359,367.81126883327045
3760.106,1.2980752091126628,386.57707850118214
3760.971,1.2979742843143003,395.3463468311724
3761.8362,1.2985027399144105,380.08827668590203
3762.7036,1.2983940638303384,433.6119459798212
3763.5693,1.2966749936564512,325.57994432453097
3764.437,1.2928623521385556,358.07590859527846
3765.3032,1.2871642951226148,391.537600065672
3766.1714,1.2805096549675836,364.8585567110961
3767.0378,1.2743527601525018,470.6224005330969
3767.9043,1.269899954357332,373.62393809043886
3768.7732,1.2675271020677648,404.63492555781187
3769.6401,1.2667401783541636,408.08640766866785
3770.5095,1.2667470903934095,401.86256127997723
3771.377,1.2672370084797167,353.62683712190943
3772.2466,1.26863078900173,407.67927965909934
3773.1145,1.271578667686692,335.1153932448658
3773.9824,1.2761221898948536,342.65802111993787
3774.8528,1.2812109577531703,364.78966035011103
3775.721,1.2850157876123045,463.18318177612707
3776.5918,1.2860796747823566,375.7534452948932
3777.4604,1.284260519957642,324.15420596499746
3778.3315,1.2809226500669266,368.54618545258376
3779.201,1.2781182632631831,380.4878204540427
3780.0703,1.2773020238207238,454.2667254255318
3780.942,1.2786094033439979,522.504810724453
3781.8118,1.2809976439277253,332.09525292376446
3782.6838,1.2830587028166733,415.5915861700419
3783.554,1.2837281862149694,433.4645257539296
3784.4265,1.2825679281682996,393.306197455782
3785.297,1.279643394562398,402.8451768976426
3786.168,1.2753556338123102,328.08660724591863
3787.041,1.2703443279538345,405.2027057725038
3787.912,1.2653653974460395,450.6562858072373
3788.7856,1.260922242578679,445.9947398599095
3789.6572,1.2571941603526362,384.7993843996667
3790.531,1.2541052486230193,399.5286339491994
3791.403,1.2516831341160293,364.97279117782176
3792.2754,1.250013363538604,444.0795082447196
3793.15,1.248942239365487,472.3412817964643
3794.0225,1.2478868781239416,406.1373903868811
3794.8972,1.2461427458943657,359.23836146598796
3795.7703,1.2434549930790537,457.8271895244904
3796.6455,1.2401249562600827,405.8605427622471
3797.519,1.2367106767685085,438.6228764187567
3798.3926,1.2336616521055435,426.4270104550302
3799.2686,1.2313494683528412,379.1114020517792
3800.1426,1.2301469910703897,415.5775187858471
3801.0188,1.2302307902690452,467.8572283998272
3801.8933,1.2313981964280554,435.2278309266218
3802.77,1.2331234525418204,412.40974402297354
3803.6448,1.234821970100794,525.1519666852163
3804.522,1.2361023711179169,342.1438686388231
3805.3972,1.2367832041390188,405.94815413768134
3806.2727,1.23686278082352,423.2509483861321
3807.1504,1.2364220006043665,456.8035415374302
3808.0261,1.2355629775558055,456.00232765490426
3808.9043,1.2344076982763144,366.28209416365144
3809.7805,1.23321847072981,410.68378726074894
3810.659,1.232428879365856,440.82351974875377
3811.5356,1.232485764205377,412.9400165298188
3812.4126,1.2335226658620562,424.89100889434064
3813.2917,1.2352528068409376,378.60183542553676
3814.169,1.2371699006951007,447.3002843467811
3815.0483,1.23886290707611,375.8043647939117
3815.926,1.2399918081931158,425.90373493788
3816.806,1.2401463519474307,400.193274761687
3817.684,1.2388767303133732,474.70806409093206
3818.5623,1.2360286420704512,404.9867340631317
3819.4429,1.2319365474345638,487.8632599740511
3820.3215,1.2272532952254536,449.98856925781905
3821.2024,1.222429961545246,414.0236073090307
3822.0815,1.2175893456067446,405.771707186222
3822.963,1.212637004880859,451.51827546167385
3823.8423,1.2076469053928773,457.89364764029517
3824.722,1.2028050818298262,408.95262378107793
3825.604,1.1982006860675887,390.9931297082174
3826.4841,1.193664306300719,427.4086266072493
3827.3665,1.188752002173512,399.30399502504224
3828.2468,1.1830461275410489,442.8995771102912
3829.1296,1.17621874093379,434.7114589609485
3830.0105,1.1682567961220278,442.67146618498947
3830.8916,1.159477983027974,410.843373370622
3831.7751,1.1506421584427393,423.688992577848
3832.6565,1.1428373914686052,466.2062726336327
3833.5403,1.1368756281447845,478.8594497153873
3834.4224,1.1330414200808205,534.4720465279961
3835.3064,1.1309426115703,479.8419705718178
3836.1887,1.1299186432660002,477.9103196913047
3837.0713,1.129419856494835,508.5980503580923
3837.956,1.1292935075582133,507.134842092597
3838.839,1.129851238335581,502.38949066384265
3839.7244,1.1317639817447014,456.2675417036097
3840.6077,1.1357399173572318,536.0199752920033
3841.4932,1.142148565909305,469.90775411334425
3842.377,1.1506413017552455,524.7922764430155
3843.261,1.1602490654448885,498.4226050869462
3844.1472,1.1696391160176676,438.42653337317324
3845.0315,1.1774186792585017,446.2252506117852
3845.9182,1.1826575542405553,468.3318770765496
3846.803,1.1851147582030204,429.65248368216857
3847.69,1.1855295695640526,496.58733949957883
3848.5752,1.185305170959594,435.9018569143128
3849.4604,1.1858606322762497,487.1988126608217
3850.3481,1.1880216238755008,434.31970036042304
3851.234,1.1918391711937262,410.9096268602948
3852.122,1.1968762849702366,415.1689590754496
3853.0083,1.2024164699050517,465.7471889290685
3853.8967,1.2076568192469734,426.39362718581407
3854.7832,1.2116523862584556,401.2874037959088
3855.6702,1.2135794771364838,436.1420148307664
3856.559,1.2129549710771659,429.53359196862425
3857.4463,1.2097967223411359,404.16321980368303
3858.336,1.2044805684825834,519.5436840264406
3859.2234,1.1976510500056112,406.1160143158575
3860.1135,1.1901369230261973,588.5357451656473
3861.0015,1.183133593595219,437.21314847014617
3861.8896,1.1778341678343436,464.8239840531302
3862.7803,1.1750563753594532,542.3944622278755
3863.6687,1.174922704198309,426.06204680397315
3864.5598,1.1768476756999062,550.2617125979547
3865.4487,1.1797856255914478,444.24907311636025
3866.34,1.182509754180457,436.3044176784765
3867.2297,1.1837848402503244,427.68417150460033
3868.1213,1.1826556129542372,537.858252202818
3869.0112,1.178707803740788,430.4886951450728
3869.9014,1.1722244032884146,516.5948760193453
3870.7937,1.1640652589101816,522.9497899737383
3871.684,1.1553945940425703,385.9639511211194
3872.577,1.1471390542736482,494.3650883308711
3873.4678,1.1398691154027891,456.78697399304576
3874.361,1.133570598376495,497.33786469610004
3875.2524,1.12792238020655,468.3777510409205
3876.1438,1.1224326744142994,561.1704804805509
3877.0376,1.116674046120587,533.9996584248984
3877.9297,1.1103861188210644,607.3863508740862
3878.8237,1.1033853050797897,505.895135337656
3879.716,1.0956696585558314,560.6515433841367
3880.6108,1.0872346721842014,536.8357193853076
3881.5037,1.0781172591439248,542.9850130875175
3882.3965,1.0682888128623056,522.324229369412
3883.2917,1.05788272097746,534.792848666264
3884.185,1.0473551745620577,571.2134772584703
3885.0808,1.0370495124932742,554.1153832066038
3885.9746,1.0270483448676748,522.4301701072675
3886.8706,1.0170017347221032,612.4502900509123
3887.765,1.006816425888577,614.4573194370267
3888.6592,0.9969826045576924,672.6980260771952
3889.556,0.9885571807617815,706.0834357687596
3890.4507,0.982627586457669,644.0700379266976
3891.348,0.9796015930679777,557.2734045548646
3892.243,0.9792661211188082,772.5935846604461
3893.1406,0.9811796278102383,740.6459799469762
3894.0361,0.9851795784151647,529.3071487568885
3894.932,0.9914911115653413,1143.1502201349217
3895.83,1.0003747323743488,730.3858762084888
3896.7263,1.0115897156773184,590.1518212066578
3897.625,1.024418670043284,714.7904106435104
3898.5215,1.037681790837226,619.7179142636003
3899.4207,1.050389074239609,536.660517100346
3900.3176,1.061816584350399,658.8277055128733
3901.2148,1.071903056590353,536.0526355176455
3902.1145,1.0810072074174608,505.46292421342
3903.0122,1.089522696930345,540.4841632457379
3903.912,1.097745031248328,501.56030919581605
3904.8103,1.1057271575894116,471.3182201510221
3905.7107,1.1136789837227705,502.89252602764844
3906.6094,1.1220485716084259,496.4661877871414
3907.508,1.1318069544056029,534.8618041162799
3908.409,1.1448144480730793,435.5943224726693
3909.308,1.1642227256053355,532.5213364062371
3910.2097,1.1942115164579945,490.34995161701767
3911.1091,1.2366968327993804,514.7140200220614
3912.011,1.287554497088728,435.53451544807325
3912.9111,1.3340417290102438,541.4201601185013
3913.8113,1.3605833980239235,98.86676995649213
3914.7136,1.3581438890148645,467.7521014885297
3915.6143,1.3308197668943564,430.20556089189483
3916.517,1.2925051193777657,406.87001443053634
3917.4182,1.257608287355913,421.92258480326007
3918.3215,1.2332649815443097,446.5665255627971
3919.223,1.219541626489072,416.09010639640957
3920.1245,1.2129784002124875,450.6494223910868
3921.0286,1.2103856838754603,410.5453746631963
3921.9307,1.2099743178278393,419.81986534313023
3922.835,1.2108723813481206,423.69477698126775
3923.7373,1.2123779935767758,420.0841832635818
3924.642,1.213645561475479,348.9553418716122
3925.5452,1.2138579579416666,467.6137875152923
3926.448,1.212621701918636,394.58789926587315
3927.3535,1.2101169933545013,418.0601113493035
3928.257,1.2069609029424375,414.98751669158565
3929.1628,1.2037537525073136,465.79423875540823
3930.0667,1.2007258173748385,429.80684746442074
3930.9731,1.197559034090692,409.7228857109028
3931.8774,1.193766300825945,305.5891836465874
3932.782,1.1891707844238926,447.9939539371063
3933.6887,1.1841886185335722,442.3824429374829
3934.5938,1.179567714621354,456.7928112825089
