wavl,flux,ivar
3566.9744,1.5361465170512103,181.44040496729326
3567.795,1.5415487310837959,153.5681207130398
3568.6177,1.5497774470547319,129.70912989464892
3569.4385,1.55799719603446,124.40193380227274
3570.2617,1.563344533305264,175.2802467845157
3571.083,1.5640491242731465,130.13481716356583
3571.9065,1.5603454414150224,137.85530668605114
3572.7283,1.5542160397400249,216.2626796040267
3573.55,1.5481159011638033,181.98028147945664
3574.374,1.5435973240797052,139.91851970058323
3575.1963,1.5408077520468784,163.4947250855325
3576.0208,1.5389171306360736,179.8646817665235
3576.8435,1.5370184465620453,166.66091943380226
3577.6682,1.534509715948613,144.83528127546077
3578.4915,1.5310829726291377,202.66073458222596
3579.3145,1.5266194302264593,167.3167708443864
3580.14,1.5213595444536905,199.46655496635887
3580.9636,1.5160908289397126,138.462866305507
3581.7893,1.5117290919036577,216.89409291946274
3582.6133,1.5087911824499785,151.75149984169548
3583.4395,1.5070574267489825,147.31243373325523
3584.264,1.505944282694634,167.80904617389479
3585.0884,1.5049125615624939,181.445655940739
3585.915,1.5036450714252974,207.2043766857922
3586.74,1.502059687190882,174.49270333016094
3587.5671,1.5003292231626335,174.94454001492772
3588.3923,1.4988698478222653,180.275002814907
3589.22,1.4980736293857055,159.19850467061292
3590.0457,1.498063233688103,145.58303192176373
3590.8716,1.4985487380473896,195.25717643649028
3591.6995,1.498876052721287,222.27244310514715
3592.526,1.4982137367109938,165.42307916938375
3593.3542,1.4958777332300826,208.79232824922596
3594.181,1.4916730202724835,184.40972019610865
3595.0098,1.4860725462753697,197.00031902094975
3595.8367,1.4803747549349746,160.92263109513345
3596.6638,1.476318494683938,165.50037580310203
3597.4934,1.4752753471857702,208.7871758826507
3598.3208,1.4772153845373692,184.89671703028165
3599.1506,1.4804646847760385,168.76321497104232
3599.9788,1.4826639576408542,151.2303651565309
3600.8088,1.482327397561231,193.99025626960642
3601.6372,1.4796707643499696,302.30282447590656
3602.4678,1.4762053614531776,143.91667520257604
3603.2964,1.4735779130397064,182.14750409973385
3604.1252,1.4724564198376697,159.65780158018762
3604.9565,1.4722754815100787,179.4759112053052
3605.786,1.471737867306588,272.6730994310626
3606.6172,1.4696915010935883,174.02797612405817
3607.447,1.465783182389264,184.2498402422606
3608.2788,1.4605462662866913,160.4907798587007
3609.109,1.4553150952602436,207.9104387443491
3609.9392,1.4519106306738978,225.67535103029715
3610.7717,1.4521143963022825,213.16284041507083
3611.6023,1.4566360589446101,234.85207485889023
3612.435,1.4643111901197468,193.9670928134171
3613.266,1.472185402754808,171.902853674748
3614.0994,1.476894926605404,197.49231716952482
3614.9307,1.4762371663877982,159.7939518065313
3615.7625,1.4703953995519576,179.81059122069126
3616.5962,1.4617625695822096,161.39099304011432
3617.4282,1.4536870375090907,227.31770183370855
3618.2625,1.4485346092481786,183.3539532064185
3619.0947,1.4467498058924302,217.26044560873672
3619.9292,1.447048505776378,199.92165697595246
3620.762,1.4476009799026561,219.76308798134428
3621.595,1.446981855024028,183.6285543693574
3622.4302,1.4443455679718284,220.99399030502258
3623.2634,1.4390224913018106,261.3039741841608
3624.0989,1.4299376529889718,194.27519310231935
3624.9326,1.4156569583239198,165.0584368748165
3625.7686,1.394924741589435,184.39591562275052
3626.6028,1.3684830272066124,230.31883751966194
3627.437,1.3404212120319088,213.61348239057102
3628.2734,1.31826260436195,220.97335824337938
3629.1082,1.3098821512325356,216.23729900777977
3629.945,1.3180349817070416,193.65884729295044
3630.78,1.3378141240017722,179.6781330472451
3631.6174,1.3597325811966692,175.5111992854006
3632.453,1.3755811878026976,230.84432584059212
3633.2883,1.3827784532052354,205.97502241651614
3634.1262,1.3833805205614902,318.91570940937874
3634.9622,1.3808719487783951,200.48644617720353
3635.8005,1.3776871770123362,191.70743936014867
3636.637,1.374727276051239,178.88966107036418
3637.4756,1.371927952634147,141.40309590150622
3638.3123,1.3690132496045864,203.50202654478886
3639.1492,1.3658747791442567,199.2747920887032
3639.9885,1.3628211202033877,243.31384347627056
3640.826,1.360585762364914,301.1676783591353
3641.6653,1.3598803135518092,320.186771299349
3642.5032,1.3608307692259292,201.43201285282615
3643.343,1.3626514374840224,270.2461088638019
3644.1812,1.3638889795319205,252.28006595500096
3645.0195,1.3630283372443113,185.7792535349932
3645.86,1.3590287193671389,148.0061492433004
3646.699,1.3518303140213221,219.60484693603325
3647.5398,1.3425314700991562,238.46840878801294
3648.379,1.3332408083394394,224.31553806510718
3649.2202,1.326059387520964,212.8485657208342
3650.0596,1.322258886194851,230.04337800516797
3650.8994,1.321754573016548,258.57747712131476
3651.7412,1.3234852704247475,242.62064750153885
3652.5813,1.3259319828164176,243.49253942056015
3653.4236,1.3276318250995827,171.67547407276956
3654.2642,1.3275071774536684,205.3867521097629
3655.1067,1.3251685669935267,257.71030195398384
3655.9475,1.321066376817241,202.74341229181837
3656.7886,1.3163643421570272,330.9474391491627
3657.6318,1.312644205848941,218.0168037980016
3658.4734,1.311742312046668,209.38496317077988
3659.317,1.315912511619596,225.52530359203857
3660.1587,1.32791520265409,205.89160305243965
3661.003,1.3498351948713458,400.89030935288224
3661.845,1.37981824912093,188.6300146601974
3662.6875,1.410206372072775,220.58630513853365
3663.532,1.4293869606702823,276.92744513385196
3664.3748,1.4283908786921327,231.785145356112
3665.2197,1.40712593898108,205.25076531244022
3666.063,1.3742579861348085,392.18233379888727
3666.9084,1.3409150202970657,162.19218385605984
3667.752,1.315087227429638,243.3765174122997
3668.5977,1.299068817771813,221.96660987892363
3669.4417,1.2913975396534583,289.00245298827684
3670.286,1.2887527850425262,271.52717949087884
3671.132,1.2877611084594756,271.8778525592421
3671.9768,1.2860428090433436,168.4087172903894
3672.8235,1.2827133903744266,226.84548981118047
3673.6685,1.278197954883385,234.77572549068174
3674.5156,1.273427880453864,214.27729156449783
3675.3608,1.269171738706084,248.26329482611652
3676.2063,1.265601714676539,243.94163862047048
3677.0542,1.2624448765305947,239.26537890831958
3677.9,1.2594084553957547,267.21198330256493
3678.748,1.2565105711457296,232.59258811745866
3679.5945,1.2542091687142505,237.80619239311653
3680.4429,1.2530012195067637,260.40227906048887
3681.2896,1.2529576046189979,210.04836042379637
3682.1365,1.2534950623570162,248.78750400805686
3682.9856,1.2537078451807915,290.58640499248787
3683.8328,1.2529438346698119,193.78298277790975
3684.6824,1.251159199752507,282.74424188273207
3685.53,1.2488875957154035,171.73201530763254
3686.38,1.2469554984064146,213.54614199909483
3687.2278,1.2461775810605744,274.9949915247159
3688.0762,1.2468553314465127,340.39210117837865
3688.9265,1.2484390525995486,241.91381791091013
3689.7751,1.249730659768735,282.4830205254607
3690.626,1.2497033185887352,310.77144604779886
3691.475,1.2481374910660847,212.49173148871972
3692.3264,1.2455524042004713,215.00152256222248
3693.1758,1.242692144432035,315.9696283265637
3694.0254,1.2400757657821317,275.3312954192747
3694.8772,1.2379556055916099,230.6901984157325
3695.7273,1.2363959622377696,292.4773434357097
3696.5793,1.2352260258343184,274.9934930336056
3697.43,1.2340603502952312,272.66049114684034
3698.2825,1.2324977105021993,229.13437346586778
3699.1333,1.230564961091788,263.03602042385495
3699.9841,1.2289240777001438,293.9998832608569
3700.8374,1.228560494779897,222.65130344303412
3701.6887,1.2300253507049952,260.27101745453916
3702.5425,1.2328476578709546,263.06717667718465
3703.3943,1.2356429111966503,234.41745740431335
3704.2483,1.2369392384750935,231.7672834345935
3705.1003,1.2359185771195624,253.62955556262298
3705.9526,1.2326798187579044,291.85573701903604
3706.8074,1.2279893924790217,284.548719767871
3707.66,1.2230620717436502,267.97171490901775
3708.515,1.2192202636173068,279.29134873768305
3709.3682,1.2175174203663854,269.8039307840315
3710.2234,1.2179699542297706,263.20860726842653
3711.0771,1.2192043505391321,247.72232738120618
3711.9307,1.2190277130917944,230.2925738885455
3712.7866,1.2158507289481786,285.8450279687484
3713.6409,1.2099661754059041,264.0916264668294
3714.4973,1.203419920274919,280.9801096947809
3715.3518,1.1986919422311275,372.33152155793437
3716.2085,1.197100250904453,301.30167202421495
3717.0635,1.1985259900765783,216.87994993736012
3717.9185,1.202105557157429,241.93937602370042
3718.776,1.2070111356931879,282.20202134246165
3719.6313,1.2124031107183673,277.8279049032186
3720.489,1.2171515803524973,245.87103334229298
3721.345,1.2197776884599134,262.15798863698353
3722.2031,1.2191897096102224,291.14820140913275
3723.0593,1.2153894680596715,206.69394413989252
3723.9158,1.2095812624781066,278.3177330651736
3724.7747,1.203483914425678,314.8693392813167
3725.6316,1.1984811583921164,358.5266072457291
3726.4905,1.1950505561314448,275.329084169974
3727.348,1.1930411490424422,339.48659379772647
3728.2073,1.192076249199585,299.2469922051438
3729.065,1.1918349194758582,244.39828106344277
3729.9229,1.191965616817479,304.2019600012643
3730.783,1.1920333292488534,302.1447391454796
3731.6414,1.1917995316994614,297.9062691661162
3732.5017,1.191797703248169,292.656316634019
3733.3604,1.1936155574236538,330.11589111527064
3734.2214,1.1991890728947128,288.35066156995106
3735.0803,1.2089739777592732,301.44840280547993
3735.9417,1.220530239365602,375.814935044554
3736.8013,1.2288942325587018,256.39703527390606
3737.661,1.2297613574566626,312.4507690650173
3738.5227,1.222496620300428,312.15241209800865
3739.3828,1.2105905113375672,308.34639864380597
3740.245,1.1987772652218824,235.89810296552113
3741.1055,1.1899992889727034,394.35634979967534
3741.9683,1.184143430051463,293.0042868129326
3742.829,1.1794205718551023,302.4382876397148
3743.69,1.174121846426568,246.15373192103712
3744.5532,1.1677336590837626,312.9500259764783
3745.4148,1.1608661400261513,337.1102741151059
3746.2786,1.1543477306445924,299.8650073190399
3747.1404,1.1487135415817076,253.8785383098166
3748.0044,1.1440929427415825,298.86323818919766
3748.8667,1.1407821144015051,257.7955336284357
3749.729,1.1395491810150566,336.26092835873015
3750.5938,1.1414756822605812,309.90268011055355
3751.4565,1.1470097808568287,326.37970188043636
3752.3215,1.1550509841720595,326.08240868831047
3753.1848,1.1628999807245097,269.65807309708595
3754.0503,1.1677342727927609,321.4972823025826
3754.9138,1.1681304938835928,280.5294685176396
3755.7776,1.1646962114606725,254.73018807671767
3756.6438,1.1591852730906285,244.13401932703727
3757.508,1.1533244789874995,291.05099400548363
3758.3745,1.14800731728593,327.60546167678444
3759.239,1.1434647082853269,297.54418819166517
3760.106,1.139590597145124,315.67967588607604
3760.971,1.1363572495049858,304.78619356276266
3761.8362,1.133842539634754,233.7768678487202
3762.7036,1.1322292946039765,280.77331316241026
3763.5693,1.1316404824602329,291.9720051937644
3764.437,1.131825930749221,359.64382098331555
3765.3032,1.1319941022157671,328.0314307919275
3766.1714,1.1310581686855046,232.1089240779067
3767.0378,1.1282732523826435,290.37018697831763
3767.9043,1.123717049854593,288.27400800470207
3768.7732,1.1181844529981022,307.767808270242
3769.6401,1.1126977053781095,313.50596066574064
3770.5095,1.1079382450168123,284.58946304700584
3771.377,1.1043201928477817,318.55299874634613
3772.2466,1.1021086927346233,248.87194804596152
3773.1145,1.101506495781858,426.847142134719
3773.9824,1.1023853637397825,370.80305160075693
3774.8528,1.10419667171935,338.0828111989815
3775.721,1.1061255368858787,355.85353594608927
3776.5918,1.107421388451106,389.88511531537716
3777.4604,1.1075771371743832,389.31070835992205
3778.3315,1.1064853978862945,264.0359127109291
3779.201,1.104468506080236,426.30682277251714
3780.0703,1.1020859749003928,302.45159052383184
3780.942,1.0998038647956276,356.228115063858
3781.8118,1.0978377442606915,268.77762292845193
3782.6838,1.0962165413684855,373.5781892947146
3783.554,1.0949493725097355,330.7396829381999
3784.4265,1.0939285979171565,418.02753099460637
3785.297,1.0928512470653762,346.22610608374043
3786.168,1.091359955320308,329.86130338577095
3787.041,1.0894192857856635,334.3554445871927
3787.912,1.0875071820305393,362.7214330350157
3788.7856,1.0862993615817915,319.3094259299064
3789.6572,1.0861614589220872,355.2130405084025
3790.531,1.0867862612587005,387.87799540034246
3791.403,1.0873222601013575,320.2005221053127
3792.2754,1.0868500432547128,286.0431030821221
3793.15,1.0848587919235049,355.128872697015
3794.0225,1.0815047094104964,317.8875149112706
3794.8972,1.0774865917253749,391.9295777957848
3795.7703,1.073779930565938,332.2036348304509
3796.6455,1.071156937962007,282.45834100508455
3797.519,1.0698892391454282,378.9410514408285
3798.3926,1.0695690296111309,351.31542711899647
3799.2686,1.0693368025876597,288.4121532522505
3800.1426,1.0683630085628113,370.5373642791992
3801.0188,1.0663415764315225,294.974112710448
3801.8933,1.0636810397959748,448.7036127182575
3802.77,1.0612117992091834,331.1848646723776
3803.6448,1.0597720877086578,373.5491602757692
3804.522,1.0598583608377732,349.4304697273455
3805.3972,1.0615906729375577,523.2260940454142
3806.2727,1.0647619716372874,303.71407243210564
3807.1504,1.0688832669948847,341.51673822368866
3808.0261,1.0732027752933293,315.7574549674178
3808.9043,1.0769761120734032,276.7560329947243
3809.7805,1.0796447641015405,353.7741845033135
3810.659,1.0810007781163677,379.5318009990437
3811.5356,1.0810348500557163,333.4631216988538
3812.4126,1.0798744483242007,328.3634957188984
3813.2917,1.0778262062779886,390.99524071074893
3814.169,1.075449762003943,388.2610718685227
3815.0483,1.0733366003955986,433.12716596566173
3815.926,1.071839327246706,381.0656225361463
3816.806,1.0709137239246662,389.0840897865113
3817.684,1.0702739732470947,314.3782217083837
3818.5623,1.0695352868499735,341.42237420525623
3819.4429,1.0682958924482568,335.7393125844273
3820.3215,1.0662583993618293,360.34494999082443
3821.2024,1.063377397209421,308.53397250583856
3822.0815,1.0599378550812424,383.5233838051796
3822.963,1.056295429312137,377.30721354555516
3823.8423,1.052671843382377,377.3455840711654
3824.722,1.0490581084103834,332.5394596956119
3825.604,1.0454014067579478,359.08088333129166
3826.4841,1.0416996939114884,424.2405331234348
3827.3665,1.0377678440840012,415.49373936086005
3828.2468,1.0331377719886417,402.6815755198555
3829.1296,1.027134086971906,356.049351151242
3830.0105,1.019456503962086,381.7845165976367
3830.8916,1.0105014301845867,435.1493433890404
3831.7751,1.0013421762503472,426.6048458341722
3832.6565,0.9932528781199288,422.925500192022
3833.5403,0.9869032546951185,439.4514196106642
3834.4224,0.9822993510666873,355.98458151337644
3835.3064,0.9789767788079414,496.1385055054527
3836.1887,0.9765888724544406,348.6705320012071
3837.0713,0.9751383468965912,396.4634774218668
3837.956,0.9749830796527504,516.2575376126181
3838.839,0.9766207496903779,374.4182573635315
3839.7244,0.9804534594951695,368.06901893066293
3840.6077,0.9865478072096266,367.15152258252147
3841.4932,0.9945699643046236,364.4319967824873
3842.377,1.0036362671681884,382.3026085427826
3843.261,1.0125728441450403,341.4280746386839
3844.1472,1.0202440755895579,394.28805816692216
3845.0315,1.0259553925958578,418.7006812581616
3845.9182,1.0297676734106658,339.6079110289252
3846.803,1.032166334119747,327.6267554396419
3847.69,1.0337147656053065,391.09572267223484
3848.5752,1.0347438123659676,337.5482258774407
3849.4604,1.0354379263536861,299.6025947250082
3850.3481,1.0359881154155832,435.6157045376129
3851.234,1.0366204782136974,406.3626323894537
3852.122,1.0375184793610568,374.2794135642468
3853.0083,1.038748540308523,332.95383415174973
3853.8967,1.0402507798468497,433.12960419837026
3854.7832,1.041790830347627,412.32658965217485
3855.6702,1.043089475525895,376.18194981181864
3856.559,1.0440954417709178,385.64497556315496
3857.4463,1.0451276459496015,362.53617906190334
3858.336,1.046554557887843,360.829504565003
3859.2234,1.0482065223661385,332.83496432633785
3860.1135,1.0492919105551934,354.28097378165876
3861.0015,1.0489585817599165,330.6766795920445
3861.8896,1.0470423543667815,355.6470908405762
3862.7803,1.0441777766123077,382.12201777742695
3863.6687,1.0413067557436297,413.5613612697043
3864.5598,1.0389907497473392,368.80354095288163
3865.4487,1.0372233429335853,430.0656166327524
3866.34,1.035533923712411,401.05001798957056
3867.2297,1.0333238126927482,404.378673006295
3868.1213,1.0301199896397573,371.5353024675253
3869.0112,1.025855118315102,336.418435184123
3869.9014,1.0208772108921071,353.7882703644751
3870.7937,1.015701022440186,386.7887661295474
3871.684,1.010608965884067,413.19321384591706
3872.577,1.005329480399244,401.6903190091088
3873.4678,0.9993633107652632,392.75968437837037
3874.361,0.9923826601634294,481.6766197477004
3875.2524,0.9846717053374975,485.5090335697139
3876.1438,0.9768200056253676,478.15649046773075
3877.0376,0.9692261384231872,371.70299730240026
3877.9297,0.961809366947148,468.75567948351704
3878.8237,0.9540920305263562,445.3125497829602
3879.716,0.9458709399848436,453.32924598998375
3880.6108,0.9373720909900132,405.4803975595167
3881.5037,0.9291328159901568,505.0557124800594
3882.3965,0.9213248393050764,451.95645265914015
3883.2917,0.9135207240653471,474.115197839418
3884.185,0.9049543051860524,441.6376712520217
3885.0808,0.8949143213767079,509.41474163348386
3885.9746,0.8834302962663447,483.66500296935817
3886.8706,0.8712524722514658,581.4992616145038
3887.765,0.8598276098728832,459.052647476768
3888.6592,0.8506723752164592,598.7617921733228
3889.556,0.8450268255429308,517.0392384476011
3890.4507,0.8435194433423953,510.4515166936146
3891.348,0.8458158616753589,573.755060020328
3892.243,0.8506660437584361,595.8322075381491
3893.1406,0.8564592952837703,504.27680966196027
3894.0361,0.8619806099823772,447.4752278801826
3894.932,0.8670725004723772,550.7513539744116
3895.83,0.872375424200488,636.2998646197782
3896.7263,0.8784977444407872,498.67950003949335
3897.625,0.8854594209562213,557.0125096351046
3898.5215,0.892638247186427,609.6937435414828
3899.4207,0.899555910325372,530.9452884686943
3900.3176,0.906280116173033,635.2956269728198
3901.2148,0.9134866244601065,431.2375904162889
3902.1145,0.9217847394064225,581.6317691473221
3903.0122,0.9309862484923789,570.0003774874214
3903.912,0.9400923583365124,470.7612311040481
3904.8103,0.9477518082170628,277.10764222564654
3905.7107,0.9534524044862797,474.32355010774415
3906.6094,0.9579821355721899,376.7647328398263
3907.508,0.9630117667757043,458.8492679442631
3908.409,0.9698001647123655,365.09368721587884
3909.308,0.9781907383985639,450.11268199761696
3910.2097,0.986822681172143,456.43703536772017
3911.1091,0.9939718808431023,402.50747804977794
3912.011,0.9987842027271981,365.63057270178086
3912.9111,1.001567495303693,378.565811955433
3913.8113,1.0034628822433025,409.87005878807594
3914.7136,1.005580080328749,362.1569240208339
3915.6143,1.0084569849622267,336.86324891108904
3916.517,1.0121322857045312,417.9328015045957
3917.4182,1.0163886640319681,379.1431657634284
3918.3215,1.0209573199311088,437.4976249093032
3919.223,1.0254231929481992,363.8962193910032
3920.1245,1.0293201915568244,354.1910529798729
3921.0286,1.03221167179033,391.50621978405763
3921.9307,1.0337973534428864,398.675006006811
3922.835,1.0340670878656162,337.2490031196664
3923.7373,1.0333636873104588,475.7307155792986
3924.642,1.0323184377439043,394.0149380635429
3925.5452,1.0315408714522072,362.7040399181807
3926.448,1.0312693400076005,384.2660271031002
3927.3535,1.031350639630338,296.84022225147385
3928.257,1.0315185801504068,438.0551218230498
3929.1628,1.031652230876728,359.31575618504434
3930.0667,1.0317199721727648,463.2577471826168
3930.9731,1.0315172554094774,384.33030390909175
3931.8774,1.0305807289119826,359.992296752632
3932.782,1.0285041668979498,354.85320618146625
3933.6887,1.025426240149488,352.89365403653693
