wavl,flux,ivar
3566.9744,1.0068257297361256,538.0748273767737
3567.795,1.008643346485567,569.5084688313868
3568.6177,1.0087305436633975,438.4710887343474
3569.4385,1.0071060197773247,473.55937853913946
3570.2617,1.0045252331315084,540.930199819694
3571.083,1.002000432167847,523.9089741313622
3571.9065,1.0001455585454317,597.9398558513091
3572.7283,0.9989905902329511,564.7979090818856
3573.55,0.9981228874620999,543.5761873652395
3574.374,0.9970000538278498,580.4145882547635
3575.1963,0.9952335041572634,692.9092076741206
3576.0208,0.992812784577926,582.5886122974299
3576.8435,0.990221929672781,624.4198029319439
3577.6682,0.9881511826673756,658.1109566208177
3578.4915,0.9870634409599195,523.6968886320655
3579.3145,0.9868303570411502,529.9374534534847
3580.14,0.986831073631928,479.1446488562524
3580.9636,0.9863487591586985,496.79895469963947
3581.7893,0.9849393891024125,571.5949035622612
3582.6133,0.9825260869374892,509.488290783143
3583.4395,0.9792327019910564,588.6485811533619
3584.264,0.9753319286754986,619.7693388684228
3585.0884,0.9712486459496458,688.4374272091841
3585.915,0.9676232543339873,607.5245023934474
3586.74,0.9652033071324,625.5351314795096
3587.5671,0.964493767237567,569.4673940900217
3588.3923,0.965539865794396,554.3061882162476
3589.22,0.9678572173768225,574.939225091512
3590.0457,0.9705901033202865,561.8793764345235
3590.8716,0.972894735669497,513.548910229442
3591.6995,0.9742867150506783,532.3445135673381
3592.526,0.9748074640178511,572.1230956751841
3593.3542,0.9748456115159232,546.2088661573717
3594.181,0.9746692281760782,665.4625892234185
3595.0098,0.9740963112727761,542.4411912131828
3595.8367,0.9726043656862494,528.0715061080347
3596.6638,0.9697586590708278,545.9713377424174
3597.4934,0.9655876365139124,550.0172125371286
3598.3208,0.9607208772107304,677.1401703857889
3599.1506,0.9561319914136127,725.7873307251457
3599.9788,0.9528885256074734,512.83889483659
3600.8088,0.95160383108224,591.4526781193697
3601.6372,0.9520997559443953,770.7411954827834
3602.4678,0.9534234721234216,607.310194473642
3603.2964,0.9544495634433695,581.9725014882337
3604.1252,0.9546438745501891,556.0202824179603
3604.9565,0.9543262347744526,682.6364842207422
3605.786,0.9543200209598597,764.1632924293914
3606.6172,0.9553173804755417,666.939075779035
3607.447,0.9574149983490637,590.7196844734261
3608.2788,0.9600464360272587,488.7136878724133
3609.109,0.9622337747696478,550.4864774138545
3609.9392,0.9631094512395607,572.5026575308286
3610.7717,0.9622763516837827,524.6565894890454
3611.6023,0.9598980455964118,499.78284447634064
3612.435,0.9564419148148411,487.75479448436437
3613.266,0.9523697535411401,672.176065929619
3614.0994,0.9478623915151022,633.9831285892766
3614.9307,0.9430263079707515,626.5236351294786
3615.7625,0.938227872990846,775.0418033382193
3616.5962,0.9343725769072194,632.2763443984538
3617.4282,0.9325644975833398,690.6145735070154
3618.2625,0.9333200086153461,591.1587561833035
3619.0947,0.936156345634135,741.9755050142559
3619.9292,0.9398704791103594,556.00969234717
3620.762,0.943178919681881,618.699974125575
3621.595,0.9452931928400234,539.8799744395997
3622.4302,0.945984629955125,586.8246035536398
3623.2634,0.945410775895649,539.8597123109705
3624.0989,0.9439178934201395,565.6136345556241
3624.9326,0.9419632343487834,568.0523565307907
3625.7686,0.9400851927100105,635.5981657157118
3626.6028,0.9388601059274629,563.09714781959
3627.437,0.938679310756038,635.365161059699
3628.2734,0.9396218267573611,777.4726494840776
3629.1082,0.9414975241480079,589.3350617369822
3629.945,0.9440425561796947,702.3301292858412
3630.78,0.94694568269568,582.6976507018669
3631.6174,0.9498215681955886,565.3422321766961
3632.453,0.9521859259895356,567.7844417508783
3633.2883,0.9537567204766847,448.5496195116673
3634.1262,0.9546602485286285,497.1853422093008
3634.9622,0.9553486488649033,471.90450277477953
3635.8005,0.9562239164175241,529.1642468344565
3636.637,0.9572471781321977,537.0166693626543
3637.4756,0.957935880977066,588.8705103897026
3638.3123,0.9577002058475931,493.92546587004927
3639.1492,0.9562804602507677,603.599044701433
3639.9885,0.9539077953678587,640.5458402674452
3640.826,0.9512021910660217,698.1231852408486
3641.6653,0.9488475022525752,482.91956398968233
3642.5032,0.9473502738522445,580.8447247149011
3643.343,0.946783740461939,504.4708330223594
3644.1812,0.9467518664800488,570.7564444210878
3645.0195,0.9466008308654462,494.20043075062733
3645.86,0.9458730984081339,700.9839187188003
3646.699,0.9446779587923808,652.9058251021556
3647.5398,0.943605930852744,646.6660105240762
3648.379,0.9432044694953177,753.0754500201984
3649.2202,0.9433970134572754,655.3991597177967
3650.0596,0.943422509908874,504.30988453039447
3650.8994,0.942236553279303,662.5416929262748
3651.7412,0.9386244396108792,505.7948543342739
3652.5813,0.9304560356989602,809.1649618946872
3653.4236,0.9134417533760942,627.1072135562943
3654.2642,0.8817131665293999,606.0843788305101
3655.1067,0.8312725511667401,678.9221969645383
3655.9475,0.7669232673738924,708.0704879020378
3656.7886,0.7051163642721954,548.7454847986086
3657.6318,0.6687716665950862,147.7038497744123
3658.4734,0.6736489159264414,674.5940470800706
3659.317,0.7167857345067098,675.0156495281293
3660.1587,0.778711833799493,550.3868453151696
3661.003,0.8375694295833787,685.1630193118305
3661.845,0.8802466751101035,507.3487809667337
3662.6875,0.9056563771361318,563.526967680037
3663.532,0.9186819215976118,485.59332138582283
3664.3748,0.924631002259365,719.3234791574588
3665.2197,0.9270520033690379,630.7291101761055
3666.063,0.9278636265074223,603.7654370061542
3666.9084,0.9282267173941577,593.6555461252998
3667.752,0.928821197674774,609.7790645339911
3668.5977,0.9297800450142041,674.7620461178427
3669.4417,0.9306834615196772,486.76504653935854
3670.286,0.9308726451607109,517.5164954344061
3671.132,0.9298518890395515,691.6071894480659
3671.9768,0.9275619802342187,579.0517323066169
3672.8235,0.9243735426230807,607.6334533733832
3673.6685,0.9209569904236856,640.1914183584008
3674.5156,0.9180051056886317,648.7506888309777
3675.3608,0.916084831549633,732.5935588579221
3676.2063,0.9154516103710256,557.2452659534679
3677.0542,0.9160164880275331,851.5700717077068
3677.9,0.91731809053784,641.1979718639319
3678.748,0.9186376413969513,498.7631456717541
3679.5945,0.9192451266686433,566.1887819981943
3680.4429,0.9187772527424988,606.802119192366
3681.2896,0.917435478045722,656.3049617345997
3682.1365,0.9158346988142891,695.6359312296263
3682.9856,0.9145916763527928,722.2722635723162
3683.8328,0.9139703910907458,767.9688698147015
3684.6824,0.9137905404250187,646.5254820455765
3685.53,0.9136754674615267,627.2279189763748
3686.38,0.9134003535453646,760.9027156159082
3687.2278,0.9130883734693402,756.5948827550133
3688.0762,0.9130418441749688,638.7220088558057
3688.9265,0.9133668507203302,613.8291216440044
3689.7751,0.9137876936723152,638.1063480150335
3690.626,0.9138995961962162,597.8326533516927
3691.475,0.9135605610811421,608.256224234817
3692.3264,0.9129686229378702,597.2595514397068
3693.1758,0.9123744360157823,644.3967671976172
3694.0254,0.9118218553009756,657.8783179715253
3694.8772,0.9112393970703233,620.0647526948724
3695.7273,0.9106808458342606,707.6678583257973
3696.5793,0.9103339940881596,677.9216655322965
3697.43,0.910264176652398,712.2861291513879
3698.2825,0.9101593882080379,733.7931951559048
3699.1333,0.9094171228431215,735.9856781320614
3699.9841,0.9075823567265903,605.3375393855009
3700.8374,0.9048146297223176,774.5151159370128
3701.6887,0.9019955143982452,572.6688128001039
3702.5425,0.9001743116810159,745.6791678595637
3703.3943,0.8998516711409352,596.5748743305494
3704.2483,0.9005533237533884,766.3998473762043
3705.1003,0.9011744533932884,644.4347288983462
3705.9526,0.9007730028075579,533.5412906580355
3706.8074,0.8991560382418303,573.4667466978884
3707.66,0.8969071144053802,636.7459112898173
3708.515,0.8948878324663087,600.3997292779671
3709.3682,0.8937667511519046,562.1592313895935
3710.2234,0.8937454486685624,605.0473368245728
3711.0771,0.8946252219920477,691.6679672385075
3711.9307,0.8959871293696052,680.7703832341497
3712.7866,0.897389504614977,555.8523045186724
3713.6409,0.8984865403793418,613.1759142219554
3714.4973,0.8991045382508163,648.1131469787192
3715.3518,0.8991875517447847,497.75752805239557
3716.2085,0.8987464571452707,561.4691638715738
3717.0635,0.8978452749378647,764.58870600466
3717.9185,0.8966121138455394,601.9185117599602
3718.776,0.8951891404651471,690.567559000751
3719.6313,0.8936388009122493,657.4875424719485
3720.489,0.8918746595451977,623.6472438149306
3721.345,0.889814289361298,557.4474166479245
3722.2031,0.8875496974123592,746.1729928226384
3723.0593,0.88545842406502,663.3166313366255
3723.9158,0.8839829628207279,560.3923187206868
3724.7747,0.8833103559858522,804.555086508966
3725.6316,0.8831402646600037,853.8810008655771
3726.4905,0.8828010601967787,654.0109535274471
3727.348,0.8817074040685219,700.7158869067146
3728.2073,0.879755352058124,672.047232755174
3729.065,0.877363015653236,719.1583632653382
3729.9229,0.8751126125675286,636.124026382386
3730.783,0.8734082907928826,628.6119510084558
3731.6414,0.8723476931067544,602.5993997897933
3732.5017,0.871759645540393,617.2229566393429
3733.3604,0.8713455118812005,657.2754717657391
3734.2214,0.8707630011605529,750.4264562612476
3735.0803,0.8697356878468816,565.8691817389505
3735.9417,0.8681835993113978,722.7514780300129
3736.8013,0.8663888417134687,773.0343462032283
3737.661,0.8649432497148084,715.4996823999891
3738.5227,0.8644461495023744,784.079787943669
3739.3828,0.8650685464566636,807.559041027593
3740.245,0.8663753057878648,610.1265645298573
3741.1055,0.8676153326677674,854.2809659133501
3741.9683,0.8682569767827824,669.7656177485766
3742.829,0.8682373648395645,752.5770847063347
3743.69,0.8678126589328461,662.9847696699837
3744.5532,0.8672218808704932,759.1435149499504
3745.4148,0.8665811311586099,658.9316788415057
3746.2786,0.8660032370894627,665.7263434138359
3747.1404,0.8656649193814375,830.8584233930671
3748.0044,0.8655891798862051,697.9485397278108
3748.8667,0.8654355577328919,614.1593049275286
3749.729,0.8646518096588819,652.6872192113003
3750.5938,0.8629638652085074,659.9020604131301
3751.4565,0.8607809345055761,785.4257463021041
3752.3215,0.8590197698306269,779.2652381512198
3753.1848,0.8584931542931952,733.4933545347475
3754.0503,0.8592717588583703,637.3072245629037
3754.9138,0.8606675942734064,672.7964459634268
3755.7776,0.8618165359753007,635.3236690584013
3756.6438,0.862277238648946,762.4721221530274
3757.508,0.862161384737058,681.9987002309855
3758.3745,0.8618415868923285,691.1534180301512
3759.239,0.8616154230137866,731.5948600005972
3760.106,0.8615791735173178,734.1756298903686
3760.971,0.8616804199836825,688.6519837732012
3761.8362,0.861822089121804,751.7012999169804
3762.7036,0.861952413728835,746.3007127034155
3763.5693,0.8620874639251965,713.9352341168479
3764.437,0.8622702952336129,692.0815382827069
3765.3032,0.8625229024200883,702.7736355070648
3766.1714,0.8628406391693976,643.9978157709771
3767.0378,0.8631755513098738,740.6101533413589
3767.9043,0.8633993526394701,698.6810363083646
3768.7732,0.8632789203821425,639.7242107819222
3769.6401,0.8625146040850372,867.6909447843293
3770.5095,0.8608079934086084,758.0395399881013
3771.377,0.8579842817007313,702.4318263496446
3772.2466,0.8540906841059152,744.8090352567722
3773.1145,0.8495303046494759,703.7840021532568
3773.9824,0.8449103520155578,692.1553546792566
3774.8528,0.8407988758073911,742.9517277064245
3775.721,0.8375387867222596,765.1045262003122
3776.5918,0.8352049668807021,771.9657941991144
3777.4604,0.8339146775360448,775.1416525460108
3778.3315,0.833907142570663,817.8948148966559
3779.201,0.8353542030910661,842.7938331709919
3780.0703,0.8379851048288037,749.0571354459468
3780.942,0.8410369986118001,723.7702769746122
3781.8118,0.843602774524871,790.9087289114441
3782.6838,0.8451418768383546,727.145213626282
3783.554,0.8455824452740568,737.3594226803307
3784.4265,0.845151774418468,708.3995203412376
3785.297,0.8441254544427355,682.9460445004275
3786.168,0.8427524026316747,748.7566271149445
3787.041,0.8412995973295309,789.4515172147404
3787.912,0.8400761163488355,805.7494050850825
3788.7856,0.8393343612055905,712.9754872156416
3789.6572,0.8391947424945679,788.3338710607335
3790.531,0.839595450157719,743.875357892966
3791.403,0.8403367782416996,659.2506316787426
3792.2754,0.8411412805700258,762.4032533117271
3793.15,0.841667355550457,772.743280342399
3794.0225,0.8415435128674988,766.0067843012246
3794.8972,0.8405481912019938,716.7684325883715
3795.7703,0.838844512972089,769.9056749104669
3796.6455,0.8369578252661591,690.8523416385643
3797.519,0.8354213403512923,714.694088054351
3798.3926,0.8342991637548803,920.8326378220411
3799.2686,0.8331491810254905,719.8290041935093
3800.1426,0.8314881935285403,622.0538350899633
3801.0188,0.8293396372100832,813.5437012625855
3801.8933,0.827438862126441,833.8818849303877
3802.77,0.8268292693810577,764.7858581386382
3803.6448,0.8282298388620902,975.930497305694
3804.522,0.8315011328311108,686.9363375045501
3805.3972,0.8355464827896323,807.6657018186302
3806.2727,0.8388632770909153,704.241436742235
3807.1504,0.8403252860647831,634.4960084213296
3808.0261,0.8397462459973289,770.315747521933
3808.9043,0.8378324094071196,732.3315878651321
3809.7805,0.8356612677855952,790.7054095632167
3810.659,0.8341205703813774,701.5211723093148
3811.5356,0.8336664538146523,807.6982501600329
3812.4126,0.834253453174038,737.0399243835382
3813.2917,0.8354577230075099,724.7936894559256
3814.169,0.8366833956387042,805.2020494692505
3815.0483,0.837437677553693,847.8662482332328
3815.926,0.8374464431015627,827.5008057762883
3816.806,0.836638653038445,700.9208812110945
3817.684,0.8350878777490099,872.7351864610033
3818.5623,0.8330089499501341,764.3593361983501
3819.4429,0.8307531410985725,767.1608505074071
3820.3215,0.8287087282479689,823.6631204813193
3821.2024,0.8270582168821687,877.526530668185
3822.0815,0.8257079348834079,696.0360352256846
3822.963,0.8243540887657071,730.5613464506431
3823.8423,0.8227168307652645,977.4725714409782
3824.722,0.8206430219322671,733.8174479484765
3825.604,0.8180801547090522,787.0619966335156
3826.4841,0.8150124978815291,910.6653920083213
3827.3665,0.8114109837471438,820.8843016697369
3828.2468,0.8073882912336005,903.8636484299745
3829.1296,0.8031984715769714,814.5871557438923
3830.0105,0.7992290286297293,909.1158231477061
3830.8916,0.7957428770741826,859.3641783912702
3831.7751,0.7928177569938398,809.5781088728644
3832.6565,0.7904563080918893,790.9871299916902
3833.5403,0.7886862626333837,945.7027335483103
3834.4224,0.7876255922931777,910.1303539613284
3835.3064,0.7873363697153722,867.1336995406158
3836.1887,0.7877719695373679,971.7625009178003
3837.0713,0.788817301062466,896.5889992049093
3837.956,0.7903632810573241,864.8816004111926
3838.839,0.7922830240581737,947.0757224027786
3839.7244,0.7944396112021339,939.1326274473729
3840.6077,0.7967345956330935,820.4396520240518
3841.4932,0.7992893442207063,761.1189238897424
3842.377,0.8024280118822654,881.2480146887245
3843.261,0.8065325444495963,828.5578116742802
3844.1472,0.8117430102211949,863.1479173410315
3845.0315,0.8176933853702693,884.6116390552387
3845.9182,0.8235772895273638,852.9625399268233
3846.803,0.8282803044008852,679.9482583882707
3847.69,0.8309842718059762,759.8425672869871
3848.5752,0.8316312726204368,731.4668815481477
3849.4604,0.8311485378177035,719.1969171163731
3850.3481,0.8309421542522187,836.6815931326795
3851.234,0.8320474512472951,734.2852875828868
3852.122,0.8345767535922917,795.6538110912867
3853.0083,0.837888943989952,681.9660773994045
3853.8967,0.8412866674399168,735.0905689169231
3854.7832,0.8444092048064801,797.479208741828
3855.6702,0.8472226707904013,795.7154253201979
3856.559,0.8496778975682865,680.1259850130581
3857.4463,0.8515410260491101,898.5207961472051
3858.336,0.8525353123579139,756.7684362190699
3859.2234,0.8525718255855173,685.7567815815775
3860.1135,0.8519686091891167,729.961294415586
3861.0015,0.8513653407340472,706.2202613976685
3861.8896,0.8512704399989143,847.3235745457339
3862.7803,0.8515271192516191,721.731385318929
3863.6687,0.851189734976842,761.8122689529462
3864.5598,0.8491002292106145,428.92064282492765
3865.4487,0.8448120255219721,724.7413588932659
3866.34,0.8389995135924575,732.5047521202495
3867.2297,0.8331230234609347,711.718657683845
3868.1213,0.8283997348399432,712.2670082163761
3869.0112,0.8252012586757302,722.2334332575598
3869.9014,0.8230140480567381,782.4853459980455
3870.7937,0.8210407474433298,719.4623447674513
3871.684,0.8187462487803266,743.8529292842192
3872.577,0.8159692534405318,750.6732906842648
3873.4678,0.812785708828019,800.8013810131148
3874.361,0.8092295414788232,848.3189359689142
3875.2524,0.8052530556440214,942.5544455716401
3876.1438,0.800682054381717,905.2971140296065
3877.0376,0.7953218116287716,742.6248364380774
3877.9297,0.7891414548567418,939.2759943291481
3878.8237,0.7822930010724838,703.514394284698
3879.716,0.7752041048129781,937.2652901558013
3880.6108,0.7683228005347932,817.1240397240663
3881.5037,0.7620352096133236,905.5516386630969
3882.3965,0.7563992503200506,843.5354205604673
3883.2917,0.7512014355401913,1027.6238428308739
3884.185,0.7461365407250296,918.0946826708633
3885.0808,0.7408883735270733,1214.4138541969626
3885.9746,0.735355343399465,842.00681656616
3886.8706,0.729627976657424,1005.5943322154527
3887.765,0.7241377930261276,1047.0782853650785
3888.6592,0.7195402333241612,942.3167150994028
3889.556,0.7165890863023529,1115.3242640675187
3890.4507,0.7158605636122112,1258.204077235767
3891.348,0.7174458908776565,1030.9975754032764
3892.243,0.7209512982216598,1184.6658116095205
3893.1406,0.725838291819848,872.325793493525
3894.0361,0.7317121510372064,786.0536656829453
3894.932,0.7384547499333849,1141.9358524923944
3895.83,0.7459320317754415,913.1470267666565
3896.7263,0.7537266777657422,989.4304841320176
3897.625,0.7613737420228055,840.7405484544062
3898.5215,0.7684549679931538,1096.2714736615471
3899.4207,0.7748286961632546,811.0766565052846
3900.3176,0.7803957728796005,896.34939465039
3901.2148,0.7852217421470062,932.3160213362894
3902.1145,0.7896251393972304,789.7098789244098
3903.0122,0.7942328066097535,1017.4116953452377
3903.912,0.7998374901395104,863.4703807263938
3904.8103,0.8068727516054567,902.0926148368164
3905.7107,0.8152062076904696,1053.6703250823732
3906.6094,0.8240871271367316,780.7438748443536
3907.508,0.8326307911658517,793.6000017991913
3908.409,0.840127183242686,783.7186977690986
3909.308,0.8461361297881492,690.4934583332065
3910.2097,0.8505952316045524,648.3049881349408
3911.1091,0.8537162004015172,769.4200278616253
3912.011,0.8560797344675275,887.9425214590535
3912.9111,0.8584004598663002,660.0597757948045
3913.8113,0.8611962448898077,621.6105310157565
3914.7136,0.8644607595331336,669.0739382887631
3915.6143,0.8677027951950436,630.6680429331742
3916.517,0.8704158710809445,602.862535050241
3917.4182,0.8724249640333744,720.6029568369648
3918.3215,0.8739700295875613,627.3156733315255
3919.223,0.87536344634441,724.7242722818216
3920.1245,0.876670828219676,686.7184823152731
3921.0286,0.8776158963176233,634.1884554898398
3921.9307,0.8778280540110678,608.8377043126101
3922.835,0.8772259630573734,581.6975721609809
3923.7373,0.8761652869153033,788.3647271457054
3924.642,0.8752036171252765,819.4636394242292
3925.5452,0.8747004537218779,706.3771757666495
3926.448,0.8745681585799081,774.7398780146625
3927.3535,0.8744060527330637,822.4051745343767
3928.257,0.8738211885805776,723.7950823508448
3929.1628,0.8726459301096964,635.9172685758341
3930.0667,0.8709338826719804,729.2017860747034
3930.9731,0.8687865721257417,741.2882268492842
3931.8774,0.8663070626077705,797.625646916464
3932.782,0.8636231368694723,637.6706129872606
3933.6887,0.8609622900094035,715.9383228279398
3934.5938,0.8585711207465984,665.4049471799387
3935.501,0.8565058073848009,665.7448997849333
3936.4062,0.8546696652933055,696.3666714690329
3937.3142,0.8529855095631548,764.2175655280515
