wavl,flux,ivar
3566.9744,1.1973910880245966,7.217696355687704
3567.795,1.1943185590327878,7.759190523104372
3568.6177,1.191220024180895,6.486207769737405
3569.4385,1.1875015550305,6.340998680314846
3570.2617,1.1827427547583336,10.90429071781754
3571.083,1.1770665030309895,7.136832646477245
3571.9065,1.1711371886326134,9.016665174822343
3572.7283,1.166122962277319,5.865668360473399
3573.55,1.163163158607944,7.022216549294807
3574.374,1.162858816193896,6.309131250087902
3575.1963,1.1648977559299127,5.99277405912007
3576.0208,1.168135313177517,7.013334023649135
3576.8435,1.1710381588703251,9.955314035572593
3577.6682,1.172414775728596,6.243483830978241
3578.4915,1.1720194713584904,7.134230589223497
3579.3145,1.170794005886873,6.25360556911832
3580.14,1.1703260692289268,9.013517455629604
3580.9636,1.1718019805533946,10.020776328252209
3581.7893,1.1751343891875823,8.843809137540621
3582.6133,1.1789239466564931,7.110945441302454
3583.4395,1.181373691446898,5.49820884842013
3584.264,1.1813441936563835,7.530353278027909
3585.0884,1.1789593082005925,7.772174457496818
3585.915,1.1752406345764783,7.805144721506545
3586.74,1.1713167964583433,9.08794649466667
3587.5671,1.1677094453843018,7.563773269421067
3588.3923,1.1643779249606452,7.869468301005539
3589.22,1.1610937735464177,8.185316688104855
3590.0457,1.157898539249599,8.396143721373443
3590.8716,1.1550048186927433,6.93186492009939
3591.6995,1.152528521347003,7.750256030704375
3592.526,1.150365676917237,7.451284121225773
3593.3542,1.1483118732909974,7.688451746937788
3594.181,1.1462707615492906,7.843695581563647
3595.0098,1.144211256785176,8.462112654807248
3595.8367,1.142157503828349,6.7160858603692635
3596.6638,1.1401901595247617,8.440510369864361
3597.4934,1.13844056780287,7.39803653353726
3598.3208,1.1368755084613988,8.871397918066553
3599.1506,1.1350738996842502,9.382647885436908
3599.9788,1.132532209136852,7.718934576604527
3600.8088,1.1292420115461521,9.559491983713187
3601.6372,1.1259718960460987,8.51989479717776
3602.4678,1.1236446145738481,8.239520324172599
3603.2964,1.1226016097037674,9.93289338224013
3604.1252,1.122466939963893,7.308856479768846
3604.9565,1.122793326795932,7.04701545962095
3605.786,1.1235389485341896,9.539371728446126
3606.6172,1.1248800842552895,7.494045118514704
3607.447,1.1266966358292094,8.720559132118387
3608.2788,1.1285065271944397,8.651306190877317
3609.109,1.1298662687316414,5.850678397851626
3609.9392,1.1307478803776863,9.854198274012344
3610.7717,1.1313382155132174,6.71334656933476
3611.6023,1.131578825180261,7.398612136374045
3612.435,1.1310390638729726,10.879909635298311
3613.266,1.129313298560255,7.838127022239486
3614.0994,1.1265283720347967,7.949446892723176
3614.9307,1.1234452722244588,8.979328483480364
3615.7625,1.1209028558055576,8.55423468983493
3616.5962,1.1192542605682718,8.041105393498814
3617.4282,1.1183055559332757,9.06908578201289
3618.2625,1.1177794841623856,9.646630682509285
3619.0947,1.1177361715829595,7.688619536756738
3619.9292,1.1183596691643303,7.55209470505187
3620.762,1.1193867438545497,8.71362722606552
3621.595,1.119890076751615,7.644100543474062
3622.4302,1.1187343941257148,8.88226073000744
3623.2634,1.115368339898,8.176442578933775
3624.0989,1.1102407725383192,8.82760057555873
3624.9326,1.1046918403221788,9.419838899841608
3625.7686,1.1002591051575368,9.34325428596507
3626.6028,1.0980924090057125,10.02900996256345
3627.437,1.0984652365188223,8.710775030162567
3628.2734,1.1008189990243393,10.702780051372883
3629.1082,1.1040366029390636,7.338825910773942
3629.945,1.1069291842972813,9.751011252935339
3630.78,1.1085943513816772,10.466320842645736
3631.6174,1.1087088697964451,8.12021764712148
3632.453,1.1075138839847651,7.633830705716413
3633.2883,1.1056313555275221,8.071762667349617
3634.1262,1.1038051849742432,7.123260598103332
3634.9622,1.102741377916948,9.19305447723782
3635.8005,1.1028942950168992,7.999423753621865
3636.637,1.104221762816867,7.753129667093778
3637.4756,1.1060386132050488,7.408163329636032
3638.3123,1.10725587642573,10.582911732251016
3639.1492,1.1069873277693076,7.002353064354148
3639.9885,1.1049567123898145,6.830775713195657
3640.826,1.1015038573638047,8.069742155406214
3641.6653,1.097209345783937,7.4042802159099415
3642.5032,1.0926592830830502,7.844458546455301
3643.343,1.0882959740685163,9.669631183546784
3644.1812,1.0845427509297574,8.720002355633547
3645.0195,1.0817992520251427,9.823066167800812
3645.86,1.0804582739780682,8.909754511652046
3646.699,1.0807593003004687,9.479236244237226
3647.5398,1.082566622225135,7.885785600652683
3648.379,1.0852612967154085,9.169575707264851
3649.2202,1.0879097065126992,8.712119060182824
3650.0596,1.0896033342802245,7.649518790592567
3650.8994,1.0899144474659088,8.15824044811574
3651.7412,1.0890235308023921,7.724228723271301
3652.5813,1.0875199732625735,8.060638551326631
3653.4236,1.0859418596141752,8.526926842900043
3654.2642,1.0844672308768244,11.392512438549517
3655.1067,1.082894084353762,8.644905452774
3655.9475,1.0809714980121035,8.934712905155328
3656.7886,1.0787158961641348,8.703463314912867
3657.6318,1.0765345983758736,10.291679384655282
3658.4734,1.0750616364543955,7.512849150928765
3659.317,1.0747829171834478,9.27427268951092
3660.1587,1.0757425399941158,9.591825587785829
3661.003,1.077415183052944,9.069354576136632
3661.845,1.0788895222290869,9.930234157794052
3662.6875,1.0794170891104586,9.002165016213652
3663.532,1.0789059422608143,8.56262625245932
3664.3748,1.077973177080861,9.627327122174203
3665.2197,1.0774175621908195,6.026043325110707
3666.063,1.0776609438827573,8.644792979388386
3666.9084,1.0786383755697446,10.253143152771328
3667.752,1.0800691512626617,8.44990171594124
3668.5977,1.0816629058425589,10.125228515814095
3669.4417,1.0830048822235976,10.782467093642898
3670.286,1.0834649216742809,7.211071175657894
3671.132,1.0823151443837469,9.42772975952315
3671.9768,1.0791080042186387,10.345486291241581
3672.8235,1.0739858028339138,9.163835408254382
3673.6685,1.0677967375128972,9.764056245937665
3674.5156,1.0617240858600643,9.533794334583956
3675.3608,1.056870996954534,7.8437778466819985
3676.2063,1.0537040236317712,8.72091316640464
3677.0542,1.0520069456321461,8.653367576761623
3677.9,1.0511622609997604,9.402917926084738
3678.748,1.0505879223877732,12.073467654468894
3679.5945,1.050103272430532,8.388803814592471
3680.4429,1.0499593854499705,8.172173837927781
3681.2896,1.0506018865385014,9.66855587637841
3682.1365,1.0523102983997503,9.45577366526659
3682.9856,1.0549718142140665,9.816245561228158
3683.8328,1.0580337377318794,7.1182958987724785
3684.6824,1.0606668681853744,9.125524477503848
3685.53,1.0619294299253141,11.23802249296869
3686.38,1.0612101788277266,7.290816074516049
3687.2278,1.0586839318368413,10.474918458982314
3688.0762,1.0554620362473521,10.257490333080153
3688.9265,1.0531703840982378,8.66714722639739
3689.7751,1.053164339655961,12.30786334976715
3690.626,1.0557698890390195,10.623789307822202
3691.475,1.0599553390066785,11.14706608099046
3692.3264,1.0636956709458951,9.668016617219898
3693.1758,1.0649427600011732,8.318833376784669
3694.0254,1.0629137504002,9.368381434413632
3694.8772,1.058523627141178,8.80527104123295
3695.7273,1.0537089112077653,8.833263214325822
3696.5793,1.0499892548598426,9.084924762886967
3697.43,1.047710903164163,10.709734528357899
3698.2825,1.046250010171496,8.269010525543333
3699.1333,1.044874951469721,8.697957594669449
3699.9841,1.0432441171618898,10.248684664485802
3700.8374,1.0413924582915537,9.441541806249958
3701.6887,1.0395502943362283,10.117356453693766
3702.5425,1.0380084974072625,11.578960416274484
3703.3943,1.037032392858994,10.0379937317227
3704.2483,1.0365992115079068,10.980905401624376
3705.1003,1.0363089788828437,8.104469331591202
3705.9526,1.035619749175176,8.855784776844146
3706.8074,1.0342611435809035,8.325744856361503
3707.66,1.032423858291919,10.527924574836556
3708.515,1.0305252043162747,10.464801932870488
3709.3682,1.0288908749749428,7.8933582926962265
3710.2234,1.0275271979178802,8.421681442153119
3711.0771,1.0262088011741415,11.432777073028136
3711.9307,1.0246663554484976,9.61141678017105
3712.7866,1.0227904721451448,8.416810660305497
3713.6409,1.020744460898356,16.43523841363066
3714.4973,1.0188831091232202,8.749153055288131
3715.3518,1.0176179846908404,8.51932963592908
3716.2085,1.0171879822496768,8.348578705230402
3717.0635,1.0175667134713369,6.960703612581449
3717.9185,1.0184484315633122,10.156295884754773
3718.776,1.0193200704096879,8.744113667976764
3719.6313,1.0195821150981055,9.785280297071788
3720.489,1.018802662316422,9.094113511021908
3721.345,1.016965389181288,12.856603761216295
3722.2031,1.0144652073070417,10.915904618625973
3723.0593,1.0118304891061438,6.965101105908207
3723.9158,1.009330740570671,9.601698777866906
3724.7747,1.0069369627844853,11.368357756272275
3725.6316,1.004591432104088,9.049695036980365
3726.4905,1.0024308942693299,10.365066689207962
3727.348,1.0008379830900276,9.494162579069792
3728.2073,1.000170349821312,9.775968436910238
3729.065,1.0005252009082288,10.30064296116747
3729.9229,1.0016886811336199,8.678228931105828
3730.783,1.0033418654025457,8.924043006141686
3731.6414,1.005220880320357,11.879938052901139
3732.5017,1.00709700618871,9.025073736782078
3733.3604,1.0086053545710405,10.824203364061443
3734.2214,1.0093452649162966,6.7941972362354335
3735.0803,1.0091467812196537,10.702894217081214
3735.9417,1.0082422260610329,10.174120914525341
3736.8013,1.0070775639103513,10.0844091961791
3737.661,1.005982365973291,8.527531099564873
3738.5227,1.0050732700310214,8.791624894293486
3739.3828,1.0044124935286936,9.457778660571327
3740.245,1.00413345122025,9.598459490804657
3741.1055,1.0043950946867433,9.549366193804016
3741.9683,1.0052299802158906,9.023843674025393
3742.829,1.0064671735797805,8.377534887398399
3743.69,1.0077504437579017,12.012021568912845
3744.5532,1.0085779197011395,7.757046592168265
3745.4148,1.008476751033208,9.041724838779732
3746.2786,1.0073613798181926,9.90576591496916
3747.1404,1.005757059404859,8.40280034600559
3748.0044,1.0045539470216367,12.456918423854505
3748.8667,1.0044816156227074,10.616492199801764
3749.729,1.005687483445271,10.540330761320819
3750.5938,1.0077619949022951,10.754799182965376
3751.4565,1.0099877084573416,9.974553160518568
3752.3215,1.011670805379414,14.826934189568144
3753.1848,1.012283276831008,8.946319368169007
3754.0503,1.0115592165748755,8.422887299652757
3754.9138,1.0095251107688832,11.056923800430809
3755.7776,1.0065082052556373,11.100904719875594
3756.6438,1.0030494307858204,11.119547849372072
3757.508,0.9997290543466283,10.788507923345971
3758.3745,0.9968759370281313,8.007765080269
3759.239,0.9945309521709679,9.838779982815375
3760.106,0.9924763521312638,8.9047949632155
3760.971,0.9904865135835944,8.67634599075554
3761.8362,0.9884842361674122,9.708694540835648
3762.7036,0.9866074323413561,10.62518519084722
3763.5693,0.9850727735104541,10.546605532915729
3764.437,0.9839288170498699,9.830625404708842
3765.3032,0.983013826011611,9.793933487802791
3766.1714,0.9821092285191948,8.773466644274064
3767.0378,0.9812063743801268,11.489066996935154
3767.9043,0.9805564359067636,10.218814740249073
3768.7732,0.9804839738979715,13.385741838494205
3769.6401,0.9811367684701653,10.544407811173226
3770.5095,0.982415439187871,7.897165668236381
3771.377,0.9840662843670557,10.218172356853227
3772.2466,0.9858172103437925,8.797992524757733
3773.1145,0.987365522677577,12.324895770862822
3773.9824,0.9883642934244059,9.101378823365486
3774.8528,0.9884224805925087,7.622799494463067
3775.721,0.987271319275104,9.447752522156401
3776.5918,0.9850127586863077,9.232433900134728
3777.4604,0.9822771254478351,11.416035290127795
3778.3315,0.9799991285578726,12.831738776022041
3779.201,0.9790334059495881,10.502217727814557
3780.0703,0.9797174637198938,11.89905012309534
3780.942,0.9817717896865167,11.187934114548636
3781.8118,0.9844233365030649,11.689452855740928
3782.6838,0.986746691472816,9.466999748770846
3783.554,0.9879544414443834,9.838286841472963
3784.4265,0.9876773193769809,12.135844474251451
3785.297,0.9860248325601617,10.052783868677608
3786.168,0.98345302361081,11.008379711809212
3787.041,0.9804448167176545,9.89297230277291
3787.912,0.977231879680714,10.507990370630788
3788.7856,0.9736805448247291,12.144403863529078
3789.6572,0.9696383567544583,10.405254136894719
3790.531,0.9652754743661593,11.478219582475246
3791.403,0.9612885510875155,10.097949170334974
3792.2754,0.9584282573815939,12.19452874874957
3793.15,0.956854989416856,11.878770683443888
3794.0225,0.95581469928213,10.098657395188503
3794.8972,0.9540606244274097,10.481742430083719
3795.7703,0.9507881184124857,11.663695238338436
3796.6455,0.9461603389980334,11.483654573894336
3797.519,0.9411231205166972,10.897982398387073
3798.3926,0.936645222629202,13.423676149433408
3799.2686,0.9333453131408821,11.21260881901398
3800.1426,0.9316641282066093,10.341379386854967
3801.0188,0.9320493116989407,12.820318988759613
3801.8933,0.9348171814932306,11.223058319532544
3802.77,0.9397465961405751,10.98182471293317
3803.6448,0.9459049305535453,11.142598069712852
3804.522,0.9520942627360903,10.335553015288667
3805.3972,0.95728326768995,11.773853781989928
3806.2727,0.961052199291809,12.463950885700127
3807.1504,0.963509873959099,12.793360831559315
3808.0261,0.9649644293367685,10.424289182425186
3808.9043,0.9655784876248897,9.22802090429
3809.7805,0.9652546670344909,10.210632767660984
3810.659,0.9639477682013445,10.043513021492698
3811.5356,0.9620043848422817,10.43237672665671
3812.4126,0.9601022443987899,12.714596250510601
3813.2917,0.9588574601669135,11.892964839892244
3814.169,0.9584895776830727,11.577850799517378
3815.0483,0.9588238758488279,11.841783148300554
3815.926,0.9595629220234053,11.924731963087602
3816.806,0.9604614464397273,11.979620728245573
3817.684,0.9612649512560834,13.17890918983682
3818.5623,0.9616249603483229,10.448462592739013
3819.4429,0.9611384174760311,9.74737337379597
3820.3215,0.9595226885577434,10.961792634366212
3821.2024,0.9567388188741699,11.851109173990082
3822.0815,0.9530704324830518,9.731867761205152
3822.963,0.9490486889221554,11.554160161739523
3823.8423,0.9453484078838821,11.172597123592793
3824.722,0.9423795795893262,10.66584807334541
3825.604,0.9399765118070409,11.46873569690843
3826.4841,0.9374242881582189,10.507720393227327
3827.3665,0.9339356888723466,12.80283514397877
3828.2468,0.9293768324949501,10.999158294338383
3829.1296,0.9244250778082816,11.16373824461112
3830.0105,0.9201924361142186,12.18357641355056
3830.8916,0.9173497057322803,11.747209580031805
3831.7751,0.9156913349750928,12.743060372265997
3832.6565,0.9143381510834322,11.213605909580341
3833.5403,0.9124018275591397,11.734686955156354
3834.4224,0.9096280965142576,11.336972597774103
3835.3064,0.9064550857648251,11.019482417472783
3836.1887,0.9037187009418094,13.911467063926183
3837.0713,0.9022024639877047,21.006654229764894
3837.956,0.9024129705175934,11.696235623311447
3838.839,0.9044474383589476,12.98576077114853
3839.7244,0.908019986827748,11.169668993697837
3840.6077,0.912614307565504,12.113388732837866
3841.4932,0.9177880976758083,10.432099168478508
3842.377,0.9231693484279069,11.962954829700141
3843.261,0.9284394785846659,11.060718474218609
3844.1472,0.9332718169335483,12.384478230081337
3845.0315,0.9374443822746535,13.010176191357884
3845.9182,0.9410297290677043,14.073961559112604
3846.803,0.9441953609071685,13.246312108651727
3847.69,0.9470284181091223,10.857823504926667
3848.5752,0.9493885665414147,12.625943086154587
3849.4604,0.9511589862083205,11.65800656992693
3850.3481,0.9525279795477023,11.639534963134055
3851.234,0.9540536845093434,11.825830866046724
3852.122,0.956399007193538,9.999901586938693
3853.0083,0.9598421507041481,10.758328740155093
3853.8967,0.9640520566436966,10.079744196491394
3854.7832,0.9681192254717776,10.458986345048467
3855.6702,0.9710295832313907,11.559730635487657
3856.559,0.9721346955817641,9.81616614950134
3857.4463,0.971501545200157,11.278015536881517
3858.336,0.9698557391563833,11.71351454344574
3859.2234,0.9681516002655646,11.15752233375379
3860.1135,0.9670352811493811,9.943237227692027
3861.0015,0.9666147400265349,11.928611851833226
3861.8896,0.9665455140758931,12.364681422491367
3862.7803,0.9663889201859263,11.161473762627537
3863.6687,0.9659101262833552,9.89870536186638
3864.5598,0.9650885667526753,9.185771662916299
3865.4487,0.9638949482299867,9.4712028066561
3866.34,0.9620944156425686,10.77442986044124
3867.2297,0.9593670060727462,8.739057359031333
3868.1213,0.955516475023004,13.318157524237147
3869.0112,0.9506326038491444,11.210212470074596
3869.9014,0.9449431067172419,12.405236316773383
3870.7937,0.9386872536396289,10.904910726099539
3871.684,0.9321450586827263,11.564013859517514
3872.577,0.92560765538326,12.72898584897424
3873.4678,0.919523429464059,11.341753666493481
3874.361,0.9142652538250503,11.673091295486072
3875.2524,0.9100555488003449,12.721932428771968
3876.1438,0.9067030127487634,13.194188445084938
3877.0376,0.9036083651905915,11.52871910770169
3877.9297,0.8999486285453251,12.149563640164118
3878.8237,0.894960915737288,12.56317969041842
3879.716,0.8883528129129823,12.078759000881357
3880.6108,0.8803622997082693,12.532036682823982
3881.5037,0.8717304284893945,13.108511356103808
3882.3965,0.8631776129687319,12.60263418920121
3883.2917,0.8550457780973117,14.391870175876754
3884.185,0.8472529139888995,15.01230981670194
3885.0808,0.8394379515287206,12.366273625220852
3885.9746,0.8315494312187062,14.897963640082343
3886.8706,0.8238971735315601,13.12474163663327
3887.765,0.8171503305311891,14.104827058409068
3888.6592,0.8119102775006705,17.954088512420366
3889.556,0.8085381870375451,14.496287165904725
3890.4507,0.8071297534870159,15.64301249571926
3891.348,0.8075945456563531,14.59898178201097
3892.243,0.8098684589295942,15.592978698185448
3893.1406,0.8140195464338156,13.19030353148212
3894.0361,0.8201173301360796,12.693612508042195
3894.932,0.8280936814496282,16.04043003772394
3895.83,0.8375585759893266,15.227167051861468
3896.7263,0.8477526137393784,13.289741046564819
3897.625,0.8579841657322136,11.774063487250963
3898.5215,0.8677154534229332,12.588049929613385
3899.4207,0.8767833094535208,14.656598626913969
3900.3176,0.8849748119141118,11.187760363245985
3901.2148,0.8920879027983573,13.325799829131306
3902.1145,0.8980332816042866,14.654677250753743
3903.0122,0.9030920789952751,13.265901140518835
3903.912,0.9080290964593413,9.685903872218542
3904.8103,0.9136462509347559,11.612076981328842
3905.7107,0.9204425449898084,12.549899302321974
3906.6094,0.928316425790565,11.113724027664814
3907.508,0.9367852071865316,10.213754870272098
3908.409,0.9452161393119162,12.166451650472638
3909.308,0.9529819580972031,11.643886514009097
3910.2097,0.9597333765669798,15.849726816494496
3911.1091,0.9653367875086276,9.883759211488622
3912.011,0.9699779988420615,10.498513274112058
3912.9111,0.9738957808450385,10.431826348065513
3913.8113,0.9772947983762514,11.10159681650884
3914.7136,0.9802650170862809,9.801091687241
3915.6143,0.9828507535765818,11.896450829260834
3916.517,0.9851586725101088,10.306937962380086
3917.4182,0.9872450304720483,12.217287159838824
3918.3215,0.9890619716187258,10.33336347659788
3919.223,0.9904681475937417,9.026279487068948
3920.1245,0.9914215049841243,12.261475462446244
3921.0286,0.9920542674406946,9.98166646123648
3921.9307,0.9926092938007582,9.183893491895484
3922.835,0.993325447585884,8.19033269347662
3923.7373,0.9943302894128929,9.59573154081833
3924.642,0.9955834900943084,9.946150712044155
3925.5452,0.9968246945762069,9.934836764699067
3926.448,0.9976882556169758,11.40684908015397
3927.3535,0.9979381578449679,8.969220741758239
3928.257,0.9977065607127124,9.23512722288811
3929.1628,0.9975071208620112,10.057060718980207
3930.0667,0.9979000129018529,9.887034243124475
3930.9731,0.9989679094867961,8.604773605450655
3931.8774,1.0000059493251716,11.44921204233197
3932.782,0.9998618625758906,11.874487734819807
3933.6887,0.9977554178914743,9.42644396218536
3934.5938,0.9939603948305468,9.995375086145348
