wavl,flux,ivar
3566.9744,18.176834675835476,9.153117154981533
3567.795,18.094858558737073,9.265210544649594
3568.6177,17.965999160244266,8.668386764121909
3569.4385,17.784167559240235,10.158604831056248
3570.2617,17.541094443818288,8.331984942451468
3571.083,17.254062595234416,8.927564214265853
3571.9065,16.97968055336302,9.267419084165187
3572.7283,16.803827011784957,9.42912544901324
3573.55,16.78682424911819,9.83614178164691
3574.374,16.922054455256472,10.529388260221783
3575.1963,17.137378788290864,9.686444319706558
3576.0208,17.345537214165986,9.585613672943506
3576.8435,17.48823572995351,10.913320801689963
3577.6682,17.55264357291574,9.214054002303277
3578.4915,17.553542787140668,9.732329773514735
3579.3145,17.51471266815748,9.460890084074043
3580.14,17.45731634048248,10.12179002231894
3580.9636,17.399181424037945,10.997123120305362
3581.7893,17.355871976757125,9.710037097939933
3582.6133,17.342191283110154,10.502571193372038
3583.4395,17.36815028428819,10.50855289033053
3584.264,17.433271769832153,10.367807545526853
3585.0884,17.523629762279207,9.51095832226189
3585.915,17.61541173149431,10.367546395680066
3586.74,17.68310420263567,8.068232681021096
3587.5671,17.710731935904988,9.70525098204208
3588.3923,17.69557358522076,9.271068035146973
3589.22,17.64623936121866,9.87493577005969
3590.0457,17.576163383914082,9.75511450811548
3590.8716,17.496817941543412,9.651039401671586
3591.6995,17.415527104528497,10.034408396823368
3592.526,17.33670703819605,10.817258373154758
3593.3542,17.262803878381202,9.75961778802979
3594.181,17.197673792188553,9.852977193823515
3595.0098,17.14605645980357,10.976603024327071
3595.8367,17.113061774222405,10.246609530092925
3596.6638,17.099616550944695,10.726215670666956
3597.4934,17.100146742624293,10.45060630622675
3598.3208,17.103164459030246,10.820997317991042
3599.1506,17.09624275054262,8.829931202865794
3599.9788,17.07192619534688,10.464154605915473
3600.8088,17.03028121689428,9.575859773221156
3601.6372,16.97858251945292,10.5054875722423
3602.4678,16.928944822713188,10.315001058530884
3603.2964,16.89705520302407,11.046684426757762
3604.1252,16.89663476271568,11.413071413825186
3604.9565,16.93322807749902,8.956213534965373
3605.786,16.99925365946203,10.076368185186308
3606.6172,17.077344699658457,10.939246025343033
3607.447,17.147621734293214,9.835644038752745
3608.2788,17.19721020104731,9.84195446639123
3609.109,17.22267907358635,10.540073587251475
3609.9392,17.228346032004627,10.72702114043128
3610.7717,17.220246493582028,9.848025236911779
3611.6023,17.202045533737834,11.614483306916688
3612.435,17.17354624696015,10.268176756889316
3613.266,17.132245096542626,10.058872427741695
3614.0994,17.075191676112034,10.039949049445472
3614.9307,17.00254334480434,11.303535517986548
3615.7625,16.918520954308423,10.255227590105465
3616.5962,16.831682925505742,10.985879318009866
3617.4282,16.75300500794485,11.256785450563893
3618.2625,16.691231887588092,11.539344954008499
3619.0947,16.65170277844755,11.366074421724182
3619.9292,16.634031413603523,10.401104075636319
3620.762,16.632583661035916,11.072487240163813
3621.595,16.63673703921953,10.409327260009617
3622.4302,16.6341262894464,10.890990199289295
3623.2634,16.61597611567322,9.671672194746941
3624.0989,16.58097373619591,11.446602007926241
3624.9326,16.5343991229556,10.343664276883894
3625.7686,16.48236098645838,10.81767337958077
3626.6028,16.429038678534752,10.144041128054312
3627.437,16.376781507009703,11.028835027203526
3628.2734,16.329027776761432,11.251194663114976
3629.1082,16.290971730120372,10.160608376338507
3629.945,16.26627661805225,11.913789777616792
3630.78,16.25458434775097,12.5879356105051
3631.6174,16.249475541418022,10.886044314750908
3632.453,16.24025604534904,10.129129068524215
3633.2883,16.21676152232399,10.40513008534299
3634.1262,16.175560374094744,11.891956635161609
3634.9622,16.123330737821103,11.513930866255931
3635.8005,16.071613910182677,12.795175628240331
3636.637,16.02830642741871,10.805352930699652
3637.4756,15.990653260381508,11.309546307529528
3638.3123,15.94991854106484,11.278989941086415
3639.1492,15.900559014298556,12.473735953238624
3639.9885,15.846385853752363,12.286041952188665
3640.826,15.797714418262787,10.844967403138606
3641.6653,15.76194286437162,12.712796590225803
3642.5032,15.738783947782629,12.554211236934762
3643.343,15.721010643039346,10.368262290011105
3644.1812,15.701059001002621,11.641345792050565
3645.0195,15.676223332694136,12.337563061754429
3645.86,15.649551079460391,11.722711579950676
3646.699,15.626498598409654,11.84178068743497
3647.5398,15.610116018650348,11.969610412879323
3648.379,15.599355586582599,13.607812639115744
3649.2202,15.589686624942745,12.217306369688115
3650.0596,15.576065709339485,11.626397060754465
3650.8994,15.555452703421834,12.435777529435159
3651.7412,15.527730472712648,12.449277419039309
3652.5813,15.494682067776882,12.712828516838055
3653.4236,15.457958529007335,13.360157587133505
3654.2642,15.41945070981481,11.998565129316203
3655.1067,15.381106778282854,12.403418482415246
3655.9475,15.345166494986175,12.602151437092719
3656.7886,15.312512137126774,12.701140762133877
3657.6318,15.282936509568836,13.260964192956129
3658.4734,15.256906217392462,12.806696924258748
3659.317,15.236843213807083,13.384517552936048
3660.1587,15.22744918430108,11.991017041481056
3661.003,15.232846756243337,14.275949000089971
3661.845,15.253228789463753,13.567705723748777
3662.6875,15.283475152430412,12.714728628182318
3663.532,15.315499905032938,12.204362603623997
3664.3748,15.342245499846868,14.183766678359866
3665.2197,15.360018512337815,11.650795250497895
3666.063,15.36561162339473,12.346190790873026
3666.9084,15.353549911118828,12.46548125931155
3667.752,15.317881010410899,12.251368282407268
3668.5977,15.258415353121434,12.038206572357481
3669.4417,15.185891601471283,14.140360059904772
3670.286,15.117823668383465,12.998531443556978
3671.132,15.069816538194813,13.978682534620221
3671.9768,15.04792855064607,12.705934851665793
3672.8235,15.046418479111324,13.388036454770358
3673.6685,15.052629786269062,13.50821800100317
3674.5156,15.054176683883536,13.241091487689086
3675.3608,15.044919722135129,13.740028936753715
3676.2063,15.02619728836005,13.16732879350704
3677.0542,15.002965743710758,13.308838381344563
3677.9,14.978971896894997,13.218947098789437
3678.748,14.95417257847426,14.35468222756357
3679.5945,14.927275349460073,13.176030474112927
3680.4429,14.89884823593982,15.141215284067002
3681.2896,14.873433868282573,12.765024677495017
3682.1365,14.857316370671153,14.427242576941257
3682.9856,14.854823122723388,13.470293873865977
3683.8328,14.864794158535027,13.590917807678686
3684.6824,14.879931203753909,12.819785880326746
3685.53,14.889496861163911,13.338783830336139
3686.38,14.884534577393062,12.71481458500237
3687.2278,14.86213761075103,14.296218087633388
3688.0762,14.826646530377287,12.229910591339767
3688.9265,14.787369532396728,15.889519619113067
3689.7751,14.754641756804332,15.42226169179433
3690.626,14.734818951814507,12.861958684954308
3691.475,14.727956461391774,13.291327818672116
3692.3264,14.727684895193553,15.04238564621863
3693.1758,14.72495243268401,13.743241269124432
3694.0254,14.713018650407252,12.919004946847602
3694.8772,14.690868647567584,13.84881717209656
3695.7273,14.663304302744562,14.029195713331891
3696.5793,14.6372024938254,14.137470061514309
3697.43,14.61793686683027,13.281804349017182
3698.2825,14.60685899095597,14.252066208974341
3699.1333,14.601602524161096,14.122920946427081
3699.9841,14.596982811723727,15.279396263073185
3700.8374,14.586831602161968,13.26131205538655
3701.6887,14.566646583407156,14.11476361142173
3702.5425,14.535782839628787,14.259809387611856
3703.3943,14.498428576467536,13.97006765902114
3704.2483,14.46099919927481,13.610794668305884
3705.1003,14.429278518457835,14.676714463273855
3705.9526,14.404723843086234,14.598193623832255
3706.8074,14.384041720742719,15.595743979564089
3707.66,14.361461744560351,13.784576867691419
3708.515,14.331974247066714,14.394044552602013
3709.3682,14.294312556500024,14.593347772619081
3710.2234,14.250347617513034,13.485926576275864
3711.0771,14.204144935683198,15.68566896139916
3711.9307,14.159855975383241,16.111379895459965
3712.7866,14.121024487763153,14.944642040308585
3713.6409,14.090629303641142,15.253671628954171
3714.4973,14.070384588475092,14.94813027226887
3715.3518,14.061080266615807,14.91989275228405
3716.2085,14.061445019871487,14.89025882286606
3717.0635,14.067505704119915,14.05665561528905
3717.9185,14.073223302406817,14.438882855210286
3718.776,14.07369967427502,15.700797508326671
3719.6313,14.068797018547594,15.895462393118551
3720.489,14.063074087398098,15.598042038823648
3721.345,14.060930127414489,17.222803148191453
3722.2031,14.061290009316624,14.604087885053126
3723.0593,14.057662865016264,16.136867527451354
3723.9158,14.043545473591974,14.375098187797349
3724.7747,14.017654891270206,15.094510910574058
3725.6316,13.984673773680438,14.295814856786333
3726.4905,13.950791893891177,15.685602430617449
3727.348,13.920011340020228,15.527501646048698
3728.2073,13.89240175736898,14.870112309810596
3729.065,13.86630924419271,15.786700421972041
3729.9229,13.840618623674537,15.698506679498406
3730.783,13.816607617666419,14.698124428588821
3731.6414,13.79756764067876,16.42320713422593
3732.5017,13.785915138342045,16.219862370639035
3733.3604,13.78094862282805,17.019889044677193
3734.2214,13.778511198660963,15.824938622033445
3735.0803,13.773574448948002,15.674218941744254
3735.9417,13.762598171276995,15.295870594562203
3736.8013,13.744007338449418,16.990265281172054
3737.661,13.717215311138222,14.812191604774132
3738.5227,13.682837775777633,15.532924196347516
3739.3828,13.64430334292933,15.46508738006592
3740.245,13.607201272616363,16.3769165613541
3741.1055,13.577211676663756,15.360066988586576
3741.9683,13.556105776238986,17.000296399453063
3742.829,13.541522593420124,16.789409284454976
3743.69,13.528993209887282,16.115099037985008
3744.5532,13.515418530130798,16.70840423641786
3745.4148,13.500718205636083,14.570779678295006
3746.2786,13.487124941549826,16.913738067905683
3747.1404,13.478074286024885,15.65704259605281
3748.0044,13.476397362787015,16.431085444354775
3748.8667,13.482806965989921,17.65168651394567
3749.729,13.49490051463161,18.311065954235346
3750.5938,13.508050598049163,17.268354404603002
3751.4565,13.51740486903368,15.63621351740139
3752.3215,13.519927539401696,15.992259271003196
3753.1848,13.514607419374899,18.22666831342772
3754.0503,13.50182976826339,17.50139407702876
3754.9138,13.482752332845338,17.383817105753185
3755.7776,13.458585647336783,16.30122705697073
3756.6438,13.43017917524895,16.257959068986345
3757.508,13.398368215803128,17.11714552782506
3758.3745,13.364359404846352,15.128386646275208
3759.239,13.331091953396218,17.015822325631767
3760.106,13.30182476776233,16.29582977776521
3760.971,13.27871330059271,16.773514870448125
3761.8362,13.260907720240807,17.186678560971384
3762.7036,13.245400446335431,15.280582871776248
3763.5693,13.228798095312186,16.270927847779973
3764.437,13.208507002555255,17.537609093587726
3765.3032,13.183821467458154,16.18906423272474
3766.1714,13.156076537393172,17.381968142929047
3767.0378,13.128854857681912,17.294676799186167
3767.9043,13.105993220469477,16.95119255257358
3768.7732,13.089288864208909,18.400203071660417
3769.6401,13.077271517622481,17.272377041458835
3770.5095,13.066055628356827,16.546486116063384
3771.377,13.052203173574446,18.164111097974523
3772.2466,13.034183446488544,18.408614147155
3773.1145,13.0126648607254,16.282220458014553
3773.9824,12.989736607551087,18.662313599509375
3774.8528,12.968871870533246,18.23495070909719
3775.721,12.954461522883996,19.998659570365856
3776.5918,12.949332386624452,19.05844332146223
3777.4604,12.952900160546355,19.6599901264711
3778.3315,12.961333513551917,16.96894759780953
3779.201,12.970122793866555,17.506262397015632
3780.0703,12.97642654586443,17.238263950048346
3780.942,12.979262579185903,18.36151334963457
3781.8118,12.978608410251908,19.17886200447488
3782.6838,12.974696361551022,18.482155613166924
3783.554,12.967597653268696,18.190590806455912
3784.4265,12.956702120672528,16.339025472080614
3785.297,12.940668335390137,18.805069376309202
3786.168,12.917862696347784,17.955201715005987
3787.041,12.887738275443686,19.086450343346556
3787.912,12.852245989503967,17.013496245613734
3788.7856,12.815096750443054,17.031987157946972
3789.6572,12.78070334682332,20.26122872346248
3790.531,12.751215982451695,19.520814277333102
3791.403,12.725683946032298,19.10396287755858
3792.2754,12.699797462761513,19.008384444002385
3793.15,12.668143942801327,18.702473176343656
3794.0225,12.627634108743088,19.63674707596244
3794.8972,12.579759213669256,19.27757568073505
3795.7703,12.532015868844695,21.461855585407072
3796.6455,12.494786230187326,18.52860979587511
3797.519,12.477522775838073,19.182603468642842
3798.3926,12.48342213488719,20.213293759622392
3799.2686,12.507230780428777,16.182712849833216
3800.1426,12.535851968728267,20.512702517946792
3801.0188,12.553933651104,15.960959995966743
3801.8933,12.55109716078351,19.94791424544409
3802.77,12.527729758848801,19.12427116417537
3803.6448,12.494325587725882,18.76749849411314
3804.522,12.464470473970463,18.375756318797798
3805.3972,12.447825367237222,20.00073307523958
3806.2727,12.446301251003446,21.43821649344438
3807.1504,12.456181111096702,19.581046394314907
3808.0261,12.471800653324483,19.80645412374312
3808.9043,12.488643731191882,19.563776455938395
3809.7805,12.5040508139357,18.465928301610198
3810.659,12.517474176593316,19.54369543197843
3811.5356,12.529913887652844,20.169753761386755
3812.4126,12.543241363201883,21.14866040686992
3813.2917,12.558073502900069,20.114300615377385
3814.169,12.571666810725329,20.88489480761487
3815.0483,12.578565659243013,19.99331862353897
3815.926,12.5737010806353,18.757560612884443
3816.806,12.555764298642282,21.056034724700545
3817.684,12.527476008641546,20.303579825320398
3818.5623,12.492694043000588,19.706730343674607
3819.4429,12.453824185530287,18.633252006403684
3820.3215,12.411749147196256,19.85809282965659
3821.2024,12.36634652853996,20.448641072573555
3822.0815,12.318560216901142,21.04544581844924
3822.963,12.269792357972669,19.733199677200535
3823.8423,12.221837683826958,19.79241479971943
3824.722,12.17496598320963,20.733111057830534
3825.604,12.127917529858792,20.66822741091099
3826.4841,12.078885296011133,19.64340174742332
3827.3665,12.025758352323095,21.133288695364158
3828.2468,11.96781437398368,20.672417121018167
3829.1296,11.904761742606212,21.78445877605645
3830.0105,11.83751931544583,22.103897460716336
3830.8916,11.766890044658894,20.36073484432156
3831.7751,11.69423850881698,22.87803536692677
3832.6565,11.622676764695623,23.12012407266488
3833.5403,11.556020732235073,22.471875511453515
3834.4224,11.499619949043842,24.013696124498278
3835.3064,11.457916412469336,23.152352235281015
3836.1887,11.434301407091368,22.209674987049898
3837.0713,11.429946114468516,24.21044513941621
3837.956,11.444256567784436,26.835926667193675
3838.839,11.475063649858996,22.51801972492268
3839.7244,11.519875642294458,24.088893219475118
3840.6077,11.576119156351442,21.128072752740376
3841.4932,11.641629415259603,23.771198021657625
3842.377,11.712411296780825,21.361940433323827
3843.261,11.78300991672413,22.816481323965874
3844.1472,11.847332959735498,22.5666019238842
3845.0315,11.900802327054437,21.55942344969387
3845.9182,11.943352707446305,19.16211927375427
3846.803,11.978233951000977,21.516921554005553
3847.69,12.010556447970895,20.773607997302175
3848.5752,12.043639261928858,19.729083417649377
3849.4604,12.077932346008453,19.82275765524293
3850.3481,12.111421104502394,20.85046872212182
3851.234,12.141251468518426,20.04866647274014
3852.122,12.165861386751345,20.380731158675168
3853.0083,12.18455671784849,19.310921099355184
3853.8967,12.197002722612016,20.093412706307856
3854.7832,12.201962826854539,22.74728227933118
3855.6702,12.197825983634383,19.439553336301984
3856.559,12.184028364984169,19.62239834609512
3857.4463,12.162886626259986,20.679725886748184
3858.336,12.139256596426302,20.24050577094554
3859.2234,12.118529010541923,21.285394038593683
3860.1135,12.103370930353016,21.121698925577792
3861.0015,12.093260135897205,20.27963042126792
3861.8896,12.08551205407199,20.241531255303585
3862.7803,12.076995628702559,20.982124001695205
3863.6687,12.064517444492692,20.727238844311845
3864.5598,12.044593475220967,20.099915897729254
3865.4487,12.014725759220662,21.08027466212218
3866.34,11.974570911298407,22.56870938191076
3867.2297,11.927117183381808,18.70149349221021
3868.1213,11.876576204310222,20.86302295844616
3869.0112,11.826559815314685,20.66938604423873
3869.9014,11.777529709132123,20.913111469745026
3870.7937,11.727368306551579,21.5137467473986
3871.684,11.67373215634715,22.59040899250506
3872.577,11.615323284566179,22.263965166804773
3873.4678,11.55366407845702,23.611958079777935
3874.361,11.490934620336871,23.614905697923597
3875.2524,11.429143351716522,23.862150009617157
3876.1438,11.367408074967981,23.177410384165068
3877.0376,11.302281577503464,24.81408661918385
3877.9297,11.23000841004019,23.962071720763614
3878.8237,11.147830250491827,23.28501034902003
3879.716,11.056433298841295,24.60516356569412
3880.6108,10.957558194247923,25.956116821660746
3881.5037,10.853366884521662,26.6473503476739
3882.3965,10.743517011108617,24.82208719984398
3883.2917,10.62695204560787,24.875206131416874
3884.185,10.505521193182204,27.550260175154314
3885.0808,10.382915485912811,28.649521079415972
3885.9746,10.264891151357855,31.228956887859173
3886.8706,10.153959860954103,31.530328153227412
3887.765,10.05149819985899,27.15208219525513
3888.6592,9.959717629440904,32.57277266705214
3889.556,9.886087314972837,32.32019044003982
3890.4507,9.84277798451263,36.32164035171651
3891.348,9.839333983441524,35.67873713834711
3892.243,9.876781025385249,32.36077872186843
3893.1406,9.946113477447662,33.34323669692149
3894.0361,10.032446823190803,29.208247420012114
3894.932,10.123503014821704,28.698479036973964
3895.83,10.2138940869506,26.735731190825543
3896.7263,10.30420100577874,32.180156206847634
3897.625,10.39867996477059,26.365237283603246
3898.5215,10.499062098756065,26.96279255036882
3899.4207,10.604319086770987,25.331639272947875
3900.3176,10.709294045824478,25.776789102486816
3901.2148,10.809406603046074,24.323196348335163
3902.1145,10.902375464806877,24.47875428656555
3903.0122,10.988667991857143,23.13821918110935
3903.912,11.07236101786855,25.18184189595212
3904.8103,11.15781616602192,23.620787511816403
3905.7107,11.249182314711794,24.59828878163605
3906.6094,11.34693104206681,22.188439167584423
3907.508,11.448020358848844,22.24449266048716
3908.409,11.545857721406508,22.4053466174851
3909.308,11.631975181686762,22.8940063014985
3910.2097,11.700977657735756,20.18157749090197
3911.1091,11.751643642578996,22.542063092931077
3912.011,11.788377877506996,22.017931432726268
3912.9111,11.817838005627339,21.266582839122233
3913.8113,11.846779175227061,21.35241938400215
3914.7136,11.879772518762188,21.72548925904622
3915.6143,11.91773357609168,22.347409576298634
3916.517,11.957911764442569,21.15442629762384
3917.4182,11.994332006471023,22.75605468689817
3918.3215,12.021380656915046,20.830015729232862
3919.223,12.036359900071364,20.77326670322909
3920.1245,12.041135729929106,21.271875970290388
3921.0286,12.040570624157343,19.886698602381436
3921.9307,12.040126295895732,21.66794215651781
3922.835,12.043808121144863,19.648561440101805
3923.7373,12.05343558763718,18.852736058322485
3924.642,12.068943350376763,21.55923154930657
3925.5452,12.088441618727165,20.44943364682844
3926.448,12.10878499606941,21.432642933674515
3927.3535,12.126604457732286,19.47938118522749
3928.257,12.139548713878686,20.90902275695433
3929.1628,12.147104672557237,20.5016027564625
3930.0667,12.149405534034706,20.44816633349318
3930.9731,12.14585360444546,19.969655275690194
3931.8774,12.134475993691648,20.29692715356796
3932.782,12.112968057782066,20.188663240798718
