wavl,flux,ivar
3566.9744,7.790078610936838,9.116596401735197
3567.795,7.758630547453572,11.149629174265899
3568.6177,7.734254681421676,6.8944491966643575
3569.4385,7.723824074437315,9.123076094947972
3570.2617,7.730650201098901,12.481885456952279
3571.083,7.752479985778738,8.337787334778847
3571.9065,7.782489788521976,9.15177792851271
3572.7283,7.812264469872392,8.357566245818166
3573.55,7.835032835450502,10.43645815204235
3574.374,7.845962946057855,10.103946508565027
3575.1963,7.841912075042883,9.965381781402053
3576.0208,7.8224246818546055,10.104415166082731
3576.8435,7.790917174901053,9.826709482310193
3577.6682,7.75339529376591,9.477929505478608
3578.4915,7.715849485351534,7.401402252429299
3579.3145,7.681119221451818,10.334135454402494
3580.14,7.64917556473472,10.897762837552653
3580.9636,7.619991829070291,9.486755829306325
3581.7893,7.595421059329594,12.502615398155578
3582.6133,7.579653320009324,9.777353102859678
3583.4395,7.576394156698387,11.078672797732944
3584.264,7.58663833786781,10.491545458101573
3585.0884,7.607783569157243,11.697242643333848
3585.915,7.634375230116822,9.042058501293717
3586.74,7.6589203351186175,10.838008537612925
3587.5671,7.67442968698648,10.603647569273292
3588.3923,7.6773387075730115,10.32397453080822
3589.22,7.670083545650631,10.083505276242592
3590.0457,7.659509542778316,10.065065660437536
3590.8716,7.65194487481082,12.459446857568317
3591.6995,7.649254500451817,11.598094849699438
3592.526,7.649158373401812,9.460249656163876
3593.3542,7.648870968603768,8.611127391813893
3594.181,7.647801631740781,9.81477621358768
3595.0098,7.646481520564987,10.333837811698467
3595.8367,7.643746757004637,9.255400568772881
3596.6638,7.6360309139839,9.192447044103332
3597.4934,7.619454769031368,10.349070271870264
3598.3208,7.591854659890788,9.72630951939305
3599.1506,7.5517779902751885,8.912078916654067
3599.9788,7.498290939143135,8.886772897029536
3600.8088,7.432613891466839,9.501490502570991
3601.6372,7.363584394565017,9.682906046129585
3602.4678,7.307444731589983,11.618992771832408
3603.2964,7.2821160840783925,12.433690450112461
3604.1252,7.29493886915441,13.57157060531256
3604.9565,7.336432482531458,9.602894661315869
3605.786,7.382865454443621,9.741609379736694
3606.6172,7.409155196930606,10.797655651842572
3607.447,7.401928201902597,8.845554889446602
3608.2788,7.3667621026804175,9.475494865633667
3609.109,7.323836855965742,11.836446086233018
3609.9392,7.294446075816125,10.328983971125291
3610.7717,7.289197413227643,9.324206482843655
3611.6023,7.3051845862926035,13.285326877230073
3612.435,7.332176156933756,9.91184274080644
3613.266,7.359823821620846,9.634355327206986
3614.0994,7.381017602000519,10.909868603519834
3614.9307,7.3910008810814665,9.204673305020252
3615.7625,7.387567407187537,10.046928473271487
3616.5962,7.371919867102685,11.067888507297202
3617.4282,7.349520175727297,10.413529057736392
3618.2625,7.328269794930611,11.570093502563367
3619.0947,7.315733790839022,11.761345057192576
3619.9292,7.315752443007274,11.576800459558639
3620.762,7.326896430629967,12.042382528500365
3621.595,7.342694595211729,9.291825576812142
3622.4302,7.354413792612431,8.84632716424176
3623.2634,7.355062487796817,9.621254964721619
3624.0989,7.3422746004916535,12.008182198868514
3624.9326,7.317557389493718,12.330296242407105
3625.7686,7.282667114906043,13.214183050720722
3626.6028,7.236161701331092,10.739833769985136
3627.437,7.167779643973547,15.58017059476241
3628.2734,7.04863656608774,10.053879130477636
3629.1082,6.820920720198502,13.170448964441585
3629.945,6.400375762379638,10.193355275488186
3630.78,5.729675689637535,10.287843476904655
3631.6174,4.85678532938467,10.516233386081556
3632.453,4.006652872930629,13.290219487083931
3633.2883,3.5001613393950306,14.874600130485732
3634.1262,3.573099600183901,11.228588555793912
3634.9622,4.202898207994449,11.109936737385878
3635.8005,5.124714659464348,13.219201804228806
3636.637,6.0050679305573365,14.675272913460356
3637.4756,6.642456787969539,10.730124296310848
3638.3123,7.0020058240624605,11.24875417837552
3639.1492,7.1590380978053245,12.196292176424798
3639.9885,7.203993576131099,10.173769713558494
3640.826,7.199387509084129,10.643558105812257
3641.6653,7.177493546016431,9.342254216277922
3642.5032,7.152466397016989,11.409691498171386
3643.343,7.1299968988214095,9.76166632875563
3644.1812,7.112085443127979,12.870966647835054
3645.0195,7.099091313194594,9.952772557725995
3645.86,7.091890272880179,12.53542673912706
3646.699,7.0923622275927976,14.059900890955692
3647.5398,7.101676162062632,12.79139984035772
3648.379,7.118021858204465,11.173098529990824
3649.2202,7.136328427308353,11.479977996892044
3650.0596,7.150239966873553,10.41215568710212
3650.8994,7.155569250126821,12.306339536698337
3651.7412,7.151663867325025,12.585292067053125
3652.5813,7.140751445171232,10.36922178006157
3653.4236,7.125765109028191,11.397794433887332
3654.2642,7.108653374401973,13.14778051547817
3655.1067,7.0893249511657945,10.196205391850661
3655.9475,7.066378925066701,9.884909852198708
3656.7886,7.038163967923176,12.176953153452647
3657.6318,7.0046870248894635,10.94832190453819
3658.4734,6.969562541938713,10.883005946672176
3659.317,6.939435572398348,14.297699179516686
3660.1587,6.921213902658732,14.421792932650325
3661.003,6.916551784618518,13.527476723147311
3661.845,6.9201249366554585,12.494946922603184
3662.6875,6.92320788068188,10.728453530060856
3663.532,6.919873463563232,12.68923723855933
3664.3748,6.909982787834369,10.98363360701527
3665.2197,6.897191040480895,13.976633256913225
3666.063,6.885097830771877,12.377396170206522
3666.9084,6.874372042342154,13.238551649485723
3667.752,6.86319242345227,11.805203386033428
3668.5977,6.84976294589066,11.969302743297238
3669.4417,6.835457139024438,12.012837677335709
3670.286,6.824640760042341,14.03119442920445
3671.132,6.821346660478999,11.133498912652877
3671.9768,6.825406415363763,13.761091954636912
3672.8235,6.831863050624064,11.66031085535798
3673.6685,6.8341493285511845,11.366876596088497
3674.5156,6.828240939786474,11.00111231220632
3675.3608,6.814610788460014,12.942201284341813
3676.2063,6.797017334655773,11.423746355833714
3677.0542,6.779637868382941,10.828240123998771
3677.9,6.764882046817106,13.59778572242061
3678.748,6.752716947377542,12.183306447716204
3679.5945,6.742390661808497,10.284054409446655
3680.4429,6.733742918408681,14.251722171954674
3681.2896,6.727721442588175,10.151901061564914
3682.1365,6.725270544182542,15.812827577743537
3682.9856,6.726089865093668,11.526011103818746
3683.8328,6.7279014085440885,12.37363104355522
3684.6824,6.72693492811172,12.861828832707884
3685.53,6.719526947349782,14.22624395462718
3686.38,6.7041335947294485,13.696130945940066
3687.2278,6.682941519887968,13.96035098569023
3688.0762,6.661271259070532,11.693246494929603
3688.9265,6.645072543491389,13.420433285236026
3689.7751,6.637453918926133,13.987191012801736
3690.626,6.636905811747162,13.023028465622122
3691.475,6.639394251288247,14.573225606782202
3692.3264,6.641853561584307,15.350367096759468
3693.1758,6.6438167670232255,10.931610689105804
3694.0254,6.646035855082608,11.39097285576303
3694.8772,6.64819096058199,13.585845653222867
3695.7273,6.648361637125233,12.836008151882634
3696.5793,6.644390884089378,11.750101642020109
3697.43,6.635289445782651,13.186770670553607
3698.2825,6.621614867089049,11.657994667895107
3699.1333,6.605589223986168,11.36888339425987
3699.9841,6.590526820667627,14.857777873145363
3700.8374,6.5794885586324465,13.518108722257137
3701.6887,6.573292342227438,14.250077688624758
3702.5425,6.569499030838353,12.400185140627666
3703.3943,6.564186595939994,18.220582860119784
3704.2483,6.554747578725549,12.315613775196704
3705.1003,6.541834623070576,12.876854098411341
3705.9526,6.528490466787427,13.018493159937542
3706.8074,6.517562824052007,14.456819317650462
3707.66,6.5093456996792645,14.755775199564388
3708.515,6.5010859429794134,13.395665532731318
3709.3682,6.489207966847687,13.193794672297098
3710.2234,6.471828960986465,11.59275892202736
3711.0771,6.45051251512969,14.407179953219797
3711.9307,6.429531834022349,16.333863860137505
3712.7866,6.413618868368968,13.904330995748948
3713.6409,6.40527404524554,14.7834011564755
3714.4973,6.403008168201419,14.873565910482288
3715.3518,6.4025371484547655,10.231544845519648
3716.2085,6.399426104993147,14.807608629592439
3717.0635,6.391607062337202,14.32264701832775
3717.9185,6.380404820354052,13.834893907668368
3718.776,6.370087913093042,16.31622628767405
3719.6313,6.365934537195838,13.710953613024204
3720.489,6.37080714224197,14.022266785465503
3721.345,6.382714712765733,13.996725373253057
3722.2031,6.39552249238781,13.593694215594144
3723.0593,6.402505573130869,12.569111729491224
3723.9158,6.4004904161527545,14.441014487617403
3724.7747,6.3909463691545865,11.954260653088664
3725.6316,6.378368308969488,18.583918488480652
3726.4905,6.367205927412856,13.12975737304124
3727.348,6.360127171006308,13.62696717431845
3728.2073,6.357422827722233,13.509090147823324
3729.065,6.357389540722271,12.882009351680074
3729.9229,6.356866642497928,13.653698190910369
3730.783,6.352570231392841,12.560100770016764
3731.6414,6.343070296337389,14.19951126317432
3732.5017,6.329672504354292,13.533021212682701
3733.3604,6.315136228609792,14.654723961889992
3734.2214,6.300747441197611,15.18679857851293
3735.0803,6.285562117859105,12.320684860820394
3735.9417,6.267970345446949,14.851862411137576
3736.8013,6.248539897156797,16.094258477995467
3737.661,6.229940583302916,15.400927218447038
3738.5227,6.214904525813276,15.305703670990061
3739.3828,6.204263964093937,15.013276074594064
3740.245,6.196608840599771,14.575669068754827
3741.1055,6.189958769264598,17.089474418732422
3741.9683,6.18308613215152,14.088739868691114
3742.829,6.176118010947582,14.528771809385082
3743.69,6.169762402607596,17.2370747038366
3744.5532,6.164249726642456,14.380088590782423
3745.4148,6.158839872418917,14.637053165675539
3746.2786,6.152415710282777,13.401770211554016
3747.1404,6.1448872217535575,17.78019921951183
3748.0044,6.137562225953303,18.863112872310403
3748.8667,6.132386533237189,18.98095008009935
3749.729,6.130236252057615,16.671834453139127
3750.5938,6.129762833674323,15.845231583763008
3751.4565,6.127420843612116,14.978777135398694
3752.3215,6.119276330009176,16.450952938836643
3753.1848,6.103925933298499,14.557373836634742
3754.0503,6.083922844438163,16.542341197750236
3754.9138,6.0647334252527285,16.689074170839355
3755.7776,6.051161138392545,18.174959559156914
3756.6438,6.044832493313592,17.948553151527374
3757.508,6.043731965052407,15.92675476864293
3758.3745,6.043968986956785,14.897620512933473
3759.239,6.042736894457933,16.4844516463342
3760.106,6.04022258521386,16.089009069964902
3760.971,6.039112259703218,17.382958142920153
3761.8362,6.041911936248511,18.575916424750403
3762.7036,6.048262006035583,16.20283862994749
3763.5693,6.054107923027726,18.770831883248547
3764.437,6.053674587434372,12.504912740785501
3765.3032,6.042898250096964,16.976557521133937
3766.1714,6.0222427265026734,17.324922602969462
3767.0378,5.99694627852688,16.925062971625486
3767.9043,5.973681769600178,15.947206848802736
3768.7732,5.956689019382351,14.644604553202422
3769.6401,5.946163879496704,15.60996140003973
3770.5095,5.939432936735344,18.35187251496846
3771.377,5.933813485528102,15.336425654856432
3772.2466,5.927706172939435,14.467740986526064
3773.1145,5.920282294546658,18.69297041441474
3773.9824,5.910686846468291,17.92788761460531
3774.8528,5.898196927439903,17.15437413048785
3775.721,5.883182800121763,15.68078624369316
3776.5918,5.86738653390089,16.644594948044457
3777.4604,5.85368874151868,16.867444317396185
3778.3315,5.844415292573325,13.926496564269266
3779.201,5.8405272274393925,18.957439617762198
3780.0703,5.841490946655615,14.541155204938011
3780.942,5.846280634420245,17.7368703755505
3781.8118,5.854005304867014,16.05318872819761
3782.6838,5.863820798278035,17.073024883747586
3783.554,5.874008533595099,14.033814960486703
3784.4265,5.881762699954547,18.960763252193118
3785.297,5.883813733072927,15.22892334514385
3786.168,5.878168208351651,16.252095102723203
3787.041,5.86507691280988,17.713325661326
3787.912,5.846900767902034,17.030927943220657
3788.7856,5.826513747720331,16.426433828709953
3789.6572,5.806393824974847,14.704812431458482
3790.531,5.787889759422462,18.56761062404239
3791.403,5.771913324735499,15.287164261619465
3792.2754,5.758904435103091,18.05733147016943
3793.15,5.748780383306149,16.134956037157234
3794.0225,5.7406697650575875,19.53606305109073
3794.8972,5.733141854232375,18.658168172119467
3795.7703,5.7256227548585175,16.670879429706154
3796.6455,5.71927095326063,16.32655196281673
3797.519,5.716472127627158,15.561947514172683
3798.3926,5.718531263886944,18.36582553659665
3799.2686,5.723814605082776,15.488416806558067
3800.1426,5.727781883024283,17.0783558133839
3801.0188,5.725316463156607,18.890919153122194
3801.8933,5.713607910344058,18.198093756124567
3802.77,5.693805101749997,15.937317657945766
3803.6448,5.6707117715575075,16.385020172522776
3804.522,5.650048669991591,19.492537962116867
3805.3972,5.636037876603058,17.006054016148454
3806.2727,5.629511600272947,20.57008573854695
3807.1504,5.628588970811192,16.45602707529133
3808.0261,5.630174600348969,18.343101670360163
3808.9043,5.631129359069459,17.834989842808337
3809.7805,5.628651389811771,16.69152000500085
3810.659,5.620882262687405,16.454052971448295
3811.5356,5.608332392620838,21.42329670069177
3812.4126,5.594460142465595,19.68661863722208
3813.2917,5.58389653715793,19.88646807426464
3814.169,5.578952138366002,18.282158322626636
3815.0483,5.577506514401243,17.075573246025712
3815.926,5.575046949811827,16.5039302627917
3816.806,5.568476258072516,19.282412270456877
3817.684,5.558035374590909,18.242441128768384
3818.5623,5.545795670878433,18.43533252864809
3819.4429,5.533400264926624,19.227730709596965
3820.3215,5.5214918788902985,19.419864973377614
3821.2024,5.510190607386018,20.564889915078233
3822.0815,5.499928518445032,18.43971188831602
3822.963,5.491165637837209,16.50748956568645
3823.8423,5.484226467818503,17.97429909440623
3824.722,5.479020616408981,18.485317331816457
3825.604,5.4752102968867655,18.172508528468892
3826.4841,5.472346362992097,21.23925352309295
3827.3665,5.4699227274508955,16.305722733817536
3828.2468,5.467498356102387,20.577245173763814
3829.1296,5.464521277996036,22.271622879931112
3830.0105,5.460208932424234,16.286255054500145
3830.8916,5.4537825706603344,19.67840412796504
3831.7751,5.445336349945149,19.78129969438419
3832.6565,5.4365515680460375,20.23243162179953
3833.5403,5.429861637965226,18.90369658923555
3834.4224,5.426579756106464,17.873890121215403
3835.3064,5.424835645781769,18.527050272295305
3836.1887,5.419703530897948,17.122520538017287
3837.0713,5.405905747330246,17.660505964127697
3837.956,5.381672487415065,17.20055538539057
3838.839,5.351269356508489,22.15890080570065
3839.7244,5.323206444322341,18.585835627046073
3840.6077,5.306090264193133,22.287609052783452
3841.4932,5.303369244358689,22.255324486557925
3842.377,5.311958735882211,16.92883112839866
3843.261,5.3246754355477455,16.68086757119145
3844.1472,5.334853984234059,19.06220025594523
3845.0315,5.339385886065642,21.132691457866322
3845.9182,5.338923558153936,23.58462087982925
3846.803,5.335869807069986,22.954250187910194
3847.69,5.332728362500699,16.389105031966082
3848.5752,5.331840740516583,22.39132439229679
3849.4604,5.335641899649593,18.931976147564363
3850.3481,5.346067809835597,19.068488522079505
3851.234,5.362427609820262,20.065235552510785
3852.122,5.380015018266668,21.476536986680422
3853.0083,5.391115038003655,16.884013525806573
3853.8967,5.3895421738182865,18.19501137208269
3854.7832,5.374525912294488,17.06191546395996
3855.6702,5.351009128194851,21.554289198815304
3856.559,5.326123999188069,19.658323842833582
3857.4463,5.305330547816002,19.56703488388313
3858.336,5.290209056756461,21.474962700849755
3859.2234,5.2794586540133865,18.896435658167356
3860.1135,5.270472807399854,23.074170669976297
3861.0015,5.261433285707255,18.380125904446405
3861.8896,5.251917769235285,20.769327257592934
3862.7803,5.242426192685779,22.060624806550905
3863.6687,5.233335954242632,21.616817194031544
3864.5598,5.224260836890269,18.958160569120302
3865.4487,5.214796765664705,21.34613909942454
3866.34,5.205135909507813,20.166706974304496
3867.2297,5.196429090699831,22.41037685892072
3868.1213,5.189913520836893,26.82477847291778
3869.0112,5.186035803003177,22.089014404442835
3869.9014,5.183852914928943,20.63141924843006
3870.7937,5.181467293417089,19.215603110976833
3871.684,5.1770198398832115,22.474175213448163
3872.577,5.169672835503283,23.2953140262324
3873.4678,5.160131572117644,21.946765565837495
3874.361,5.149812301670751,26.4720584801928
3875.2524,5.139598107268769,20.67953787426011
3876.1438,5.128977571992958,21.747255138348322
3877.0376,5.117080902451014,23.939354803828657
3877.9297,5.10445717450011,22.437415996116254
3878.8237,5.093322203885735,22.209957253817326
3879.716,5.08625712833038,23.550731338727886
3880.6108,5.083968560775472,23.29204593029797
3881.5037,5.084610393693457,21.96386449234746
3882.3965,5.084884659739811,20.384680459961547
3883.2917,5.082305212034984,23.179188254700613
3884.185,5.076947267817687,19.36885266562271
3885.0808,5.0712439259774325,23.306753022097155
3885.9746,5.067856720633853,24.650110967324814
3886.8706,5.066962635967872,22.677935643604815
3887.765,5.065690015038792,18.610994667230553
3888.6592,5.0602880654999485,23.004587478593802
3889.556,5.049198206200813,21.168060964412376
3890.4507,5.034415942631459,23.62662116965991
3891.348,5.019764785754197,22.95588060430964
3892.243,5.008475478847722,20.69800230488227
3893.1406,5.001353760774204,23.594137980942754
3894.0361,4.997388511474743,22.30842050592797
3894.932,4.994970509738955,19.109230650239702
3895.83,4.992915057075781,23.836762020132447
3896.7263,4.990476793980302,23.04839977825315
3897.625,4.987089587203112,21.43842232761599
3898.5215,4.9826988882824645,22.656015191730976
3899.4207,4.978181507108313,24.98222581308227
3900.3176,4.975197124344749,24.773872373236014
3901.2148,4.974996621641743,24.874831596984535
3902.1145,4.977595135057697,20.312337248502452
3903.0122,4.981952015360871,21.597294850151485
3903.912,4.98684979763765,22.34457127035963
3904.8103,4.99115478916118,23.65537624688615
3905.7107,4.993645736977636,20.570229742587944
3906.6094,4.9930460525231375,19.87638678398102
3907.508,4.988902111193797,22.048374363094
3908.409,4.98232756474242,23.726033995491125
3909.308,4.975813944868795,22.833899027647274
3910.2097,4.971791122437919,22.481075990024216
3911.1091,4.971441698792261,25.262931436072975
3912.011,4.9745716015534525,27.63917465714308
3912.9111,4.980569029092429,20.732784798018358
3913.8113,4.988966016031815,24.951263678701807
3914.7136,4.998840664616109,24.06822949275519
3915.6143,5.008042799823152,21.034467103643017
3916.517,5.013923238695511,21.202953995623748
3917.4182,5.014636709280113,20.34838573547109
3918.3215,5.009921931841271,22.416946816130963
3919.223,5.000604200684466,22.300697081755892
3920.1245,4.987925646661515,21.46629981954947
3921.0286,4.973528063562555,24.85328756678207
3921.9307,4.95964090745368,21.15407646929645
3922.835,4.94825681485336,23.06954202320357
3923.7373,4.940414481003753,19.184492673817658
3924.642,4.935490793720811,24.859033935790713
3925.5452,4.931728541725605,21.53609755570243
3926.448,4.927221339435603,22.711877210666575
3927.3535,4.921103371198997,20.887230516400166
3928.257,4.914053458686514,22.455276923898285
3929.1628,4.907387592887695,21.560920036170728
3930.0667,4.901604521747989,23.921454703736426
3930.9731,4.895318438717126,22.891548659122304
3931.8774,4.88625573882302,23.663770806554417
3932.782,4.873411737545697,24.691325676140586
3933.6887,4.858672650709938,23.75456994128474
3934.5938,4.845929489723122,28.307366940619165
3935.501,4.837851047136817,24.949010692817993
3936.4062,4.834016617638939,21.825259546865727
3937.3142,4.831703339089288,23.41850934283288
3938.22,4.828458300707233,24.652906325190163
