wavl,flux,ivar
3566.9744,1.406009802392524,140.94428112556793
3567.795,1.4037515084563128,142.97069741358004
3568.6177,1.4040268102329398,193.16907099520597
3569.4385,1.407553960996859,176.28017407718733
3570.2617,1.4133688309648564,131.18494509941223
3571.083,1.41910152049231,168.82776304101145
3571.9065,1.4223763358118522,107.54236231665334
3572.7283,1.4221616191729847,140.73915379242928
3573.55,1.4192460814503727,147.35823358804953
3574.374,1.4152423913106262,175.0789691553149
3575.1963,1.4113223067967133,140.34570937622078
3576.0208,1.4076410798367947,155.66475744910144
3576.8435,1.4038644865753418,121.82031567430181
3577.6682,1.3997224386462037,186.2246277163553
3578.4915,1.3952650064693075,138.3377907343202
3579.3145,1.3906939950480544,212.1675757751034
3580.14,1.3863562773374702,139.89115685667977
3580.9636,1.38285836018723,196.20606362116146
3581.7893,1.380857573880928,138.1662637461324
3582.6133,1.3807181217735558,166.57777628574627
3583.4395,1.3821521150977212,142.73536064001118
3584.264,1.3843150943834475,142.27212470155112
3585.0884,1.3862898886810502,241.53172844928906
3585.915,1.3875977987832515,144.2011851936445
3586.74,1.388434668343839,170.16089829002948
3587.5671,1.3894894813958543,161.44439651529032
3588.3923,1.391314569565507,159.29845491911158
3589.22,1.3937390874983164,123.2848185704998
3590.0457,1.3957597373415542,139.69874434892228
3590.8716,1.3962186117552968,155.89012143808048
3591.6995,1.3946576790617498,139.71312049169143
3592.526,1.3917889526667322,141.62504343481027
3593.3542,1.389084124608822,157.46608986902507
3594.181,1.3878118122680239,145.45154063370285
3595.0098,1.3881133839641555,185.47578677256183
3595.8367,1.38889145706049,143.34848726253455
3596.6638,1.3884973135152294,181.8016072361218
3597.4934,1.3857537226652892,151.7343547102614
3598.3208,1.3807822901116573,144.9264863949976
3599.1506,1.37499737150191,145.2076720949005
3599.9788,1.3704225154843657,169.0495000905587
3600.8088,1.3684829551047168,206.64003415204306
3601.6372,1.3693799911390356,230.30774905892756
3602.4678,1.3721119694749973,166.3648630330353
3603.2964,1.375062040483151,163.17833567006934
3604.1252,1.3768525606403081,175.03025510449666
3604.9565,1.3770159644472195,160.94608665143934
3605.786,1.3761518708567926,116.09404099978174
3606.6172,1.3752666101000517,173.22113862855352
3607.447,1.3747989307637287,182.06955461144895
3608.2788,1.3743047712140728,140.18280607404597
3609.109,1.373216539355782,145.14129029190784
3609.9392,1.3717595424636289,242.6974277400134
3610.7717,1.370880458070314,206.6352211800528
3611.6023,1.3711976615636519,148.68031729038447
3612.435,1.372192583107082,138.92951520191716
3613.266,1.3725814985176121,174.3893303746912
3614.0994,1.3713755130657266,137.92937976144367
3614.9307,1.3684953963884192,140.11951145489428
3615.7625,1.3645354969018744,158.6326930292186
3616.5962,1.3602322686125787,225.15644622600075
3617.4282,1.3561950547090111,191.29190009531177
3618.2625,1.3528380008639822,219.43826340599497
3619.0947,1.350544398422039,128.4291016270828
3619.9292,1.3495962684618799,163.7178546654032
3620.762,1.3499929490400475,158.32494749940912
3621.595,1.3510674566480207,142.135447505786
3622.4302,1.351317947236788,174.32768765874778
3623.2634,1.348806207579035,173.6550010089386
3624.0989,1.3422329771578712,133.93538653776605
3624.9326,1.3321840172856305,122.17952800944576
3625.7686,1.3211861254231507,196.03079495387877
3626.6028,1.312445379295705,189.18478443986638
3627.437,1.3076040940906517,132.68633345996435
3628.2734,1.3059001768078655,180.21431140016816
3629.1082,1.3051041248029256,153.4243805576308
3629.945,1.3033382995035754,172.8718752509802
3630.78,1.3003070702876594,161.41145453066534
3631.6174,1.2971191948798027,249.6402481939039
3632.453,1.2952716459631546,161.1431755380919
3633.2883,1.2954433281661129,133.72058391915857
3634.1262,1.2970246362952913,186.56374941309272
3634.9622,1.2983850389891713,150.89930764320826
3635.8005,1.2976140057415833,161.79199188912864
3636.637,1.2932071892266601,157.1555954896193
3637.4756,1.284641698241743,135.1135476027183
3638.3123,1.2729826256863832,175.38261929534707
3639.1492,1.2607410751865566,196.76683567159344
3639.9885,1.2509879179307377,203.71681873570913
3640.826,1.2459381133938927,149.9907697506379
3641.6653,1.2457902049939016,181.13101632288425
3642.5032,1.248951008225404,140.8667671935083
3643.343,1.2529581941860912,192.87530873936046
3644.1812,1.2555268379638014,198.39473976152385
3645.0195,1.2553696009528683,137.33190244459323
3645.86,1.2524810396048667,165.12685251542678
3646.699,1.2479904340768433,165.12351259856487
3647.5398,1.2434331407210975,224.2544270452434
3648.379,1.240059260565233,162.2192097461257
3649.2202,1.2384050893192864,222.19653670615097
3650.0596,1.2384096447256574,196.10540991946266
3650.8994,1.2396887604423976,191.24047059385927
3651.7412,1.2422191948667698,204.76731525707436
3652.5813,1.2472874393309157,221.02694887915888
3653.4236,1.2579312426341793,189.5469949170734
3654.2642,1.277206932932469,229.18837652434783
3655.1067,1.3047516650510775,212.1372985781098
3655.9475,1.333462018220921,162.27071029889203
3656.7886,1.3515639564259947,280.23071549728627
3657.6318,1.3493079283878808,247.79632601655248
3658.4734,1.3261077044195306,223.2066509422837
3659.317,1.290773891419241,187.16782791569446
3660.1587,1.2552090475993158,159.45134071642767
3661.003,1.2268101575341672,201.0145806822103
3661.845,1.207115663973788,232.3534512183043
3662.6875,1.193891468542701,183.65549920123058
3663.532,1.1847791005307629,219.07255887793676
3664.3748,1.1787441908580867,220.86522878269295
3665.2197,1.175660277516009,270.51603689622027
3666.063,1.1754207442219642,280.7601594476381
3666.9084,1.1772258648866007,212.20612891016884
3667.752,1.1797985507369182,279.47123899002014
3668.5977,1.1822159373796386,176.63643959036958
3669.4417,1.1844197084527168,220.25464949738802
3670.286,1.1868822612712304,224.66345941419232
3671.132,1.1895896247288817,235.26677135667697
3671.9768,1.1914602576091031,197.53484909238242
3672.8235,1.1910015017770959,177.56982355460957
3673.6685,1.1876310189472337,202.92980767431825
3674.5156,1.1823549667598217,152.39810779272463
3675.3608,1.17711331836754,263.2637292138451
3676.2063,1.173286707568822,183.079939860642
3677.0542,1.1709358470096438,214.27479823106762
3677.9,1.1690846440948852,218.76258681001056
3678.748,1.16651678129259,189.61629020063683
3679.5945,1.162571556521434,215.70826686874864
3680.4429,1.1574474741724416,191.51259363823718
3681.2896,1.1521476787150722,260.9450538701563
3682.1365,1.1478330732671367,238.65450476808107
3682.9856,1.1451878102482442,286.65031669918505
3683.8328,1.1441520166099457,200.10531478183836
3684.6824,1.1441639299675546,218.97313829212314
3685.53,1.1446384450069589,214.7541574766857
3686.38,1.145136015340071,242.70181892255863
3687.2278,1.1452651864977357,218.93875620047797
3688.0762,1.144707708081254,196.8041964224818
3688.9265,1.143513702942267,219.29747194100463
3689.7751,1.142352847449548,239.8612153756585
3690.626,1.1421951642599395,308.48962725278926
3691.475,1.1435552658258639,221.59370204094284
3692.3264,1.1459364774992615,197.79017078585062
3693.1758,1.148005439279406,193.34752598612667
3694.0254,1.1484108414460827,279.1102284492371
3694.8772,1.1465340723492732,162.08742036223492
3695.7273,1.1429082339486547,236.71635569594497
3696.5793,1.139093167149157,211.30426561091826
3697.43,1.1371396612260238,235.89886679405467
3698.2825,1.1385911144225036,243.74103418884576
3699.1333,1.1436080857658506,223.81955554597778
3699.9841,1.1507299454968374,265.913037429996
3700.8374,1.157482506452624,226.99549892959138
3701.6887,1.16135094882452,225.22128897509964
3702.5425,1.1607911516607436,234.02310112097052
3703.3943,1.1555735449155011,208.8233933331243
3704.2483,1.1467188994132458,169.19249691700685
3705.1003,1.136262565830353,294.8106183146545
3705.9526,1.1266251469541124,280.7258956328035
3706.8074,1.1200133039282605,248.24989001297092
3707.66,1.117669156349462,236.96673797652906
3708.515,1.1191649704743012,308.3319158253489
3709.3682,1.1225159956375588,197.7654224144352
3710.2234,1.12509233268383,256.10990487176673
3711.0771,1.1248867176722537,208.39601795063814
3711.9307,1.1214177690253928,224.06117533377702
3712.7866,1.1156503172950414,282.99130038466535
3713.6409,1.1093118179196817,196.76629499313333
3714.4973,1.1038141120203073,296.93799610597057
3715.3518,1.0996735880082722,236.2455389792254
3716.2085,1.0963937725859114,186.8308620191502
3717.0635,1.0931843560025154,175.7592553192267
3717.9185,1.089740509449842,265.03451328577967
3718.776,1.086713818189659,332.75928033890204
3719.6313,1.085480171606822,206.41442869522982
3720.489,1.0872246133452923,268.0050213151286
3721.345,1.092007044360739,230.07708328715552
3722.2031,1.0985201739793558,173.42560949773008
3723.0593,1.1047189012960803,220.6366114028247
3723.9158,1.1089945720557361,321.959049759131
3724.7747,1.1106606726425452,259.97580874861706
3725.6316,1.1097755728866399,212.39018008884813
3726.4905,1.1067064185807847,239.1265804239797
3727.348,1.1018885138344163,166.78108895528248
3728.2073,1.0958567256420622,244.12236638738676
3729.065,1.0895149261023298,222.14376590407014
3729.9229,1.0840268394220434,254.49201142587052
3730.783,1.0804474901301688,372.4087872329425
3731.6414,1.0792107141615852,270.9860928496566
3732.5017,1.0799256434962208,258.9178047124841
3733.3604,1.0817183133252783,252.7091104789891
3734.2214,1.0836287878507487,224.84190346377255
3735.0803,1.0847475876830988,270.1605546710432
3735.9417,1.0843624883599086,268.0328245983279
3736.8013,1.0823137274641268,209.80875837766655
3737.661,1.079450769607014,233.76051409353136
3738.5227,1.0775377348307709,239.952448461438
3739.3828,1.0783064166264744,252.12930319063523
3740.245,1.0821418569698371,228.97912805176475
3741.1055,1.0875376352165969,215.6230356474817
3741.9683,1.091955814199472,219.50145594829402
3742.829,1.093241613107776,198.14784449936238
3743.69,1.0907575915287304,248.89111568580893
3744.5532,1.0853665694493095,319.44321389763786
3745.4148,1.0788656395286758,271.05409306597574
3746.2786,1.0730444016365164,278.81294207903096
3747.1404,1.06904961722182,239.09934527097363
3748.0044,1.0669820787307824,252.48153233579464
3748.8667,1.0663267240153171,228.74334596200353
3749.729,1.0666362558152296,273.88155310782776
3750.5938,1.0679557933950838,185.39450542794597
3751.4565,1.0705146146515234,325.3168153780694
3752.3215,1.0741823841989888,255.10218879618338
3753.1848,1.078241359789794,238.70897729736132
3754.0503,1.0818559372914105,218.50768025942898
3754.9138,1.0845276468593597,340.44829800834
3755.7776,1.0861753745870866,283.1829522894196
3756.6438,1.08661315306586,318.0560442410569
3757.508,1.085250640862682,231.0123649193002
3758.3745,1.081523865097813,249.84752358824738
3759.239,1.075747177481226,217.40165493074338
3760.106,1.0692619183172398,338.9755732687992
3760.971,1.0637283448923587,225.457545050099
3761.8362,1.0598970695181777,235.4169554921201
3762.7036,1.0572986477951642,248.18639803206773
3763.5693,1.0548370883670988,272.4896122360578
3764.437,1.051639025346929,255.06792995388324
3765.3032,1.0475652255019845,232.8115743066093
3766.1714,1.043024601111453,235.92758348244118
3767.0378,1.038605698406696,331.261511403505
3767.9043,1.034672387029309,223.54013143280253
3768.7732,1.0313425609705638,266.375213538291
3769.6401,1.0286912414030758,236.08757857082497
3770.5095,1.026892089833755,250.15569421752377
3771.377,1.0263162586580301,292.0939262246182
3772.2466,1.027343293369422,283.780918505127
3773.1145,1.03005228003553,242.8048401449295
3773.9824,1.0339146277186304,277.68604021323864
3774.8528,1.0377842972405975,244.39490595465867
3775.721,1.0403022045006327,217.50018830880495
3776.5918,1.0406333640847023,234.99627721123247
3777.4604,1.038857641156151,279.8365051527239
3778.3315,1.0359585188298663,211.66001944468343
3779.201,1.0334690769442203,202.17550726159863
3780.0703,1.0327474273236816,385.5082477132507
3780.942,1.034096374950252,297.85454910834926
3781.8118,1.036189924035018,247.3284567333439
3782.6838,1.0367450662638344,259.2247110425596
3783.554,1.034256468962651,238.49250867201755
3784.4265,1.0293559635064151,300.3567809884971
3785.297,1.0244424191288661,357.05232661766854
3786.168,1.0217329735947431,290.68292335972876
3787.041,1.0217224694892897,262.98804703995006
3787.912,1.023136076457877,322.26438891509576
3788.7856,1.0241610852866876,272.5336361486248
3789.6572,1.023612985939916,352.3129150036448
3790.531,1.0212206459540345,265.9770055516194
3791.403,1.0172667885330853,262.1608496365111
3792.2754,1.0122523679205784,342.8811343967378
3793.15,1.0068627022593548,316.6395919140375
3794.0225,1.0018905467258488,227.42112800626845
3794.8972,0.9977491170910856,354.80048990848314
3795.7703,0.9942148367360522,275.0453963038905
3796.6455,0.990494329109224,225.38240764438243
3797.519,0.9859271029883414,208.46184698419782
3798.3926,0.9805651092290785,296.1102885118185
3799.2686,0.9752933307607031,299.75222223469666
3800.1426,0.971358971892423,359.5085763667708
3801.0188,0.9695632620966176,277.0503226867429
3801.8933,0.9699672988744812,334.3774563447913
3802.77,0.972036467319388,282.3286269573375
3803.6448,0.9750815803878383,295.25878717327737
3804.522,0.9786243982612349,273.7532110839597
3805.3972,0.9823776125405773,385.4324257422368
3806.2727,0.9861228947463451,302.1494931404682
3807.1504,0.9895341864398606,335.0369262990877
3808.0261,0.9922602156000514,288.3793965969679
3808.9043,0.9942955946036035,262.4621811579496
3809.7805,0.9961376608414249,296.1896390146767
3810.659,0.998669673568107,255.11510186619122
3811.5356,1.002669999866281,380.1005050502293
3812.4126,1.008433142798522,265.8680794827122
3813.2917,1.0155688905227906,229.39781897285522
3814.169,1.022944427826117,372.8010169767134
3815.0483,1.0290342557651744,335.36024539358436
3815.926,1.0323544899966481,216.40359255664387
3816.806,1.0323060287008161,300.1142568080073
3817.684,1.0294991473199582,256.042194120247
3818.5623,1.0253022570117958,266.1524697843528
3819.4429,1.020796709074485,277.25559489664585
3820.3215,1.0161395565232505,288.49554693620564
3821.2024,1.01069615104498,297.50181647837934
3822.0815,1.0039498461034402,267.24428337834985
3822.963,0.9960518744380443,297.6338692201983
3823.8423,0.9879166750772889,363.9399907032684
3824.722,0.9804724698237224,296.5608191470576
3825.604,0.9740539109851938,280.36147791637563
3826.4841,0.9682914656510818,350.72843590400555
3827.3665,0.9624297995296426,327.61643515489345
3828.2468,0.9559996274233646,335.5075911454167
3829.1296,0.9489422472336324,304.82728182216977
3830.0105,0.9416479596277303,382.9667516976075
3830.8916,0.9346347519008441,354.346411573257
3831.7751,0.9284251546835446,524.5957451577033
3832.6565,0.9234420263524479,396.298870319861
3833.5403,0.9197913032043287,336.00684600919476
3834.4224,0.9173146719389103,377.78575316378823
3835.3064,0.9155754743652431,388.27819953882107
3836.1887,0.9141590300432894,281.09578969474484
3837.0713,0.9130462669493784,472.0058115212019
3837.956,0.9128551435059569,418.10030309903937
3838.839,0.9145289691131958,367.0827412819447
3839.7244,0.9186516346025224,352.78297159913114
3840.6077,0.9249544715493399,355.4331694057991
3841.4932,0.9325706681919725,287.0973953504502
3842.377,0.9404885319354904,230.3372201035656
3843.261,0.9480966150541367,312.07651751507717
3844.1472,0.9551987919563251,307.99534017906916
3845.0315,0.9617496300593757,318.2746578589984
3845.9182,0.9676928990977853,399.22574589132705
3846.803,0.9727600252228608,206.5708676799283
3847.69,0.976835118841687,275.91664519961364
3848.5752,0.9802240908473405,320.5284040122071
3849.4604,0.9837799480071752,334.79140515982914
3850.3481,0.9884554834031423,302.158413993051
3851.234,0.99463181175642,283.63039586322526
3852.122,1.0018578863870289,272.2517214201539
3853.0083,1.0089475707559028,294.6168039064905
3853.8967,1.0147637860304812,309.9896910113469
3854.7832,1.0187380996192261,300.5423397861199
3855.6702,1.0211281233565013,280.2877569142459
3856.559,1.0225305426566937,273.7209067938929
3857.4463,1.0232640019744956,262.8611417835276
3858.336,1.0230947008750024,225.2699190803094
3859.2234,1.0214886928024014,213.85323988046346
3860.1135,1.0181596601003986,274.41944277594
3861.0015,1.0135286733170459,329.74631321569217
3861.8896,1.0086397802359957,264.90462378566946
3862.7803,1.0046634394314513,323.28561096940274
3863.6687,1.0022113834447564,258.93390282979817
3864.5598,1.0008903001675946,289.678285468647
3865.4487,0.9996609144563666,233.94863231647167
3866.34,0.9975277390595724,342.8527356270619
3867.2297,0.9940802603212859,290.41078323736053
3868.1213,0.9893879505997326,297.93770259957387
3869.0112,0.9837105932866752,364.4305591584022
3869.9014,0.9772574327237056,304.31776885236894
3870.7937,0.9702434906167051,272.4907401187628
3871.684,0.9629096899651866,343.5778853830889
3872.577,0.9552066610353674,408.64194695105664
3873.4678,0.9468774589604911,385.973211000432
3874.361,0.9376525642745404,255.2371317927165
3875.2524,0.9279089342560947,440.2802698428254
3876.1438,0.9185284508647265,400.18078992958004
3877.0376,0.9103096531040731,323.3944129239491
3877.9297,0.9033187129179118,269.6356655672247
3878.8237,0.8967005810049936,377.62655061032484
3879.716,0.8893882577748002,402.8249496060661
3880.6108,0.8805757184685097,369.2846863149545
3881.5037,0.8700596695195029,338.7314300394747
3882.3965,0.8580148258943473,340.1919992711132
3883.2917,0.8448856920849994,499.7415935733011
3884.185,0.8313207738638674,369.2287180147641
3885.0808,0.8177364596545367,381.2651317694494
3885.9746,0.8045004289003644,542.6092223624502
3886.8706,0.7917838215385126,459.50783019984493
3887.765,0.779977990054049,543.2017107259866
3888.6592,0.7696078176074372,458.1340397076842
3889.556,0.7614665398844989,564.1358583314804
3890.4507,0.7566108320644284,482.8778468591092
3891.348,0.7559197235480676,430.80828613749514
3892.243,0.7596306851619653,548.422481304593
3893.1406,0.7669558850067101,402.83182223018144
3894.0361,0.7762551039150767,442.97648512930834
3894.932,0.7859768085298026,335.63457647513707
3895.83,0.7953795526970016,458.7398533563767
3896.7263,0.8045777685569799,404.8224699562104
3897.625,0.8141901378908027,467.6787603315945
3898.5215,0.8245687151427142,584.6882978348805
3899.4207,0.8358193310673904,319.9231377534931
3900.3176,0.8477356120112685,431.85995665589826
3901.2148,0.8601619013838324,386.72501173201846
3902.1145,0.8728721011957461,430.28315277352203
3903.0122,0.8853656096206534,322.3270024766548
3903.912,0.8971097329905473,390.09317100476727
3904.8103,0.9075849793864608,280.1709482910405
3905.7107,0.9168486995210758,399.6613462678278
3906.6094,0.9254632004694449,357.93172622082756
3907.508,0.9342907899863714,300.8523888591197
3908.409,0.9438276993161377,389.84334800891656
3909.308,0.953733802269741,334.65527906479235
3910.2097,0.9631415678951022,347.6390092210513
3911.1091,0.9711178370791587,294.45347891467253
3912.011,0.9774791312486432,312.7887872203325
3912.9111,0.9827845901453343,294.0671633431373
3913.8113,0.9880518448821578,225.08806199255676
3914.7136,0.9941291728872168,320.1313471060955
3915.6143,1.0012424654243781,389.9865961532628
3916.517,1.008947327575938,300.95085848585836
3917.4182,1.0161209416057568,301.8128304989695
3918.3215,1.0215285415765998,289.2826949562107
3919.223,1.0244218049956761,271.2454620219737
3920.1245,1.0251502054637687,270.12624369503527
3921.0286,1.024941284277096,274.44823243044897
3921.9307,1.0251419532702255,274.90272249939176
3922.835,1.026428888248056,268.6209923357971
3923.7373,1.0285492116064927,268.94119788644014
3924.642,1.0306930434894077,261.83177259910303
3925.5452,1.0320896227083833,269.8954430832935
3926.448,1.032526531884981,261.74475586100067
3927.3535,1.0323607542756061,233.35050765297348
3928.257,1.0321206988302256,251.02837467090887
3929.1628,1.0320554837548581,264.55925141168836
3930.0667,1.0320572121931164,256.2033281597838
3930.9731,1.0318979023802435,232.4488465521337
3931.8774,1.0313636574395875,311.153252124784
3932.782,1.0301276806136206,267.41991216423696
