wavl,flux,ivar
3566.9744,0.7080616708802144,1233.2779028073205
3567.795,0.7069858502979178,1106.205214128527
3568.6177,0.7055470400664687,1521.3126730793501
3569.4385,0.7034905718551506,1218.2836088690349
3570.2617,0.7005776222427809,943.6057201765705
3571.083,0.6968704717916965,1218.4148300852937
3571.9065,0.6928575901674263,1481.5836301555016
3572.7283,0.6893603718047434,1743.178883199391
3573.55,0.6869599887757822,1394.00607225974
3574.374,0.6856537273841984,1132.5467161926708
3575.1963,0.6849896535540674,1440.6783848433615
3576.0208,0.6845129661294308,1304.8459636432037
3576.8435,0.6841146057691146,1264.4147711976188
3577.6682,0.6839751757783926,1141.599249073674
3578.4915,0.6842686156173511,1578.012426125643
3579.3145,0.6848920644417742,1731.7314403646421
3580.14,0.6854664748657623,1730.5938968658795
3580.9636,0.6855763548050104,1243.6300690522378
3581.7893,0.6850506610293049,1507.0682165648332
3582.6133,0.6840570236208684,1376.2158068875215
3583.4395,0.6830055996724511,2310.310520249444
3584.264,0.6823782357603304,2170.354952088783
3585.0884,0.682469932116214,1288.6576163327522
3585.915,0.6831880439809066,1355.9957075862594
3586.74,0.6840632872365534,1636.5327169135542
3587.5671,0.6846097705064927,1491.0819446120288
3588.3923,0.6846922327115972,1566.5306097744378
3589.22,0.6845169057992895,1154.6442175701213
3590.0457,0.684246722207385,1121.8974529005302
3590.8716,0.6837679722564965,1395.0429440288128
3591.6995,0.6829014245987775,1647.494951510592
3592.526,0.6817341959736574,1635.5545259817789
3593.3542,0.6805814884390885,1556.3883396221145
3594.181,0.6796823965074378,1055.333143193968
3595.0098,0.6790069889237645,1229.374732727937
3595.8367,0.6784443739393947,1471.5250451803026
3596.6638,0.678054229154609,1783.0829714672993
3597.4934,0.6781029743247116,1500.5623503769173
3598.3208,0.6788170191670475,1585.5137314449676
3599.1506,0.6801130009997871,1276.8844041389154
3599.9788,0.681537323791741,1448.8393889960519
3600.8088,0.68252334111853,1256.8783688968508
3601.6372,0.6826902743685355,1673.4182065639266
3602.4678,0.6819836199677338,1395.5844198573645
3603.2964,0.6805562868519022,1738.4191729983716
3604.1252,0.6786194284687491,1217.9109646587374
3604.9565,0.6764894108362216,1547.066237000874
3605.786,0.6747421948964389,1271.1660137715755
3606.6172,0.6740635356075124,1462.064772321126
3607.447,0.6748038864842916,1706.4346817256665
3608.2788,0.6765345981494282,1408.012644348559
3609.109,0.6781934240045774,1307.6584400996128
3609.9392,0.6788323821283099,1114.95146324003
3610.7717,0.6782383553816919,1182.3696702434283
3611.6023,0.6769490046765977,1678.5805668769626
3612.435,0.6757422225504454,1522.3679719760705
3613.266,0.6751746047162771,1544.3354519704828
3614.0994,0.6753747453474911,1802.3568215133012
3614.9307,0.6760704923907818,1714.0082802623688
3615.7625,0.6767159439078652,1229.7149683192429
3616.5962,0.6767179486254092,1424.6790095923232
3617.4282,0.6756964276442912,1518.8924106744664
3618.2625,0.6736057129957249,1706.8781795168593
3619.0947,0.6707065398616029,1726.6996245893968
3619.9292,0.667433137319121,1431.9445980943904
3620.762,0.6643968047574776,1788.688903738333
3621.595,0.6622429078564401,1442.9988970415611
3622.4302,0.6614457678532302,1754.753208678228
3623.2634,0.6620248571955792,1215.7898372871284
3624.0989,0.6634797717996095,2008.1639656225723
3624.9326,0.6650835728283276,1565.9763982999616
3625.7686,0.6663766426207627,1336.2731670828566
3626.6028,0.6674079825010413,1873.627642193801
3627.437,0.6685664266265844,2161.555307134986
3628.2734,0.6700591743081331,1324.862569029776
3629.1082,0.6714851186542564,1473.986851055905
3629.945,0.6719039023682339,1389.0232526864268
3630.78,0.6703381708580812,1801.3103624369987
3631.6174,0.666406480976259,1650.5105273042984
3632.453,0.660669568189176,1623.8324025222362
3633.2883,0.6543274386997405,1813.6803751181817
3634.1262,0.6486039028984795,2173.670658546797
3634.9622,0.6442361277186085,1914.1497694053492
3635.8005,0.6412512827258071,1105.1887830251808
3636.637,0.6393683798132213,1726.412350666254
3637.4756,0.6383025616413677,1937.5566331232178
3638.3123,0.6379023526354957,1577.4109397628122
3639.1492,0.637966585237747,2124.1002968293406
3639.9885,0.6381041895185514,1990.0127153416918
3640.826,0.6377849933357405,1463.7582928469967
3641.6653,0.6366035380369743,1757.4274058146289
3642.5032,0.6345808934603355,1544.2427066311354
3643.343,0.6322296250508166,2084.1532365370394
3644.1812,0.6303343393697657,1874.9488141924685
3645.0195,0.6294993216637205,1758.8619181736576
3645.86,0.6299113413372789,1784.9463214911318
3646.699,0.6313609412938501,1743.9780034990029
3647.5398,0.6333952290984376,1551.6450776339575
3648.379,0.6353620347284892,1653.472524003361
3649.2202,0.6365478537948472,1654.0111686352845
3650.0596,0.6364668307368013,1611.7883949411853
3650.8994,0.6351916873384172,2258.815537276514
3651.7412,0.6332457873315247,1819.0542648993298
3652.5813,0.6311848877628683,1819.5357597898621
3653.4236,0.629254952861778,1937.0083999502358
3654.2642,0.6275215213924735,1651.7947880980932
3655.1067,0.626088789203488,2196.3062160412696
3655.9475,0.6251704740386669,2390.112941381296
3656.7886,0.6248419493981648,1377.9104636025208
3657.6318,0.6248196824112989,2239.9145490765804
3658.4734,0.6245038439640589,1425.3822300684483
3659.317,0.6233772528411816,2983.15229259243
3660.1587,0.6215038509201224,1581.1461702906277
3661.003,0.6196547355916533,1367.2974174695514
3661.845,0.6189299399160976,2049.239505842865
3662.6875,0.62001160427518,1730.2684907624093
3663.532,0.622692893168318,1406.0022302467175
3664.3748,0.6259024863588981,1509.1067490765488
3665.2197,0.628297914178792,1907.1123412937911
3666.063,0.6289265970534872,1307.49922978251
3666.9084,0.6277681204673997,2117.5151601645266
3667.752,0.6257652836229225,2551.6518417779525
3668.5977,0.6242892557878466,1518.818863434146
3669.4417,0.6243140144574258,1473.8405948701363
3670.286,0.625752412715142,1804.231864238352
3671.132,0.627523988491613,1378.6734499780403
3671.9768,0.62827872397498,1900.6641543142507
3672.8235,0.6273352865698381,2315.488580943321
3673.6685,0.625096693850857,1425.1357213143976
3674.5156,0.622706522451477,1750.8336689433079
3675.3608,0.6213835968488881,1755.1682528947247
3676.2063,0.6219210743154988,1208.5828586446441
3677.0542,0.6247628313563449,1790.7260441114397
3677.9,0.6303225920654493,1872.2017645472035
3678.748,0.6393368039086201,1486.5082265232336
3679.5945,0.6524143825512139,1184.4361357393523
3680.4429,0.6689622483263663,1935.3342386628378
3681.2896,0.6855449779841211,1986.0394984805514
3682.1365,0.696433754890746,1666.4936005675263
3682.9856,0.6964872185799217,2990.6914830006704
3683.8328,0.6849906256012291,2582.9544637334297
3684.6824,0.6664468992373324,1391.8018782858055
3685.53,0.6476677727027146,1702.7350763304082
3686.38,0.6333163485558221,1936.1313263273028
3687.2278,0.6244557438152787,2690.9951301722094
3688.0762,0.6194490740211999,1867.7442634852005
3688.9265,0.6163174132065714,1425.560061064215
3689.7751,0.6141280266120519,1498.0011880394106
3690.626,0.6130442536165648,2403.2791043955467
3691.475,0.6136087734481314,2196.858694800812
3692.3264,0.6159466896668877,2620.935574385895
3693.1758,0.6194788872703515,1846.4816843299914
3694.0254,0.6231954881347387,1630.2129151112151
3694.8772,0.6260823381568758,1413.4414227262653
3695.7273,0.6274852861361726,1913.038040029296
3696.5793,0.6273853205548227,1787.0636544713964
3697.43,0.6263877756811237,1997.2266960359916
3698.2825,0.6254357807183227,2219.9667542426914
3699.1333,0.6252781350331962,1801.1815338594877
3699.9841,0.6259909198589373,1654.0322343516411
3700.8374,0.6269684040561618,1540.7531385009809
3701.6887,0.6273389471335107,1948.9498589898594
3702.5425,0.6264812594454267,1789.279815094868
3703.3943,0.6242527626970399,1555.816459888001
3704.2483,0.6209193026117094,2353.765769079264
3705.1003,0.6170006847464469,1932.557836376527
3705.9526,0.6129451903421494,1532.8853519815652
3706.8074,0.6088929232929814,1815.507148276465
3707.66,0.6046963327428586,1987.2063565938383
3708.515,0.6001962315443649,1821.0463037490094
3709.3682,0.5957773798320645,1801.1834081707814
3710.2234,0.5923855394468973,2057.6253899668436
3711.0771,0.5911294655730195,1975.4825166083456
3711.9307,0.5925125388423457,1563.4249496660275
3712.7866,0.5960549632199617,2378.272353499267
3713.6409,0.6003923312068058,2625.9890796215795
3714.4973,0.6039462989191208,1804.0078634115143
3715.3518,0.6056210482785742,1421.4192310311946
3716.2085,0.605372163272501,1641.3898396056352
3717.0635,0.6041066006138361,1789.2751664691468
3717.9185,0.6030412880544247,1999.6739035971832
3718.776,0.6029547286357132,2360.641975713518
3719.6313,0.6039053142417742,2132.6859265625144
3720.489,0.6055043177317634,1797.817038736888
3721.345,0.6073030303389066,1983.5408628708576
3722.2031,0.6089546502542864,1891.3663279008908
3723.0593,0.6100994653155432,1896.027175788977
3723.9158,0.6103754929887191,2334.421653766439
3724.7747,0.609586267600079,1801.9276480539818
3725.6316,0.6079528587754304,2205.1996229208894
3726.4905,0.6061122584890839,1880.756339870656
3727.348,0.6048347546515669,1895.0823194306395
3728.2073,0.6045612864677958,2022.3221436681915
3729.065,0.6051600276593934,1518.285263074322
3729.9229,0.6060236374202452,1837.6365532341156
3730.783,0.6064501129091026,1726.4410349512311
3731.6414,0.6060080106754681,1773.9729899207682
3732.5017,0.6046852159955566,2012.8797634304642
3733.3604,0.6028275294489133,2044.5183161895832
3734.2214,0.6009591144116105,1516.6706209336191
3735.0803,0.5995948045109528,1658.5545434886342
3735.9417,0.5989446279812936,1782.5937700234151
3736.8013,0.5988175906419192,2128.435894939668
3737.661,0.5987921439567293,1608.2881955273797
3738.5227,0.5985736321536498,1981.6793538873321
3739.3828,0.5981676039033398,1871.0195953645812
3740.245,0.5977550496498534,2152.274290510797
3741.1055,0.5974825655524172,1787.71051606695
3741.9683,0.5973607839362592,1521.2672727173851
3742.829,0.5973270881379921,1796.9494002274384
3743.69,0.5973720970685026,1828.219096209099
3744.5532,0.5976210993650167,1495.1777619847596
3745.4148,0.5982425611615384,2122.2418549542076
3746.2786,0.5992384940425759,2726.5541065570324
3747.1404,0.6003390023731632,1806.138863114354
3748.0044,0.6012172947580634,1982.0128521079841
3748.8667,0.6017703626508504,1371.0374629017729
3749.729,0.6021641716342767,2644.5360527715006
3750.5938,0.6025243788849668,1612.7260471374423
3751.4565,0.6026521276035014,1978.1909939238212
3752.3215,0.6021251359040347,2150.437832251927
3753.1848,0.6007306734572976,2158.770004017617
3754.0503,0.5988166299220569,1587.3107175818016
3754.9138,0.5972441738862349,2531.408514143182
3755.7776,0.5968786703442311,1488.8316681589727
3756.6438,0.5980976190604677,1734.448706589533
3757.508,0.6005821155370981,2398.5473444525473
3758.3745,0.6035546979036898,1636.313533818166
3759.239,0.6061545350202819,1758.376027279924
3760.106,0.6078497457412282,1549.5429784232092
3760.971,0.6085344898970061,1641.645695156204
3761.8362,0.6084388490609071,1980.4743567308
3762.7036,0.6078197102555238,1809.9836804001116
3763.5693,0.6067305721369955,1317.494471469989
3764.437,0.604985811478035,2319.399295376911
3765.3032,0.6024003993996353,1404.1022901314395
3766.1714,0.5990637144844838,1581.1108700308432
3767.0378,0.5955025362113262,2002.6235615304336
3767.9043,0.5924232380886394,2498.7138689288154
3768.7732,0.590334791334325,1946.2698840092914
3769.6401,0.5893223778961365,2363.8332413659127
3770.5095,0.5891196254392681,1432.0854553193196
3771.377,0.5894088148866359,2050.058975912917
3772.2466,0.5899582269373447,1695.5153753984516
3773.1145,0.5905741588907215,2124.012002087949
3773.9824,0.5910845076954382,1648.2002334101235
3774.8528,0.5914783795579905,2138.494159621455
3775.721,0.592058244534324,1997.4848980649185
3776.5918,0.593364715627652,1927.516929296657
3777.4604,0.5958104020833496,2273.1016337355345
3778.3315,0.5993649706430413,1933.544147748337
3779.201,0.6034430280226301,2078.576734524709
3780.0703,0.6072260015361338,2701.280443454103
3780.942,0.6100089159275944,1896.6038816734322
3781.8118,0.6113839153789014,1792.9191967672
3782.6838,0.6112813038046168,1326.0725193368153
3783.554,0.6098927008960207,1794.7710084412872
3784.4265,0.6076145719725801,2444.478695385502
3785.297,0.6049338794231702,1706.908214136982
3786.168,0.6021895238755975,1514.1066034545927
3787.041,0.5995117595383189,2368.392098293598
3787.912,0.5969902451966755,1785.0032464435724
3788.7856,0.5948075937288334,1630.4241146097768
3789.6572,0.5932206218512734,2258.363080843438
3790.531,0.5922466830628841,1950.471826342121
3791.403,0.5915636723456887,1783.839146243588
3792.2754,0.5907151859763475,1774.0585134409187
3793.15,0.5894826921241606,1841.2011168575877
3794.0225,0.5880171026044163,1779.5203316188147
3794.8972,0.5865907883664954,2318.409917888588
3795.7703,0.5853187146315367,1952.6004569492097
3796.6455,0.5840742406951693,1700.6747070338374
3797.519,0.5827268103639378,1958.8660723834596
3798.3926,0.5813582107734402,2462.7716063760686
3799.2686,0.5803027157717356,1989.8604464490381
3800.1426,0.5800020338802837,1738.7433190173338
3801.0188,0.5807946979789629,2298.47333417102
3801.8933,0.582760636059453,2028.1835263618232
3802.77,0.5856439637096148,2113.9739406675903
3803.6448,0.5888738753582213,1789.9876355894519
3804.522,0.5918604478323478,1676.440983669143
3805.3972,0.5942550471682859,1966.477595288155
3806.2727,0.5961696915006482,1494.101137635344
3807.1504,0.5980162281714901,1635.5374443208466
3808.0261,0.6001316789351296,1580.9307936697153
3808.9043,0.6024979300563343,1624.3506929537027
3809.7805,0.6047251680718885,1665.250889059844
3810.659,0.606402978520602,1798.2099149927994
3811.5356,0.607301842369015,1593.838847439854
3812.4126,0.6073727159455387,2082.251217635304
3813.2917,0.6065962082164309,1831.1776153521607
3814.169,0.6049773386097438,1574.2941242477632
3815.0483,0.6025905237399404,2296.695383017981
3815.926,0.5996388701961105,1574.5358070706873
3816.806,0.5964321780860031,1411.6451754527018
3817.684,0.5934713240872034,2064.5223287622207
3818.5623,0.5913255641610737,1902.6310984809973
3819.4429,0.5903708219182202,1854.532218521631
3820.3215,0.5904677330308277,1659.5540083283556
3821.2024,0.5909206042692862,1906.1312532871232
3822.0815,0.590860984849806,1680.5220757807347
3822.963,0.5897407978270675,2506.63239010238
3823.8423,0.5875410891660517,2482.6923526011847
3824.722,0.5845681541410193,1775.5673340882963
3825.604,0.5811545277885404,2083.791487585552
3826.4841,0.5775608489115794,2200.8470320161987
3827.3665,0.5739179367218843,1813.52324054287
3828.2468,0.5702790027006168,2150.2622383262797
3829.1296,0.566548077970244,2415.2123685874913
3830.0105,0.5626743167000047,2838.236187509998
3830.8916,0.5587514149589984,2036.5001361115244
3831.7751,0.5550385719863147,2399.589436593378
3832.6565,0.5517854539414115,1772.1102249429039
3833.5403,0.5490032577349832,1858.395947228726
3834.4224,0.5466171255791943,2283.1447948703926
3835.3064,0.5446731736766068,1914.187165814627
3836.1887,0.543532666834486,2401.2699963895534
3837.0713,0.543680663862863,2057.9023999991637
3837.956,0.5453530382517102,2352.8623546102785
3838.839,0.5482021103041509,2207.592652069103
3839.7244,0.5514207720508577,2410.1115651333103
3840.6077,0.554238497845237,2421.7149853999135
3841.4932,0.5565973432022311,2308.5840505029337
3842.377,0.5592602390647037,2575.7031743274597
3843.261,0.563291966241145,2118.2005973789123
3844.1472,0.5691547610284087,2584.2277252298572
3845.0315,0.5761757113899549,2616.1336090514887
3845.9182,0.5830261064070448,1679.6055239555276
3846.803,0.5884759861645699,2509.2309030804468
3847.69,0.592123015162352,1751.2179748139072
3848.5752,0.5942793806130137,1915.0283076549565
3849.4604,0.595690333145973,1852.9348373665189
3850.3481,0.5971870921465904,2207.66489913
3851.234,0.5994162040339384,2024.0824597959188
3852.122,0.6026076357503879,2286.557529695228
3853.0083,0.6064356555209397,1994.498106668236
3853.8967,0.6103134861639872,2106.668949754357
3854.7832,0.613735486744024,2129.7493540722994
3855.6702,0.616587307209132,1649.5094625606268
3856.559,0.6190473219703182,1710.4175454688982
3857.4463,0.6213327645102833,1701.1158300832706
3858.336,0.6235150608153873,1994.8980540653915
3859.2234,0.6254168247133003,1853.1860323233707
3860.1135,0.6267555849207744,1698.785542512167
3861.0015,0.6272821261544789,1763.564081908141
3861.8896,0.6269426940342536,1627.5654453690036
3862.7803,0.6258593603180915,1707.54671816064
3863.6687,0.6242202323088663,2097.5006356861422
3864.5598,0.6221015487457728,1383.8535390669708
3865.4487,0.6194485145346484,2147.5658569273455
3866.34,0.6161260024688546,2028.7332695425437
3867.2297,0.6121627142027317,1598.7068962273418
3868.1213,0.607829562844548,2060.534444689003
3869.0112,0.603643130857022,2717.941498143228
3869.9014,0.6000414615787053,1759.4918210858793
3870.7937,0.597160715260452,2406.5222543347973
3871.684,0.5948454074753723,1663.449856655919
3872.577,0.5928448148831194,1811.2767799356047
3873.4678,0.5910706015231109,1902.4812854848149
3874.361,0.5895077898737134,1896.7057484851791
3875.2524,0.5880252259432166,2022.4049605870323
3876.1438,0.5862143948905114,2034.643253639177
3877.0376,0.583495544880233,2033.2531215347642
3877.9297,0.5794077153343624,2385.095402830301
3878.8237,0.5738194640397833,1790.4486465251352
3879.716,0.56706515763754,1813.6500208550692
3880.6108,0.5596384031127783,2516.520445874585
3881.5037,0.5519637903166593,2052.9260373088327
3882.3965,0.5440976934617794,2162.550344082265
3883.2917,0.5359011116314788,2401.425986364206
3884.185,0.5273703879082223,2417.560562054541
3885.0808,0.5186268056630033,2498.673018610329
3885.9746,0.5100208675920442,2902.352992159685
3886.8706,0.5018490227710906,2700.7683696020804
3887.765,0.4944898250016875,2959.995506926809
3888.6592,0.4883529938056707,3153.2414458745197
3889.556,0.48398781482903463,2745.5411347041772
3890.4507,0.482011712732891,3323.994265504886
3891.348,0.4827990009871841,2989.610783498215
3892.243,0.48625673857114177,2879.32539079004
3893.1406,0.4917814360425108,3524.942662833777
3894.0361,0.4984266833429541,2830.6350966718514
3894.932,0.5054096973668898,2423.4141232928923
3895.83,0.512394393957046,2934.799866527034
3896.7263,0.5194755634563828,2362.876702623124
3897.625,0.5270638252368449,2849.064750271293
3898.5215,0.5353995825960487,2070.579050831818
3899.4207,0.5444769347192329,2127.0709309636422
3900.3176,0.5538567952143051,1822.7175795837268
3901.2148,0.5630189391586948,2017.8443595166755
3902.1145,0.5714963822656565,2181.2703118738823
3903.0122,0.5789402191793795,2373.4189063569524
3903.912,0.5853216682014964,2109.399419674632
3904.8103,0.5908549818507306,2162.9587034913106
3905.7107,0.5960728720007407,1512.544230382049
3906.6094,0.6014617013473164,1686.3768952114247
3907.508,0.6071948106458408,2035.9240511911864
3908.409,0.6130287548376732,1653.645146825908
3909.308,0.6185759542645566,1747.571585355602
3910.2097,0.6237737103413284,1681.2964881537964
3911.1091,0.6288218425313465,1623.741693313479
3912.011,0.6340306113619033,1657.6219256380666
3912.9111,0.6395394981425019,1383.7038132724492
3913.8113,0.6454641514326664,1729.358791800818
3914.7136,0.6519359929386568,1645.6758178903715
3915.6143,0.6589051661323222,1753.3308665616287
3916.517,0.6660367880383691,1728.6676577202263
3917.4182,0.6726352866280227,1513.6806812401692
3918.3215,0.6780870573096294,1364.559637789035
3919.223,0.6820870502866175,1294.9525341880997
3920.1245,0.684811976184331,1541.6579374085707
3921.0286,0.6866830314841014,1671.4689452773368
3921.9307,0.6880902684725597,1235.533841289009
3922.835,0.6892645059211671,1213.0177324165186
3923.7373,0.6902886341789679,1538.3772445900993
3924.642,0.6912592102537435,1372.1269599096634
3925.5452,0.6923260577527901,1245.6001685635142
3926.448,0.6936060339725938,1401.8299450465083
3927.3535,0.6950111039114407,1588.5571847422984
3928.257,0.6961793286167391,1119.202545585043
3929.1628,0.6966476740096093,1445.9527466750424
3930.0667,0.696072331198392,1250.7566852739737
3930.9731,0.6943628534917269,1331.409444883394
