wavl,flux,ivar
3566.9744,6.443182965822219,47.40392867724196
3567.795,6.447305017583923,36.36898236505011
3568.6177,6.455705941466297,36.13442730885971
3569.4385,6.460750330666877,42.99221743401729
3570.2617,6.457679458772064,31.362796050472248
3571.083,6.445597329856907,35.62851897506215
3571.9065,6.427527095625704,33.442834752797275
3572.7283,6.409902407265885,24.5908862127372
3573.55,6.399889367958461,37.47341912669422
3574.374,6.401689783977119,34.512267467478594
3575.1963,6.413623899607848,34.85666672265535
3576.0208,6.429133183928946,44.30709461135848
3576.8435,6.441053015426807,36.04997717946924
3577.6682,6.446018477417187,31.59715406203424
3578.4915,6.4449857613073025,33.91572349493584
3579.3145,6.441106341167743,29.29989661999094
3580.14,6.437385106908721,31.589744702875773
3580.9636,6.43588737087277,38.41243474515165
3581.7893,6.437315317163744,43.05902388612749
3582.6133,6.440305923030452,38.11130171504277
3583.4395,6.44133731889288,29.97716168604547
3584.264,6.436491477483749,36.70840831985231
3585.0884,6.424311930119843,28.755174195970397
3585.915,6.407120672076819,30.443958252166965
3586.74,6.389707077593267,33.12695769524658
3587.5671,6.375616277848833,35.35664411702475
3588.3923,6.364577601886139,36.95032127864208
3589.22,6.35209627218309,33.76935228708692
3590.0457,6.332747401046474,37.316815312547305
3590.8716,6.304359324818242,37.64895834309794
3591.6995,6.270913917516035,33.517032287904634
3592.526,6.241826426980697,32.70516835548554
3593.3542,6.226704038425654,38.38265537137508
3594.181,6.229991157030776,32.68290334574911
3595.0098,6.248146475592993,39.49055226745353
3595.8367,6.2723388189263325,40.71416700122718
3596.6638,6.294993472408813,30.48633459528976
3597.4934,6.314394541965389,35.5707998570541
3598.3208,6.333544381604388,36.59152085488412
3599.1506,6.3549456592920235,37.81377456894503
3599.9788,6.375805288886548,29.756967221021707
3600.8088,6.389869875861794,29.773869885917446
3601.6372,6.39258293633694,43.21396026629668
3602.4678,6.384845931822736,25.561839993743916
3603.2964,6.37120888607119,32.184273267110754
3604.1252,6.355368556011958,30.977873588436587
3604.9565,6.338259504706428,32.83058321477222
3605.786,6.320073339291451,30.76392832501513
3606.6172,6.302123255194941,31.983373863273886
3607.447,6.286680664993195,30.70107906651978
3608.2788,6.274727240254176,33.72682541089608
3609.109,6.265569890914049,41.428720272563524
3609.9392,6.257745327012661,32.11255271552499
3610.7717,6.250211319473386,38.2275204984479
3611.6023,6.2423551513632605,32.35281127027273
3612.435,6.233093621444715,39.70373996693407
3613.266,6.22053527461662,30.278879561303015
3614.0994,6.202232143470526,39.35792583615713
3614.9307,6.176694073857311,33.184602662789096
3615.7625,6.1441277465992,40.64880158053009
3616.5962,6.106628735207474,39.3087782207017
3617.4282,6.068076148399995,30.66550986539172
3618.2625,6.033590907287655,34.35435778902561
3619.0947,6.009850290519402,33.76895288309041
3619.9292,6.002003183473966,37.75458143490337
3620.762,6.0102234304652775,40.645032971095745
3621.595,6.028215591877655,34.063821632375124
3622.4302,6.047042339613604,33.64335115311629
3623.2634,6.060412904876191,40.70118530772976
3624.0989,6.067163107142706,41.12732178483185
3624.9326,6.068840011648459,39.497132571565594
3625.7686,6.067033016495913,29.866401729337724
3626.6028,6.0629831531140645,48.80395962935351
3627.437,6.058882856830326,35.458500799640724
3628.2734,6.058011517245777,40.72677920399765
3629.1082,6.062725254836471,39.278792674323945
3629.945,6.072481018403501,37.37024524347483
3630.78,6.08454503054615,39.039959349793804
3631.6174,6.097495216564839,38.79246266740314
3632.453,6.113317507402618,35.25154088645404
3633.2883,6.13596274303256,34.79882400488098
3634.1262,6.166715576050233,34.00491759318117
3634.9622,6.200641047848281,38.274428526834576
3635.8005,6.228975658646221,39.29213650950623
3636.637,6.244802015529544,29.05372199370311
3637.4756,6.249226735456277,36.735521213375876
3638.3123,6.250658100769088,40.86483085906591
3639.1492,6.258201456998573,42.289477129030786
3639.9885,6.274336455731635,37.118238834452804
3640.826,6.293099346593136,33.27089651808755
3641.6653,6.305173492091081,27.23827694643682
3642.5032,6.304003309752217,39.333974079651675
3643.343,6.288943510694333,36.91349669324802
3644.1812,6.264176937864315,25.35322201317761
3645.0195,6.235665395806065,35.62037912707019
3645.86,6.208765951488293,34.26523777839905
3646.699,6.187093683389719,31.632228464170172
3647.5398,6.17177253369748,49.35012898783094
3648.379,6.162368431110536,37.71149605411824
3649.2202,6.157950937346145,34.299850427368796
3650.0596,6.158891411821477,30.261676857933626
3650.8994,6.167333881225045,44.49810932442723
3651.7412,6.185383674265461,33.716882222726575
3652.5813,6.211181313929106,35.29431580148088
3653.4236,6.237014488298568,26.762990392155267
3654.2642,6.251376140818451,34.06323804920068
3655.1067,6.245797655946423,42.49722285124359
3655.9475,6.220875839688105,32.04840256158901
3656.7886,6.187502162277508,33.248534873762765
3657.6318,6.161305474491909,57.721549079964255
3658.4734,6.1534906975052115,28.68211722019577
3659.317,6.163834894467706,41.07868757438288
3660.1587,6.182422165019128,36.453314362781256
3661.003,6.198092082566572,28.288645892623364
3661.845,6.2055928198770305,32.04510867581729
3662.6875,6.205955462449441,34.73193732706616
3663.532,6.2006922329761665,28.424402889110816
3664.3748,6.18817901763611,33.19109657050397
3665.2197,6.166385330549637,27.428103728176577
3666.063,6.139001214399493,53.72811962566339
3666.9084,6.116181571560224,42.149398487753786
3667.752,6.108579878301216,33.39579996467775
3668.5977,6.11889858452736,39.86885474715115
3669.4417,6.139920425597981,36.61903951247842
3670.286,6.159958349498029,34.988243381042324
3671.132,6.1699881873881415,35.3933624674816
3671.9768,6.166659003409227,28.823848174362936
3672.8235,6.150811539205601,35.05514262150468
3673.6685,6.12530212189535,29.574176079311865
3674.5156,6.094565270061437,38.980845963383565
3675.3608,6.065336387740025,28.886896291625018
3676.2063,6.044035585240989,39.020692871335086
3677.0542,6.0330364745088705,39.20084215253718
3677.9,6.028711566431804,38.355108405311555
3678.748,6.024096367931154,32.768772704299835
3679.5945,6.01449587961019,33.96762068066998
3680.4429,6.000403917110305,43.01831555760494
3681.2896,5.986191311521787,39.98462583363563
3682.1365,5.976509717668398,46.077813891370305
3682.9856,5.974578773043896,45.48218623808758
3683.8328,5.98207038297802,33.57196327187049
3684.6824,5.998794168227495,43.038439546391515
3685.53,6.02147671192493,31.703734625621667
3686.38,6.044087831635044,32.94611480001129
3687.2278,6.0597309582685535,34.63841177691058
3688.0762,6.064111577743632,40.189689280186975
3688.9265,6.056871444620089,36.893136422566506
3689.7751,6.0409853265200475,34.398585686625914
3690.626,6.020189805023576,32.68393058737154
3691.475,5.996981286475014,37.97009792541015
3692.3264,5.972045515369135,32.71096835239454
3693.1758,5.9467470732098695,35.760708155234425
3694.0254,5.92454771430262,42.14244533029215
3694.8772,5.910081678394403,39.475110310375996
3695.7273,5.90579830015914,38.206611342029554
3696.5793,5.909810451002453,39.942311914252585
3697.43,5.917685693847716,37.243073828619515
3698.2825,5.925899292674113,29.820416675771394
3699.1333,5.933375613054085,39.711823117501716
3699.9841,5.940299481940304,46.9843118656362
3700.8374,5.945846683711866,37.98008788434014
3701.6887,5.947578562098172,33.189905565951385
3702.5425,5.943045440109899,30.43164757909439
3703.3943,5.931629800487411,45.04099281536489
3704.2483,5.914835133258858,39.199925544405794
3705.1003,5.895506542469932,34.82382055146905
3705.9526,5.876620722647124,44.12275874482258
3706.8074,5.861053716419007,38.09123045755863
3707.66,5.851176531629569,42.407495896247006
3708.515,5.847651509614462,41.913004898917805
3709.3682,5.8492190028410755,39.2505334360913
3710.2234,5.853311132340784,42.4686507039275
3711.0771,5.857181660545152,41.317368096965865
3711.9307,5.858672713593126,37.892631074400505
3712.7866,5.856641996207152,30.036519252550782
3713.6409,5.851257725725687,38.34133174908985
3714.4973,5.843345304470762,34.55525223657822
3715.3518,5.8330353415554255,34.940400762012366
3716.2085,5.819020336146186,35.13917852846204
3717.0635,5.800230031122536,39.806789920085706
3717.9185,5.777679233182087,42.2399115453065
3718.776,5.754606284515979,44.81432712482644
3719.6313,5.734658016947111,38.834193555252824
3720.489,5.719572455158715,46.689109601308175
3721.345,5.709577547027052,57.82977960838324
3722.2031,5.704524841427568,41.62090961249059
3723.0593,5.705016432401017,39.329266465042224
3723.9158,5.71163669249561,39.16253471044592
3724.7747,5.723346424513821,43.220582670825934
3725.6316,5.736470830103739,42.241649334884336
3726.4905,5.746350091826644,41.3830259310619
3727.348,5.749873415538417,37.53704019578599
3728.2073,5.746867372866822,45.23273075442312
3729.065,5.7388010404402925,43.24695826648572
3729.9229,5.727166171688347,34.48176817197346
3730.783,5.713531342576562,47.58127075506862
3731.6414,5.70039521908567,39.06517962983913
3732.5017,5.690301250004212,42.49773443991267
3733.3604,5.684318773934762,39.78940340237206
3734.2214,5.681329066354291,45.188312499116975
3735.0803,5.679448193670819,51.3076333580279
3735.9417,5.6774233855166765,39.77636717697694
3736.8013,5.674746801388107,40.47939414113926
3737.661,5.670746078224762,42.9281962777774
3738.5227,5.664317190051753,47.93679329489248
3739.3828,5.654767889211435,37.96238265425636
3740.245,5.642475767784479,42.17407943377149
3741.1055,5.628919073533714,55.66259427731989
3741.9683,5.615772431763044,41.99870549996377
3742.829,5.604725399155939,43.04365929019665
3743.69,5.597072991878978,50.29550181221325
3744.5532,5.59358805112876,36.43711251062642
3745.4148,5.594156015880728,48.080160535138916
3746.2786,5.597372024310078,39.785084949788896
3747.1404,5.60045348353945,43.276297017691306
3748.0044,5.600056374261432,46.05820327768238
3748.8667,5.594072952196998,45.93799256883095
3749.729,5.583188578216173,48.2485023737296
3750.5938,5.570428673256777,47.06489599006817
3751.4565,5.559158555661286,37.6725176428774
3752.3215,5.551094263638683,46.435418451960736
3753.1848,5.546724229844003,38.89330315183666
3754.0503,5.546587297931113,43.279158966587
3754.9138,5.551766040426657,48.35928704818464
3755.7776,5.562272001711254,46.75083933853438
3756.6438,5.574943145208737,45.56839105855292
3757.508,5.583223966718803,38.97082881706661
3758.3745,5.580529447431606,49.28924138446112
3759.239,5.564696048738173,41.29420259380445
3760.106,5.5399032282815615,45.460077223354226
3760.971,5.514109672667014,45.27602270019327
3761.8362,5.493063830257425,40.66246208749561
3762.7036,5.477127541518757,51.50999335617987
3763.5693,5.462905781681825,41.53179820534319
3764.437,5.447289635221405,49.1827648525219
3765.3032,5.430246298019321,43.68088490447563
3766.1714,5.413402308978144,50.55938900983823
3767.0378,5.397580282947442,45.99056337993302
3767.9043,5.381554206763631,46.427881811884575
3768.7732,5.363707104413795,45.1925085645553
3769.6401,5.344359587093566,43.04946947976376
3770.5095,5.3260267870681055,48.08701097118789
3771.377,5.312542291901915,43.96841958128778
3772.2466,5.3069420990729,44.426625472145666
3773.1145,5.31052493890379,53.306712241235985
3773.9824,5.322574361320802,57.973244819551816
3774.8528,5.341273976847865,58.116324027602616
3775.721,5.3646434945307275,35.294179117775585
3776.5918,5.3916313109189336,43.26073730034668
3777.4604,5.4212117356906715,45.502272361833086
3778.3315,5.451767508925058,47.47945128122714
3779.201,5.479745346894628,40.20805600356479
3780.0703,5.501027249199908,49.23173926579128
3780.942,5.512752231831759,37.426650985325914
3781.8118,5.514783587249481,45.709560366033706
3782.6838,5.509498147231335,38.721953010150216
3783.554,5.5000407669090885,38.949348575676844
3784.4265,5.488777569855362,52.22601589847432
3785.297,5.476960785847613,45.90379949272603
3786.168,5.464581319740907,36.336662001428834
3787.041,5.450486407555027,42.44387522063888
3787.912,5.43288573454774,49.77187582483448
3788.7856,5.410458874571066,46.41284946903795
3789.6572,5.384305789281654,47.070021437327995
3790.531,5.3573263313932555,50.218047660087905
3791.403,5.332116568041086,41.893909920396354
3792.2754,5.307924874077988,46.47706795928432
3793.15,5.280935906459557,47.55705768862867
3794.0225,5.247230556882408,53.417696853368106
3794.8972,5.205114573417152,57.26132555614189
3795.7703,5.156667663545426,48.71505957587465
3796.6455,5.106332720547303,52.90131642668247
3797.519,5.060600666603135,48.719224737253825
3798.3926,5.0258072175495005,53.059934363330264
3799.2686,5.0066404966769,49.530157013687145
3800.1426,5.004651175482825,56.35312299350893
3801.0188,5.0180077377191745,55.26590177878215
3801.8933,5.0432330342839435,54.66319894887722
3802.77,5.077145152758955,61.5245259938015
3803.6448,5.116899518491263,59.300919608037766
3804.522,5.160039895341213,45.52571339931992
3805.3972,5.2032362674403965,40.2525990177287
3806.2727,5.243196603055415,52.26891702667271
3807.1504,5.277056087165119,39.15258584444577
3808.0261,5.303248342604572,43.33665253871322
3808.9043,5.322791645910173,48.23912024692564
3809.7805,5.338290813768733,44.88060480441392
3810.659,5.352593656067394,57.31053889643805
3811.5356,5.3669249807715795,37.84793005008279
3812.4126,5.381181032616228,48.54865444918868
3813.2917,5.394861997969796,41.65297198987002
3814.169,5.407391299674683,45.82969578499551
3815.0483,5.417916845691064,50.04351188774254
3815.926,5.425024541136475,39.33343856270868
3816.806,5.42760718629961,45.91075790699883
3817.684,5.425113699508757,45.92320729320088
3818.5623,5.416951246872678,41.53136267376975
3819.4429,5.401707643349231,51.56179730523296
3820.3215,5.377994714906678,43.33461895410762
3821.2024,5.345874784096901,45.02632226722909
3822.0815,5.308234695901278,38.993308958637535
3822.963,5.2691020550083225,48.16801802237166
3823.8423,5.231896596549173,48.65293958637323
3824.722,5.197121145463343,51.790229097679266
3825.604,5.1627224171949955,52.86920510628771
3826.4841,5.1256338368076,54.47385934574325
3827.3665,5.082694088795558,58.2991027028913
3828.2468,5.032486288915265,53.89198524960599
3829.1296,4.974896389015483,54.88552655481254
3830.0105,4.911760020619514,51.95364225030691
3830.8916,4.844973487215841,53.17383602979104
3831.7751,4.775752073271033,63.43166218553031
3832.6565,4.7045412173530865,64.04296753831251
3833.5403,4.630489924163192,61.30492596046552
3834.4224,4.55542467494474,56.852941544270045
3835.3064,4.485199571772902,64.75064058914363
3836.1887,4.430996534971735,79.08054330756559
3837.0713,4.404463228051101,57.33388831623806
3837.956,4.412943665946302,59.021923859181285
3838.839,4.455959436835364,68.21690809621384
3839.7244,4.5263195893482395,67.17955341917069
3840.6077,4.6125131455643125,57.984547633183
3841.4932,4.702732547333012,66.33409651386985
3842.377,4.7853816783642635,57.589267873593194
3843.261,4.852812467495539,52.10113344659716
3844.1472,4.903464330922149,68.894636421489
3845.0315,4.942824770104318,51.18000728664164
3845.9182,4.9814881518150935,61.234290013317484
3846.803,5.028517500519831,46.28635446790889
3847.69,5.087319594236529,49.21714521995559
3848.5752,5.1538397206611615,60.662009573474855
3849.4604,5.220528672374195,41.545261350536
3850.3481,5.280298292548664,49.073685377889866
3851.234,5.328620719190727,45.14023351907618
3852.122,5.364796328068103,49.72964965367082
3853.0083,5.390063370478767,48.3157096883886
3853.8967,5.407326200812505,47.95610022465534
3854.7832,5.4197372408550075,43.932826661960206
3855.6702,5.430069176938628,45.61928078038549
3856.559,5.439812943245005,48.3973731211169
3857.4463,5.449025098506773,47.16901656771007
3858.336,5.456804922476115,51.66146141572421
3859.2234,5.461547392177121,42.520740659065105
3860.1135,5.461480075121896,41.44238017337026
3861.0015,5.455271271771628,39.54530911811085
3861.8896,5.443162696602778,40.72176510166966
3862.7803,5.427766867480259,40.71692436217446
3863.6687,5.41358290799151,48.764691055424414
3864.5598,5.404141821163745,55.26327614172691
3865.4487,5.399502899997283,42.69442367070428
3866.34,5.395697602737857,44.44589153344546
3867.2297,5.387427814271196,50.486910761487174
3868.1213,5.371135694419779,50.60802614870574
3869.0112,5.346579303402415,44.78048575193574
3869.9014,5.315888052534531,44.41621210379461
3870.7937,5.2817699274862715,57.38004161733615
3871.684,5.245982962136033,52.49780252306662
3872.577,5.207932380315511,52.36432790637249
3873.4678,5.166055600804505,48.282941200502584
3874.361,5.118565818681611,44.69928058954339
3875.2524,5.065202634256389,54.40428085066335
3876.1438,5.006128594714829,56.178823758231694
3877.0376,4.941329065468879,52.265716540322096
3877.9297,4.8709154876505085,59.253247707490935
3878.8237,4.794731600676334,66.5773022320088
3879.716,4.714631648894183,66.5960923159753
3880.6108,4.63363589484735,57.24153024566579
3881.5037,4.5561189827373685,59.68099080792781
3882.3965,4.483726851677082,65.46233670515471
3883.2917,4.413638893686801,67.6654164987455
3884.185,4.339391758320929,64.05416861460208
3885.0808,4.2528115273339235,57.340070273362706
3885.9746,4.149919177538325,68.70899075736956
3886.8706,4.032603899368415,79.0456744924683
3887.765,3.911605662240894,85.86408942848776
3888.6592,3.803056739452265,90.31023248599378
3889.556,3.7247031711243053,106.24799357164052
3890.4507,3.6905452407444526,119.29051748023771
3891.348,3.705201520161244,107.91157788795587
3892.243,3.7637976738811925,109.35115311296344
3893.1406,3.8552390330700717,88.88668250312705
3894.0361,3.965335579484667,107.46271633713376
3894.932,4.081715429406113,83.96974603537305
3895.83,4.195017393734077,80.59830627017223
3896.7263,4.298884214899424,63.226469800811834
3897.625,4.392185629762588,79.65713155361205
3898.5215,4.476590210727504,76.68392661562835
3899.4207,4.557085089670871,68.49984583204626
3900.3176,4.637792735205501,68.22566781104423
3901.2148,4.721197394001128,51.3412686434874
3902.1145,4.806350609809771,57.969687970545095
3903.0122,4.888981360954432,52.73484086799042
3903.912,4.964941636534912,58.47304097718585
3904.8103,5.030582030075199,44.53242420884216
3905.7107,5.084630240305032,53.32867393186966
3906.6094,5.126702040167129,52.80820199585774
3907.508,5.158211727615289,44.687082972688
3908.409,5.182661404356592,46.3678067081797
3909.308,5.205474062460176,54.24432494183493
3910.2097,5.232508742737142,61.16339557154907
3911.1091,5.267194207228999,52.6858299344688
3912.011,5.310292007013563,41.258679127495874
3912.9111,5.3599750669007795,49.23687220162103
3913.8113,5.413336086007538,50.6305560723002
3914.7136,5.466526241255186,47.24279312020652
3915.6143,5.514891966359246,45.52627967831074
3916.517,5.555006011760733,40.90489315236402
3917.4182,5.585146214787281,39.63755786471417
3918.3215,5.6063373899288145,44.26860418445746
3919.223,5.620963216084944,46.20751474242649
3920.1245,5.631745169071453,41.07580571701947
3921.0286,5.640711082464658,40.377268881630336
3921.9307,5.649421255432011,43.98858406426826
3922.835,5.65985133027528,42.07636548651847
3923.7373,5.674148280415653,43.128472930026234
3924.642,5.69334782231474,49.71432180917305
3925.5452,5.715151001431649,35.99385755341153
3926.448,5.733913276920882,40.46270208084983
3927.3535,5.743038490139799,36.8748088026235
3928.257,5.738785996143545,36.114017532018224
3929.1628,5.722627838834753,34.23869745722382
3930.0667,5.700071145848408,42.35058392322398
3930.9731,5.6769999452004685,42.43765634428873
3931.8774,5.657373203855325,42.952433845267784
3932.782,5.642293600617935,47.660695320565196
3933.6887,5.631127601321208,46.002205689910824
3934.5938,5.622374558589223,41.913681873068704
3935.501,5.6138480723969835,45.793411028009764
3936.4062,5.603019994248269,45.28603973586278
3937.3142,5.5872695133873815,43.224720821525544
3938.22,5.565069367341547,39.32165257877061
3939.128,5.536754184033504,43.035427232263835
3940.0342,5.505206093736472,49.19072542758683
3940.9407,5.474094499129423,45.788453204642124
3941.8494,5.445726950475,46.46355104799355
