wavl,flux,ivar
3566.9744,3.084195609502597,169.7218373100818
3567.795,3.0828789608673195,175.90882386377757
3568.6177,3.0805158837851288,177.97039969676004
3569.4385,3.0765713514959416,177.25619079012637
3570.2617,3.070858728638902,167.82443352471944
3571.083,3.063953726395125,182.28936962054826
3571.9065,3.0569821535717994,171.99573058394887
3572.7283,3.051400564967432,182.65977597533603
3573.55,3.0485488936231353,147.83930835337569
3574.374,3.049357684434121,187.688672715592
3575.1963,3.0537416216545847,175.83485567304322
3576.0208,3.06010013534797,183.39405822269518
3576.8435,3.06556092173437,162.531529088698
3577.6682,3.067548775998838,175.99324936156165
3578.4915,3.065367137944928,187.76363054811335
3579.3145,3.060544583095979,180.4337490636298
3580.14,3.0553836964015884,170.368758432265
3580.9636,3.051253628407202,174.16689409478022
3581.7893,3.0478479488428873,177.87628924424178
3582.6133,3.043930770210431,183.75138543421045
3583.4395,3.0382974079697203,184.36421974561037
3584.264,3.03044502799828,182.74606745687538
3585.0884,3.020555179783908,168.2552683437167
3585.915,3.009330130766686,210.08954744024942
3586.74,2.9978533735763615,188.28224998098267
3587.5671,2.987153067432833,174.2812523176708
3588.3923,2.978214364308553,191.47054265334108
3589.22,2.971592469145756,178.44048626935006
3590.0457,2.9673517868675554,191.37117020956435
3590.8716,2.964737108427574,185.7381866355145
3591.6995,2.9623630007931743,181.87186500364186
3592.526,2.9587749543054263,191.23853943129984
3593.3542,2.953168027649041,206.93472533759027
3594.181,2.9458872157535443,176.85840809931318
3595.0098,2.938097720196409,170.91510928256218
3595.8367,2.9312393610173033,189.45225451766518
3596.6638,2.926296805916199,174.8699829603763
3597.4934,2.9236148463054064,218.71175277943172
3598.3208,2.922888647503938,182.0045373207829
3599.1506,2.923338088454919,186.7477583333964
3599.9788,2.9242263210056576,180.13364229728128
3600.8088,2.925341727197394,187.4581994623611
3601.6372,2.9269246569744434,194.47123888324992
3602.4678,2.929062744129431,193.12197672910702
3603.2964,2.9311953911300077,185.03517399760827
3604.1252,2.932456156023126,186.2206353601952
3604.9565,2.9324444405173655,211.21946329948116
3605.786,2.9317221068542842,210.65962533152373
3606.6172,2.9315217399614935,219.17734665414682
3607.447,2.932840569139293,181.52935911236165
3608.2788,2.93551072939379,175.52002360615703
3609.109,2.937908081289498,191.55734777770093
3609.9392,2.9377671672641887,190.7687564838398
3610.7717,2.933582661754369,186.30177620515886
3611.6023,2.9257358058561223,181.62906538662867
3612.435,2.916205479106621,194.93986717925756
3613.266,2.9074002152426854,195.5557154603014
3614.0994,2.9007263355748885,205.36182515009253
3614.9307,2.8964401983722508,181.2566288789174
3615.7625,2.894062910069348,197.78787884768187
3616.5962,2.8929724978587754,220.43729823276766
3617.4282,2.8924490365410556,172.02693817429764
3618.2625,2.891605193612036,213.0407282422542
3619.0947,2.889648144525007,188.51036124234003
3619.9292,2.8862729984299276,186.73094719896503
3620.762,2.8818496287365063,206.7925306117503
3621.595,2.8770540339714814,210.53878342319942
3622.4302,2.872342208923442,200.14646271006484
3623.2634,2.8676654686100593,249.01926564792646
3624.0989,2.862601958697443,194.5304049182515
3624.9326,2.8570974882124034,214.51599886387737
3625.7686,2.851875916908362,210.4570722585122
3626.6028,2.8483222719311403,213.38713747438788
3627.437,2.8474873714220714,195.94572888506625
3628.2734,2.8492300354227327,201.37342765292686
3629.1082,2.852001215041306,188.6306953935188
3629.945,2.8536254883769905,220.13005876362405
3630.78,2.8524564974312896,211.07594547406447
3631.6174,2.8481882292942267,202.3832006444951
3632.453,2.8418021907274453,191.60304759880432
3633.2883,2.8347415599115156,179.06708188930472
3634.1262,2.8281167790916544,208.91243616829584
3634.9622,2.822385103570208,212.03140616790427
3635.8005,2.8172618747336675,216.37542043222473
3636.637,2.8120548310856837,183.9858328879948
3637.4756,2.8058720609085017,210.94308891761173
3638.3123,2.798272224604887,193.94127184302315
3639.1492,2.7897708497022617,204.36049119616519
3639.9885,2.7820069678160153,208.50826895149876
3640.826,2.776996445585538,211.02660510988014
3641.6653,2.7756269837218954,225.59875857390796
3642.5032,2.7769217570587243,212.67486874977766
3643.343,2.7785293000231817,210.19479936825638
3644.1812,2.7782500702078994,210.7259200377275
3645.0195,2.7753761689532284,205.8437107915138
3645.86,2.770827263437072,231.85985240891077
3646.699,2.766283217040483,225.1932068287043
3647.5398,2.762934912234345,218.83947119691774
3648.379,2.7609589198703266,208.3736917470862
3649.2202,2.7596850298473505,216.47108923168514
3650.0596,2.7583254825162657,215.14717093311992
3650.8994,2.756575401199267,206.81250276293943
3651.7412,2.754843860036898,217.84907623175525
3652.5813,2.753985920930132,213.5826040022247
3653.4236,2.7546667368495252,233.97212789386253
3654.2642,2.75679583321019,239.66521479585862
3655.1067,2.759402473856414,212.82656997251144
3655.9475,2.7610584312644733,204.65596273225617
3656.7886,2.760724451115354,207.89380665322912
3657.6318,2.7583931705542586,216.1629878807843
3658.4734,2.7551866974815784,217.79314965112474
3659.317,2.7526723511185414,231.66168641454558
3660.1587,2.7519945232077463,221.3715470331457
3661.003,2.7533316848255107,210.96515284386356
3661.845,2.7560474069616627,213.71117572121705
3662.6875,2.759182270909384,225.36271989395124
3663.532,2.761787947825017,197.63603100841806
3664.3748,2.7630559017886593,220.49905534194474
3665.2197,2.762501102560005,226.85657650021358
3666.063,2.7601520525803274,223.54931581960815
3666.9084,2.756597766101724,216.9442438702878
3667.752,2.7527563147850747,207.36640786442135
3668.5977,2.7493175798446305,211.69714119228473
3669.4417,2.7464212362403786,220.5201630953043
3670.286,2.7436080875229605,209.73854052634707
3671.132,2.740226956866684,214.7337628910635
3671.9768,2.7358990257963676,211.87522467053222
3672.8235,2.7306657463322552,226.8224044416698
3673.6685,2.7249227657951796,240.75362481843396
3674.5156,2.7190234204189823,220.42986570105194
3675.3608,2.713210260657769,226.18511558600858
3676.2063,2.7076543128307833,237.44115373250085
3677.0542,2.7027592677206838,219.28348377086743
3677.9,2.6992050973259722,218.63372690047441
3678.748,2.6975313604216207,249.25380487030282
3679.5945,2.6978294990402176,233.35898028934957
3680.4429,2.699620757150635,238.31668005353453
3681.2896,2.7021090761522077,242.09515221855006
3682.1365,2.7045655931504284,221.22774857442116
3682.9856,2.7065830857318347,197.2181594450222
3683.8328,2.708108057562565,220.96147205696087
3684.6824,2.7092330431281897,213.8640953531191
3685.53,2.7097597635944304,249.09524409315216
3686.38,2.7090857374438544,227.29204398935957
3687.2278,2.7066927014307343,236.84759689597828
3688.0762,2.7029091183158367,211.20029555811297
3688.9265,2.6990731068219067,236.0939136563856
3689.7751,2.696745608384396,217.16270220243112
3690.626,2.6965577242480743,246.62300951150263
3691.475,2.697881022883968,226.97918950670066
3692.3264,2.699412417546763,225.11388396062014
3693.1758,2.700050208874574,223.62377946603962
3694.0254,2.699369768554506,241.74189647776663
3694.8772,2.697477129858331,212.36824079965206
3695.7273,2.6946836904596974,217.67258952079834
3696.5793,2.6912587720429877,217.37255718482615
3697.43,2.6874622881819583,218.25735949885282
3698.2825,2.6834812479196293,234.7539388994757
3699.1333,2.679323319000124,249.22288217170436
3699.9841,2.6745800546198266,230.72704055749531
3700.8374,2.668562366502797,238.04717699987347
3701.6887,2.660833957397987,224.6878149179524
3702.5425,2.6515309441621877,227.76314955484153
3703.3943,2.6415030087212292,255.84588039837055
3704.2483,2.631705729666534,239.41267894745715
3705.1003,2.6229858636425147,227.7866179996481
3705.9526,2.6158634386086534,243.65388333620515
3706.8074,2.6108000094668973,236.91186858839995
3707.66,2.608209026568724,243.01038908079008
3708.515,2.6080012076262804,239.64196926368322
3709.3682,2.6092980106213393,239.12765188254488
3710.2234,2.610664114582665,230.4629940970378
3711.0771,2.6109202615244955,237.08018765242116
3711.9307,2.609785562098229,251.74139980718084
3712.7866,2.6076624582602816,252.73276661096816
3713.6409,2.6049546652551814,232.13255821671262
3714.4973,2.6016457293755555,232.15380272558983
3715.3518,2.5976367523135604,272.6663179814201
3716.2085,2.593171587936848,241.39079068836426
3717.0635,2.5890347169480985,255.24397775300193
3717.9185,2.5861739774043295,235.59764703533003
3718.776,2.5852840445146117,268.7092596052502
3719.6313,2.5864905926494552,224.31761566994783
3720.489,2.5893103698045468,241.27350554993902
3721.345,2.59280315368359,238.9785209235147
3722.2031,2.5957796645588287,240.99305340607077
3723.0593,2.596919321037129,244.410790749799
3723.9158,2.5952116101255887,235.30931762693228
3724.7747,2.590466502719678,257.3972336324068
3725.6316,2.583643276165639,249.96235879769057
3726.4905,2.5763590508857117,231.33637786001398
3727.348,2.570160849615837,263.10439532097587
3728.2073,2.5657450762763583,252.6546634230372
3729.065,2.562896909825045,263.1401192937091
3729.9229,2.5607500418462754,242.32173463895833
3730.783,2.5583317652489526,259.3258527982003
3731.6414,2.554934475292041,263.95017700962904
3732.5017,2.5501441623483943,253.8566574730078
3733.3604,2.5438460282955413,259.30860835515324
3734.2214,2.5362149875056947,244.53236215150383
3735.0803,2.5280129599594043,255.6325390603525
3735.9417,2.520360203805001,250.6407748788223
3736.8013,2.5144042864784715,274.6129118422814
3737.661,2.510637015322604,261.05020703779996
3738.5227,2.5088754291254127,284.1913746185905
3739.3828,2.508661376599026,246.03259227586665
3740.245,2.5096163716624442,274.27477589062477
3741.1055,2.5113500662535118,262.59096268982074
3741.9683,2.513104839119064,260.87014912038006
3742.829,2.5137174872811516,245.59025507546025
3743.69,2.512250567078313,244.97217258369415
3744.5532,2.508676146302323,238.3018357701477
3745.4148,2.5040620048729028,245.71205866726427
3746.2786,2.4999602009177155,281.38207472466695
3747.1404,2.497716378843801,258.8766828568854
3748.0044,2.4979184545830977,246.01955488197342
3748.8667,2.500314066236392,257.3408167172817
3749.729,2.5039536882490174,263.04759321990747
3750.5938,2.507581927952041,264.3432094459023
3751.4565,2.510098659178711,278.6577247910331
3752.3215,2.5110217673971573,251.7525475995478
3753.1848,2.510498463941407,268.7914304127752
3754.0503,2.5090050765347254,275.5769441610194
3754.9138,2.5069148894758277,269.26268555705445
3755.7776,2.5042803405837493,258.350590907643
3756.6438,2.5010131058802028,270.4139385099446
3757.508,2.4972226103780426,263.85890604378955
3758.3745,2.4932305275388718,275.6115254163349
3759.239,2.4894101290868536,271.35364822144237
3760.106,2.4858470146092824,255.5236112226707
3760.971,2.48237314187267,265.5556529362357
3761.8362,2.4786983375110365,280.8781356034547
3762.7036,2.4747265242414085,253.42508599665436
3763.5693,2.4707702196025974,267.3361062809963
3764.437,2.4673729206208166,273.7964024313043
3765.3032,2.464939760834807,266.60307583683516
3766.1714,2.463286728185076,268.4594050707596
3767.0378,2.4617359418406357,282.29255223360315
3767.9043,2.459608704895759,292.4018772866916
3768.7732,2.4567342854220726,264.5479576626157
3769.6401,2.453479396408052,273.1589210978515
3770.5095,2.4502264897802326,277.38331048348545
3771.377,2.447057591114371,275.61798632467116
3772.2466,2.4438637758189654,258.6177229785831
3773.1145,2.4409025730066998,302.81124811581594
3773.9824,2.4389167812980226,287.9761334135018
3774.8528,2.4387491790706366,305.7065886736874
3775.721,2.4407190103740337,264.7692980398215
3776.5918,2.4443401005070107,256.0237857091298
3777.4604,2.44850679721599,266.04367585628165
3778.3315,2.4521659051643474,260.1722059823787
3779.201,2.454868204883385,268.4743984711299
3780.0703,2.4570212331614814,264.7364448148383
3780.942,2.4594005187094363,272.7559862547179
3781.8118,2.4623504000998895,271.50510731495245
3782.6838,2.465333916071506,263.9198008230023
3783.554,2.4670519027538482,279.74428691087155
3784.4265,2.466172021222219,255.74683163057097
3785.297,2.4621064180593657,279.60285587997237
3786.168,2.455502346010492,286.7177834871867
3787.041,2.4480770524002984,280.2082355158917
3787.912,2.4418183391958537,274.0117697613117
3788.7856,2.437728106411197,291.3548122447848
3789.6572,2.4353902576517057,270.1696055355273
3790.531,2.43340478176805,291.55904342549616
3791.403,2.4305676943217107,269.27701306470755
3792.2754,2.426593036801044,280.6711755835407
3793.15,2.4219877773572436,285.8832893487274
3794.0225,2.417380443887395,280.18366064718725
3794.8972,2.412894481248852,308.5837584489113
3795.7703,2.4083379476098554,276.0918147171864
3796.6455,2.4036793336824362,274.68503469776226
3797.519,2.3994741502984693,294.2131281522236
3798.3926,2.3965070730324487,287.74270910133635
3799.2686,2.395172940860005,304.17087667553574
3800.1426,2.395048448549445,269.2467448147689
3801.0188,2.395019056913793,287.97931137783905
3801.8933,2.3939184428728675,290.93719734168366
3802.77,2.3912180413198643,297.4997294869905
3803.6448,2.3873805570082305,294.07474541810353
3804.522,2.3835356702530994,295.4090847049971
3805.3972,2.380846663081537,281.1755439534818
3806.2727,2.379812468953595,323.8960480460267
3807.1504,2.3801385205935817,280.61041092561453
3808.0261,2.381012174327525,319.2610454720619
3808.9043,2.3815729812571287,276.002089121786
3809.7805,2.381258173855846,297.2067533323207
3810.659,2.3799687821407938,301.00856855666603
3811.5356,2.378064764082649,303.6193779919407
3812.4126,2.3761793184787465,295.5474230225248
3813.2917,2.3749272864102426,286.15512879582224
3814.169,2.3746038739502136,303.8923942061882
3815.0483,2.3750121658616834,291.0252027219396
3815.926,2.375546449642577,285.31358222715465
3816.806,2.3754484923204404,310.48838273212067
3817.684,2.3741340194224363,302.3859885685198
3818.5623,2.3714630544496034,289.27185770848575
3819.4429,2.3677874265466405,292.8823236573781
3820.3215,2.3637875590960613,286.6905711380599
3821.2024,2.360049477297177,302.3293523805377
3822.0815,2.356850737278803,293.12023932160923
3822.963,2.3540550645827834,309.6087311709156
3823.8423,2.351360304060683,298.39485761403074
3824.722,2.3484711089501498,291.957244466678
3825.604,2.345169897628473,293.4483414682637
3826.4841,2.3412789285725903,304.69862562328166
3827.3665,2.3366556887389645,314.4962622072027
3828.2468,2.3314968197948325,295.4473215477712
3829.1296,2.3263724880260654,298.50975900475385
3830.0105,2.3220654224918014,301.2795600394505
3830.8916,2.318983621543042,321.3232041543593
3831.7751,2.316916558816885,290.9946686145688
3832.6565,2.3152194440248004,317.52262803198005
3833.5403,2.3132279560514113,297.748805812715
3834.4224,2.3105964629089244,288.8763048346495
3835.3064,2.3072263793576235,329.26973426073044
3836.1887,2.3031671360974117,298.536713878944
3837.0713,2.298586727288825,304.1567996633008
3837.956,2.293943961606581,303.62766544266435
3838.839,2.2900375837008298,296.7422638384154
3839.7244,2.287648608793231,322.7923524653041
3840.6077,2.2871859019665197,317.0108981746463
3841.4932,2.28844785337237,333.6476375085977
3842.377,2.2908193096524974,317.5969848151456
3843.261,2.2937059092391303,326.2823536919796
3844.1472,2.2968493767906293,306.05584652004865
3845.0315,2.3002157071353033,319.38223086500494
3845.9182,2.303630901258679,333.753612451131
3846.803,2.3064673603714767,295.77181391126635
3847.69,2.308058768734944,305.94367983967743
3848.5752,2.3083473227591025,302.93562343659306
3849.4604,2.308163200961146,305.05264602291356
3850.3481,2.308628124434432,314.97548077492394
3851.234,2.310243973820266,292.1754804826199
3852.122,2.3124854366268037,315.8099452165644
3853.0083,2.314169787738809,287.9823137314177
3853.8967,2.3143265565124254,303.061016331579
3854.7832,2.3127915929849836,289.18824997234594
3855.6702,2.3101735983189333,307.6191622690036
3856.559,2.3072541965147053,291.44547352386525
3857.4463,2.304434913410228,299.73490550800295
3858.336,2.301640684618774,318.55346237959975
3859.2234,2.298779343577942,316.3220566506941
3860.1135,2.295996699980903,309.99047124391285
3861.0015,2.293591955832143,326.7443541652225
3861.8896,2.291592632500077,316.50985823798277
3862.7803,2.2896625607499,330.3879007353156
3863.6687,2.2873905150524774,316.76455200755913
3864.5598,2.2846296236328194,314.7434875616893
3865.4487,2.2816506535000447,314.1681896291229
3866.34,2.278821798942406,327.47858682842497
3867.2297,2.276270084505451,310.3460920317994
3868.1213,2.2736214707876092,305.07099025796384
3869.0112,2.270202058059212,300.9284855061423
3869.9014,2.2654552327590607,297.9582507757648
3870.7937,2.2594289815324466,314.4122189304195
3871.684,2.252970100921268,325.21002710079586
3872.577,2.247266489823267,323.33785620865166
3873.4678,2.2433604599393226,341.30575271148547
3874.361,2.2416346930183697,345.1356589188813
3875.2524,2.2418272604462914,321.0766672114556
3876.1438,2.2431420651695366,335.2071789188414
3877.0376,2.2444889538175152,296.5798453404423
3877.9297,2.2447374010194707,326.46493538470475
3878.8237,2.24307521454866,322.6778745291194
3879.716,2.239294739901433,332.3588670571139
3880.6108,2.233798203151248,300.54043027810695
3881.5037,2.227411077735184,326.2204287583643
3882.3965,2.2209202099924745,367.95149437645694
3883.2917,2.2148454292654103,335.05123273458094
3884.185,2.2094352714786156,343.9182980896697
3885.0808,2.2046251257229015,361.00722872731575
3885.9746,2.2002296630789826,352.9747143744839
3886.8706,2.1959525296451394,338.1057665111738
3887.765,2.191627091065372,339.2603437796735
3888.6592,2.187317865969442,343.5123099978921
3889.556,2.1834062579159688,346.68699868891974
3890.4507,2.1804881545666914,351.878659845263
3891.348,2.1790400956986757,375.3203983695537
3892.243,2.179250524741735,331.17246044757417
3893.1406,2.1809964311100067,336.98374105093035
3894.0361,2.1840439029425207,342.2518013143518
3894.932,2.188236512992282,345.13137990996574
3895.83,2.1934044735119995,338.62402453134973
3896.7263,2.199082300606624,338.72616383382774
3897.625,2.2045996008844058,333.7870362664955
3898.5215,2.2093912168428016,332.75161534867533
3899.4207,2.213600647706214,333.2401182617544
3900.3176,2.2179996681492185,326.7816549703126
3901.2148,2.2234682746045107,356.90138073571165
3902.1145,2.230217555962305,316.26166278514376
3903.0122,2.237516748990785,338.62420149933445
3903.912,2.244354218027963,319.24851523962866
3904.8103,2.2501148722417197,323.52206012298086
3905.7107,2.254989317472331,325.05174115022004
3906.6094,2.259443025696875,317.1432326702601
3907.508,2.2636835048196606,312.9094668695015
3908.409,2.2674917583762224,297.85981629643874
3909.308,2.270579804146036,331.022586568558
3910.2097,2.2730395798555563,343.41835017653216
3911.1091,2.275264667263915,343.03648827772633
3912.011,2.277639296828283,319.0904575678591
3912.9111,2.2801690674414616,314.2539223621985
3913.8113,2.2825473913188867,299.57371635435044
3914.7136,2.28451441216304,289.76574449370486
3915.6143,2.2862267799997777,316.27037862567914
3916.517,2.2882473775487213,312.5882546727789
3917.4182,2.290970499446509,330.6103255333566
3918.3215,2.2940978659745226,333.15700734365845
3919.223,2.2966051552066076,303.8569361297358
3920.1245,2.2974588489181085,311.36771927568014
3921.0286,2.296340937549891,316.82364221851515
3921.9307,2.2938598339901315,302.880147145284
3922.835,2.291006854123509,337.7182087200094
3923.7373,2.2884780023108804,296.50260110277827
3924.642,2.286338429988224,311.1995640536995
3925.5452,2.2843335661983364,308.99878397036235
3926.448,2.282286939482416,337.14086147126153
3927.3535,2.280247343144944,329.30573074483425
3928.257,2.2782585867090495,299.4462038199379
3929.1628,2.276037428333758,317.68877846810085
3930.0667,2.273090383980974,345.1503802088471
3930.9731,2.269071768038618,340.9955332738201
3931.8774,2.264169893855594,302.4697214785848
3932.782,2.2589827428340015,318.17793492181625
3933.6887,2.2542177335915947,329.376073152979
3934.5938,2.2503701144426516,306.4890051705762
