wavl,flux,ivar
3566.9744,11.095259841873846,6.512041310150848
3567.795,11.057577785376418,7.625283873382214
3568.6177,11.027690760458617,7.42901293791491
3569.4385,11.002372237900776,7.829322705832611
3570.2617,10.979158832928254,6.327004513720735
3571.083,10.9581924477269,7.108780844410656
3571.9065,10.941194238800259,8.234472211221126
3572.7283,10.931134895025835,7.55902894158162
3573.55,10.930801232042148,8.023120781587048
3574.374,10.940881086497322,7.809117364876397
3575.1963,10.958149340035778,7.815984976465022
3576.0208,10.976826472036105,6.9495043994958365
3576.8435,10.992053251197731,6.891558106640893
3577.6682,11.003293323897427,7.9435500086763655
3578.4915,11.013858192178763,6.286996493736114
3579.3145,11.028052279596102,7.744735056058806
3580.14,11.047860051563147,7.272755688872271
3580.9636,11.071231366999436,8.031644179141065
3581.7893,11.09335583714405,6.4335432199681994
3582.6133,11.108864084309051,7.058742536195835
3583.4395,11.114361238778763,6.181247905832829
3584.264,11.10810461164213,7.474807897977356
3585.0884,11.088477072258065,6.417810741101721
3585.915,11.053477303859639,7.820612895494485
3586.74,11.003387573499033,6.178217790294201
3587.5671,10.942219079602122,5.973957892575541
3588.3923,10.877487266724822,7.28426523119137
3589.22,10.815697272605169,10.030872984239998
3590.0457,10.761565481270383,7.397309839456039
3590.8716,10.717054189482182,6.830761670306732
3591.6995,10.682496829849116,7.108154381298812
3592.526,10.656586715212594,7.747685466392613
3593.3542,10.636607653034245,7.364861670373447
3594.181,10.6211184885483,8.02219567201752
3595.0098,10.611393728630505,8.129754080529608
3595.8367,10.610682552914362,9.11788191103283
3596.6638,10.62073228913351,7.958570191503783
3597.4934,10.63974973508106,6.9637919047589705
3598.3208,10.663318328871064,8.310550981726653
3599.1506,10.688005803834818,6.87288165786268
3599.9788,10.71263634545776,7.679241546045076
3600.8088,10.737656874460972,8.00751331253119
3601.6372,10.7624000869448,9.347166684429036
3602.4678,10.784155006714952,7.803032398353306
3603.2964,10.797901052915275,7.666349049368094
3604.1252,10.798126226370192,7.6940837931403925
3604.9565,10.780635914544193,6.401784540657471
3605.786,10.744639186008719,6.978930625694266
3606.6172,10.692661396383356,7.027505624187636
3607.447,10.630020496519036,7.770901647651297
3608.2788,10.562676479868687,7.991829999517355
3609.109,10.497647445697394,8.878566677080952
3609.9392,10.442001463941786,7.929114324937565
3610.7717,10.40271262732517,8.647746219379828
3611.6023,10.384356878403901,7.9234094633768875
3612.435,10.385260008826652,6.88511156833281
3613.266,10.396887497691848,8.688035120639258
3614.0994,10.407031634544351,7.53050809768299
3614.9307,10.40530565467339,6.798871266496855
3615.7625,10.387260328427917,8.547415824235909
3616.5962,10.354718928036764,7.19549982645974
3617.4282,10.314253399759888,7.278266942371897
3618.2625,10.273831546366077,8.34716863223724
3619.0947,10.240541451529996,8.433278750474079
3619.9292,10.217615075321682,8.52964632330128
3620.762,10.204468838625573,8.949860305156367
3621.595,10.197486958957168,7.977615214520842
3622.4302,10.192317213998729,7.411587771522894
3623.2634,10.185757124890054,8.134255981625962
3624.0989,10.176891829762592,7.334122742298192
3624.9326,10.167270574874454,8.363740376810535
3625.7686,10.15926409846863,8.355391874005882
3626.6028,10.15406887534873,7.074615936460226
3627.437,10.150490984898521,7.843504444351898
3628.2734,10.1455076713442,12.726925130308427
3629.1082,10.135373893662072,9.185336874519034
3629.945,10.116789486873806,9.995090126707522
3630.78,10.089188092653167,7.933239462068921
3631.6174,10.056157961344633,9.405028919235713
3632.453,10.024742776223317,8.82225677674669
3633.2883,10.000155514756436,9.115972992226528
3634.1262,9.982010682117796,8.834598403477154
3634.9622,9.965540809150532,9.963807515310197
3635.8005,9.946712755032822,8.339353301224707
3636.637,9.926829851272984,9.477017170688148
3637.4756,9.911050002994553,7.677211087729507
3638.3123,9.90409360500842,8.746451687507793
3639.1492,9.906761721579628,8.171190146606778
3639.9885,9.916799044113652,9.671554498368215
3640.826,9.931139740427225,9.638574599986141
3641.6653,9.947292201150901,8.72180495362048
3642.5032,9.962765674169523,8.702291576507665
3643.343,9.975338398822688,8.456791073681648
3644.1812,9.983874702309913,9.246783116188649
3645.0195,9.989039776633403,8.573275286365181
3645.86,9.991994133406136,9.068502544152873
3646.699,9.992667960233062,8.11441327302858
3647.5398,9.989591654982053,8.021438863976408
3648.379,9.981573013737437,9.068066711490602
3649.2202,9.96928372182743,8.951028755228705
3650.0596,9.95511186661728,8.767651828878146
3650.8994,9.940966024619458,9.910329563291056
3651.7412,9.926690969902465,8.643331597347709
3652.5813,9.910301159055695,9.00050404565698
3653.4236,9.889491331604221,9.374417374942306
3654.2642,9.863970582968626,9.144812462381669
3655.1067,9.836084617503499,8.750576736776612
3655.9475,9.810237643407264,8.985358183029744
3656.7886,9.789351308421468,7.855172332468157
3657.6318,9.771981346577961,8.194477208785331
3658.4734,9.753004430746877,8.787373637951863
3659.317,9.728768507008581,9.279313602103398
3660.1587,9.703233768515357,10.426455161323467
3661.003,9.687169070916967,8.43208578036374
3661.845,9.690641010662537,11.878486820671545
3662.6875,9.71366740006107,8.557270741925672
3663.532,9.744508486783277,7.512923072595044
3664.3748,9.766790566743813,8.280150103572936
3665.2197,9.77112044608882,7.266454651699166
3666.063,9.760468059704165,9.879084346460015
3666.9084,9.745825321571175,7.567344227217129
3667.752,9.736014056830161,9.4910383911085
3668.5977,9.73064401815979,8.788886696862216
3669.4417,9.722330937509016,10.143772924330257
3670.286,9.704328755587502,8.737849944266458
3671.132,9.676253152808039,8.78174821220858
3671.9768,9.643722757187307,9.277304378355083
3672.8235,9.613247076879738,9.396630741925403
3673.6685,9.588961781106608,8.18074283822925
3674.5156,9.571589905587457,10.567996160163865
3675.3608,9.559868417019466,8.472508186399905
3676.2063,9.55084702673334,8.762302840550271
3677.0542,9.540489509038142,9.0589312119477
3677.9,9.524888380945944,8.901090855356347
3678.748,9.501715829932726,9.839697143017341
3679.5945,9.4719843286777,8.292535973731502
3680.4429,9.440037692756437,8.118706230479122
3681.2896,9.412636575948717,9.746665595689972
3682.1365,9.395202280698923,9.027918258657044
3682.9856,9.38894991857454,8.699909865556819
3683.8328,9.39061646861121,9.192316053009373
3684.6824,9.39550092990545,9.817078168474838
3685.53,9.400802158537354,11.174600115482022
3686.38,9.405831002525412,11.905141199190663
3687.2278,9.409085481523384,10.324616907026469
3688.0762,9.406297204694912,8.898952028135568
3688.9265,9.39220485188296,9.764713393832738
3689.7751,9.365322759024828,9.962417357903586
3690.626,9.330538637220885,8.112340033868431
3691.475,9.297654720518409,12.024007196967391
3692.3264,9.275581413712803,9.73516484950311
3693.1758,9.268428431121059,8.719097058040589
3694.0254,9.274237051944413,10.544585158190067
3694.8772,9.28731763282971,9.283984997524252
3695.7273,9.300797130324687,11.260108638289333
3696.5793,9.308873531153507,10.880976783161941
3697.43,9.30772068946025,9.452259151051953
3698.2825,9.295842275157868,10.041560535574774
3699.1333,9.273749013993804,10.4723656619641
3699.9841,9.243302904325532,10.752567316809028
3700.8374,9.207559964951365,11.24616073749495
3701.6887,9.171359955719074,9.504642187282844
3702.5425,9.140030513671636,9.763197570983145
3703.3943,9.117810746567931,10.273486741449023
3704.2483,9.104826448099757,11.033864918786605
3705.1003,9.097486618949079,9.678120985746844
3705.9526,9.090853250350849,8.702032617853858
3706.8074,9.081459612034454,10.391539012176054
3707.66,9.068083028413398,10.81250810180189
3708.515,9.051093138120706,9.078521314880268
3709.3682,9.032851830574714,9.58465575753365
3710.2234,9.01764560674051,11.537367412646422
3711.0771,9.010426592456255,9.443805558220875
3711.9307,9.013482523995258,10.419441308296834
3712.7866,9.024640865618608,10.097085086903013
3713.6409,9.037972228114034,11.755897632905631
3714.4973,9.046540982528068,11.527680738124987
3715.3518,9.044823619199105,10.374688776168504
3716.2085,9.030954661160214,10.30318473515429
3717.0635,9.007783546657715,9.509986660137907
3717.9185,8.980898835806872,12.11445663408436
3718.776,8.954172060779658,10.37859208401628
3719.6313,8.926858793358571,10.205541239950435
3720.489,8.895031574389794,10.295465956370471
3721.345,8.857704825031353,10.208374473329084
3722.2031,8.819670501752766,10.438195456723442
3723.0593,8.78983989040323,12.036492403565358
3723.9158,8.77489897955454,10.515622580533146
3724.7747,8.775688638693516,13.891235104512107
3725.6316,8.787169148411351,12.371712033244494
3726.4905,8.801469718169175,11.606873008784767
3727.348,8.811085992862628,12.899922705970011
3728.2073,8.811289224143097,11.173128413619116
3729.065,8.80109707251692,11.997194216611737
3729.9229,8.783296331333794,9.996859568411388
3730.783,8.763053846282885,11.84894478142913
3731.6414,8.74558624987541,13.77600207779259
3732.5017,8.733404803164781,11.706163776612753
3733.3604,8.72597614707705,12.523865676247247
3734.2214,8.72104890073951,10.740576473752737
3735.0803,8.716877283475036,11.05880204796246
3735.9417,8.712797186099161,11.765522222952551
3736.8013,8.708345651074575,11.44971218329145
3737.661,8.701994304982602,12.04117216882089
3738.5227,8.691239459540263,9.848703285886648
3739.3828,8.674080740316306,11.64039859125183
3740.245,8.650419292692819,10.044973407069241
3741.1055,8.623337812165492,12.025908604461595
3741.9683,8.598398774800803,11.492517412955165
3742.829,8.581959338693355,13.942780395318232
3743.69,8.576988564135577,13.828604958873393
3744.5532,8.580553416623593,11.554204875642885
3745.4148,8.584665136681584,13.467740921422319
3746.2786,8.581165015925398,11.00901204483715
3747.1404,8.567081177711916,11.332490267659665
3748.0044,8.546335568314557,11.497431938128983
3748.8667,8.526919950366679,13.545145294402804
3749.729,8.515009976751609,10.462376770235284
3750.5938,8.511208672468461,10.877272989471878
3751.4565,8.511061585724914,12.08823410693062
3752.3215,8.509108337254089,12.066889089414413
3753.1848,8.50282228117961,9.965122151714043
3754.0503,8.49314791150316,13.155484339461054
3754.9138,8.482362479322585,12.194405332365172
3755.7776,8.471565584868545,11.50685098509844
3756.6438,8.460000386984353,13.062694801067394
3757.508,8.445735506793415,12.285503520627831
3758.3745,8.426637751073542,12.860257071059339
3759.239,8.402129070130787,11.443444193387855
3760.106,8.373689030672585,11.182881789414528
3760.971,8.344628491856417,11.449111488885823
3761.8362,8.31782421687237,13.171623364120974
3762.7036,8.294928594030187,10.274232058482147
3763.5693,8.276938247436055,11.85897001082532
3764.437,8.264475648694182,14.044033579052916
3765.3032,8.257503026764256,13.287487005628757
3766.1714,8.253738023289712,12.099124807831814
3767.0378,8.248385468643471,13.10653877502996
3767.9043,8.235893927744929,12.445446757722838
3768.7732,8.213362992782189,11.959751229124217
3769.6401,8.183625829989493,13.975825684938494
3770.5095,8.154444319147416,12.470600514392636
3771.377,8.134908636878585,13.194848627073057
3772.2466,8.129792966845118,14.082224534261986
3773.1145,8.137597962726513,12.805150770339035
3773.9824,8.152345535156382,12.367152761184768
3774.8528,8.167870273549788,12.692476981033112
3775.721,8.180901134694766,11.588227724874997
3776.5918,8.191876647723324,11.481106765690997
3777.4604,8.202521847155552,12.937248817928987
3778.3315,8.213229425128805,14.120923318635038
3779.201,8.221674315832868,12.51579870621698
3780.0703,8.224315677851301,14.040772550806663
3780.942,8.218539751722874,11.536097568891496
3781.8118,8.204226977679106,12.63273128165863
3782.6838,8.183825288778207,12.019463919888786
3783.554,8.161569724421978,13.117406853536611
3784.4265,8.141078742050476,11.402704206405698
3785.297,8.12376997452661,12.94451237919312
3786.168,8.108459179277215,11.21506385030762
3787.041,8.093826998424548,13.63347334986113
3787.912,8.080692527493595,13.962502197543968
3788.7856,8.071175174349458,14.289118326865058
3789.6572,8.06611611977481,12.018386234547945
3790.531,8.063322571240413,13.02830003240633
3791.403,8.059209223679746,11.398123135933398
3792.2754,8.051237607853423,13.543967046772185
3793.15,8.038493390915475,14.0350692839915
3794.0225,8.02072278212789,13.13921600117854
3794.8972,7.997843709364903,14.543418215951696
3795.7703,7.9716751437421305,12.649871416477557
3796.6455,7.946489790908398,14.344340215707884
3797.519,7.927910880327649,14.710158895295686
3798.3926,7.9191871284909565,15.041717390687335
3799.2686,7.918863387712254,13.497249861457982
3800.1426,7.920988052910886,13.914026888403077
3801.0188,7.918539638852557,14.438691582430017
3801.8933,7.9081779651773045,13.276814767446034
3802.77,7.8927924684281265,13.506389879940153
3803.6448,7.879757675128062,13.53872562789373
3804.522,7.87537266754822,16.51771821812473
3805.3972,7.880576920888101,13.874749379573137
3806.2727,7.890845706004299,12.388974730327945
3807.1504,7.900235760486712,13.697367891872593
3808.0261,7.905243786427299,12.906254963971449
3808.9043,7.905609299907977,13.543676083305764
3809.7805,7.901783462173576,14.691017218563854
3810.659,7.892370167645958,13.236316422846315
3811.5356,7.874280081360588,15.41287187578047
3812.4126,7.845490353606627,14.84529186084143
3813.2917,7.808058275015012,13.230388157115858
3814.169,7.7685166793825715,17.268966384847154
3815.0483,7.73369209842318,15.999022487729304
3815.926,7.707248597746215,15.89754569934121
3816.806,7.6881378747822,12.944820384227873
3817.684,7.673830476990195,14.232351819594122
3818.5623,7.663324061848014,16.13441479328935
3819.4429,7.657983538186483,14.513004314742153
3820.3215,7.659293114918906,13.79823922201969
3821.2024,7.665948450492875,17.344149640857278
3822.0815,7.67291904054374,13.536161939256237
3822.963,7.673322384448743,14.20936194973411
3823.8423,7.661809695817694,17.934002763671042
3824.722,7.637468215532414,12.485143966586364
3825.604,7.604163555500963,14.097571575070774
3826.4841,7.568693283675014,15.101115421968968
3827.3665,7.536737641948841,16.495218027818535
3828.2468,7.511051139909856,14.768979689101883
3829.1296,7.4911662341100875,16.175054139765265
3830.0105,7.476757833529156,17.09233486442184
3830.8916,7.471032607246189,14.766317607664787
3831.7751,7.483388155664933,16.277917345430854
3832.6565,7.527548011204473,16.437574934484598
3833.5403,7.613917685287282,16.44535857817922
3834.4224,7.73547714015893,14.277666374713577
3835.3064,7.860748015216685,14.99241823356617
3836.1887,7.9417272446163585,15.050124733050906
3837.0713,7.943560338476501,16.88851029931565
3837.956,7.867802405649658,17.020710464607497
3838.839,7.7513786404064025,15.434209703312359
3839.7244,7.638264489828747,13.984207225646951
3840.6077,7.555316525090998,15.9332493825105
3841.4932,7.505438057896395,14.810711466109248
3842.377,7.48000654163731,16.022968194591254
3843.261,7.468635986024341,16.06220492289567
3844.1472,7.462762825445915,15.26282492838788
3845.0315,7.454849918779402,17.403359416519848
3845.9182,7.439211870956521,13.504826820780028
3846.803,7.41500859569072,14.229805092308354
3847.69,7.386982652569695,16.842406212475705
3848.5752,7.362998830086123,16.344243762530322
3849.4604,7.348775831279315,16.8060945413847
3850.3481,7.34512346272467,14.97789309242277
3851.234,7.348533775149521,14.93668065078261
3852.122,7.35407773277115,15.8946489466539
3853.0083,7.358239479088236,15.384337939251841
3853.8967,7.360526594384485,15.606451485743513
3854.7832,7.363546569954601,16.05389954825272
3855.6702,7.371777058926737,16.227697513520894
3856.559,7.388824591749071,15.528362798392841
3857.4463,7.413980151388206,16.122642454634203
3858.336,7.440972513586366,18.20371234163862
3859.2234,7.459769979724506,13.500414530901518
3860.1135,7.462291934008466,13.513833362377738
3861.0015,7.446779907729571,16.904263952180063
3861.8896,7.418519797069221,15.431422946842508
3862.7803,7.386055686284623,15.245703460676022
3863.6687,7.356701185481679,15.952238747235512
3864.5598,7.332834818583877,15.804565465347626
3865.4487,7.312210713393664,17.47494663978476
3866.34,7.289569881715858,18.775678622909286
3867.2297,7.260654776910646,16.087275253041337
3868.1213,7.224856770915536,16.157501265284083
3869.0112,7.186329802607216,18.222169608924965
3869.9014,7.151160205817125,17.472225726715173
3870.7937,7.124199313347605,18.68815188979707
3871.684,7.107123310559851,19.41122272905929
3872.577,7.097983089669869,17.191954140789477
3873.4678,7.092672832248951,15.910659289731505
3874.361,7.086271498422735,15.005931693843456
3875.2524,7.074883595288439,16.458946523620874
3876.1438,7.056578209733564,17.87914646659735
3877.0376,7.031035102588288,18.609087204606425
3877.9297,6.998776775029548,17.832381481117704
3878.8237,6.960537419900533,19.964463413309055
3879.716,6.9187257234208746,16.650595595926287
3880.6108,6.877208048760534,21.41283637664743
3881.5037,6.840381079896341,18.31756867858488
3882.3965,6.809592493753755,20.03525712601582
3883.2917,6.782022462698165,16.4834055166439
3884.185,6.752597413797488,17.004288150209085
3885.0808,6.717341416093683,17.07437618588163
3885.9746,6.676997193164367,18.254683984202096
3886.8706,6.636284353254731,19.9188365126957
3887.765,6.601822623743586,20.504079059306328
3888.6592,6.578361607439878,21.15903662101017
3889.556,6.567685049372768,21.64374501203759
3890.4507,6.569100375889467,19.815349357983965
3891.348,6.580338943594159,21.658154048878593
3892.243,6.598039750391471,20.937709216721565
3893.1406,6.618312762427142,20.63168568412344
3894.0361,6.637588555670187,18.09581250564506
3894.932,6.6546409877710895,17.69513288417265
3895.83,6.670929034769581,21.144901636484082
3896.7263,6.6891854767251155,20.30516658773904
3897.625,6.711759875106422,19.199705755771838
3898.5215,6.7392005222618385,20.175799460356586
3899.4207,6.770838873147269,18.816427666322685
3900.3176,6.804747329216165,18.43988964158689
3901.2148,6.838929008101741,19.44292801140558
3902.1145,6.871747222577746,19.49796834939178
3903.0122,6.902221481228497,18.667919863081725
3903.912,6.930487438423764,17.53889576528352
3904.8103,6.956429337133602,16.59892023517903
3905.7107,6.979283478470909,20.455498847484968
3906.6094,6.9972093501191095,15.207793928942834
3907.508,7.008795745732066,17.7388935494735
3908.409,7.013964283377921,17.00296830392996
3909.308,7.0138139232141175,20.859228989723395
3910.2097,7.009725660215648,17.136830808157825
3911.1091,7.003081601067684,16.14420784495187
3912.011,6.99581312279593,15.786226960607666
3912.9111,6.990739849076106,18.688900539956542
3913.8113,6.990518404253301,20.697476374988266
3914.7136,6.996433969093158,17.267620540919715
3915.6143,7.007769632364198,18.24466252449945
3916.517,7.022268661068369,20.735921543394028
3917.4182,7.03682619597227,17.021598401259823
3918.3215,7.048950555545208,16.459424397900985
3919.223,7.057900873188279,15.340198536234965
3920.1245,7.065377499396377,17.221459705822294
3921.0286,7.074108523856691,17.183051687286913
3921.9307,7.085345903177045,17.657265306041882
3922.835,7.097642946527662,16.61248306079837
3923.7373,7.107841738480607,19.674512651729835
3924.642,7.113898451423047,16.268899784409147
3925.5452,7.116159034730886,16.66112082666596
3926.448,7.116482155953175,16.710473551618094
3927.3535,7.116038513136814,15.471554329480426
3928.257,7.114246594020975,16.489924135313867
3929.1628,7.109508356330751,16.957749312391364
3930.0667,7.10090143724772,20.400011933388697
3930.9731,7.089142923080144,16.63601388316048
3931.8774,7.076434477748128,17.081564926682812
3932.782,7.064832674012973,16.295007982784533
3933.6887,7.055019915461014,17.581304238180774
3934.5938,7.046128693467594,15.574055211865756
3935.501,7.0363451858163,18.139586787754823
3936.4062,7.023922626769305,17.700876586242362
3937.3142,7.007502142615961,19.054355746652995
3938.22,6.9868775290595675,18.452025228582972
3939.128,6.963016722297594,15.365913551335524
