wavl,flux,ivar
3566.9744,5.381571161583173,32.08595179453799
3567.795,5.373830436696624,28.226460831104458
3568.6177,5.3596116212597105,33.12789426924699
3569.4385,5.342492762748949,32.20045332064521
3570.2617,5.32671024805952,33.1181103138691
3571.083,5.31440135287364,39.45466664100507
3571.9065,5.304463196507334,42.286789222656395
3572.7283,5.294429518346212,34.26514200125612
3573.55,5.282696561147381,22.336725947347297
3574.374,5.27000824308709,29.92182327259027
3575.1963,5.259297963873768,30.27250158727609
3576.0208,5.254068378718045,26.09479144336616
3576.8435,5.257089781103939,45.676217786009566
3577.6682,5.269415777931833,25.02179059435503
3578.4915,5.2898425639033055,28.010105620428586
3579.3145,5.314821677647422,28.370487666662058
3580.14,5.338855249610512,27.76401851389297
3580.9636,5.355611304538069,26.598284312727483
3581.7893,5.3605262256085675,29.704752102915194
3582.6133,5.352326227424717,32.2960679650826
3583.4395,5.3333109110368415,30.10257983663608
3584.264,5.308447826210175,27.009113132818484
3585.0884,5.283968902781956,29.76919333272632
3585.915,5.266314885144029,28.082117158755487
3586.74,5.260250093801047,39.45428728876116
3587.5671,5.2660222534421015,40.36952814486759
3588.3923,5.278414796253931,33.161184282380766
3589.22,5.289053769402562,26.753010340313025
3590.0457,5.290560972696371,29.441084062495715
3590.8716,5.2797589345101645,33.58713051667373
3591.6995,5.257228419795298,29.529356909900777
3592.526,5.2257345816450735,28.328156786595155
3593.3542,5.1892612852434485,26.372332272502057
3594.181,5.154102922171631,29.791887378146246
3595.0098,5.127375377827325,38.69366727741003
3595.8367,5.11401525876834,35.8930274208839
3596.6638,5.112866336215767,37.93175999627895
3597.4934,5.117425777607898,30.46983067594973
3598.3208,5.119895874782775,34.43497032771829
3599.1506,5.115557512600563,33.839961519210355
3599.9788,5.103932546710816,34.4465640349101
3600.8088,5.087006704567337,36.09105265252725
3601.6372,5.0674111171563,32.30519724487821
3602.4678,5.047871965945263,28.747945031065328
3603.2964,5.032602701041713,34.82629465406963
3604.1252,5.026861172133621,37.21079631654199
3604.9565,5.034261682651454,39.42476181398234
3605.786,5.052867323638062,29.904266629333566
3606.6172,5.075318885753447,36.021407816076156
3607.447,5.093465638814932,29.38403212084176
3608.2788,5.103775680671412,32.25794285909891
3609.109,5.107141286823977,28.459716746348768
3609.9392,5.1050405937355,32.19181789132797
3610.7717,5.097055418392751,31.72021707660729
3611.6023,5.083088702625211,31.51923056416569
3612.435,5.066277994564545,37.773873185031555
3613.266,5.0526225257917785,40.01588954881366
3614.0994,5.046451477597784,31.258862277420175
3614.9307,5.047000310631513,32.65062396565628
3615.7625,5.048689772636918,43.36844870617125
3616.5962,5.04499623378882,33.05756871153016
3617.4282,5.032538811464585,27.759347812350637
3618.2625,5.012646511127283,33.930413177439405
3619.0947,4.990216235187265,37.99294852755063
3619.9292,4.970360852579491,33.09951745930014
3620.762,4.956573842927783,34.64954705291601
3621.595,4.950295658074146,33.06657056092912
3622.4302,4.9519910488977725,36.91140912658715
3623.2634,4.960738642362686,27.63105736237591
3624.0989,4.9729029387399555,36.741511100108866
3624.9326,4.982205828224637,31.677322687764814
3625.7686,4.9833007580483155,35.86192576249377
3626.6028,4.975911074386006,25.968282128373076
3627.437,4.965687317553163,34.72428992706596
3628.2734,4.9601353866614115,30.978164083107668
3629.1082,4.963037625008058,39.825014698626454
3629.945,4.971784549624329,34.04646701457003
3630.78,4.979671537633994,42.50597987508603
3631.6174,4.98119416333118,34.4906361643389
3632.453,4.975935294702753,32.32213912507297
3633.2883,4.968457965435075,32.977550457524266
3634.1262,4.964306499230725,39.95329205018988
3634.9622,4.965785351062617,35.81571210828433
3635.8005,4.970803068656795,33.41275684385071
3636.637,4.975303994410704,35.8911361508422
3637.4756,4.976627911982053,27.289267991290927
3638.3123,4.974949734135876,26.498852484252794
3639.1492,4.972579430914548,31.281482300790444
3639.9885,4.97224579285024,35.138600935353494
3640.826,4.975694772646959,46.523891100929774
3641.6653,4.983025082534807,33.112304328601496
3642.5032,4.992705902882268,34.63242469336899
3643.343,5.00244267067287,32.88741377606363
3644.1812,5.010082025881639,33.82039995363772
3645.0195,5.0143091835069535,35.49038245169088
3645.86,5.014483649396006,35.13740424725958
3646.699,5.010777087688317,31.94299816571467
3647.5398,5.0047140432284785,30.8360566588985
3648.379,4.999143677404061,36.49962437895958
3649.2202,4.996559615310038,38.263864759345374
3650.0596,4.997022953594751,31.069788054812427
3650.8994,4.997446112019474,31.676006476166002
3651.7412,4.9933405465498595,39.89884346165563
3652.5813,4.981834310136386,32.93447082359173
3653.4236,4.963637785969062,31.03613681167368
3654.2642,4.943046589703758,34.47918415196616
3655.1067,4.925630841406409,36.784582772054534
3655.9475,4.916203142361147,35.09540233544538
3656.7886,4.916857009106474,37.66019854118617
3657.6318,4.926257598257229,31.008113143725296
3658.4734,4.939574789392486,32.36020803068705
3659.317,4.950298550571058,36.17659012999973
3660.1587,4.952883378651124,31.771998033752155
3661.003,4.9451825368077,45.51279328024462
3661.845,4.928952634539971,40.17163664762562
3662.6875,4.908687008370406,37.34103340225277
3663.532,4.889994899732918,46.75009968159496
3664.3748,4.877834155086869,44.139389654084574
3665.2197,4.874407180120799,38.110271490319
3666.063,4.878388678985805,34.09439278348531
3666.9084,4.88566120812427,41.558813954233464
3667.752,4.891517341873781,30.263809377008926
3668.5977,4.892748307615163,43.39328455286013
3669.4417,4.887977719195177,30.338847306735673
3670.286,4.877004521420356,37.41988117595025
3671.132,4.860478949363962,29.759736256713307
3671.9768,4.8406558762073155,36.31617474953651
3672.8235,4.821354888126088,37.094210871508494
3673.6685,4.807075779906273,39.09647395095429
3674.5156,4.800862056552999,31.31804675890252
3675.3608,4.803307082747351,36.86402208320743
3676.2063,4.812194501966518,37.25411949749168
3677.0542,4.8230991173690505,35.20368671146839
3677.9,4.830475906101994,30.9415866691255
3678.748,4.829935808971208,40.045730447875314
3679.5945,4.820322995630298,31.96702933696225
3680.4429,4.8044532491999625,39.47975345976272
3681.2896,4.78765536770025,37.33522640748756
3682.1365,4.774698355125474,32.67293369183579
3682.9856,4.767957066134219,31.461145717388526
3683.8328,4.767279156452432,38.35959501317208
3684.6824,4.770553196311572,42.47307146223812
3685.53,4.7741081779180705,38.32926217438623
3686.38,4.773399514990269,32.67571541132042
3687.2278,4.765011918909538,32.71591975572462
3688.0762,4.749222333530717,32.96345677055368
3688.9265,4.730612559093361,40.348190925367525
3689.7751,4.7156012928979525,47.47612835558852
3690.626,4.708020850342756,47.09951145952053
3691.475,4.707162580841409,31.902066498185402
3692.3264,4.709196751240016,41.05681928689421
3693.1758,4.710762295468307,35.522466161277556
3694.0254,4.711130951684099,49.34241186538187
3694.8772,4.71152380191729,35.21689128735469
3695.7273,4.713010719592223,39.23897639672735
3696.5793,4.715074849162037,41.82446274045192
3697.43,4.7156558913937054,41.072654233872875
3698.2825,4.7122720667451565,35.3642412103102
3699.1333,4.703400015844426,32.43626387196738
3699.9841,4.689492220176849,35.23100506801357
3700.8374,4.673175818518988,36.98941321363368
3701.6887,4.65841330201498,47.65823872082757
3702.5425,4.648111209332393,43.100433089544325
3703.3943,4.642536573600041,37.637355847010774
3704.2483,4.639122840981225,38.99873171361107
3705.1003,4.634666460450816,41.269893427406515
3705.9526,4.6276005959229645,44.89657408564722
3706.8074,4.618675148581766,35.52450534812281
3707.66,4.60980273440673,45.48315726375438
3708.515,4.602172680594778,45.87751803460954
3709.3682,4.595769798038534,41.84885891341538
3710.2234,4.589905129070841,33.46255706845861
3711.0771,4.584465906194613,37.46893397096164
3711.9307,4.580324309438108,50.55699272150785
3712.7866,4.578851660571131,39.94415649065583
3713.6409,4.580872805264132,39.80419528203549
3714.4973,4.585835902308325,38.10938458372684
3715.3518,4.591582852416451,40.58307714380213
3716.2085,4.59490363896062,41.435635461333256
3717.0635,4.592734782247831,42.98912194603593
3717.9185,4.5840655525663365,43.66106247391872
3718.776,4.571029216724745,38.46856404167606
3719.6313,4.558254983154601,38.23450150658688
3720.489,4.5500050102939085,42.78868877758902
3721.345,4.547817089228912,38.091152640246456
3722.2031,4.549835000542167,45.13107210481414
3723.0593,4.552692693435801,47.4481408853932
3723.9158,4.554113749521387,41.914627940170114
3724.7747,4.553996708776656,58.161299357626206
3725.6316,4.553302206552585,36.67896347451099
3726.4905,4.552199096824312,41.20606402751191
3727.348,4.549529341848478,39.3088899243202
3728.2073,4.54380078094003,36.1632520235768
3729.065,4.534413137658019,33.77677746097289
3729.9229,4.521748659425179,41.66440503664824
3730.783,4.506531496526873,39.169963139941515
3731.6414,4.4894102918569825,46.021178143040004
3732.5017,4.470841321686251,37.4197654654855
3733.3604,4.451956740784527,40.964969646109104
3734.2214,4.434496565893043,50.231181412031084
3735.0803,4.420575899865025,46.257387847087045
3735.9417,4.411316236410575,43.8506959393917
3736.8013,4.406556605612773,46.331666919196195
3737.661,4.405053950830068,39.600670513403756
3738.5227,4.4055935727839675,48.334051500308284
3739.3828,4.407686131224583,49.569656443716674
3740.245,4.411418290168687,36.176082140808845
3741.1055,4.416568203487695,47.089138068295576
3741.9683,4.4218858652484325,40.915248305069184
3742.829,4.42488553971953,50.20666358348304
3743.69,4.422766947824857,36.787444565191514
3744.5532,4.413844394198128,41.00182390698949
3745.4148,4.398980435266963,43.36690475374337
3746.2786,4.38145402334905,37.46066110701396
3747.1404,4.365717789498004,47.35796923053538
3748.0044,4.355097205798268,45.51129600021246
3748.8667,4.350760489982894,40.19357630962987
3749.729,4.351418435004679,49.51136493069293
3750.5938,4.354169043803944,52.67547941805198
3751.4565,4.355595763765532,57.66167045265785
3752.3215,4.3533033617019,42.315074103895455
3753.1848,4.347292928608473,50.18539348637697
3754.0503,4.340065167424033,48.337032668902445
3754.9138,4.334887434228997,54.48866374630146
3755.7776,4.332966624280167,40.91752714532373
3756.6438,4.3321809186689295,41.26454759050264
3757.508,4.328400871795437,47.55058477043367
3758.3745,4.3185532427642705,49.32594166251803
3759.239,4.303270828017335,43.67525184054172
3760.106,4.286801053406727,44.75364408419279
3760.971,4.274763668658241,49.851060399751624
3761.8362,4.270461161219736,53.28716981951843
3762.7036,4.273156864453134,43.49350423390459
3763.5693,4.2787272750657905,49.392484056259896
3764.437,4.282228702854718,57.05249728429614
3765.3032,4.2802209794268,51.499999143056115
3766.1714,4.271738443623649,48.91029797918121
3767.0378,4.257923027455937,51.67384878595595
3767.9043,4.2409810940182915,44.167647725868115
3768.7732,4.223476632906934,55.957090836958855
3769.6401,4.208153243949742,45.62674062040722
3770.5095,4.197203493326637,53.51564768673984
3771.377,4.191767628068469,44.28381099156104
3772.2466,4.191052563212628,52.245957463762785
3773.1145,4.192750169488197,49.389696694245416
3773.9824,4.194412116458636,47.51843941666656
3774.8528,4.195048088292689,45.33633572924662
3775.721,4.195599447292711,58.283640505464746
3776.5918,4.19793510912513,48.070522474893494
3777.4604,4.203212398913845,43.72235110061769
3778.3315,4.211147275853722,51.56678111133769
3779.201,4.220383758712649,43.659010776425504
3780.0703,4.229579991189332,44.06540384736614
3780.942,4.237898589043298,44.03967035846131
3781.8118,4.2448065457887605,55.507780202366746
3782.6838,4.249736759132659,45.47305702735817
3783.554,4.251619364940143,48.32552061551072
3784.4265,4.249079630950672,47.84148099067204
3785.297,4.241135938041693,52.370013018287615
3786.168,4.228091990053091,47.33952364030396
3787.041,4.211763945145411,53.83644195324231
3787.912,4.194764064169434,43.92243078893349
3788.7856,4.178877848518163,43.28808061059091
3789.6572,4.16478687337846,46.00708880268356
3790.531,4.152194670218733,45.38334150876067
3791.403,4.1406940713128195,46.74927591069401
3792.2754,4.129676537530403,50.95065589925532
3793.15,4.118487376314946,45.39248556505157
3794.0225,4.106943542343588,58.44010532631015
3794.8972,4.0954136415130025,54.35023885398849
3795.7703,4.084525492590539,57.362107836465846
3796.6455,4.0743721131927835,43.19136813103064
3797.519,4.0651030702940565,50.31706891766064
3798.3926,4.057675881442162,46.02611050975161
3799.2686,4.053670365350047,55.17212385243736
3800.1426,4.0534712251847544,65.14156544174445
3801.0188,4.054767284357361,53.0223526798343
3801.8933,4.053638486195939,46.201980720032466
3802.77,4.0475871349017485,59.30020961888549
3803.6448,4.0378378172645855,61.09004189588925
3804.522,4.0285422665034725,54.34719484736128
3805.3972,4.0239796944501,49.598607784510605
3806.2727,4.0258158583531145,55.755675976858484
3807.1504,4.032927485634422,43.4327974531925
3808.0261,4.0428420893955,54.186077411923215
3808.9043,4.053555533880152,50.40234380984577
3809.7805,4.064109074318496,47.90829867961112
3810.659,4.074662964218437,48.09021461017706
3811.5356,4.085581953746607,50.750918444567375
3812.4126,4.0965959706055015,53.64210472796037
3813.2917,4.106240882523365,49.620646309563206
3814.169,4.1126847619212725,46.1227626927272
3815.0483,4.1155697360218,47.45689196424727
3815.926,4.116432075323853,53.09842772122597
3816.806,4.117063300924475,50.357647738696855
3817.684,4.117053409329431,54.1993719990377
3818.5623,4.1133322421698635,50.24531443732912
3819.4429,4.102342267738375,42.793737267624834
3820.3215,4.083094441082793,55.94921974881306
3821.2024,4.057999264196694,44.88208021281722
3822.0815,4.031609858528367,53.604555398761626
3822.963,4.007422149126583,52.60829590054579
3823.8423,3.986442105088958,52.27282190638945
3824.722,3.966929186498023,52.993202872097484
3825.604,3.946200744167352,53.47711678130788
3826.4841,3.9224582416561367,53.39654750576532
3827.3665,3.8951296578424395,52.05141758320484
3828.2468,3.865013645102399,63.3248709357413
3829.1296,3.833017925017969,61.18882352727887
3830.0105,3.8001326790818792,57.97577938625375
3830.8916,3.7667236563155626,66.17187399669398
3831.7751,3.7331685805913364,62.23248062855974
3832.6565,3.7008149779831565,52.491713370001555
3833.5403,3.67160279062604,59.59197514659942
3834.4224,3.647909807501596,63.63377530321617
3835.3064,3.6307630522628926,57.320384023714254
3836.1887,3.6198949081139964,61.349616187464676
3837.0713,3.6145311998607745,70.36011360051066
3837.956,3.6149234785714937,61.951965734484
3838.839,3.6224785058605953,56.924682234668865
3839.7244,3.63863209925732,67.26782497796788
3840.6077,3.663376447043144,58.78043533370948
3841.4932,3.695340466233446,57.81143064163872
3842.377,3.7322350812266682,55.57778774663054
3843.261,3.7722574136479263,48.804903992693816
3844.1472,3.8139380241363154,62.68738082595498
3845.0315,3.8550004819345265,56.379467683194214
3845.9182,3.892518481198612,55.04471893183037
3846.803,3.9229466816166063,45.72027291950032
3847.69,3.9445482727330274,53.12303869744701
3848.5752,3.9579498295000044,45.02264587651508
3849.4604,3.966116612709067,67.78254072146339
3850.3481,3.9728542735474024,48.208227131161685
3851.234,3.981586145201594,49.5168779345964
3852.122,3.994530169012655,56.91171496373023
3853.0083,4.011585013176277,63.56572544385974
3853.8967,4.030179267532746,46.63802529049667
3854.7832,4.045988020451256,53.08805831640634
3855.6702,4.055523568717633,47.17665294682857
3856.559,4.057946779557268,53.654842912371706
3857.4463,4.055226980263061,48.759964674437036
3858.336,4.0503623078067905,46.866670106349574
3859.2234,4.045407321453781,59.49058274045876
3860.1135,4.0406794171844425,49.65721303695469
3861.0015,4.035465726788131,56.60292465033537
3861.8896,4.028952714964058,55.87676910622549
3862.7803,4.021079458139565,48.466468943380725
3863.6687,4.013014743494959,54.741206967477964
3864.5598,4.006619780213575,50.38372186196128
3865.4487,4.003207783233554,50.0755866293441
3866.34,4.0019197776473705,55.39652152697863
3867.2297,3.9997486765936303,57.56890869179846
3868.1213,3.993233816618765,55.83220633367664
3869.0112,3.980540191790881,52.93032027643689
3869.9014,3.9618789718070584,58.731207144992176
3870.7937,3.938454225033766,48.734982095972605
3871.684,3.9114879061860797,58.35445343737788
3872.577,3.881484802593609,63.06641768119519
3873.4678,3.8491212431587205,62.55298628153985
3874.361,3.8150473226490953,51.6242252190013
3875.2524,3.780484344147395,60.33503997069267
3876.1438,3.746197966015873,55.30974354771895
3877.0376,3.7122467768786986,64.62407658590541
3877.9297,3.678275993521202,56.62632176695574
3878.8237,3.6434523108714654,76.06564555644731
3879.716,3.6073300621412923,63.98516169570052
3880.6108,3.568995386994381,73.11070500474621
3881.5037,3.5275059781921874,65.74455270993168
3882.3965,3.481699503051191,59.994490041998624
3883.2917,3.4311838113999156,69.69421680722076
3884.185,3.3770589050675173,83.1255137319134
3885.0808,3.320574575327323,67.57796399895042
3885.9746,3.263745852269271,76.50344261274905
3886.8706,3.2084654378941564,97.16849844838612
3887.765,3.158030031127174,87.97184792421923
3888.6592,3.1162960543587754,91.89164356049045
3889.556,3.087280225578823,93.29520783284723
3890.4507,3.074090836669196,101.79793455980064
3891.348,3.0774773335690204,87.87082562724967
3892.243,3.0957495085512092,92.37057181220628
3893.1406,3.1253776594934224,94.6301278157268
3894.0361,3.1618615268513137,79.2532726334378
3894.932,3.201648311361366,104.79941429178275
3895.83,3.2427361794883094,88.91434062197943
3896.7263,3.284034427969302,79.42186585933051
3897.625,3.3251736688094855,74.96244752249041
3898.5215,3.365302511169647,73.84248833622601
3899.4207,3.404481219356394,74.86639855975845
3900.3176,3.443533076386059,67.53765004939167
3901.2148,3.4845580354899313,82.36455580847081
3902.1145,3.529291963542371,67.5012909580904
3903.0122,3.577414564372815,71.23204540827832
3903.912,3.627160608783802,56.92933815921961
3904.8103,3.6755840518457377,63.63640125065656
3905.7107,3.720728539083556,58.34686454546619
3906.6094,3.7612868940424344,54.019981131497396
3907.508,3.7970121543046385,63.61491121326142
3908.409,3.8282165123125322,64.02873190838837
3909.308,3.855891250613018,57.70126986078916
3910.2097,3.8824128808821876,57.83824898885359
3911.1091,3.9103645137072824,57.04001372329122
3912.011,3.9417479129347606,54.89036943292863
3912.9111,3.9763352350336225,52.797151177646924
3913.8113,4.012095459772531,54.4780265562513
3914.7136,4.045945483720412,56.39042758017702
3915.6143,4.0749221757776795,53.15762372377632
3916.517,4.097923110336401,53.6592265204412
3917.4182,4.115559671373591,47.82159346944749
3918.3215,4.12978611200063,49.136113533837595
3919.223,4.142204583804758,53.223824776132815
3920.1245,4.153271737000353,46.41178640774449
3921.0286,4.16210907308183,45.988621850404854
3921.9307,4.167273207879213,42.547502182888785
3922.835,4.167946165804738,51.14231504901951
3923.7373,4.164613308748247,45.37166117394704
3924.642,4.159416615487049,55.52366242790002
3925.5452,4.155898201067331,47.995261464412685
3926.448,4.157559482809414,106.4974936280572
3927.3535,4.165813063662876,49.569076354259906
3928.257,4.1785624037767635,49.97269487163811
3929.1628,4.191262173717926,43.76208353947853
3930.0667,4.1993130250842485,54.384048498474435
3930.9731,4.200430155618799,54.02692816518314
3931.8774,4.194949564907087,48.34361858708563
3932.782,4.1848806966744,46.23821694586114
3933.6887,4.172433419779643,57.874319381958166
3934.5938,4.159046489935276,53.49450296346036
3935.501,4.144875631893138,50.66033551042363
3936.4062,4.129701607815968,48.019927609509445
3937.3142,4.113719236611451,49.50914877292615
3938.22,4.098125165599137,47.53344191988308
3939.128,4.083980062551031,50.829433143045975
3940.0342,4.071479369199825,53.20647171083673
3940.9407,4.059321033802275,55.53427076914055
