wavl,flux,ivar
3566.9744,7.871803780276846,232.87671737709792
3567.795,7.852802189005034,237.1483057624519
3568.6177,7.828946521904945,232.4014971386792
3569.4385,7.806349887636683,239.4176247415908
3570.2617,7.789060468246986,238.13973791487496
3571.083,7.7777822058072905,247.21444487139144
3571.9065,7.770063033921949,250.2175410477929
3572.7283,7.763148326384074,241.15060286067217
3573.55,7.7561402312991925,246.82626104165055
3574.374,7.749915730312233,239.55870145416043
3575.1963,7.745186797130013,253.19379954403735
3576.0208,7.741065545623002,239.11779355348045
3576.8435,7.735781014172506,237.14304329517762
3577.6682,7.72814894794472,248.9451957241769
3578.4915,7.718540977962093,252.90203689756171
3579.3145,7.708372015559705,239.29206592555008
3580.14,7.69897807691692,246.8747665406662
3580.9636,7.690857411815283,245.69132752409382
3581.7893,7.683579494429654,261.9163315527832
3582.6133,7.676620674266516,250.1265345228014
3583.4395,7.669599551146545,253.7174188663617
3584.264,7.662273642713144,233.78994299029375
3585.0884,7.654514984411369,245.78551720566378
3585.915,7.646862564240242,260.1432310341691
3586.74,7.640555349036521,263.4762947309591
3587.5671,7.636292338974215,259.7724306328315
3588.3923,7.6332568876520925,249.2689336042547
3589.22,7.629386188968673,244.1336725226585
3590.0457,7.62298582893335,253.99145048329405
3590.8716,7.613733693389113,254.8893960828713
3591.6995,7.6024194710969635,249.42635482196889
3592.526,7.590040095376514,259.5830040397228
3593.3542,7.576907095196691,260.8470743006648
3594.181,7.562809346805828,250.68808615574932
3595.0098,7.547326204746213,247.210332924232
3595.8367,7.530918959621721,274.4958124597686
3596.6638,7.515136011969941,256.6768966613031
3597.4934,7.502238548069569,260.3952896208658
3598.3208,7.493923349828477,277.9587240161199
3599.1506,7.489882676933459,267.3306110916438
3599.9788,7.488006246821325,259.82490527318356
3600.8088,7.485573355234253,266.42204015014215
3601.6372,7.480848662036583,264.01710764674885
3602.4678,7.473668186601562,264.2898202525299
3603.2964,7.465176807833966,258.2987922448453
3604.1252,7.4570955294649375,263.7826609458094
3604.9565,7.451459950487645,253.0237235713128
3605.786,7.450382672316916,265.11417582023097
3606.6172,7.45523842096717,267.5609987397855
3607.447,7.46560448859509,255.9274778994506
3608.2788,7.478723381561356,263.92617535359454
3609.109,7.489951935897096,260.7636484700338
3609.9392,7.49471683036445,271.6073852673099
3610.7717,7.4903924809671345,260.646654240054
3611.6023,7.477452189613179,277.97383849378326
3612.435,7.458788991847475,260.182188485333
3613.266,7.438290332612591,265.48890105763115
3614.0994,7.418932298085998,269.0278936433398
3614.9307,7.402243997456656,274.99134234605367
3615.7625,7.387866435548594,260.856398646744
3616.5962,7.374424159116482,266.7529004983483
3617.4282,7.360771419070374,273.7499598230452
3618.2625,7.346650985396948,272.37753962743756
3619.0947,7.332766469323816,269.95427612000935
3619.9292,7.319735514206309,265.4593911505442
3620.762,7.3080539321341105,264.250977883652
3621.595,7.298249813000875,282.5483994286709
3622.4302,7.291212035663446,272.1032421459014
3623.2634,7.287687880430566,274.42180015483996
3624.0989,7.287374349891759,278.96350067503823
3624.9326,7.288779012472377,280.4626485135207
3625.7686,7.289855521955678,287.5592253121818
3626.6028,7.289080361400781,273.9498799510177
3627.437,7.286259532946537,268.7224766385588
3628.2734,7.282412916966738,278.07775268303607
3629.1082,7.278791275056019,285.123625124709
3629.945,7.2755615360580315,295.5487774729259
3630.78,7.271471790895122,276.99869432965164
3631.6174,7.26467345886105,270.9809897915399
3632.453,7.2543997082419915,264.93112913914797
3633.2883,7.241890344068335,279.08634875333996
3634.1262,7.230017836803474,289.12727197205
3634.9622,7.221677363084013,287.56576587486035
3635.8005,7.2176818315030635,301.7475257716868
3636.637,7.216333013062112,276.7081475567268
3637.4756,7.2145517887847035,275.81878968926344
3638.3123,7.21006510481173,267.5089729024509
3639.1492,7.20280083545459,287.3162790416282
3639.9885,7.19465211585867,279.0314987760766
3640.826,7.187935576991554,282.48066864035485
3641.6653,7.183477621402371,287.0732215973615
3642.5032,7.180213758977786,289.1430386620389
3643.343,7.176206386653154,290.08020990579956
3644.1812,7.170333220412902,296.2900874377563
3645.0195,7.162798735763243,295.1470644882633
3645.86,7.15435015869624,298.41728772863667
3646.699,7.145362953135773,284.4072595466965
3647.5398,7.135652420227933,288.2407469900507
3648.379,7.125319943878445,285.1582052763645
3649.2202,7.114990577985282,294.04578316206397
3650.0596,7.10563473252382,300.3721622116767
3650.8994,7.097684628902686,291.4939769551177
3651.7412,7.090843388533828,286.72078976104115
3652.5813,7.084537319579202,302.83191579671455
3653.4236,7.0785638587355955,305.08583557892956
3654.2642,7.073505691836043,289.66916095567643
3655.1067,7.0701497573633825,292.2553670717801
3655.9475,7.068763496620967,299.10989806250444
3656.7886,7.06864373276376,296.125750083713
3657.6318,7.0684960697372405,292.92653602366397
3658.4734,7.067215150124924,298.914463603476
3659.317,7.064539869013012,291.7383990192935
3660.1587,7.0612063044559905,297.5360441452504
3661.003,7.058434108593841,294.8307635971659
3661.845,7.05720504153791,289.59193120569387
3662.6875,7.057672143234942,292.5763106597115
3663.532,7.05919957415573,305.85927851027776
3664.3748,7.060607051829921,296.8902324080577
3665.2197,7.060405146672313,292.5580814096987
3666.063,7.0572188133251466,302.8330559517186
3666.9084,7.050778729878904,291.8792000108498
3667.752,7.042872594382315,299.23919420017415
3668.5977,7.036638791761853,308.7426324576512
3669.4417,7.034521342483328,297.89317768301015
3670.286,7.036268950802737,302.2623308609109
3671.132,7.039146942445613,291.61793783465345
3671.9768,7.039735828270476,306.570877446316
3672.8235,7.035801492055231,308.70752258227765
3673.6685,7.02708323382644,298.9789847141598
3674.5156,7.015042039892538,291.5321934291762
3675.3608,7.002248937753916,302.93671835954285
3676.2063,6.991030979904155,300.1884728346383
3677.0542,6.98251068125276,309.8391245960402
3677.9,6.976454766498834,299.142950761181
3678.748,6.9719742107028715,306.16026189293063
3679.5945,6.968774924333699,304.0291177829668
3680.4429,6.96739048773061,306.512342232813
3681.2896,6.968505146285986,304.4008593039611
3682.1365,6.9718739563046634,312.70708929747434
3682.9856,6.9760139887073676,304.631292496999
3683.8328,6.978829535123807,311.6258347474576
3684.6824,6.978615786247029,307.1336000874733
3685.53,6.974416775335659,306.95883636032363
3686.38,6.965968167268276,314.59893937476664
3687.2278,6.953904618897844,312.74383223286304
3688.0762,6.93988738645015,309.4596884476456
3688.9265,6.9264143408404575,312.2563776205003
3689.7751,6.915985063848372,311.2874288845026
3690.626,6.909965427473298,318.16912285345336
3691.475,6.908344997915186,314.0713440425873
3692.3264,6.909751947043859,309.7667164165501
3693.1758,6.912011920445713,311.7550335524741
3694.0254,6.9130420788982585,310.8862664294174
3694.8772,6.911825437192107,318.1243921563761
3695.7273,6.90889090775186,298.5266932456267
3696.5793,6.905727094185878,308.5355836879746
3697.43,6.903508169706241,312.1118469561158
3698.2825,6.901958516054754,323.8167284767542
3699.1333,6.899410025890359,330.5068485304797
3699.9841,6.893943981181037,304.13363238866054
3700.8374,6.884766262308986,310.29219158911945
3701.6887,6.872921331612159,308.14250451398624
3702.5425,6.860626622477127,292.5049541840449
3703.3943,6.8502579985674386,317.61666277795837
3704.2483,6.842745333878664,321.6987983074327
3705.1003,6.837038303543862,320.51571309410775
3705.9526,6.830647840702236,316.08423216301117
3706.8074,6.821619423114199,330.0532306713619
3707.66,6.810250989176404,320.2903766888381
3708.515,6.798642236205572,323.99251006026066
3709.3682,6.788839205438547,327.254614866936
3710.2234,6.78071429840931,319.2581424847666
3711.0771,6.772239509058501,320.29462127240777
3711.9307,6.7613180816680885,333.136287237769
3712.7866,6.747626687891421,332.45801771960447
3713.6409,6.732861774600843,337.9797820736761
3714.4973,6.719183923373982,328.6180740787109
3715.3518,6.70823175442063,324.27113422684596
3716.2085,6.7005266146440565,330.1213672714361
3717.0635,6.695793442973996,335.0795431914568
3717.9185,6.692905346930326,346.2909302213775
3718.776,6.690134809518889,331.0851510007289
3719.6313,6.6856557839314465,335.20813066380174
3720.489,6.678136450467371,329.1038982132329
3721.345,6.667416877068523,328.58810775159486
3722.2031,6.654699847286894,337.16463021297346
3723.0593,6.642534884792287,329.8262475461982
3723.9158,6.633715033403754,345.70433224209233
3724.7747,6.6301224977670214,337.174622930449
3725.6316,6.631702103753109,319.89836290316856
3726.4905,6.636231497699168,335.5226305658876
3727.348,6.64020855743085,337.0040701545405
3728.2073,6.6405187707721245,329.9361562741711
3729.065,6.635855157939803,343.30367791192623
3729.9229,6.62699433027072,334.62438583986824
3730.783,6.6156458437938355,334.5326575005909
3731.6414,6.60308562738051,339.291645767136
3732.5017,6.589411142499998,342.6623187621209
3733.3604,6.574431922771937,355.75825636194145
3734.2214,6.558416174247849,352.8239294833674
3735.0803,6.542660651534143,342.02207288777606
3735.9417,6.528646968049903,346.3898427071623
3736.8013,6.517673400855827,348.01742141159497
3737.661,6.510261917549705,343.682083696837
3738.5227,6.5063088728322285,343.99808428413405
3739.3828,6.505264431299884,349.8382822524188
3740.245,6.506274209608946,352.414143248128
3741.1055,6.508362617662821,340.655278743822
3741.9683,6.510574263239462,354.3734193918821
3742.829,6.512104168953964,342.6267084696743
3743.69,6.512466864528231,349.8409732486873
3744.5532,6.511377143366962,342.58597460375734
3745.4148,6.508487331935167,351.47073147424254
3746.2786,6.503296367927948,339.9606158579947
3747.1404,6.495643604144991,344.9829023653025
3748.0044,6.486200633349525,357.5082236788222
3748.8667,6.476702457837753,358.35623224378514
3749.729,6.46913910632849,346.8768589583813
3750.5938,6.464815318499023,349.3820799351713
3751.4565,6.46381599470006,351.18444208079296
3752.3215,6.465284767206283,363.2242340768472
3753.1848,6.468276816023713,351.3682965814282
3754.0503,6.472180135832109,352.43884242883433
3754.9138,6.476359393314,352.95905125972746
3755.7776,6.479822581980046,341.5508123619933
3756.6438,6.481324462960978,344.2732593613971
3757.508,6.479872749624128,348.560914755681
3758.3745,6.475125180526626,352.10248925897815
3759.239,6.467576061071453,341.8099657552011
3760.106,6.458436190756127,353.6525463776234
3760.971,6.449346802744477,357.4690996559135
3761.8362,6.441455577554648,357.52405088485364
3762.7036,6.434990402018751,350.84915556324114
3763.5693,6.429435202738636,368.1745007931223
3764.437,6.423854351003849,361.8965460827976
3765.3032,6.417287768688672,369.29978754186186
3766.1714,6.409002767799146,348.75087920188764
3767.0378,6.399165878912467,363.9306652983139
3767.9043,6.388992510856199,350.5424791829253
3768.7732,6.3802453216653445,367.41066815483174
3769.6401,6.374327804349888,374.4246041943372
3770.5095,6.371598565524156,361.0418569223426
3771.377,6.37171408682418,351.53695285407895
3772.2466,6.37407975364358,366.18738386044646
3773.1145,6.378090602574487,362.30335861467057
3773.9824,6.383096894958662,357.69184304208886
3774.8528,6.388388893209627,359.969202177842
3775.721,6.393320391727863,365.2188466490413
3776.5918,6.397590816161336,341.1391278438041
3777.4604,6.4010299856610935,369.6097942341018
3778.3315,6.40330941551836,373.6436123612294
3779.201,6.403694230194561,362.53278967766994
3780.0703,6.401537282582194,360.3728795232039
3780.942,6.397010974062374,353.20512364695946
3781.8118,6.391432632086833,351.40629408729797
3782.6838,6.3865520523396695,365.96892102558184
3783.554,6.383570548384209,361.8044662076821
3784.4265,6.382389121402646,363.1630216824548
3785.297,6.381781699640706,361.5994604235748
3786.168,6.380069214241551,364.817264562426
3787.041,6.375926845392341,363.42903798443274
3787.912,6.368877628578105,377.4537120872281
3788.7856,6.359141316084969,357.2068274406539
3789.6572,6.347414629078569,370.54743657871984
3790.531,6.334382136096138,369.50062667102236
3791.403,6.320767030169124,367.93325056133204
3792.2754,6.306947780462017,377.263441355644
3793.15,6.2928578915142435,372.6631049415554
3794.0225,6.278220096329422,374.96324226552736
3794.8972,6.262871347480645,381.26416844175003
3795.7703,6.247607062677525,378.314807412408
3796.6455,6.233946486119762,367.9270854498449
3797.519,6.22377441755132,378.702801286794
3798.3926,6.2182002736653015,376.37712402685
3799.2686,6.2169854770513995,390.4885553553948
3800.1426,6.218548653118634,381.81638972899395
3801.0188,6.220894764793021,362.9098413381167
3801.8933,6.2228901018815455,384.22129009040214
3802.77,6.2248963719931805,387.05259853872406
3803.6448,6.228196156693773,380.49894870164337
3804.522,6.233935558927289,374.86881945549106
3805.3972,6.242244731612582,381.1149545353932
3806.2727,6.252240215349984,368.3102150333494
3807.1504,6.2624932752227735,373.9836528503245
3808.0261,6.2716394213490725,368.1042347415253
3808.9043,6.278992314089656,385.52947937453155
3809.7805,6.284384495090358,375.7447731255727
3810.659,6.288060560353595,377.1727342673317
3811.5356,6.29025530821004,376.91749457662064
3812.4126,6.290939161043568,375.17835217317685
3813.2917,6.28958921353642,357.445721470352
3814.169,6.285414847439602,376.0079577901215
3815.0483,6.277848275647504,368.3848617528355
3815.926,6.26705749148438,373.69151664999816
3816.806,6.253845848743596,376.22893464400823
3817.684,6.239584735991048,368.0705050805965
3818.5623,6.225661214137437,387.9628209703292
3819.4429,6.213049486224493,384.4181748452045
3820.3215,6.201888277845306,380.6679823229162
3821.2024,6.191185783680609,381.4493510104033
3822.0815,6.1797039117759685,378.5442280097531
3822.963,6.166614025310313,388.66381495842
3823.8423,6.151890724306067,387.5745725016147
3824.722,6.135483139472712,383.6533539510201
3825.604,6.11682288202084,396.4566243265905
3826.4841,6.095229980276797,406.53524274490997
3827.3665,6.0704150317955445,387.4877659643625
3828.2468,6.043445156964667,404.11658369525526
3829.1296,6.01596602991136,405.88238907376615
3830.0105,5.989758535450323,417.97360307757157
3830.8916,5.965443521038213,415.27282783858493
3831.7751,5.942674147433774,416.1449034440882
3832.6565,5.921073171750385,414.4470278730961
3833.5403,5.900801364202217,419.3529404454946
3834.4224,5.883431447166761,431.2384075010408
3835.3064,5.8711160180185935,429.0581419834922
3836.1887,5.865779641128758,436.05808129153377
3837.0713,5.867973371525519,435.99359411033697
3837.956,5.876960886133668,439.34360846286944
3838.839,5.891385375038871,430.9621881108678
3839.7244,5.910250149593292,432.8624251424601
3840.6077,5.93271134854175,430.4468512870607
3841.4932,5.957857874286134,419.13934802192114
3842.377,5.984048158876902,403.823930224185
3843.261,6.009858991126456,406.7625883552503
3844.1472,6.034820509809344,401.2410579918327
3845.0315,6.05952460239678,388.70564780535364
3845.9182,6.085276637504878,398.1225031571529
3846.803,6.1123400082114365,401.19813473793783
3847.69,6.139733580335168,383.0273784384721
3848.5752,6.165244738947098,392.01701958187783
3849.4604,6.1872394958750725,387.02672504385015
3850.3481,6.20562865198742,360.63415061989974
3851.234,6.221662492236582,383.43797940298754
3852.122,6.23697236225937,375.838431373923
3853.0083,6.251862068780508,370.45690626378325
3853.8967,6.2653490133216465,366.9793306230376
3854.7832,6.27586708791598,376.8412148042111
3855.6702,6.28268617973575,368.08233301487144
3856.559,6.286169962059628,366.6478229146289
3857.4463,6.2873482793039965,369.4936578265598
3858.336,6.287229046713676,370.2450766840825
3859.2234,6.286251588706662,372.2006460231357
3860.1135,6.2841387473150165,366.61222812922097
3861.0015,6.280168241948377,368.50351389608653
3861.8896,6.273608144645195,364.27314853755877
3862.7803,6.2640096606775195,368.58550681029095
3863.6687,6.25126202661208,391.4472107011148
3864.5598,6.235292171367228,368.82012988362675
3865.4487,6.216525610584675,363.1146899992859
3866.34,6.19576126767416,388.64844443261353
3867.2297,6.174242332412176,403.1311955051621
3868.1213,6.152523482590759,388.538768420746
3869.0112,6.130411745929274,371.662940161508
3869.9014,6.107178617237819,385.07815028725736
3870.7937,6.082660030882787,403.42863839035937
3871.684,6.057701250295264,396.8699835299963
3872.577,6.032873736895663,392.4023577402306
3873.4678,6.007857160415641,403.6498059218991
3874.361,5.980899789875594,412.83451380391637
3875.2524,5.950494738480531,414.21327546143607
3876.1438,5.916225152525449,433.6963190219467
3877.0376,5.879177376820705,430.3423088115059
3877.9297,5.841351071563982,447.07909543277225
3878.8237,5.803719240130987,430.487512214666
3879.716,5.766088893899357,443.8904842367046
3880.6108,5.72677035232198,439.5848665728304
3881.5037,5.684372262508743,466.1219153038702
3882.3965,5.6382022241334475,453.8512919615416
3883.2917,5.588783488449039,470.11577867229073
3884.185,5.537807948761962,501.7279713895029
3885.0808,5.486567109542595,492.2050416004368
3885.9746,5.436686846789153,494.6690071113455
3886.8706,5.389602261777132,493.95428124024306
3887.765,5.348211419737407,521.436864410776
3888.6592,5.31633954870626,520.1817367478399
3889.556,5.298234016306344,553.3618394298007
3890.4507,5.297002642680378,552.6151822584483
3891.348,5.313057567105029,521.5830929551693
3892.243,5.344000215963388,527.4224895720497
3893.1406,5.386074063466193,509.3628656714897
3894.0361,5.435136814780902,496.6260934277993
3894.932,5.488459897963086,484.62653948906814
3895.83,5.5444544485127105,485.63831736533496
3896.7263,5.601482698682262,468.6354486404249
3897.625,5.658203673587095,454.6605523061569
3898.5215,5.71266931249191,462.010175489863
3899.4207,5.764286989339305,441.25803586556316
3900.3176,5.8131285479010675,448.23585855481764
3901.2148,5.860477057705386,433.01662276347
3902.1145,5.907410981109913,438.44091083461296
3903.0122,5.953875824249636,431.7399743346602
3903.912,5.999580345968684,416.81899173072793
3904.8103,6.0436415361267315,405.3591387058466
3905.7107,6.085770068273363,405.34001491298375
3906.6094,6.125664715862417,398.66694645796343
3907.508,6.1637438598493475,386.3102758530541
3908.409,6.2008959752190735,386.0221501545704
3909.308,6.237870510991486,387.76107201135443
3910.2097,6.275089756594878,380.2546120275877
3911.1091,6.311293860675109,368.5893968736051
3912.011,6.344453174546367,369.02423592343695
3912.9111,6.372200197026769,350.71525032062556
3913.8113,6.393738189007796,360.21581059012334
3914.7136,6.410131659894911,356.6934678694483
3915.6143,6.4235903650939425,356.57256489963197
3916.517,6.436360478097869,352.1954285905919
3917.4182,6.4493264628551366,345.1070334299948
3918.3215,6.462043580222149,349.33768046008754
3919.223,6.473377764996444,353.63469079227514
3920.1245,6.482964031177258,360.6132317311398
3921.0286,6.491654670380868,353.0241071878021
3921.9307,6.500773512036725,349.7722497007993
3922.835,6.5110017903197726,349.76361344089355
3923.7373,6.521638707079004,344.1955606896058
3924.642,6.5313591316872905,349.0057352080102
3925.5452,6.539014479091961,337.4021377494446
3926.448,6.544323223278472,336.98730085639846
3927.3535,6.547619432814364,343.09020811298427
3928.257,6.549193763549777,354.8202253315379
3929.1628,6.548675796275647,338.18014210821065
3930.0667,6.544873099803193,339.8540620780283
3930.9731,6.536421393998438,353.56226001235825
3931.8774,6.522873322947323,354.78373884330574
3932.782,6.504987604082935,354.1242115236887
3933.6887,6.484296338121545,350.52296053232106
3934.5938,6.462393011870381,358.6762141213082
3935.501,6.439933307275568,365.6854182409939
3936.4062,6.41680323613055,363.23063379174835
3937.3142,6.391977922074436,368.6331685980903
3938.22,6.364671190869491,357.3333622379952
3939.128,6.3345252121784315,362.35740383125625
3940.0342,6.302343864795705,385.37005656155344
3940.9407,6.269114259499553,384.02317831251577
