wavl,flux,ivar
3566.9744,2.3623343013282256,149.04706340855256
3567.795,2.3542234809356595,148.76635427300332
3568.6177,2.3481274406334913,167.51315823136227
3569.4385,2.3422679249822203,151.79703568066722
3570.2617,2.3357081723174122,105.38460814496023
3571.083,2.330038437702449,160.92649631634626
3571.9065,2.3282990776477424,157.02525646268708
3572.7283,2.3320850806934126,123.1287730391618
3573.55,2.339305665567776,193.38259880012308
3574.374,2.345233422677959,66.7947582688738
3575.1963,2.346083002019238,166.90814064848024
3576.0208,2.3421607974163265,257.2698568103508
3576.8435,2.3374489116008927,136.00094472575506
3577.6682,2.336241876920119,173.56037076881418
3578.4915,2.3402390772877024,93.87529312910647
3579.3145,2.348250022888455,180.50721926440406
3580.14,2.357878593319307,171.51821635567057
3580.9636,2.3668466511956,125.53117085586399
3581.7893,2.3736839505550327,120.8698541434172
3582.6133,2.3776489036225477,101.75034170625847
3583.4395,2.378766220021,187.31643938096636
3584.264,2.3775209573124454,179.55793305654743
3585.0884,2.374712258494203,116.87632624216548
3585.915,2.3713633532781393,100.22556210245169
3586.74,2.3683665870978627,114.42097316168812
3587.5671,2.3656319530443186,127.67157291183769
3588.3923,2.361925175751865,86.6824022868795
3589.22,2.355943326190554,125.93526043072056
3590.0457,2.3480262540520282,157.93874048537597
3590.8716,2.3403245924126668,113.37256616326205
3591.6995,2.3352059071711695,191.73728844497234
3592.526,2.3331918612145297,156.6624928231045
3593.3542,2.3322621306426523,135.43957899995326
3594.181,2.32910768645278,137.69184346288137
3595.0098,2.320953368685218,119.40844189081412
3595.8367,2.307159091123055,122.76490608978897
3596.6638,2.289982157981037,203.74082795748436
3597.4934,2.2744337719028156,137.49876830227873
3598.3208,2.266294189699679,227.91254066465132
3599.1506,2.268248438059693,125.31311700029788
3599.9788,2.2778728882014807,125.04459197377159
3600.8088,2.2895563101837992,205.2503882712277
3601.6372,2.2991986550216534,122.74015365293926
3602.4678,2.307461536921906,229.28630690470055
3603.2964,2.3178514232197225,139.6032499526112
3604.1252,2.3321998382439753,178.78959446762968
3604.9565,2.3478560096613323,116.141509956983
3605.786,2.3593478587923817,154.2766059980164
3606.6172,2.3630350896080796,129.29000206009798
3607.447,2.3595019362285163,148.462987705338
3608.2788,2.352291648496145,95.3304609085118
3609.109,2.34452905199614,210.48275710131486
3609.9392,2.3367255897023522,178.21764239121816
3610.7717,2.327519365594696,98.08702059280333
3611.6023,2.316134164310619,122.31367419385177
3612.435,2.303979405844625,142.61196135570535
3613.266,2.2943477304432998,202.65589298990227
3614.0994,2.2897288327227185,116.66408635655678
3614.9307,2.289762089282225,141.6952878258924
3615.7625,2.291444130225051,122.26745070759873
3616.5962,2.2917972615706677,151.42701914564338
3617.4282,2.2902875592957623,152.24277343450183
3618.2625,2.288898635313079,191.19484226987188
3619.0947,2.2900480289389225,191.89054341487278
3619.9292,2.294339425245761,103.04082161687496
3620.762,2.2998695539492204,143.8496387632194
3621.595,2.303457341553699,185.74102394101257
3622.4302,2.3026942590927137,110.90504893005802
3623.2634,2.2976837795524703,159.62418633760046
3624.0989,2.2911851312550975,231.99950859112388
3624.9326,2.286997066531816,107.335380727683
3625.7686,2.2873161390059518,117.31013613523459
3626.6028,2.291165399407657,157.38878172174626
3627.437,2.294930728189795,137.62731810804988
3628.2734,2.2946886900989876,137.8305446540889
3629.1082,2.288622878406263,269.19709287379567
3629.945,2.2779929094591043,123.67065179347053
3630.78,2.266530956326818,151.84130395393424
3631.6174,2.2584452364310788,188.03344263286363
3632.453,2.2563943311576193,165.41955534777074
3633.2883,2.2596051144211255,130.19743694753984
3634.1262,2.2640314306796934,126.71021097172893
3634.9622,2.2647213674200715,153.44316271294798
3635.8005,2.259425434429999,156.4656042664571
3636.637,2.250439377929941,159.93999112973526
3637.4756,2.242907751159174,221.5313742604821
3638.3123,2.2412001121621428,125.44838950627629
3639.1492,2.246045643960319,141.45541067784694
3639.9885,2.254810187135313,124.57959188418033
3640.826,2.263589984641491,244.21664615788183
3641.6653,2.2695544622675365,158.30640918667785
3642.5032,2.271643859359313,118.13681068990869
3643.343,2.270280883068974,158.73626050048665
3644.1812,2.2665274586455135,147.56624213456402
3645.0195,2.261494081374496,156.35990839871394
3645.86,2.2561234071063123,133.9435224471484
3646.699,2.2510912941708443,222.9088057297694
3647.5398,2.2464297209981012,139.18928538828058
3648.379,2.2415390739459777,120.99433687036604
3649.2202,2.2356796276916455,167.05169701305212
3650.0596,2.229004583867703,113.99156774479422
3650.8994,2.22289253177896,144.77059270913884
3651.7412,2.2195129833734843,277.1791803845646
3652.5813,2.220718507420054,199.16006514311033
3653.4236,2.226843222356908,142.63786215577727
3654.2642,2.235979976762394,158.47139523424028
3655.1067,2.24446928227237,166.26605225489962
3655.9475,2.2484487657208194,143.48901002168824
3656.7886,2.2460509165430596,143.3950838257241
3657.6318,2.2383419213189297,207.7007203157847
3658.4734,2.22882962781994,138.6861136029949
3659.317,2.2216070437423907,144.10372275128114
3660.1587,2.2195481668171078,224.5368496694069
3661.003,2.222794281217522,138.98985427674214
3661.845,2.2285823070047552,138.22031295339335
3662.6875,2.2328385588900836,157.8782819716613
3663.532,2.2328478233544233,145.04264425585038
3664.3748,2.2293893206063533,175.56614928213503
3665.2197,2.226682433631505,166.24656304304372
3666.063,2.2301376699557958,157.06281564847836
3666.9084,2.243110566476392,167.71743738861144
3667.752,2.2642516289178185,134.84819147755394
3668.5977,2.287314997658281,151.54666877396173
3669.4417,2.3031609481434363,137.20353658416622
3670.286,2.30453560612069,90.43420810511918
3671.132,2.2899840703989147,149.97517749382357
3671.9768,2.265111984766267,157.6101087421814
3672.8235,2.2390354960647505,265.2800261995187
3673.6685,2.2192201338184585,194.13718123811978
3674.5156,2.207599345526168,143.39840590656192
3675.3608,2.2017249837344837,182.5651744278217
3676.2063,2.1980934954015074,182.51907340098217
3677.0542,2.195146858553157,227.68276876788872
3677.9,2.193666681467967,210.6515103221326
3678.748,2.1953803066101867,207.6610527544592
3679.5945,2.2013535595432874,176.05023406107208
3680.4429,2.2108670853971795,179.30461329922497
3681.2896,2.22092271865231,191.92342321759133
3682.1365,2.2272263016673604,155.81480625325617
3682.9856,2.226293927066398,160.42305245088673
3683.8328,2.2179128138229713,175.85212052085845
3684.6824,2.2057889432507194,136.13052057443818
3685.53,2.195708098945349,150.5225368276852
3686.38,2.1918376221688654,162.4909493546436
3687.2278,2.194374818542054,215.27137159147225
3688.0762,2.1998218436582477,143.46162407421946
3688.9265,2.203761662103484,156.13355736300605
3689.7751,2.203597956864328,199.96579391231543
3690.626,2.199544251374276,198.4425040991416
3691.475,2.1938367680389073,162.05483614721
3692.3264,2.189370356332074,214.1773848564903
3693.1758,2.188549291483548,179.7045766774533
3694.0254,2.192025618796047,154.58499186870162
3694.8772,2.198104133568716,120.86575883876726
3695.7273,2.2034161909639725,166.6411397413044
3696.5793,2.2050658963517673,163.54282391319063
3697.43,2.2024469278175136,126.69758323519758
3698.2825,2.197509536486181,136.65806984170467
3699.1333,2.193184411682995,234.07532628956358
3699.9841,2.190981746460306,226.34453255232958
3700.8374,2.1897423712681077,233.45013806966855
3701.6887,2.186615540704743,125.57446326631693
3702.5425,2.179596228596326,126.64636806744356
3703.3943,2.1693881210620534,185.7415831751986
3704.2483,2.1585858024286027,167.22303876876506
3705.1003,2.1497380742295342,142.18220255887826
3705.9526,2.1439809391223945,159.3019825642226
3706.8074,2.1415499895690857,168.18275649410043
3707.66,2.1424295003975717,182.07738570905198
3708.515,2.1462285903040765,160.18858836891184
3709.3682,2.151768124661571,208.7778291870373
3710.2234,2.1571818959663998,159.07591973895774
3711.0771,2.1602996106500494,130.037417755308
3711.9307,2.159301869203895,147.8259713107492
3712.7866,2.153373470399709,139.51530164787638
3713.6409,2.143476295352138,162.58600603512485
3714.4973,2.132210257751949,172.60836889958702
3715.3518,2.1228294165979715,224.9810398709892
3716.2085,2.1175471710186056,169.86500684236108
3717.0635,2.116940074197005,233.0721209816247
3717.9185,2.120122541451926,188.13033174351364
3718.776,2.1255244382718685,169.56223875472512
3719.6313,2.131307152491653,140.38855217450342
3720.489,2.1356972809466166,289.8075430197424
3721.345,2.1372271191542818,142.00467704764043
3722.2031,2.135503588660932,159.14616953953214
3723.0593,2.131853160380785,165.73866665391543
3723.9158,2.128944568238912,172.57353086310826
3724.7747,2.129043763838445,155.00962868804672
3725.6316,2.1320550961998515,143.51456042698027
3726.4905,2.1353633446274536,162.0443659501066
3727.348,2.1359412082627833,149.41542461273278
3728.2073,2.1329439790280564,184.18302977750733
3729.065,2.128260334843991,163.93691696428817
3729.9229,2.124606379440603,168.23920224069263
3730.783,2.1232184046525187,189.49363560962493
3731.6414,2.1231468478612534,129.29590018871554
3732.5017,2.1223799002973274,191.8589070641275
3733.3604,2.119535446601532,176.24622254574209
3734.2214,2.1147483530017217,249.92146457273205
3735.0803,2.1095809796904414,180.7119942620045
3735.9417,2.1060677764135924,140.62011443881983
3736.8013,2.105680701237307,179.19711691232
3737.661,2.108397985183679,184.00686467368885
3738.5227,2.112725615182851,183.8796068878804
3739.3828,2.116598861989345,178.98411754354737
3740.245,2.118695927534087,174.27530763108663
3741.1055,2.118832305438601,194.50038361694135
3741.9683,2.1173497303119713,167.62387364057406
3742.829,2.11429764531409,238.56650995791813
3743.69,2.1094829336660714,191.67772773471864
3744.5532,2.103242479421853,181.88490968259066
3745.4148,2.09685379639864,182.6884446563795
3746.2786,2.0916613096323062,205.9411855208357
3747.1404,2.0880331887960564,209.30700518926497
3748.0044,2.0850534920560517,161.767914642387
3748.8667,2.0816134194070295,206.5150282968822
3749.729,2.0775384325128354,164.20167020731003
3750.5938,2.073811467444547,168.45552008256863
3751.4565,2.0718527420218833,158.50808551992714
3752.3215,2.072674310321486,171.80146155182237
3753.1848,2.0767644392809057,182.90706539118187
3754.0503,2.0842948838803017,169.29723937958906
3754.9138,2.0948539103400865,161.97478413058425
3755.7776,2.1070521729092277,222.8495872957766
3756.6438,2.1185421685914996,186.91605226030026
3757.508,2.1269440205264436,194.42319752236043
3758.3745,2.131216130406202,144.39619278821797
3759.239,2.131778120084601,183.50621076386116
3760.106,2.129884235170251,191.12298766009317
3760.971,2.1266951117074324,146.74637076261013
3761.8362,2.1228007657778205,180.25159757676352
3762.7036,2.118278411257718,163.86161838883103
3763.5693,2.1130983079484182,187.76487055821173
3764.437,2.1074439806703444,146.86917812964197
3765.3032,2.1018098606169824,177.6340363596918
3766.1714,2.096430227047715,165.01131879667753
3767.0378,2.0909787616618942,128.32190513019242
3767.9043,2.084870845530743,136.35118594671835
3768.7732,2.078108354201764,164.6196025247231
3769.6401,2.071559016158463,180.8449300817211
3770.5095,2.0661399257953708,159.69128730361453
3771.377,2.0622447530468495,198.33975401436584
3772.2466,2.0598092509225605,183.3251166722255
3773.1145,2.059067153440797,151.9545380718272
3773.9824,2.0607017910861103,246.12772114392195
3774.8528,2.065268519359754,208.20306287272226
3775.721,2.07221156834034,148.4685823285913
3776.5918,2.079537000590435,306.09487883723745
3777.4604,2.084410457528821,168.06511361207114
3778.3315,2.0851171921059737,268.99025200905925
3779.201,2.082549033451912,172.44881625669143
3780.0703,2.07979371247569,151.06138712084234
3780.942,2.0796649946884322,176.43999190710758
3781.8118,2.0825515566529154,169.64855868804293
3782.6838,2.0865949493300042,148.78429458113655
3783.554,2.0895523575290595,138.22879587239058
3784.4265,2.0902305900123292,191.7228671633379
3785.297,2.088305913105645,239.90367097709466
3786.168,2.0837294856684183,185.32478487105612
3787.041,2.076788693293825,159.0313207786132
3787.912,2.0687199519093933,202.010858240502
3788.7856,2.061471600980348,162.08419340745073
3789.6572,2.0567723965581735,190.20357172632797
3790.531,2.054907962561551,185.07314114396536
3791.403,2.0547105322780315,166.6028535363233
3792.2754,2.05433020604732,174.57364043864
3793.15,2.052071473663405,222.96780175498145
3794.0225,2.0466723426997078,191.56396348269834
3794.8972,2.037186614524917,198.72219497388258
3795.7703,2.0231919208190954,167.79855494853692
3796.6455,2.0049884206086075,210.99862335758792
3797.519,1.98425477212679,154.61980061774685
3798.3926,1.9638967823682982,178.84268758700242
3799.2686,1.9476618730527853,278.6951797788271
3800.1426,1.9391532067493487,262.623207791612
3801.0188,1.9402922672686058,171.26712794885813
3801.8933,1.9507801234801927,186.667408695528
3802.77,1.9683748652552884,198.82107428255563
3803.6448,1.9896562469463255,179.37759112889427
3804.522,2.011400646749475,132.24432894822587
3805.3972,2.03101220509723,195.55027925689484
3806.2727,2.0473056626788932,187.41583550326567
3807.1504,2.0603005831889667,142.577797163796
3808.0261,2.070842689685927,197.8964296614928
3808.9043,2.080178158416794,154.8179023950019
3809.7805,2.0888214128775835,177.94118270950563
3810.659,2.096017428174273,153.44787989609694
3811.5356,2.0999329215877194,185.10906386891338
3812.4126,2.0994663265836198,131.7048022196427
3813.2917,2.0958974583004415,180.86685773441837
3814.169,2.0927765930642646,201.16638021308475
3815.0483,2.0934421740476954,229.40097076480606
3815.926,2.0984708413431106,161.52372949021083
3816.806,2.105377894732775,204.32653479453313
3817.684,2.11054761154145,179.62435070832458
3818.5623,2.11148382765579,173.29984981685874
3819.4429,2.107320055519662,145.23326752669132
3820.3215,2.098192817586743,149.34706510909677
3821.2024,2.0845402858340756,176.42206171028894
3822.0815,2.0674204443651147,157.4604023523916
3822.963,2.048597554004647,165.71280750086345
3823.8423,2.0303825882971207,203.89319702943902
3824.722,2.014134666530958,168.47098203704442
3825.604,1.999551371620068,194.22485226073135
3826.4841,1.9851865748975943,208.2110157374695
3827.3665,1.9696573192270088,192.92305667757955
3828.2468,1.9531811705829059,235.08774571623312
3829.1296,1.9372357523055619,204.55943628092183
3830.0105,1.9235052410989515,212.31013435246913
3830.8916,1.9119747815660186,275.0971675958238
3831.7751,1.9004890586323717,175.05045400138312
3832.6565,1.8858556896076453,188.05683845425128
3833.5403,1.8656823628243997,243.60838828930684
3834.4224,1.840644918255912,250.54699713556482
3835.3064,1.814915686677257,208.02557345022785
3836.1887,1.7954292895512123,222.39007367047572
3837.0713,1.7884670482338885,229.88104090799598
3837.956,1.7963880837004242,196.92200163712516
3838.839,1.8160577941869724,299.44854718166
3839.7244,1.8411687615733376,196.6209655447831
3840.6077,1.8659843132743417,236.78816162399588
3841.4932,1.8883398974687615,248.92481528026696
3842.377,1.9087988241046268,210.1308212779931
3843.261,1.9289638225988688,257.53057319586094
3844.1472,1.9497897471454817,189.77821334993072
3845.0315,1.9712388684523439,214.65178546649497
3845.9182,1.9931234732446093,177.68404835445926
3846.803,2.0149426728591995,192.2870240527726
3847.69,2.03600083347038,210.14649515171058
3848.5752,2.0546634899682252,170.3174485712471
3849.4604,2.0690198904435646,146.79813022830805
3850.3481,2.0777042445837717,198.96053501966227
3851.234,2.0806755372610666,149.83852678478254
3852.122,2.079277859626244,191.25791528060088
3853.0083,2.07539931387184,224.84165354098306
3853.8967,2.0707888947906334,155.1748877378615
3854.7832,2.067015143724425,146.31895954515113
3855.6702,2.0656084019829226,189.30890209397535
3856.559,2.06799665173969,163.89930163558412
3857.4463,2.074822443369292,178.4839639077211
3858.336,2.0853806698542807,197.5041854055567
3859.2234,2.0975804485354095,161.00919225034835
3860.1135,2.1090263642128426,193.85866516758432
3861.0015,2.1177533679638607,165.13385764832316
3861.8896,2.122836548831076,161.5030316608081
3862.7803,2.124118500435975,178.11718355157805
3863.6687,2.122091976152771,186.52328251800233
3864.5598,2.117865473064085,150.46777048824427
3865.4487,2.1129036735316644,189.23889425833747
3866.34,2.108269508488941,226.96248055559093
3867.2297,2.104141574743776,173.25736592331378
3868.1213,2.09986745163601,217.83046566942548
3869.0112,2.0947307816913745,152.3464076294835
3869.9014,2.088299367923561,184.71271604611732
3870.7937,2.0801750946875344,181.94195402445385
3871.684,2.0697964532398725,169.13902861028998
3872.577,2.056786186484104,180.99008520281774
3873.4678,2.0419705435035023,154.5126552729671
3874.361,2.027034327147066,208.4803250862676
3875.2524,2.0135100473317333,222.65291600593955
3876.1438,2.001334955995839,176.6185102182632
3877.0376,1.9891809830300076,185.0588282164797
3877.9297,1.9758919188707638,215.68717757941943
3878.8237,1.9612501635279511,182.4902370460631
3879.716,1.9458582215760587,209.00396502459628
3880.6108,1.9298486500888616,181.60880770048163
3881.5037,1.912579249441851,255.8060010419963
3882.3965,1.892606368960918,204.08253763774292
3883.2917,1.868330853189203,208.50771378625868
3884.185,1.8386548667701144,208.57065505217219
3885.0808,1.802758843937595,191.37270409764375
3885.9746,1.76083271744791,209.07509248943322
3886.8706,1.713556521002808,209.70478302350844
3887.765,1.6633071984994412,303.39582797962953
3888.6592,1.6142216355706303,250.84508597867546
3889.556,1.5727589057051325,335.7778756692298
3890.4507,1.5466397412061637,460.3306279098885
3891.348,1.5410971257034936,470.9654286147016
3892.243,1.5565417477995669,257.84464370351213
3893.1406,1.5883335500909797,422.1989820205089
3894.0361,1.6290761120327708,225.9678635979689
3894.932,1.6723102646122414,258.15721264365703
3895.83,1.7139757347578888,310.026831647988
3896.7263,1.7519386134298551,268.62396223778455
3897.625,1.7857851049146816,255.14295566463744
3898.5215,1.815556677539205,231.2666804578298
3899.4207,1.8425364940281734,233.11214003809894
3900.3176,1.8685581945790715,253.1893019173772
3901.2148,1.8956259988187285,233.16421108739627
3902.1145,1.924224251832284,287.44364931681713
3903.0122,1.9523983341535,206.45273735264306
3903.912,1.9772314190166262,216.97543550219552
3904.8103,1.9964824191250683,233.46316160895194
3905.7107,2.0105234793363502,146.4900042287058
3906.6094,2.0217326370350204,241.40739210205166
3907.508,2.0331273154483025,175.28114758166024
3908.409,2.0467370232137947,193.05580263001042
3909.308,2.0628824056023167,172.07519573553583
3910.2097,2.080549958899995,180.79223447611545
3911.1091,2.0976337639830627,183.51125199165887
3912.011,2.1120848771882117,137.91807249873705
3912.9111,2.1225688865676666,183.91454890719405
3913.8113,2.129333831258606,165.63954240844376
3914.7136,2.1338028312910162,178.167223693587
3915.6143,2.1375675355453785,203.72755891823815
3916.517,2.1415395106045194,140.15369509430957
3917.4182,2.145662003524843,175.68089328783552
3918.3215,2.149376123071837,176.46419128856462
3919.223,2.1521013446428623,165.1390057904384
3920.1245,2.153644964359794,167.37783336814138
3921.0286,2.1542056388033766,168.07052611280267
3921.9307,2.1541825468893085,187.30699174923438
3922.835,2.1539712794595944,177.16653159414832
3923.7373,2.153963452048515,209.16100181874788
3924.642,2.154737551169473,188.76213160650946
3925.5452,2.15711362129423,141.99634408683565
3926.448,2.1618113698930808,165.34482570295015
3927.3535,2.16886806907613,184.07624526341272
3928.257,2.1772202575638655,279.88838987273715
3929.1628,2.1851874745878574,149.77521448989742
3930.0667,2.1911746562309293,151.8984989654739
3930.9731,2.194451440939262,151.3380845092879
3931.8774,2.1950594045501517,196.2573668475628
3932.782,2.193403690563509,197.61365765274044
3933.6887,2.1896869754163637,162.67374151430425
