wavl,flux,ivar
3566.9744,0.28207946030238773,3049.9147495693733
3567.795,0.2842263143409299,1951.9315346567523
3568.6177,0.2853519894101652,4710.229527961605
3569.4385,0.2856118970283952,4029.1306154928943
3570.2617,0.28549531887933505,3064.8467602126657
3571.083,0.2854616693785201,2294.4072999889977
3571.9065,0.2855666761913312,5176.555069390176
3572.7283,0.28543644048387506,3347.381589230524
3573.55,0.2846672169945986,2825.9896649136836
3574.374,0.2832531041605812,3734.5780336444495
3575.1963,0.2816600693007231,4965.670825258505
3576.0208,0.2804642350449007,2561.717242213247
3576.8435,0.2799340230544861,8568.9411399088
3577.6682,0.27978791703598443,3047.8796550323204
3578.4915,0.2793767979327133,3087.1616902947653
3579.3145,0.2781378576907879,2487.3917032898075
3580.14,0.2759792816090639,5804.626596923432
3580.9636,0.27333349394811096,4615.258906748608
3581.7893,0.2708195716512775,3433.24728438377
3582.6133,0.2689513691587669,3103.7654635022914
3583.4395,0.2679718945266785,1974.54454757209
3584.264,0.26796282318037296,4011.7512922139194
3585.0884,0.26893852359718085,2989.3268848165917
3585.915,0.27086507470104193,3694.4090172087294
3586.74,0.2735064218866244,3053.2428975307917
3587.5671,0.276347503861461,4071.4625533685794
3588.3923,0.2786600573586976,3189.944390870548
3589.22,0.27991367974818343,2802.6845031995827
3590.0457,0.2800772741887208,2864.4866040334327
3590.8716,0.2796359208149322,2926.5539314942143
3591.6995,0.27919740074182786,2849.8444216597036
3592.526,0.27910291034314316,3627.177014852945
3593.3542,0.27931654243290344,3121.46936675404
3594.181,0.27960125092331006,2778.1787641708834
3595.0098,0.2797464136631147,2692.177765171453
3595.8367,0.2796660396352622,3086.4987969347644
3596.6638,0.27935719096335876,3032.57241249804
3597.4934,0.2787930391030859,2389.4956303624786
3598.3208,0.2778871726075865,6183.607595479201
3599.1506,0.2765537133370796,3061.3144908250406
3599.9788,0.27484813854833023,3915.567422804457
3600.8088,0.2729742964973082,2085.8471332160916
3601.6372,0.27120278231305356,3928.3524249402253
3602.4678,0.26967917866709934,2723.552823316274
3603.2964,0.26838688752808426,5982.591009044417
3604.1252,0.2672027080217669,3172.7195992928346
3604.9565,0.2660811016606612,1790.5907866557768
3605.786,0.26518187205290833,2558.309042017255
3606.6172,0.2647939711052741,4397.13794161227
3607.447,0.2651241652091548,4241.4405028864185
3608.2788,0.2660919656895768,3351.9806188681578
3609.109,0.2673502497021391,2627.2717054500754
3609.9392,0.2685162389306613,3240.3639989524236
3610.7717,0.2693640938457982,2452.9917784031786
3611.6023,0.26987789348272456,6341.377090995373
3612.435,0.27022092744328147,6751.548805412636
3613.266,0.2706157593353014,3510.2978485751764
3614.0994,0.2711715967511239,3894.965280019042
3614.9307,0.27171315321299366,4680.971645547428
3615.7625,0.27185197993763177,3368.903945627668
3616.5962,0.271300739844398,2204.1021620150987
3617.4282,0.27017533524870496,2636.734032257271
3618.2625,0.2689306574581617,3312.060086332801
3619.0947,0.2680349438062786,3823.306655601047
3619.9292,0.2676699512248738,2730.941745351017
3620.762,0.2677392976314291,2970.593169560202
3621.595,0.2680202937236274,3656.576565279598
3622.4302,0.2683174605686059,3959.8387552287572
3623.2634,0.26852930823492316,3771.700837598851
3624.0989,0.2686375534936185,2573.8593655536106
3624.9326,0.26859906650700915,4657.085741671447
3625.7686,0.2682425903309828,7963.325805599766
3626.6028,0.2673220778052066,3032.1033852234737
3627.437,0.26572808668539544,3892.2614583742084
3628.2734,0.26362800802774805,3863.1075970976385
3629.1082,0.26135326763495037,4334.568151159557
3629.945,0.2590660403453637,5055.0091574664375
3630.78,0.2566793436157301,3116.9542787156424
3631.6174,0.2540162901131777,3793.2096738628697
3632.453,0.2511829416166448,7184.429476315652
3633.2883,0.2486321695495207,9884.03621605873
3634.1262,0.2469637627629227,5012.364334536618
3634.9622,0.24654773126676693,4499.337362769715
3635.8005,0.2472660399562791,4116.983691720178
3636.637,0.2486447517357919,4846.306836874069
3637.4756,0.2502060390309437,3868.915536332966
3638.3123,0.2516640629872325,5384.105179199283
3639.1492,0.2528898923934476,4400.962193038641
3639.9885,0.2537570552800145,3517.6885384550615
3640.826,0.2541528864539673,4759.903688142443
3641.6653,0.25411882865289787,3680.7231008713634
3642.5032,0.25386109391313294,3080.165607721628
3643.343,0.2535924499222345,3083.544239759768
3644.1812,0.25334957145560955,3094.782669183173
3645.0195,0.252961220096345,3719.1239384318205
3645.86,0.25220730969618205,10316.35954071297
3646.699,0.2510504110643775,2935.672369053071
3647.5398,0.2497295830558178,3979.637706459896
3648.379,0.2486518212740864,4180.972380729998
3649.2202,0.24809591984263768,4670.426260598858
3650.0596,0.2480465024577203,4867.662697187266
3650.8994,0.2482532005034224,18691.69440229667
3651.7412,0.24845258348285043,6812.153914446205
3652.5813,0.2484994687429815,4074.5462010229376
3653.4236,0.24834304195773363,4961.3912515941465
3654.2642,0.24794137209426184,2583.0015087341253
3655.1067,0.24723447376790117,5621.691783294282
3655.9475,0.2462158224723687,5418.365848258529
3656.7886,0.2450155733217692,2460.0913755546876
3657.6318,0.24392753466080463,6494.415846002939
3658.4734,0.24330906371057964,7864.958200204724
3659.317,0.24336689381225554,4712.537529573703
3660.1587,0.24400246226832617,5918.254682586349
3661.003,0.24480551305147558,2736.8942110141284
3661.845,0.2452425961614235,3885.1112842030398
3662.6875,0.2449935083530636,4909.292834876799
3663.532,0.2441735121639106,5799.522955931132
3664.3748,0.24329654433266987,6243.020537694256
3665.2197,0.24293912508869653,2103.477692659145
3666.063,0.2433799520949676,4193.947043946854
3666.9084,0.24444109151846183,4419.060975407761
3667.752,0.24562835287548077,3609.1728646121223
3668.5977,0.24644610773366876,8054.8613239730375
3669.4417,0.2465967282798017,4297.13116701878
3670.286,0.2460431986789897,2575.541667190274
3671.132,0.244957122439102,4682.304182641529
3671.9768,0.2436924827498053,3543.61107566126
3672.8235,0.24270932035430026,5216.246109066661
3673.6685,0.24243518819291704,7367.587632476402
3674.5156,0.24302180596169484,2911.9234659776994
3675.3608,0.2442010198336664,6102.160535107599
3676.2063,0.24540612758848235,4276.00254460719
3677.0542,0.24611963284523777,4142.909144310847
3677.9,0.24620725945923316,3249.769229676106
3678.748,0.24599461196716194,5699.118611959423
3679.5945,0.24601825504743086,7677.7974544440185
3680.4429,0.2466695836607338,4259.986907971774
3681.2896,0.24794617014760723,6231.589566030834
3682.1365,0.24942853867172307,5225.713210355141
3682.9856,0.25045619707359845,3515.1322818029585
3683.8328,0.25046040486590015,2888.2103064132257
3684.6824,0.24931203428771168,3344.765372228365
3685.53,0.24739157150290025,6481.116445675692
3686.38,0.2452730455108585,6351.232875305745
3687.2278,0.24334570179833595,5158.7882701130875
3688.0762,0.2416016150580687,5488.856765054902
3688.9265,0.23979049930389323,4041.778396637884
3689.7751,0.23770222659834836,5092.174086839323
3690.626,0.235368525148914,5849.316206855073
3691.475,0.2331763207259052,6755.88027826898
3692.3264,0.2316743141573496,7184.376177363976
3693.1758,0.2312560744069815,2718.76879399462
3694.0254,0.23183953314544922,3329.8845406730184
3694.8772,0.23294913605375414,4298.796346534496
3695.7273,0.2341039034868786,2681.8398313028533
3696.5793,0.23521621685870153,2667.6506260478614
3697.43,0.23656102980362573,5032.091382855698
3698.2825,0.2384008647194876,5770.828823306491
3699.1333,0.24056605424144872,4931.40880253916
3699.9841,0.2424812332204993,3429.9756336367736
3700.8374,0.24356175810062777,4529.755595539759
3701.6887,0.2436289763257989,3829.2286546616206
3702.5425,0.24297777385296582,4294.744186429492
3703.3943,0.2420719526465617,4372.741506854551
3704.2483,0.24122099531327956,3870.0522473628666
3705.1003,0.24051466817282935,5792.457401923064
3705.9526,0.2399165909080612,4396.431291877425
3706.8074,0.2393793079230965,4655.061114549985
3707.66,0.23886561617258933,6775.67937067326
3708.515,0.23832643349655003,3870.6853603129252
3709.3682,0.23775304106059844,4950.740597664501
3710.2234,0.23724857362771787,5894.4182852375
3711.0771,0.23706467917147978,6638.394957001384
3711.9307,0.2374990909065441,6237.200906701161
3712.7866,0.23872085603671883,6578.44146642741
3713.6409,0.240579742038149,4003.8785088371546
3714.4973,0.24256695460336763,5221.016352366
3715.3518,0.24392320897926284,5270.466019316011
3716.2085,0.24401821647923547,3333.916463882409
3717.0635,0.24274301944504104,4138.543396873845
3717.9185,0.24070480428217583,3135.396969962627
3718.776,0.23896969367180895,3301.741869503304
3719.6313,0.23850667270699943,8301.066742733654
3720.489,0.2396336108083792,5095.962705889087
3721.345,0.24188039634967506,3345.5071869196636
3722.2031,0.24428477340595292,3693.954758629331
3723.0593,0.24582890705304924,8283.688522145816
3723.9158,0.2458588265593014,4493.318923527581
3724.7747,0.2442163317184806,3695.9515630125366
3725.6316,0.24124517113627317,4555.736226358818
3726.4905,0.23761896981173306,5918.701441117166
3727.348,0.2341786326129814,3902.362947685531
3728.2073,0.23165156529826922,4177.578863207577
3729.065,0.230494677448194,7455.863733415981
3729.9229,0.23072767427390325,4998.347300852962
3730.783,0.23197178098149548,5853.921852991075
3731.6414,0.23361644483025146,6408.487229994248
3732.5017,0.23514291740370036,3564.766567202367
3733.3604,0.23631783886912328,4383.8644554466255
3734.2214,0.237182309441234,3759.373186403014
3735.0803,0.23780630004158027,3407.424160296652
3735.9417,0.23814320407255787,5392.755214377574
3736.8013,0.23807974199310278,4979.365969386342
3737.661,0.23764979217191617,5883.382653788204
3738.5227,0.23714573600018293,4337.167790037264
3739.3828,0.23699756753122758,4192.628536308828
3740.245,0.2374598798371749,4756.167880014667
3741.1055,0.23838697411526352,4734.058457805493
3741.9683,0.23933427388464515,3984.94833386938
3742.829,0.2399038796615886,4164.438232029316
3743.69,0.24005693032940303,3957.32476817668
3744.5532,0.24006931607662294,3154.881686611679
3745.4148,0.2402460661246531,5270.172707935708
3746.2786,0.24069051172233433,4842.047645248474
3747.1404,0.24132782485020568,4107.281585016423
3748.0044,0.24210131152683093,4462.955946871552
3748.8667,0.24304760666539627,3963.3559494493984
3749.729,0.24418521876769858,6841.3761541923395
3750.5938,0.24534984895868864,4430.177693085747
3751.4565,0.24620808118001128,3142.9957802544263
3752.3215,0.24648738374542317,2744.9461476291276
3753.1848,0.24613567840797623,2687.3777990934695
3754.0503,0.24528322407999145,5106.946986558239
3754.9138,0.24405062033262628,2156.5782505247776
3755.7776,0.24241615451006385,4015.2697934939993
3756.6438,0.24032177272824412,2928.2851898931626
3757.508,0.23791789717429956,4116.728208679838
3758.3745,0.2356178587455876,3854.677668379951
3759.239,0.23397704973697986,4620.327139986155
3760.106,0.23335849190617305,5481.06711559676
3760.971,0.23375458502113522,4089.715590465705
3761.8362,0.23479043608452946,4297.147862673121
3762.7036,0.23595995103867998,2838.3064439287195
3763.5693,0.23687936904372053,3868.2775830434375
3764.437,0.23740903122606846,3806.288380937579
3765.3032,0.237521663042047,4477.266888563492
3766.1714,0.23714055117699148,6477.488334620497
3767.0378,0.23613360349475962,3314.547696954315
3767.9043,0.2344913338773091,2859.2217841512493
3768.7732,0.2325038281802342,5176.571344628891
3769.6401,0.23077590541368695,4482.960018384529
3770.5095,0.2299689586920043,4983.615986948622
3771.377,0.23052255704078636,4335.519950965576
3772.2466,0.2324539744692987,6508.112389310306
3773.1145,0.23538182574852398,3733.114901490473
3773.9824,0.23872074075699026,2598.7397506051734
3774.8528,0.24181682968994514,3511.21737412494
3775.721,0.24399286618056126,3478.423305207241
3776.5918,0.244744171218215,4734.194129994055
3777.4604,0.24393576232946296,4045.6115167738762
3778.3315,0.2419362230253539,8347.718628457673
3779.201,0.23944565075965993,4129.188224965982
3780.0703,0.23713919285283372,3899.416335600714
3780.942,0.2354869296946763,5073.187035044832
3781.8118,0.2347704655895644,6832.872827427267
3782.6838,0.23508208176862014,5395.3073964242485
3783.554,0.23626147669640293,5446.956040242788
3784.4265,0.2378433832577827,4949.5378500382985
3785.297,0.2391680502955068,3658.314591977589
3786.168,0.23971189485832178,3004.958338272273
3787.041,0.23932010232315845,3941.918087778442
3787.912,0.23819094681481334,4214.432967316515
3788.7856,0.2366089459213225,3612.29491774628
3789.6572,0.23476908474194916,3931.3845769860186
3790.531,0.2327981945290036,4649.154163643229
3791.403,0.23092736725299542,3789.946738004007
3792.2754,0.22941531462541748,6941.458865618262
3793.15,0.2283295972542433,3073.2806963455682
3794.0225,0.22741288483907238,4686.108422546698
3794.8972,0.22624614074111463,3924.715134948693
3795.7703,0.2246503985360603,4168.03662975189
3796.6455,0.22289292054747223,5230.991048648027
3797.519,0.22155420152462296,4987.204831490779
3798.3926,0.22107909512346716,6516.379522539548
3799.2686,0.22148511843239363,4294.775675731802
3800.1426,0.22241510156342625,5252.568335621252
3801.0188,0.22347715150802114,4873.942254103985
3801.8933,0.22449951245555647,6061.31380393773
3802.77,0.22554487291682768,5254.822928918162
3803.6448,0.22671367309991877,6553.332034046129
3804.522,0.2280508722644836,3887.895317834799
3805.3972,0.22956876058868209,3733.0731401758485
3806.2727,0.2313479324903283,6590.1842044893665
3807.1504,0.2334751961881099,6256.886539213947
3808.0261,0.23585409389791054,4051.3389685151033
3808.9043,0.23813159684172044,4644.980230618343
3809.7805,0.23975835610092766,5259.928993312991
3810.659,0.2403224607097904,4756.716546711218
3811.5356,0.23982614313272363,3383.7960234880757
3812.4126,0.23878929207975338,4635.974666730806
3813.2917,0.23799158780858898,4710.3256385326695
3814.169,0.23801442725108743,3856.956506648074
3815.0483,0.2388852608319552,7269.875356859795
3815.926,0.2401262407438727,5131.211821266001
3816.806,0.24113247879618718,4687.5804578560665
3817.684,0.2415098698095213,5325.879478342537
3818.5623,0.24119857139851936,5767.511049999083
3819.4429,0.24035682168807854,5506.950332220154
3820.3215,0.23922173696577992,3700.6645710241432
3821.2024,0.23798920704914614,4135.306728443776
3822.0815,0.23678344249618036,3825.4114989221403
3822.963,0.23561963024196825,4105.003489848925
3823.8423,0.23442990736360042,5783.826869488925
3824.722,0.23306886879388447,3614.6402047952593
3825.604,0.2313764067365695,4032.7349190062355
3826.4841,0.22929730459148281,4563.358907416664
3827.3665,0.22696863914084495,5795.730119633001
3828.2468,0.22476348103715751,3867.586108397434
3829.1296,0.2230411631069112,5475.174385099799
3830.0105,0.2218730107929131,5208.3357763471195
3830.8916,0.22089361342402777,3858.4447749987894
3831.7751,0.2195785798034218,4459.662478796062
3832.6565,0.21770420679168961,5478.176708420622
3833.5403,0.21553657738872906,3818.765270630784
3834.4224,0.21362915154753293,4428.09979391782
3835.3064,0.21233040011890852,7573.216572910329
3836.1887,0.21157538503767886,9460.171166176222
3837.0713,0.2110282294573801,5456.163120159601
3837.956,0.21043439134009198,5255.282065720498
3838.839,0.2098184168513115,10646.255406760083
3839.7244,0.2094386982518764,4576.3494567357975
3840.6077,0.20966875247859962,7928.954786266171
3841.4932,0.2108946789172497,5049.304573290354
3842.377,0.2134008815140222,7903.173154770284
3843.261,0.21721943046102246,7346.440329533643
3844.1472,0.22200031361964032,6134.569957159335
3845.0315,0.22703338820106295,3479.9997582680817
3845.9182,0.23161932887577258,4399.372699478018
3846.803,0.23528996842575972,3890.7790084346266
3847.69,0.2379949391359875,4621.670199958614
3848.5752,0.2399148263571821,4279.827049012033
3849.4604,0.24134916068637494,4879.535048575489
3850.3481,0.2425997087327168,3402.8867722235263
3851.234,0.24388858704525124,7154.70660668809
3852.122,0.24529644769275413,3806.5703967520385
3853.0083,0.24671980370641364,3643.699723492329
3853.8967,0.24798987770066605,3428.427091512135
3854.7832,0.24895723971274789,4199.36225134703
3855.6702,0.2495466551714426,3980.6555625886726
3856.559,0.249730279228643,2975.865398793107
3857.4463,0.24954657556147206,4474.530813424748
3858.336,0.24913215015009857,3725.313618557491
3859.2234,0.24870466590191642,4018.9213166089216
3860.1135,0.24847184373280093,4456.5306935547305
3861.0015,0.24853993245747957,3771.5353488532905
3861.8896,0.24884720713132347,4530.872015940204
3862.7803,0.24917461831789509,4880.891399224019
3863.6687,0.24923335597486856,3805.1050591821772
3864.5598,0.2488092390149912,3214.6408101261377
3865.4487,0.2478515499150863,3178.242441922762
3866.34,0.24643333849475685,4176.981449995511
3867.2297,0.24467902223728963,2678.1168926418436
3868.1213,0.24269852195374966,5539.0009256545345
3869.0112,0.2406511615226133,5109.303566823205
3869.9014,0.23875564824796086,2740.798975946142
3870.7937,0.2372531664267454,4635.742732607138
3871.684,0.23627982166461858,3809.4534052484164
3872.577,0.23574161626393617,3534.112804289667
3873.4678,0.2353691461065782,4285.944852457174
3874.361,0.2348411385068465,4872.818610936201
3875.2524,0.23391139694938992,4174.243665990217
3876.1438,0.2324477638230789,4243.76912283622
3877.0376,0.23044410197301907,4378.389370569214
3877.9297,0.22802239535468255,4997.708014393953
3878.8237,0.22530500258887118,4727.633129293791
3879.716,0.22231116335657375,5701.685111728779
3880.6108,0.218844736790356,4357.37292136104
3881.5037,0.21466134618147242,5324.513579736279
3882.3965,0.2096565038984865,4699.046485286599
3883.2917,0.20408214847514308,7199.0282317667115
3884.185,0.1985840608342153,5897.654758543655
3885.0808,0.19383814952137446,7207.0082255548405
3885.9746,0.19029675491014478,10230.143479036384
3886.8706,0.1879095247836259,6514.490068115007
3887.765,0.18629445699775674,6974.844523345479
3888.6592,0.18501310286693534,6558.362929284049
3889.556,0.18390111831347347,5999.416214557367
3890.4507,0.18317297618178785,5748.715922220783
3891.348,0.18323443593677513,5702.4824340490895
3892.243,0.1843905960013525,8497.883512637418
3893.1406,0.1866621229538579,7551.240219495684
3894.0361,0.1898118418887333,6449.16372681191
3894.932,0.1935664276252897,10899.74353527157
3895.83,0.19771421013352514,11261.341653088662
3896.7263,0.20203803828698036,6234.899528011173
3897.625,0.2063401891852884,5983.922220702335
3898.5215,0.21041746413701812,8016.057937228028
3899.4207,0.21427004801698166,4329.157478329174
3900.3176,0.21804622181365488,5216.899075419269
3901.2148,0.22197110892277427,4627.783216890844
3902.1145,0.22608169481154125,2867.8744370954523
3903.0122,0.2300803571498198,9047.816033218996
3903.912,0.23354016988386472,3025.7895299720053
3904.8103,0.2361469215021251,4622.325335975953
3905.7107,0.23799329292379684,6761.953715640537
3906.6094,0.23949704200023456,5814.1339349958935
3907.508,0.24116563537717792,3817.064877953506
3908.409,0.24330809449336388,4889.793704441577
3909.308,0.24591372603102826,3282.335921017729
3910.2097,0.24878091372056496,3670.514553441641
3911.1091,0.25165281374919923,4253.984526081174
3912.011,0.2544070391844052,4794.217988660364
3912.9111,0.2570155993798689,4634.132849130533
3913.8113,0.25951751542551876,4747.506393113239
3914.7136,0.261914428502535,3280.285241854985
3915.6143,0.26411133445707385,4112.646525586151
3916.517,0.26598231816434403,4779.804556754977
3917.4182,0.2674397433553852,3673.7476115838413
3918.3215,0.2685882913857438,3343.265656127067
3919.223,0.2697075898738655,3831.635879560218
3920.1245,0.27108918076552335,3074.1276730744403
3921.0286,0.27277208271248177,2976.9265368211077
3921.9307,0.2744377474504256,3437.160079138652
3922.835,0.27563148595450043,3426.2371132645317
3923.7373,0.2760597301940181,2832.1294911304035
3924.642,0.2757861331433105,3370.816690648468
3925.5452,0.27513020408255495,3331.435510892086
3926.448,0.2744173675113936,3291.7084382774183
3927.3535,0.273775642202932,2982.3039544098892
3928.257,0.2731094669216297,3485.4034034661936
3929.1628,0.2722139164853797,2686.4402327477833
