wavl,flux,ivar
3566.9744,1.221421372857272,397.3069426699492
3567.795,1.2226891511593478,349.2530227046816
3568.6177,1.2205783600607778,380.2286598385936
3569.4385,1.2152559548451416,589.0081261623916
3570.2617,1.207773066140163,473.41854898367666
3571.083,1.1996758350764127,367.9314121026482
3571.9065,1.1923562958187575,372.42440812061284
3572.7283,1.186946949755538,349.7103717132213
3573.55,1.1840521492789111,330.0714229329872
3574.374,1.1836263471846378,323.11625654256306
3575.1963,1.1848785165922127,391.7340935910488
3576.0208,1.186559520754587,478.29470326531714
3576.8435,1.1875619142465044,265.33393628655745
3577.6682,1.1875191582770321,397.94477426209943
3578.4915,1.1869814262886649,438.5388238785125
3579.3145,1.1871203139618591,370.9762602445967
3580.14,1.1891473419089924,618.033652905525
3580.9636,1.1937140784608788,472.4341549699903
3581.7893,1.2005874541815198,427.60392181600935
3582.6133,1.2084988704788528,274.235290148067
3583.4395,1.2155891429771484,496.5252817925474
3584.264,1.220115921351069,252.83593692084838
3585.0884,1.2215883028269197,496.3005159923755
3585.915,1.221031162240286,388.59954858849073
3586.74,1.2201283425523863,372.84352339817445
3587.5671,1.2198101424201433,356.4003620831511
3588.3923,1.2197079541879592,248.94337177891117
3589.22,1.2188413324106657,371.7415750228449
3590.0457,1.216615733318987,393.5431820903805
3590.8716,1.2131642597739472,310.00508017063635
3591.6995,1.2091732837761997,352.9763837778055
3592.526,1.205706846157579,291.3198901997578
3593.3542,1.2039123346190144,392.2587378746285
3594.181,1.2045818112899112,379.65270664256303
3595.0098,1.2075951911419218,350.77128357259113
3595.8367,1.2117698707761477,331.64042552048136
3596.6638,1.2153320660502793,351.8060307448534
3597.4934,1.216699439337465,305.12406060979134
3598.3208,1.2153837768475462,276.15545528187437
3599.1506,1.212471408325137,304.42133447471696
3599.9788,1.2099873466733557,434.99105853175075
3600.8088,1.2091284144386252,386.64195972749627
3601.6372,1.2088787369184077,340.24597902468975
3602.4678,1.206505717920905,275.1746946534981
3603.2964,1.1999164802391313,373.16921061972806
3604.1252,1.1896502805669842,372.891366867054
3604.9565,1.178746402733959,317.763368576579
3605.786,1.1708512237986566,301.8232514620228
3606.6172,1.1679221993501914,477.4641619440877
3607.447,1.1696415099554918,291.8923165851501
3608.2788,1.1740885085386796,313.49390622380776
3609.109,1.1789812301090847,553.4461320278327
3609.9392,1.1826200670155531,298.2553457554508
3610.7717,1.184161320863227,353.90129326867407
3611.6023,1.1835629925193505,339.091710753495
3612.435,1.181317719449731,395.898052536441
3613.266,1.1780644490296572,533.8657548481623
3614.0994,1.174341614966396,313.60668276972984
3614.9307,1.1707933490615798,377.61642258407596
3615.7625,1.1683109792438586,383.1824913658624
3616.5962,1.1678905127311066,382.8601338128932
3617.4282,1.170096385210014,341.71696963906754
3618.2625,1.174710071810159,346.0583643848322
3619.0947,1.1808135134433508,424.7617461941994
3619.9292,1.187320714625737,305.1710774804875
3620.762,1.193242187035598,587.6315206898513
3621.595,1.1978233181952203,375.15579998593984
3622.4302,1.200257966045246,340.5713242092464
3623.2634,1.1996044391056226,383.85818822739043
3624.0989,1.1952577072989023,463.1494792556335
3624.9326,1.187772567966169,322.7574144045244
3625.7686,1.179113962125644,430.4298616603319
3626.6028,1.1719294999317162,371.6169225342884
3627.437,1.1678649732706987,510.5030579944144
3628.2734,1.1667322365820227,360.35782929737576
3629.1082,1.1669680006071215,360.2243371272723
3629.945,1.1667892196407745,412.15084760110733
3630.78,1.1649270416733526,348.7525503932186
3631.6174,1.160628384001132,298.06117990415765
3632.453,1.153641917294982,477.2374236659202
3633.2883,1.1443951318682763,506.5661404573409
3634.1262,1.1342573935803797,438.8005017479974
3634.9622,1.1254686169472383,367.3882878837865
3635.8005,1.1201631819610405,503.07510357931125
3636.637,1.1193770146737898,392.3159400919154
3637.4756,1.1221318048205677,398.8012157778605
3638.3123,1.1257117972511503,273.84038452708165
3639.1492,1.127053464481258,478.1656649031751
3639.9885,1.12428805031447,374.96126985584124
3640.826,1.117517463625501,389.3928022756908
3641.6653,1.1083590920803221,459.1879300337524
3642.5032,1.0992130575723074,519.2000139209379
3643.343,1.092513572369139,445.86137642321563
3644.1812,1.0903456460735605,522.5143967760015
3645.0195,1.0936132977560837,465.86644360553805
3645.86,1.1014712439954317,524.6939910907911
3646.699,1.1113227715709788,378.4934728041795
3647.5398,1.1200013916646856,442.84936960290725
3648.379,1.1249704699998064,395.30522090761866
3649.2202,1.1252585916068476,322.1506638528856
3650.0596,1.1214080066103964,337.1810948069257
3650.8994,1.115014265869754,670.6413872259911
3651.7412,1.1080475466960615,408.5178683448488
3652.5813,1.1022741427616296,395.94539161506594
3653.4236,1.0987111601229087,434.4765370432648
3654.2642,1.0976376479538967,438.1187843409457
3655.1067,1.0987723023798495,413.24966577763587
3655.9475,1.1015727792313623,383.2902217605127
3656.7886,1.1053295086779857,535.7152019748187
3657.6318,1.109208930298385,422.96520634728336
3658.4734,1.112483460869434,384.2670804234715
3659.317,1.114946031585463,326.7351431106843
3660.1587,1.1168232518305758,384.7807199941595
3661.003,1.1182989179872636,505.50782831961754
3661.845,1.1190113774328814,513.0606977829451
3662.6875,1.1182584812911467,567.671054836526
3663.532,1.1156980061381963,464.0460225932193
3664.3748,1.1119854180627016,393.47250915615905
3665.2197,1.1086391554769313,411.02374115069034
3666.063,1.1072903368532703,322.4131860294893
3666.9084,1.1085843423873918,400.0266372067029
3667.752,1.1115515660164739,500.95745817895295
3668.5977,1.113949250667554,426.72102366190205
3669.4417,1.113580125737796,365.310504064058
3670.286,1.1098851916303896,529.1292769487827
3671.132,1.1043946957930186,458.67585642223816
3671.9768,1.0996774666899742,496.3447987897861
3672.8235,1.0974032915934824,325.86204867510463
3673.6685,1.0973020663593072,372.8659577954161
3674.5156,1.0976139836216567,330.23042403574823
3675.3608,1.0966512763136278,374.73850235337864
3676.2063,1.0940583736237541,416.86063756723223
3677.0542,1.090811612115027,570.6444576182137
3677.9,1.088234071640785,520.9087658647002
3678.748,1.0869403910484372,395.8531848703461
3679.5945,1.0867469000254695,459.3451721112326
3680.4429,1.0871984542002717,421.3813747490881
3681.2896,1.0880425211459999,429.95784158202724
3682.1365,1.0891385613383437,466.95262761724535
3682.9856,1.0900985826143939,300.66894801819285
3683.8328,1.0902794370910236,493.81480088184094
3684.6824,1.089369335037372,463.2886593246142
3685.53,1.08811861167682,409.58404311140964
3686.38,1.088713585060631,494.1935002818788
3687.2278,1.0948721812737936,462.47839847626125
3688.0762,1.1120224340437195,427.0124317547583
3688.9265,1.1469562173565615,409.41622207967407
3689.7751,1.2042397199338868,434.46873005914347
3690.626,1.2799602974560105,463.3883956696325
3691.475,1.3551073303655428,435.5789033542273
3692.3264,1.4013337013469818,452.45748229841627
3693.1758,1.3964495717982335,486.6902881119986
3694.0254,1.3415748379830823,592.0920234146306
3694.8772,1.2606213073724888,608.6705441783613
3695.7273,1.1847221254054625,683.3926793648
3696.5793,1.132830315522562,636.9662848611642
3697.43,1.107130141597526,405.124127863245
3698.2825,1.098645351052179,248.57475787623088
3699.1333,1.0970305495567088,493.1142849790641
3699.9841,1.0957894687069634,377.11006818162707
3700.8374,1.0931980709930937,406.2413856943273
3701.6887,1.0906070161676564,495.324573767972
3702.5425,1.0899448981872806,585.4374186609091
3703.3943,1.091869689794463,455.5037504082094
3704.2483,1.0953808987331823,366.04020368961386
3705.1003,1.0988143452928316,445.353308018009
3705.9526,1.1011460887546867,325.5054392188891
3706.8074,1.102310700742335,449.4251745952515
3707.66,1.1025742435823769,510.2617007480105
3708.515,1.1017841708341236,438.63355812475857
3709.3682,1.099291331309111,399.039074021582
3710.2234,1.0946270175816144,540.7436834434056
3711.0771,1.088357072710896,554.2841164140009
3711.9307,1.0821571129062846,340.6630773262131
3712.7866,1.0779791417589972,537.5799100263932
3713.6409,1.0768279020612874,377.84229904582475
3714.4973,1.078069751432406,527.8161061982463
3715.3518,1.080049923546563,609.1221288681305
3716.2085,1.0813247190101183,470.7799245489664
3717.0635,1.081411328904889,471.18724794485746
3717.9185,1.0807397904434881,515.2231867994543
3718.776,1.0801733290053848,352.2151467769925
3719.6313,1.0806043233059563,385.9645673862468
3720.489,1.082597249494101,559.3452118218572
3721.345,1.0861033607083428,469.1553939420662
3722.2031,1.0905183272489607,457.60814258367185
3723.0593,1.0949277507867605,347.33941071915007
3723.9158,1.0984164012621318,572.3845669070629
3724.7747,1.1000712802506094,438.7276663641647
3725.6316,1.0991056696444663,216.49597946048132
3726.4905,1.0952129390650363,409.92080265411244
3727.348,1.0888535054910786,442.36090114814
3728.2073,1.0811397622691323,462.69554378257254
3729.065,1.0735754841870861,559.6124131751584
3729.9229,1.0674800735447152,602.8094629285687
3730.783,1.0636492284278196,502.6901368253187
3731.6414,1.0622311911906874,460.36931627566463
3732.5017,1.0629006224184205,539.446805756832
3733.3604,1.065267345082106,442.1719685301886
3734.2214,1.0690362323880596,496.9060593690159
3735.0803,1.0737167766726534,521.994421528379
3735.9417,1.0783285768549313,451.0067483776499
3736.8013,1.0812764114032118,550.6872449754612
3737.661,1.0809498451417088,379.123108165736
3738.5227,1.0765244271805943,485.9593537972695
3739.3828,1.0686933929705167,459.42919934068163
3740.245,1.0595727964745776,454.919501034949
3741.1055,1.0520268326676296,335.0048300775261
3741.9683,1.0483466510400836,736.3359573845312
3742.829,1.049417793420901,470.9646635025204
3743.69,1.0543187678838846,632.738645238434
3744.5532,1.0608311477160839,348.8417748067181
3745.4148,1.0663498611662676,527.5748193835097
3746.2786,1.0691270317853452,432.09063225485767
3747.1404,1.068925624615604,453.3982528892483
3748.0044,1.0670090914325814,626.9591752690371
3748.8667,1.0653144985074954,488.8325047786516
3749.729,1.065365393726028,489.64323248701845
3750.5938,1.067619979805877,396.13350977993207
3751.4565,1.0714618195924979,449.0329365554076
3752.3215,1.0758255524540872,379.6757889520759
3753.1848,1.0798564682096283,335.22009830413174
3754.0503,1.0833426966737543,427.1331816468527
3754.9138,1.0863493177301629,457.8122155560852
3755.7776,1.0886416576489109,552.06518348704
3756.6438,1.0894372974062927,349.0585431050561
3757.508,1.0879426467435571,418.5698105604157
3758.3745,1.0840597235129135,407.73325652144786
3759.239,1.0785801627534262,519.975701802386
3760.106,1.072756957311156,466.84218462699965
3760.971,1.0679846366450794,368.16619728623726
3761.8362,1.0653740559416462,580.4255212276925
3762.7036,1.0654021543526637,557.0772305211034
3763.5693,1.067459662495615,541.2039155955765
3764.437,1.0698972299358878,451.75408757654657
3765.3032,1.070780325384646,493.69748778398787
3766.1714,1.0689643457173454,429.7241249639817
3767.0378,1.0646412896059063,398.5398560198445
3767.9043,1.0590216006929436,489.1873524556967
3768.7732,1.0535355778803341,493.14199679831415
3769.6401,1.0492356541321135,517.1252254707466
3770.5095,1.0465549775280025,471.99226096357916
3771.377,1.045606109173335,569.4173432896639
3772.2466,1.0462499941296053,451.08523917450816
3773.1145,1.0479655068850082,467.2896311119948
3773.9824,1.049836406460236,423.3577188082087
3774.8528,1.0510872047277968,473.8116220008675
3775.721,1.0517683559877153,399.8193356708918
3776.5918,1.0527758468159758,412.9224236749542
3777.4604,1.054943975683824,694.7908627803174
3778.3315,1.0581956237679044,480.11536010327586
3779.201,1.0615037327913848,374.34252265588634
3780.0703,1.0636837217835946,536.5145862291132
3780.942,1.0639992996924283,526.4784487626065
3781.8118,1.0622533682901334,388.5512589592424
3782.6838,1.0586672373206913,445.9832908321009
3783.554,1.0540239145222927,415.5960740009771
3784.4265,1.0497450030786142,475.4427474600481
3785.297,1.0475495484341995,442.3937489171346
3786.168,1.0483798601986716,684.4470685263107
3787.041,1.0516944116422207,480.20360257152566
3787.912,1.0556700000980492,688.0751297389697
3788.7856,1.0583653598928924,542.7108104076602
3789.6572,1.0586895890851877,717.5611394599335
3790.531,1.0567171479594584,494.7968239456044
3791.403,1.05330182577008,435.5030559983147
3792.2754,1.0495020529670656,413.76259102095486
3793.15,1.0461146936558827,440.61009908314225
3794.0225,1.0433895291685527,406.86277349621207
3794.8972,1.0409510438313705,531.3881203655799
3795.7703,1.0381943297916392,413.7699607204139
3796.6455,1.0347308296628057,423.33988404194537
3797.519,1.0307101464733628,471.12091224914013
3798.3926,1.0266465890307193,520.5934613877569
3799.2686,1.0231379321433283,513.6326641362419
3800.1426,1.0207356411739457,531.744680532484
3801.0188,1.0199096094329723,456.107468226823
3801.8933,1.0210638800128364,604.6929772469524
3802.77,1.0243267732976011,491.29345133662446
3803.6448,1.0293641944354976,859.9669664506711
3804.522,1.0355558443221686,428.27949766753505
3805.3972,1.0421954032397684,862.4987124800252
3806.2727,1.0487461980408825,517.9847162277853
3807.1504,1.054695764942711,488.53865170715295
3808.0261,1.0594078134306444,607.3129008491908
3808.9043,1.0623887579138258,336.3941819865841
3809.7805,1.0636309029357829,445.84516620886086
3810.659,1.0639272252982916,614.5679256821517
3811.5356,1.0645090515463014,475.5646716921566
3812.4126,1.0663111423417815,439.32847081835513
3813.2917,1.0694699689479035,372.8169344601045
3814.169,1.0734146984912605,335.2314713930809
3815.0483,1.0773737939104946,463.26306028599015
3815.926,1.0805577359915144,479.3528822862216
3816.806,1.0822208632169596,455.09429941194105
3817.684,1.0817156767184777,447.0083921514939
3818.5623,1.0788364491937368,372.49183413599593
3819.4429,1.0739784652496263,433.02885073571235
3820.3215,1.0680459569982212,472.35125869784684
3821.2024,1.0620257648363445,506.784534494935
3822.0815,1.056810363520044,597.9335355415876
3822.963,1.0529074757040622,526.8630718038667
3823.8423,1.050366001813275,484.4552623533776
3824.722,1.0486548192639407,490.28129995841385
3825.604,1.0468520112628321,522.256555098223
3826.4841,1.0439418758944126,548.6899892542963
3827.3665,1.0390899874552462,472.69800499010626
3828.2468,1.0320171028942384,580.426675968548
3829.1296,1.0231414329964568,520.7856081398371
3830.0105,1.0136295870603322,680.1249600193191
3830.8916,1.0046935416857716,463.336180048433
3831.7751,0.9969312531687846,425.64964281380617
3832.6565,0.990053931222592,477.89024215249674
3833.5403,0.9831486578400875,592.5740883373901
3834.4224,0.9757208080313873,544.1127445461959
3835.3064,0.968298358902978,678.0175927967126
3836.1887,0.9625574412629226,900.2530459726828
3837.0713,0.960432993902538,475.1573724471183
3837.956,0.9631487544784078,493.34508905059823
3838.839,0.9704998327866307,540.900407155715
3839.7244,0.980971539612468,576.7776547301398
3840.6077,0.9923393993514602,639.0156035876843
3841.4932,1.0028648362978398,470.72040346599124
3842.377,1.0118739385169497,616.9037183889545
3843.261,1.0199702517524412,605.8925781090427
3844.1472,1.0282976164273225,492.6314173430566
3845.0315,1.0376734299885741,547.3108796083317
3845.9182,1.0482693949785564,418.99759682732866
3846.803,1.0593756097470683,502.80912409481044
3847.69,1.0698343443133043,472.60525707197047
3848.5752,1.0783856472487858,582.4684860482215
3849.4604,1.0845835632711704,372.90440161730777
3850.3481,1.0891672302336068,439.56378106460454
3851.234,1.0936741309511255,502.7980731315898
3852.122,1.0994677717740702,486.5833239304584
3853.0083,1.1066860601248143,432.92485585279576
3853.8967,1.1142652661718593,326.62540101704246
3854.7832,1.1205878132787375,500.90843589187557
3855.6702,1.1245515020981935,524.4165964617948
3856.559,1.1259618626158685,434.92555643311493
3857.4463,1.125441420164678,411.8777504065054
3858.336,1.1239981797897252,420.3042427084158
3859.2234,1.1225150649030735,359.03840813489427
3860.1135,1.121378383959974,373.5843327931135
3861.0015,1.1205377080221977,334.1508658411846
3861.8896,1.1198491047455725,373.8717254823398
3862.7803,1.119397193873358,444.58847751686943
3863.6687,1.1194109191242851,495.15665031828223
3864.5598,1.1199034143918654,340.92432091619645
3865.4487,1.1204908062172698,387.55618936148915
3866.34,1.1205853530233292,379.08686877214495
3867.2297,1.119639843752178,497.5615125111562
3868.1213,1.1171267416904647,517.0669583159437
3869.0112,1.1124484271373125,425.7258214661838
3869.9014,1.1051388203439694,362.9654452466135
3870.7937,1.095370236741016,334.6840916564044
3871.684,1.084233788702162,450.82344253140013
3872.577,1.0730656337832358,504.49013522373815
3873.4678,1.0628696494448622,461.8524669855088
3874.361,1.0537554036341221,494.4298738854379
3875.2524,1.0453482410899873,442.0642417307193
3876.1438,1.0369765331872989,435.0816095782602
3877.0376,1.02792783665462,521.9741630585588
3877.9297,1.0177300178357123,531.1442801447445
3878.8237,1.0063754828914688,461.8629907882259
3879.716,0.9947051238847656,531.8254942158401
3880.6108,0.9838035950231734,601.1286723876132
3881.5037,0.9742726283732491,607.8986485970233
3882.3965,0.9654435683587975,543.4577195037543
3883.2917,0.9558551671321851,520.8970137565767
3884.185,0.9444211416298234,609.6892907695509
3885.0808,0.9310676897603589,683.0807793138971
3885.9746,0.9169053207221752,559.1777736264035
3886.8706,0.9033151256490586,648.0705005585145
3887.765,0.8915505149305755,806.0688203578123
3888.6592,0.8823295706589502,581.2970445600414
3889.556,0.8762211641878316,621.9492319460151
3890.4507,0.8740328495966909,706.5690378981049
3891.348,0.8765918624673661,764.6412446397042
3892.243,0.8840709306830564,720.8303065513755
3893.1406,0.8954635324253363,677.0767170657048
3894.0361,0.9087312193368602,545.3447023805035
3894.932,0.9220575150066586,436.5494851682202
3895.83,0.9346450590600851,735.5136033169017
3896.7263,0.946652011246531,551.4187991361945
3897.625,0.9588075260799986,497.0510874940089
3898.5215,0.9716117506139619,507.6832223041441
3899.4207,0.9853565263271911,537.9087899099655
3900.3176,0.9997421965639133,634.2114070715778
3901.2148,1.014105015420691,444.77022068496217
3902.1145,1.0275668010227423,569.1034397289666
3903.0122,1.0395048202151755,472.88257155295366
3903.912,1.05018462154093,512.3672920542116
3904.8103,1.060385614100258,542.2910250911917
3905.7107,1.0710417467323443,490.1215782027934
3906.6094,1.0826048721932975,408.2816578282132
3907.508,1.0950787345642856,536.4843128946605
3908.409,1.107994857460668,292.0279386537625
3909.308,1.1204112694466373,588.0851023841765
3910.2097,1.131484432208779,422.56237282828846
3911.1091,1.1408686316786816,444.93517521046533
3912.011,1.149249748120988,317.9239536601905
3912.9111,1.1576740508691556,385.40298321681064
3913.8113,1.1667403865690211,408.4830224331443
3914.7136,1.176022443926186,408.07018126633784
3915.6143,1.1843836309990177,302.6550402396042
3916.517,1.1910073239359877,411.07306873282215
3917.4182,1.195856565040924,340.4883180848751
3918.3215,1.199695845688331,378.6409568156903
3919.223,1.2034493778303188,363.45616829395397
3920.1245,1.2077290972837151,324.5134642844932
3921.0286,1.212551963329553,314.3834319189707
3921.9307,1.217348131886611,377.6804339957092
3922.835,1.2213350696244623,299.76554532700004
3923.7373,1.2238763321597774,382.8898604455826
3924.642,1.2249050157916526,331.8186523580879
3925.5452,1.2248819403102549,392.9417531966084
3926.448,1.2244444128967014,366.8330115221992
3927.3535,1.223964518722691,407.0666930278418
3928.257,1.2234759956762196,328.59219345987566
3929.1628,1.2229428738063863,356.55065847216014
3930.0667,1.2225184355862961,365.77572414937066
3930.9731,1.222417114232835,346.08987188609
3931.8774,1.2225459119471596,344.0912506134249
3932.782,1.2223280436522945,320.8518872028459
3933.6887,1.2209974105235781,372.1552068123639
3934.5938,1.2181459320389785,351.00001708903034
