wavl,flux,ivar
3566.9744,18.889257373926476,17.35195751269962
3567.795,18.85696601433769,16.336296260061538
3568.6177,18.82093445059508,17.931519994440194
3569.4385,18.79281019276712,18.13782236250567
3570.2617,18.776156580475348,18.310068069168874
3571.083,18.766875855460594,17.36955213983759
3571.9065,18.756926191517586,18.05340212312008
3572.7283,18.74096986674829,17.37343246266128
3573.55,18.72102202039443,18.100344210926504
3574.374,18.705641393334698,18.553446613285722
3575.1963,18.703048756609554,19.330937380236165
3576.0208,18.712829669487462,17.2785328369064
3576.8435,18.723946299886162,17.06470627664453
3577.6682,18.721267039256098,19.194455662979202
3578.4915,18.695374934491003,18.192897193873616
3579.3145,18.647855744089348,20.025545272956187
3580.14,18.588395489645585,19.045760960245694
3580.9636,18.52924398024007,18.584360055902962
3581.7893,18.480792609077625,15.972270412062484
3582.6133,18.453315050913123,19.46260864180548
3583.4395,18.456580193488882,19.85179461122414
3584.264,18.496242841955375,18.679107510018685
3585.0884,18.567470337897344,18.180918652773272
3585.915,18.652853626164905,20.280304111608313
3586.74,18.72644026719351,16.237993140505445
3587.5671,18.765380413875185,17.920303137252194
3588.3923,18.758217300578007,18.902626974979228
3589.22,18.708479615771157,17.35285729176904
3590.0457,18.630669515700276,17.59636712837414
3590.8716,18.542107401990283,17.54170472248281
3591.6995,18.45699176840291,19.494676626699555
3592.526,18.383997692517642,19.77764802320063
3593.3542,18.325017470001725,18.16430261329759
3594.181,18.278069965194025,19.227425708907358
3595.0098,18.23862073535545,19.419663241967886
3595.8367,18.202833730443814,18.60784312755616
3596.6638,18.168626036180083,19.685527468339522
3597.4934,18.136462363700506,20.77028531094997
3598.3208,18.108183809997733,18.84638736721121
3599.1506,18.08386696877628,18.46835480447827
3599.9788,18.06074231726828,21.45884936745856
3600.8088,18.033904841702917,17.95281133949943
3601.6372,18.001619021069715,20.018369619571533
3602.4678,17.970563975093494,18.82440021805652
3603.2964,17.957093440729178,21.931787766232876
3604.1252,17.978772473014196,21.1572371374407
3604.9565,18.042982520991938,19.579323479161687
3605.786,18.139784227714134,18.675357691026225
3606.6172,18.24762679600235,20.06202114846013
3607.447,18.342526154905148,18.611666042879495
3608.2788,18.408601615183837,17.852110099059196
3609.109,18.43960226447257,20.756161466982622
3609.9392,18.437934375780564,18.582301407012
3610.7717,18.410342910039866,18.241880488930864
3611.6023,18.366237472628796,20.90907409651388
3612.435,18.315867015615265,17.937210799369012
3613.266,18.268482335416536,19.640919131480064
3614.0994,18.22762772410704,20.21860390659741
3614.9307,18.190479253725197,18.14402805713387
3615.7625,18.150495421198503,18.252598777180186
3616.5962,18.10350572432283,19.93466752450149
3617.4282,18.05106643378972,19.076494123027718
3618.2625,17.99818270218575,19.1381597634835
3619.0947,17.950542354965407,20.16453525244468
3619.9292,17.91089072137393,20.045536926626415
3620.762,17.879327727562938,20.579211903858837
3621.595,17.853383037740016,18.87032697394033
3622.4302,17.82991282543002,21.498755165445164
3623.2634,17.80691191803502,18.360059622133438
3624.0989,17.783831860014445,20.94637911977041
3624.9326,17.76125718238389,20.180936140806452
3625.7686,17.739103772878053,19.947738956881985
3626.6028,17.71638470655569,19.69462527815874
3627.437,17.69132912209259,19.249987492991494
3628.2734,17.662811746656942,19.465399024824585
3629.1082,17.632049571566025,20.492625692729273
3629.945,17.60229380777297,20.64527605957103
3630.78,17.5770372775948,22.289830583277322
3631.6174,17.55591466088455,20.06730994337702
3632.453,17.534267814462577,17.801559471209163
3633.2883,17.506477335341504,18.695518464828094
3634.1262,17.471233745753793,22.44812097920989
3634.9622,17.43280008426882,19.684267488704396
3635.8005,17.395565914724425,21.785109997514734
3636.637,17.359544375292142,20.47132764002849
3637.4756,17.319810579233565,20.461883138447593
3638.3123,17.27265323442737,22.12453080694633
3639.1492,17.21959812556078,22.58912885168016
3639.9885,17.16737160004401,21.376838798687718
3640.826,17.124064588770572,22.364285901063795
3641.6653,17.09369205219891,22.58872789985445
3642.5032,17.074788651346807,22.26082298917798
3643.343,17.06065900005357,20.967541998512463
3644.1812,17.042968868917814,21.906106906327466
3645.0195,17.01594103865337,23.755046082058996
3645.86,16.980123838515237,21.16007010697128
3646.699,16.94335129344378,20.569373033541982
3647.5398,16.916144754527476,24.65973505628577
3648.379,16.905439952445402,25.26283394065038
3649.2202,16.909852538618264,20.633365251492293
3650.0596,16.921684984679274,22.296455294838072
3650.8994,16.932528377164108,22.569066407777232
3651.7412,16.9368524539802,23.706778846621738
3652.5813,16.9317391223661,21.572605389198113
3653.4236,16.915905430622992,21.823306755790686
3654.2642,16.890697170883715,21.68556168535799
3655.1067,16.86069558642381,22.963478416710263
3655.9475,16.83216574175059,23.9983933167963
3656.7886,16.80885123242577,22.206728326921148
3657.6318,16.79032005108878,23.031785403512572
3658.4734,16.774082805054483,23.757061905816673
3659.317,16.75946576234663,24.03672969238824
3660.1587,16.750185604666335,23.672662505823002
3661.003,16.751964853311456,23.168636055185953
3661.845,16.76760205871874,23.340667410632385
3662.6875,16.793780610687296,22.60807906765195
3663.532,16.823011359527538,20.90180524665167
3664.3748,16.84880694694665,23.669368873112205
3665.2197,16.870705787060178,20.652621014701925
3666.063,16.89524372804059,24.12150025537536
3666.9084,16.935855610204857,23.98759296528912
3667.752,17.009135506896587,22.66275197551516
3668.5977,17.12436764713571,22.521454341436083
3669.4417,17.260848822127336,22.29021299960287
3670.286,17.35732952144411,23.355859111628263
3671.132,17.33682299431503,24.737774997526863
3671.9768,17.168066857571525,4.360987305499346
3672.8235,16.904617781959473,186.20142125374844
3673.6685,16.65483306268773,22.983663434271538
3674.5156,16.499920749451057,22.950326229949898
3675.3608,16.450985417190765,24.452730685915018
3676.2063,16.465724210500166,23.548253832467868
3677.0542,16.497797905280578,23.30212215049797
3677.9,16.522641216794415,23.29318401203685
3678.748,16.535912806682283,24.76099782445463
3679.5945,16.541074847377843,26.257172197575574
3680.4429,16.542156118302223,23.941412003203624
3681.2896,16.541165189634413,23.200875834794036
3682.1365,16.537824831263308,23.513185513405617
3682.9856,16.530581861194218,23.81395499570776
3683.8328,16.51876978452276,23.666007418459152
3684.6824,16.50381921287911,24.198341942111778
3685.53,16.48874793173324,23.42038871289174
3686.38,16.47608094825399,22.59398431480001
3687.2278,16.467409401671965,25.94247380814875
3688.0762,16.464060982850192,23.75299721533096
3688.9265,16.468231756915273,24.575510261360854
3689.7751,16.482387375066352,24.737956052992224
3690.626,16.507782855019524,23.175014878361345
3691.475,16.54400939828802,22.934756509623973
3692.3264,16.59340978016251,21.90663368854273
3693.1758,16.6671020807179,26.089787005356687
3694.0254,16.78620513694693,24.655781799517086
3694.8772,16.96364162512023,23.3768003667877
3695.7273,17.16760850330838,24.81360562157013
3696.5793,17.306751404022855,23.56771884848089
3697.43,17.270355690314613,24.832393344305117
3698.2825,17.021645117920173,3.5871780806079347
3699.1333,16.652614083360398,28.97017974002273
3699.9841,16.325115994513066,24.028662521827243
3700.8374,16.152585278298936,24.100418658338157
3701.6887,16.135549397804304,23.380955988460375
3702.5425,16.196076747171436,22.60216489901146
3703.3943,16.257258786377935,25.063127814379
3704.2483,16.28540301652504,24.893047791621015
3705.1003,16.281634822469353,22.595683065666165
3705.9526,16.258917133603347,23.671446701207287
3706.8074,16.227675561834786,24.739227282988942
3707.66,16.19337189091995,26.122497285717454
3708.515,16.156753976179502,24.13077256513305
3709.3682,16.11611296233174,23.85550264667087
3710.2234,16.0692487201902,24.548339803676605
3711.0771,16.01726723259818,26.23181684211088
3711.9307,15.965167008421476,25.156654852396866
3712.7866,15.920495018329895,23.698763503138572
3713.6409,15.89085433161791,26.387306494044825
3714.4973,15.880359960149207,25.577424317185
3715.3518,15.888322557486434,25.265236477314303
3716.2085,15.90913900235049,26.72272355742585
3717.0635,15.934883805466347,26.2699491735077
3717.9185,15.959826533164714,24.70877504438444
3718.776,15.983128004775953,25.006655260614465
3719.6313,16.006771740092162,26.01891759933969
3720.489,16.02983463573297,27.082284509960605
3721.345,16.043097640917498,24.639159958567692
3722.2031,16.032104828275088,25.60729261722423
3723.0593,15.987721483295996,23.825090834751077
3723.9158,15.91648737586716,22.24010114570754
3724.7747,15.840735599097254,25.917397839214217
3725.6316,15.787188479397685,25.486120957002587
3726.4905,15.769774740457247,27.894008665086865
3727.348,15.783688757820508,25.848204175230393
3728.2073,15.811611525711845,27.163596823778697
3729.065,15.835765770856813,28.061270500676443
3729.9229,15.845572387423978,24.484460350931673
3730.783,15.837612475708635,24.51924529475323
3731.6414,15.813830618269323,24.448540238561552
3732.5017,15.780417912475036,24.778394068037816
3733.3604,15.746975311829736,27.488997220207114
3734.2214,15.722793602352025,27.642856501554515
3735.0803,15.713232236059369,28.71038549622233
3735.9417,15.716798919670504,24.915674030467308
3736.8013,15.726010620002164,27.404817579284927
3737.661,15.731089762966045,24.51167088624607
3738.5227,15.725410886423758,25.215303681047132
3739.3828,15.709677101313376,25.86532895200175
3740.245,15.690968247407076,25.683779925524494
3741.1055,15.67712103703145,27.7823905437766
3741.9683,15.67046213019929,26.734590757332853
3742.829,15.667105121141677,25.96637032674094
3743.69,15.660832466254536,27.425081992533805
3744.5532,15.647532676250114,26.431117268125078
3745.4148,15.626628977365668,26.762436147558606
3746.2786,15.599648253742432,26.770864625504185
3747.1404,15.569297208981297,27.2014357702095
3748.0044,15.538480064549917,27.464172521111887
3748.8667,15.510556532131295,27.3204893149628
3749.729,15.488344579938088,25.68031982489703
3750.5938,15.473885512379637,28.480461579152713
3751.4565,15.468315350724785,28.064647389019846
3752.3215,15.471521165154531,27.57983604892307
3753.1848,15.482125485406442,27.119599232232492
3754.0503,15.497738275799415,26.624483761380652
3754.9138,15.515699164845842,25.38806287784417
3755.7776,15.534501938340641,26.17226354440636
3756.6438,15.554052257850383,25.741009833607446
3757.508,15.574425662641342,27.184706950379468
3758.3745,15.594491137451492,25.6684801485297
3759.239,15.610724955004054,26.401952531098676
3760.106,15.618458882686022,25.744045766803428
3760.971,15.613660603339019,27.109516799175815
3761.8362,15.595132423753546,27.95745779758118
3762.7036,15.565215759587067,25.687928655465303
3763.5693,15.529109241093542,29.473676262925878
3764.437,15.491542930436134,26.03010535347549
3765.3032,15.454312309989055,28.525321288529064
3766.1714,15.414847366149422,25.675293314405213
3767.0378,15.369056172247637,27.616576910364135
3767.9043,15.314465718780268,27.57879818076543
3768.7732,15.25297975238045,30.547802175540827
3769.6401,15.191632097303353,28.17025680287345
3770.5095,15.139303918285776,28.331798855007243
3771.377,15.104494927931693,32.05495236623359
3772.2466,15.091544547853024,30.81136803751047
3773.1145,15.10039942682076,30.372549510175286
3773.9824,15.127589951315334,29.711168855560413
3774.8528,15.169028172606128,29.499848758765793
3775.721,15.22138365540507,30.255029834552005
3776.5918,15.282775283122623,29.8843579900472
3777.4604,15.34952027591416,29.709998118492596
3778.3315,15.415818404171606,25.226610667565627
3779.201,15.473617813699676,27.442516288888722
3780.0703,15.517013981251717,26.507716817383844
3780.942,15.543953869317363,27.626455847960834
3781.8118,15.555632240582224,30.31521677194467
3782.6838,15.554868795262813,27.17626850192926
3783.554,15.5445755776069,26.119232653297875
3784.4265,15.52760829157097,27.765765110716664
3785.297,15.506807832313472,31.346882433618244
3786.168,15.48376509231433,27.755985491408534
3787.041,15.457581335236489,29.686062225947076
3787.912,15.424681649920077,24.637547545333064
3788.7856,15.379871632666537,25.742365391773177
3789.6572,15.320204713158804,26.87159743913223
3790.531,15.246602144363903,28.480433802509218
3791.403,15.164247451309052,28.762517692279314
3792.2754,15.077536469783952,27.091954832324276
3793.15,14.986761540732871,30.548489770332463
3794.0225,14.888842499979077,28.64486718264796
3794.8972,14.779709274772092,29.433030143210917
3795.7703,14.660955664939294,32.0681945762571
3796.6455,14.540533845241475,29.149345765653944
3797.519,14.434069113997266,31.386359458929526
3798.3926,14.35894570577553,34.435146838036324
3799.2686,14.32889331418303,30.02437526211271
3800.1426,14.347861015819063,33.81579689329492
3801.0188,14.407948124550597,32.231033069449964
3801.8933,14.493797346538988,32.40033862637432
3802.77,14.591278319148817,30.035792645063957
3803.6448,14.691085969042064,30.811143788200365
3804.522,14.79024859400364,30.232801929387556
3805.3972,14.887265446022598,28.856329998897582
3806.2727,14.981682778322156,28.309604455388715
3807.1504,15.072636409649125,27.696405151354288
3808.0261,15.158192968667286,29.162846277353275
3808.9043,15.23696531561366,27.21077410163355
3809.7805,15.306953553114676,28.920644418334433
3810.659,15.367508067349787,29.53047086433156
3811.5356,15.417587718962455,28.060415436138744
3812.4126,15.455874372677743,28.32013105539989
3813.2917,15.480279886019433,26.446765463913792
3814.169,15.489607362856226,27.728467924482693
3815.0483,15.485951766903948,27.73984127823569
3815.926,15.47455625563472,26.943153248642982
3816.806,15.46081873213325,26.72397569152824
3817.684,15.44622929208903,29.16572457332617
3818.5623,15.426220556325353,27.86107996029761
3819.4429,15.392524049672897,27.093098768070693
3820.3215,15.33890429781826,27.338397369039203
3821.2024,15.265140336643823,27.018678234293716
3822.0815,15.17852944046485,28.942495445496373
3822.963,15.08846356760885,29.86885295862153
3823.8423,15.001669511737122,29.917516749118562
3824.722,14.91672010456283,28.59621197546857
3825.604,14.825696943321418,29.692437131284667
3826.4841,14.720269992934773,28.371836547438416
3827.3665,14.595739099209114,26.835764997355877
3828.2468,14.454749905309589,30.74419219078935
3829.1296,14.301745287038822,31.239062785774028
3830.0105,14.14090509474234,32.64608901701635
3830.8916,13.971252056444513,34.97122090062932
3831.7751,13.789305204839273,35.126622567907155
3832.6565,13.594636814023648,34.49312131428314
3833.5403,13.390864835628266,35.246153475631836
3834.4224,13.193015582204001,38.4000249208323
3835.3064,13.024492767237968,43.79098428752992
3836.1887,12.91515186231178,45.828372223739244
3837.0713,12.887724160962513,46.28028825968171
3837.956,12.94888556180685,40.537316990881344
3838.839,13.085748232894394,39.75434596994856
3839.7244,13.275007801357994,40.96339607164472
3840.6077,13.491644209545223,34.482136936425604
3841.4932,13.718251413203387,34.395861012048286
3842.377,13.941163975129324,33.89788086264632
3843.261,14.151967096568969,32.35668380981719
3844.1472,14.345447053976237,33.298126975147866
3845.0315,14.519105824297768,31.941158416589516
3845.9182,14.67595862819018,30.403558011927235
3846.803,14.818848463277446,29.699785216595895
3847.69,14.950667566870177,28.766011669277255
3848.5752,15.070633778976228,26.695071712302813
3849.4604,15.178170481362297,28.832808603455415
3850.3481,15.274462073337927,29.585386113490788
3851.234,15.361931597026839,27.2097597531193
3852.122,15.443491000517884,27.810480315649603
3853.0083,15.51829926552217,26.663119895276488
3853.8967,15.583296604847597,26.846987352006703
3854.7832,15.634109428604313,29.341858397137045
3855.6702,15.668853165079003,27.74001756807169
3856.559,15.688890584846485,25.702183093648305
3857.4463,15.69864079631016,27.45402707403377
3858.336,15.703824795481085,27.90967967117693
3859.2234,15.708254352269183,27.132977907033933
3860.1135,15.711894397956556,26.083391412368716
3861.0015,15.711544825233766,28.16618133987138
3861.8896,15.704046137270065,27.21956803052857
3862.7803,15.688652026030134,27.38228117162132
3863.6687,15.66664586144145,26.703284256977067
3864.5598,15.63812003402093,28.31763053830284
3865.4487,15.600488458779664,27.35735372878255
3866.34,15.54938026090986,27.50757045855949
3867.2297,15.483531460940027,25.94714023016366
3868.1213,15.40640318452167,27.582769458756953
3869.0112,15.32510070005076,27.33764689998182
3869.9014,15.244191391008819,27.586789077302917
3870.7937,15.163055696272721,27.96981155931039
3871.684,15.077973888113537,29.71191520666961
3872.577,14.984711044889277,28.02475384156724
3873.4678,14.882638485902893,29.70684689934868
3874.361,14.772299646722566,30.847064720593128
3875.2524,14.65524374700624,30.396910409320917
3876.1438,14.530440076720772,32.8642260552918
3877.0376,14.394540967770602,31.36128680566176
3877.9297,14.244136372210118,33.158675066091696
3878.8237,14.07526381256842,32.120426180009986
3879.716,13.887002328618529,32.73420711073412
3880.6108,13.678121649391649,32.59451014830123
3881.5037,13.449478318694513,34.826766539948586
3882.3965,13.200410051995627,37.81738828779057
3883.2917,12.930797760891243,38.08872645300159
3884.185,12.644324993017172,42.10482912759593
3885.0808,12.34314229376131,43.96704507692053
3885.9746,12.032380098652427,45.33116520579851
3886.8706,11.71556618630615,49.66897146621997
3887.765,11.405285657691296,48.899931004397
3888.6592,11.124041287970162,51.66795661856251
3889.556,10.906327738673134,58.62239014251869
3890.4507,10.790352565237898,66.07870375582613
3891.348,10.798901227380314,57.959408264523724
3892.243,10.929606655241619,57.7620891314639
3893.1406,11.156368175011218,55.98060207729553
3894.0361,11.439861899930902,52.97583363411632
3894.932,11.74679505223865,47.52015598177332
3895.83,12.056929031035507,46.27838176088268
3896.7263,12.359528095768958,45.14719088329133
3897.625,12.652446461729797,40.941259821176786
3898.5215,12.931227091449438,39.00928227857899
3899.4207,13.194554612798257,39.05342451760092
3900.3176,13.440531912325401,37.487573191390545
3901.2148,13.6730289232767,34.55807863958141
3902.1145,13.897527746223565,33.64605520439777
3903.0122,14.116185555615502,29.710158301275033
3903.912,14.3292458398822,33.710410333380615
3904.8103,14.531538434838543,31.949889632141865
3905.7107,14.71889856938518,28.29500590297257
3906.6094,14.887555459797198,29.618124797714113
3907.508,15.038497496216564,28.885682012861206
3908.409,15.17603873571767,29.431531227635112
3909.308,15.305448741262019,27.62891714276656
3910.2097,15.432581312013824,26.92588164702582
3911.1091,15.55875852488339,28.94111497095073
3912.011,15.682380742233828,26.86249989080231
3912.9111,15.798321136349134,25.96240460513889
3913.8113,15.903180815969044,26.92822459799677
3914.7136,15.995957156906972,25.554448774295317
3915.6143,16.076334157839,25.820977246465212
3916.517,16.144399670550683,24.03574446950858
3917.4182,16.199209133213053,26.40732446560985
3918.3215,16.241197586197828,25.549126497129883
3919.223,16.271970696727035,24.91649300892566
3920.1245,16.294703854093473,25.93897973256111
3921.0286,16.31327240422315,23.622203355752767
3921.9307,16.331953938382675,24.73262606910976
3922.835,16.35490037339714,23.82940987253685
3923.7373,16.384025252188927,24.814954474336403
3924.642,16.418183292773122,24.25820674715907
3925.5452,16.45327801900441,23.800829708402638
3926.448,16.485145550840144,24.82831146356863
3927.3535,16.511758826462632,23.669364735914613
3928.257,16.53364710675894,24.025650217116628
3929.1628,16.552783421157685,22.9591942509957
3930.0667,16.56932794243572,24.60610148546037
3930.9731,16.58003652235878,23.68899806913496
3931.8774,16.57876685106304,23.32336401178068
3932.782,16.560308502417016,23.796338838388806
3933.6887,16.524156772462835,25.472797817263263
