wavl,flux,ivar
3566.9744,1.9273863131212605,705.6013401556651
3567.795,1.920595854763173,737.7973085519026
3568.6177,1.912602078752958,758.2308507130261
3569.4385,1.904418397287073,871.4071812090009
3570.2617,1.8973233506854583,811.1446959910897
3571.083,1.892702247835589,817.7533703659564
3571.9065,1.8912701628357353,792.416437353455
3572.7283,1.892728250478325,711.8795771018375
3573.55,1.8959307734258404,744.4543838943961
3574.374,1.8996329337453333,769.3949023250376
3575.1963,1.903128361876113,719.0896344480137
3576.0208,1.906552545335008,841.3526639487538
3576.8435,1.910545122405715,834.5111548585087
3577.6682,1.915687983678922,764.7753482107714
3578.4915,1.92171098097001,777.2944543437138
3579.3145,1.9272061592159133,709.3893690055664
3580.14,1.930049765597239,792.7314280620034
3580.9636,1.928557634509753,818.6153148439056
3581.7893,1.9226537800466363,717.06450469629
3582.6133,1.9140598536784679,769.6189703037542
3583.4395,1.9052636513510912,741.7930932583711
3584.264,1.898356966222647,754.4580461789185
3585.0884,1.8941169684049068,776.5060699827296
3585.915,1.892127862062337,786.437750503444
3586.74,1.8913851276679103,771.9925702274128
3587.5671,1.8909854395030272,730.0034201340413
3588.3923,1.890548607335055,762.3868309226544
3589.22,1.8901014325398455,730.6936877383179
3590.0457,1.8897577337345373,747.07551028683
3590.8716,1.8896168787961969,742.8930147874188
3591.6995,1.8899646737793452,754.3354079541723
3592.526,1.8913256658164812,733.0796326085916
3593.3542,1.8940917019396593,806.1722251211503
3594.181,1.89793169704572,771.0116445704501
3595.0098,1.901672648372448,855.4805629187757
3595.8367,1.9038067247364967,824.8945365430606
3596.6638,1.9035404447662185,688.6011913283869
3597.4934,1.9012808311729539,842.6877755200143
3598.3208,1.8981467064094035,796.6653677361877
3599.1506,1.8947304154356563,775.6857473713503
3599.9788,1.8905137477701395,860.7514196696299
3600.8088,1.8843904735744677,713.360669646699
3601.6372,1.8760357494415285,794.4836246555567
3602.4678,1.866590152047505,799.8837893626062
3603.2964,1.8584470606234595,856.9834165645061
3604.1252,1.853890979328162,861.5820501564137
3604.9565,1.8540773132922883,746.8489202959637
3605.786,1.858621183810016,787.1613614773436
3606.6172,1.865993513175097,786.7203140539171
3607.447,1.8740509731727115,876.7260753193652
3608.2788,1.880546540544665,744.7091256126379
3609.109,1.8833431202037978,839.7221162027905
3609.9392,1.881045324411443,740.6796043567126
3610.7717,1.873615929467801,887.9039904719999
3611.6023,1.8628628349942686,810.3244409831439
3612.435,1.851825251430202,792.0674795294724
3613.266,1.8437061608972811,854.7700345725666
3614.0994,1.8404285577401607,861.5950425345367
3614.9307,1.842240256880937,912.8154626510692
3615.7625,1.8479340665637212,944.2854052490853
3616.5962,1.8555346815597624,841.2658443742079
3617.4282,1.8628156065644794,844.1628896781938
3618.2625,1.867991049630849,791.7994156099447
3619.0947,1.8701381096386418,798.2667327194628
3619.9292,1.8694880635091764,850.4119011465017
3620.762,1.8670361384155716,748.5120870879302
3621.595,1.8639039232116856,775.5007903129488
3622.4302,1.8608325674818846,808.2741948321741
3623.2634,1.8580424289026927,741.057282725236
3624.0989,1.8553167513521545,851.2318865559342
3624.9326,1.8524374655514175,817.1626345530725
3625.7686,1.8495446884315447,782.7277201362326
3626.6028,1.847278694030075,794.1938116542658
3627.437,1.8463636705172013,836.7843755331742
3628.2734,1.847114024425699,805.1743614396032
3629.1082,1.8491514307570849,796.1467850905066
3629.945,1.8515511287047999,842.9965763134671
3630.78,1.853185035197141,854.6578288454402
3631.6174,1.853114504635443,824.8342382909921
3632.453,1.850744005764362,847.2471118219215
3633.2883,1.8458702609373343,816.7238475951634
3634.1262,1.838698698021311,863.5373542411118
3634.9622,1.8299600266252456,920.8148520569403
3635.8005,1.8205860803851701,820.5965301804556
3636.637,1.8114986725365398,969.7929384353408
3637.4756,1.8032024894221301,762.906167840367
3638.3123,1.7961126575557407,920.4432249499642
3639.1492,1.7906226936888996,825.8885016935097
3639.9885,1.787055667445562,848.0789411579551
3640.826,1.7853049575608604,834.9850894030463
3641.6653,1.784655806452738,959.7736620315924
3642.5032,1.7841365816771912,820.0914945828372
3643.343,1.782940772766599,902.7900799321424
3644.1812,1.7807100183063442,849.6953943909376
3645.0195,1.7775905120455886,919.9271856221051
3645.86,1.7742160450068947,834.060693252732
3646.699,1.7715703365963598,736.333859477719
3647.5398,1.770507734187068,879.2005867564441
3648.379,1.7712567344985786,820.5838291797833
3649.2202,1.7731856255388083,874.8496632674011
3650.0596,1.7751453907758332,885.1955449336084
3650.8994,1.776165090091033,847.1702263818578
3651.7412,1.775865981081327,851.6157775927807
3652.5813,1.7744060701995799,841.4793364850967
3653.4236,1.7721160598770067,854.9375429808222
3654.2642,1.7692637003912377,921.4964648953182
3655.1067,1.7659908312338708,938.684320664394
3655.9475,1.76250284129594,888.728104736408
3656.7886,1.7592275386415757,943.3786314334836
3657.6318,1.7569635752974115,895.6383391014178
3658.4734,1.7566951821624968,936.7212778535733
3659.317,1.7589770090054526,901.0815008430504
3660.1587,1.763324187918151,962.5810825032273
3661.003,1.768231603194446,898.7443564170587
3661.845,1.771918844400936,807.1422047382584
3662.6875,1.7735422163640453,938.2886213864173
3663.532,1.7736391998520284,871.3807399488838
3664.3748,1.7735514378753945,897.5621037911683
3665.2197,1.774143467088117,817.7287402188969
3666.063,1.7748678576572914,783.1443291077078
3666.9084,1.7740137984767768,817.9985621455352
3667.752,1.7700348189032056,824.1791921875592
3668.5977,1.762918869326774,921.2423124409113
3669.4417,1.7546062860502412,904.2050259632625
3670.286,1.7478652773722585,956.0594485131599
3671.132,1.7447595461021068,1027.1480722726265
3671.9768,1.745665574036273,909.5625095753074
3672.8235,1.7494121948469568,809.4613281102335
3673.6685,1.7541792633747002,938.3730297861772
3674.5156,1.758409540762635,890.9803394145302
3675.3608,1.7611542915354155,886.5991803095579
3676.2063,1.7622160463132117,889.5735523928179
3677.0542,1.762011896557319,932.0400986927683
3677.9,1.7613603201267587,875.5833481821473
3678.748,1.7610780080103356,867.9884523550289
3679.5945,1.7615835513388138,898.6441503850023
3680.4429,1.7627690772469247,819.3025827548673
3681.2896,1.7642193921089988,895.8891999166248
3682.1365,1.7655177494096752,922.5490727691805
3682.9856,1.766247233628698,880.0779206033519
3683.8328,1.7657991106583018,890.0812449459738
3684.6824,1.7634518745380539,913.8918905251954
3685.53,1.7589484508015314,906.9505645408119
3686.38,1.753057949060556,915.793540714674
3687.2278,1.7476402260869124,933.7692444103728
3688.0762,1.7447344167156897,858.6598698808693
3688.9265,1.7455036649797502,931.5609014235852
3689.7751,1.7494994670511557,923.1418386989232
3690.626,1.7548937027406322,886.9725293907168
3691.475,1.759431726462339,852.2927449777934
3692.3264,1.7616913908668357,963.8839469426305
3693.1758,1.7616325460853208,843.6889643562268
3694.0254,1.7604089231050564,888.4376143110858
3694.8772,1.7595257533295336,838.0893290526582
3695.7273,1.759955547531624,896.2845127806778
3696.5793,1.7615751067837644,934.1692138686733
3697.43,1.7632627406204988,961.01994251639
3698.2825,1.7636809940176748,885.589244026993
3699.1333,1.7622309310268716,907.2473078312128
3699.9841,1.759537451019754,947.1033684191227
3700.8374,1.7570811675915388,980.2596143314223
3701.6887,1.7563205048107227,865.3047911413166
3702.5425,1.7577625390785234,928.1090745627664
3703.3943,1.760607841521541,952.0212630601129
3704.2483,1.7631716903337546,879.9731072090563
3705.1003,1.7637975342457803,845.1448940179109
3705.9526,1.7617491940181464,929.7514737972728
3706.8074,1.7573567963153633,888.0004878946078
3707.66,1.751634014304225,1008.6174495208226
3708.515,1.7455778096384618,899.6190031673839
3709.3682,1.7399087320052928,915.1999871857632
3710.2234,1.7349082356129137,896.5003980057352
3711.0771,1.7306488541827991,944.0150094165205
3711.9307,1.7270952853639383,935.3230294491791
3712.7866,1.7242632617475082,886.2495909713642
3713.6409,1.7222789084934509,981.3138188552247
3714.4973,1.721211541707491,923.8727182213256
3715.3518,1.720850929093187,980.7444167306661
3716.2085,1.7205540049689558,902.8838591930527
3717.0635,1.7195979892855615,830.0780320914514
3717.9185,1.7178588668036472,896.2646605745635
3718.776,1.7161307001560913,970.0811706518637
3719.6313,1.7156166960044672,879.4388230414445
3720.489,1.7169421410597168,951.3618958680586
3721.345,1.7196497713362093,929.4131350793649
3722.2031,1.7224932750880255,915.1888215980136
3723.0593,1.724041713953187,879.2531036354221
3723.9158,1.7232255159513035,995.8270830107166
3724.7747,1.719542427714427,942.4294927249598
3725.6316,1.7132527459045257,968.8212714559523
3726.4905,1.705369084170348,1012.3783772953474
3727.348,1.6975959488473988,1001.8259505531395
3728.2073,1.691758975482152,1029.2951297623795
3729.065,1.6893377652082577,920.4538300727263
3729.9229,1.6909451711222037,879.804987351403
3730.783,1.6962035290638877,1011.1918685826419
3731.6414,1.7037245101656922,935.7507052316855
3732.5017,1.711635038522216,915.3740794631975
3733.3604,1.7182623307321958,938.3373698694113
3734.2214,1.7229139715332193,919.2216822925262
3735.0803,1.7257140627431877,960.0212250318737
3735.9417,1.7270287135207192,951.6533638909758
3736.8013,1.726871261885303,940.6920805242248
3737.661,1.7251224051439156,959.3483221106044
3738.5227,1.7221122326371503,950.5164610800122
3739.3828,1.7188971106248025,974.6674465233353
3740.245,1.7167196965357303,916.6951265139886
3741.1055,1.7162465717079423,890.3038125290028
3741.9683,1.7171015192939683,927.1957919530059
3742.829,1.7181043403070966,951.6995236231149
3743.69,1.7179542106160508,994.9910859341389
3744.5532,1.7159140889177558,914.2849466512228
3745.4148,1.7121884313180529,1024.973686213786
3746.2786,1.7077266906557107,947.3934196896864
3747.1404,1.70375097115475,1012.1254512947538
3748.0044,1.7011101731480236,964.4373480183845
3748.8667,1.7000284362293672,973.4424927990003
3749.729,1.7001402035819715,975.2006978370675
3750.5938,1.7009481125087265,990.98664228233
3751.4565,1.7022692228625749,1013.6308473985803
3752.3215,1.7043308125357224,919.6413989753901
3753.1848,1.707299511853107,1002.2069459516563
3754.0503,1.710766669416328,998.3462744827375
3754.9138,1.7136728646297583,919.4015073248011
3755.7776,1.7150292779192784,953.4393602359426
3756.6438,1.7146579873601726,1044.0843827797619
3757.508,1.7133236145327881,910.7177784903494
3758.3745,1.7120072012755143,1048.9876584281008
3759.239,1.711067212805315,956.0195143526959
3760.106,1.7101020397263265,865.9123971916869
3760.971,1.7086775301720076,951.4856235285322
3761.8362,1.7069984777701572,918.0695206490038
3762.7036,1.7058010297317876,1004.9029950326411
3763.5693,1.7056184551472862,908.7459495779565
3764.437,1.7062306205275546,937.907477603976
3765.3032,1.7068217459122081,932.0622526550794
3766.1714,1.7065463432966668,953.3661936016058
3767.0378,1.7049933962316495,985.1232724625722
3767.9043,1.7023215100389244,999.8462937417711
3768.7732,1.6991320124264189,984.7619160098598
3769.6401,1.6962925447503545,936.0618630759733
3770.5095,1.6946358904155117,1040.1799222903094
3771.377,1.6947049730143573,981.0076752759123
3772.2466,1.696450393281075,1023.5190726212443
3773.1145,1.6992212133408169,1022.5955600552163
3773.9824,1.7021248007051801,977.7387933096223
3774.8528,1.7044716873950199,946.1890169216356
3775.721,1.7059918243944865,939.43190799957
3776.5918,1.7068395990094,908.9366635115296
3777.4604,1.707377802696953,1014.4573356830357
3778.3315,1.7079584557523573,941.1155720948977
3779.201,1.7086691739017992,978.9519294975497
3780.0703,1.7092959291333107,997.2799985031985
3780.942,1.7095993621312904,975.7522372386844
3781.8118,1.7096800666136318,922.8684062635893
3782.6838,1.709952476620607,1016.0884750469818
3783.554,1.710618272901592,1008.463303749789
3784.4265,1.7112143124279269,1042.4037661257792
3785.297,1.710767368089571,957.2070585764892
3786.168,1.7084627605569733,913.1665145646513
3787.041,1.7041502565443643,985.8694971039018
3787.912,1.6984157914418263,1060.2664619560508
3788.7856,1.6922033087449857,1082.9230979777947
3789.6572,1.6866227143984303,1009.9749384773321
3790.531,1.6825310781598943,1028.1829434452573
3791.403,1.6801343811332157,1002.9551363558924
3792.2754,1.6784441516978579,991.6673894272644
3793.15,1.67551155135553,948.709059170986
3794.0225,1.669622095522006,998.4072398727037
3794.8972,1.6606700070771439,948.7247304951927
3795.7703,1.6507169872904985,958.2474095390828
3796.6455,1.6427849320219934,1029.8546586771674
3797.519,1.6392062222457648,1000.7226568731695
3798.3926,1.640315405338654,1017.2011227449381
3799.2686,1.6446963145852935,1066.8000062915944
3800.1426,1.6501899947684555,1055.4736108566506
3801.0188,1.655097034048877,1009.1638675481174
3801.8933,1.6586382805222506,1026.9197841242
3802.77,1.660957442973941,1070.7972722052148
3803.6448,1.662643303031575,989.2959457860499
3804.522,1.6643283538229432,1036.1352387878437
3805.3972,1.6663351969379323,1035.6849268884125
3806.2727,1.6686047950079421,1016.3614830626717
3807.1504,1.670824253071569,992.2308729013251
3808.0261,1.6727178248153838,936.272168477739
3808.9043,1.6743386377149116,1003.8529737602287
3809.7805,1.6760316496180245,994.6151050353375
3810.659,1.67826382290435,980.8200411086739
3811.5356,1.681399873289493,1058.4550199723578
3812.4126,1.685639904855016,993.6020931945801
3813.2917,1.690882114246575,1020.7199503454433
3814.169,1.6964985596411972,970.7533145204412
3815.0483,1.7014387419425594,986.0994682779527
3815.926,1.704485576181594,979.7170783237117
3816.806,1.7047965267240317,957.4979462878433
3817.684,1.702126527727186,999.8790513394781
3818.5623,1.6968733968435106,1038.967024121507
3819.4429,1.6899106081788946,1070.6660294421877
3820.3215,1.6823574408473616,1046.0550829596948
3821.2024,1.6750176634778837,1008.6678838842087
3822.0815,1.6682232278036095,974.5668698730539
3822.963,1.661763262179157,1101.828745996532
3823.8423,1.6552468521386068,1072.3639845755306
3824.722,1.6481811032501184,1020.6796500214105
3825.604,1.640186009426073,1105.7585711963654
3826.4841,1.6313180887811447,1070.0813676306186
3827.3665,1.622086596112719,1040.033993132127
3828.2468,1.6134096894680576,1059.2634486361048
3829.1296,1.6059546986971338,1194.9078746804212
3830.0105,1.5999196806980083,1160.5759381850637
3830.8916,1.5949494626183573,1142.6921901694302
3831.7751,1.5906042494664567,1145.1626849078777
3832.6565,1.5867296218439157,1122.5927212741888
3833.5403,1.583362603053777,1126.9084239535723
3834.4224,1.5805431573704627,1211.2687121721299
3835.3064,1.5781507506706955,1096.0197925051596
3836.1887,1.5762425501336355,1164.8754132211016
3837.0713,1.5754009035184549,1253.1174467340227
3837.956,1.5767249182084566,1200.647230717384
3838.839,1.581180622497281,1141.7675129865581
3839.7244,1.5888396087500787,1106.5368924679324
3840.6077,1.598523455951617,1124.019418262534
3841.4932,1.608524574014363,1076.107384939478
3842.377,1.6175055298811472,1065.5926969360014
3843.261,1.6253443033041683,1011.615315484898
3844.1472,1.6328242370043538,1113.8382100052143
3845.0315,1.6406989496960278,1076.6831051226075
3845.9182,1.649121889481214,1067.0405616519968
3846.803,1.6575839285942346,1019.34570535478
3847.69,1.6657227179701835,997.5865378383974
3848.5752,1.6736405482463463,927.4770299730864
3849.4604,1.6818954284811791,1009.1988212067347
3850.3481,1.6909500948235956,969.0132649858137
3851.234,1.7007227343373144,921.4955589141836
3852.122,1.710757867746303,988.7900796177407
3853.0083,1.7202677843511107,994.6077051528817
3853.8967,1.728534303593795,966.9357085788256
3854.7832,1.73490133583669,926.0901426532638
3855.6702,1.739126512073555,917.2442121423851
3856.559,1.7414859106140412,949.9251834049852
3857.4463,1.742710810091341,1020.9962048640633
3858.336,1.743583280592992,994.8575963397983
3859.2234,1.7444250332904783,920.2451756429475
3860.1135,1.7450220060419448,970.4144490243301
3861.0015,1.7449702123186561,950.2344920926603
3861.8896,1.7441196136012487,1020.7483361541285
3862.7803,1.7426395960021794,956.4232507541308
3863.6687,1.7407406515921717,987.7431613374175
3864.5598,1.7383129253151162,957.4437277117847
3865.4487,1.7349457250033848,1006.2202951095026
3866.34,1.7301692423645936,980.3316958653955
3867.2297,1.7238591395990666,930.3303692710548
3868.1213,1.7162343179336008,1047.7822553992282
3869.0112,1.7077770760607818,903.920826022906
3869.9014,1.698874475741241,1036.1252099511248
3870.7937,1.6897134442137023,1004.5230286766506
3871.684,1.6803480478895472,1054.2804695119814
3872.577,1.6706513506410463,1036.898752266353
3873.4678,1.6606250937608058,1018.6215040074084
3874.361,1.65024467809287,1069.2503151867568
3875.2524,1.6395662119755934,1091.1952517713075
3876.1438,1.62847078257351,1075.282838801672
3877.0376,1.6168065004811534,1080.3780752780824
3877.9297,1.6046361417542376,1079.0425784820493
3878.8237,1.5920112370404684,1197.9325608513923
3879.716,1.578915982610416,1109.9376974651118
3880.6108,1.5648957921280175,1193.4673940646726
3881.5037,1.5495402282563395,1181.9774926315315
3882.3965,1.532707727327955,1235.1675620401106
3883.2917,1.5148075244880819,1203.154273875249
3884.185,1.4967288310913138,1257.7835992839496
3885.0808,1.4791252848494596,1337.1848477217209
3885.9746,1.4625462495846129,1287.9165006245003
3886.8706,1.4472004649225967,1335.9547197351656
3887.765,1.433555108256752,1310.454427100638
3888.6592,1.422343119775417,1500.1343944934217
3889.556,1.4146697039334215,1463.105520838007
3890.4507,1.4117332501814241,1442.3081494559233
3891.348,1.4142657938183416,1490.4276594057003
3892.243,1.4222985606381282,1448.3742962637598
3893.1406,1.4352544309468418,1426.6893628275022
3894.0361,1.4520158992841479,1254.365266739308
3894.932,1.4713639885072347,1426.9915324836697
3895.83,1.4920168241857892,1312.421643327504
3896.7263,1.5125861187700451,1253.754570487811
3897.625,1.532184931982037,1270.335448788045
3898.5215,1.5502790630260626,1191.4306753030041
3899.4207,1.5670791278396146,1192.5319851164356
3900.3176,1.5828234170040525,1233.028958138713
3901.2148,1.5977151482109244,1156.2223004798636
3902.1145,1.6116943898799958,1027.6243653899935
3903.0122,1.6246987403258597,1077.0238853535352
3903.912,1.6373083948746499,1064.4797956912944
3904.8103,1.6504773214271757,1015.1990804438715
3905.7107,1.6652396168604373,1030.807247548105
3906.6094,1.681860706736493,1014.2721793966584
3907.508,1.6997510126141908,985.6584947318908
3908.409,1.7174972139908073,1033.0821305321308
3909.308,1.7331988821085238,909.8871363729033
3910.2097,1.745519485211488,1019.8159477939993
3911.1091,1.7541679960571714,908.3733944827683
3912.011,1.760319008645468,932.7357497325327
3912.9111,1.765789354779937,990.3630035040468
3913.8113,1.7721030036730139,909.0796185998465
3914.7136,1.7797097136686402,884.7502655276779
3915.6143,1.7879285103550935,871.2025336850598
3916.517,1.7957138890870443,874.5583432515436
3917.4182,1.8023218428418464,882.1079382909663
3918.3215,1.8078576335785896,864.9016521311711
3919.223,1.8129934142202666,876.8782152347909
3920.1245,1.8185717612435737,825.7270684712515
3921.0286,1.8251699716316145,918.2818544169976
3921.9307,1.8328468680363486,831.4298543343898
3922.835,1.841122689188691,845.3282791017737
3923.7373,1.8488403421922743,821.0631254381341
3924.642,1.8547099081075364,843.0613601199294
3925.5452,1.8579238935626732,835.117987133942
3926.448,1.8587812600620024,819.7181551392615
3927.3535,1.8583970859410495,880.7825310214571
3928.257,1.8579147309103643,863.8430800693496
3929.1628,1.8577790449008154,785.7690178232734
3930.0667,1.8575815338122619,850.9709785014388
3930.9731,1.8564042796795057,822.1238486044733
3931.8774,1.8533932102550001,763.7216518347257
3932.782,1.8482488560229329,820.0650347119998
3933.6887,1.841457517587952,817.5594059381949
3934.5938,1.8341530748732726,858.7626633284661
3935.501,1.827420967618848,944.3388539404745
3936.4062,1.8217815228569596,886.930105503953
