wavl,flux,ivar
3566.9744,5.780971449563557,16.481893887537563
3567.795,5.808876421153772,17.527376101944522
3568.6177,5.8240378403794155,15.085521023144743
3569.4385,5.828414855957608,17.119082017500453
3570.2617,5.823796963734886,17.011348186204856
3571.083,5.811342266974588,15.386548459241565
3571.9065,5.791406932390323,13.795651002000957
3572.7283,5.763989547146564,15.935667948069185
3573.55,5.729578688332828,15.216699684314301
3574.374,5.6903887089603336,14.806437416811873
3575.1963,5.650117624768288,19.675096248386303
3576.0208,5.610857696165776,12.968122701102526
3576.8435,5.572394693413408,14.063826614855081
3577.6682,5.53312479532972,19.319583383925853
3578.4915,5.493678951872674,18.024249878474187
3579.3145,5.4570028853388495,17.649838766201384
3580.14,5.4262345816259625,19.768970221449955
3580.9636,5.402428664587814,20.389461139744395
3581.7893,5.383669615876899,18.12518238427412
3582.6133,5.36751459722676,19.576149742399572
3583.4395,5.353340827472945,16.98414867722382
3584.264,5.344065550521805,19.093308640492065
3585.0884,5.3446740194898945,21.692809345690364
3585.915,5.3591031062217445,18.33201318013141
3586.74,5.387084831338501,18.889608332467766
3587.5671,5.424150321221946,19.76346758253841
3588.3923,5.463430673465488,16.087821642185055
3589.22,5.498910492521427,18.23757253212936
3590.0457,5.525671977733961,18.046948097546203
3590.8716,5.5403431812144985,17.511673468975246
3591.6995,5.54091554192463,18.555762229989973
3592.526,5.528180990337715,16.13081085883954
3593.3542,5.5065715402543125,18.882625624024584
3594.181,5.483009333054932,16.147093614253574
3595.0098,5.46340582383399,17.280836222141176
3595.8367,5.45050843385024,19.76085428666948
3596.6638,5.443547076265411,13.856648573923907
3597.4934,5.440296218417535,13.889490487012296
3598.3208,5.4386168178340855,19.38572097357525
3599.1506,5.436548260981436,22.633979912539743
3599.9788,5.431957990638765,20.074728557750483
3600.8088,5.422915069745736,21.77513903677384
3601.6372,5.408677917018798,17.16072590743319
3602.4678,5.389120883090623,21.50311307503653
3603.2964,5.363557610893621,20.095628881288558
3604.1252,5.330880918504494,15.940763145444155
3604.9565,5.293152134182458,27.223879004885312
3605.786,5.258706749713373,22.257629298924428
3606.6172,5.238983850823033,23.984711672551047
3607.447,5.242312036748452,22.14761751327898
3608.2788,5.2682620655964385,16.898874288179623
3609.109,5.307442115811911,20.169564449182026
3609.9392,5.3460743133145,21.40333957823181
3610.7717,5.3713997420817625,16.7488549007659
3611.6023,5.375905866939545,15.818175754227545
3612.435,5.359463444968417,24.406433237670022
3613.266,5.328064103310763,23.59758516696691
3614.0994,5.290474671578743,19.884476213745213
3614.9307,5.255386212971686,21.51316904918631
3615.7625,5.228397293728104,17.31316507564263
3616.5962,5.211381059200004,24.626308071838572
3617.4282,5.202896051688229,19.78479495474152
3618.2625,5.199585541636921,18.724275690639875
3619.0947,5.1980760629365035,18.550157970725184
3619.9292,5.195716096346472,18.11536131598891
3620.762,5.190799823588187,20.858939923100298
3621.595,5.182784823062423,20.09054567552231
3622.4302,5.172372173730932,17.95904500973484
3623.2634,5.16061408319095,26.013398165547468
3624.0989,5.147136567210314,17.950465794806878
3624.9326,5.130187704637773,16.548211307251133
3625.7686,5.108366901205048,18.996284037623496
3626.6028,5.083264476902178,16.614414479749975
3627.437,5.059287477131341,22.567347621728466
3628.2734,5.041438579450646,29.65408927636705
3629.1082,5.03247043473896,18.466162184073937
3629.945,5.031388587075025,17.44207811862175
3630.78,5.035091804006981,20.371277336693453
3631.6174,5.041159288847968,19.673714499768167
3632.453,5.049417802570589,17.85380050315158
3633.2883,5.060964637357282,20.669030675861524
3634.1262,5.075590759884357,20.952761156484268
3634.9622,5.0903317706269124,17.75097122543441
3635.8005,5.101240906883166,17.666446408028623
3636.637,5.105873435065342,21.663429814067626
3637.4756,5.10457044446899,18.53280390133893
3638.3123,5.09899403515319,21.602269108754996
3639.1492,5.090330412942535,20.794273985681265
3639.9885,5.07881381158677,18.442030018422308
3640.826,5.06435277706265,20.282473451472768
3641.6653,5.046579023406747,22.901810009317394
3642.5032,5.025254434907232,24.57760186538433
3643.343,5.000861779110917,21.302809978721754
3644.1812,4.976268355190571,22.831496583141757
3645.0195,4.956357609627961,21.967091319193415
3645.86,4.9459471321480954,23.136946632212346
3646.699,4.946693629683716,19.349874813094175
3647.5398,4.95553807727713,22.877112997201465
3648.379,4.965956931580952,24.118114904813112
3649.2202,4.970810379841563,21.198913898300813
3650.0596,4.965044068540996,20.954009297423568
3650.8994,4.947834016334618,24.92067578741486
3651.7412,4.92315899349639,21.967152270803908
3652.5813,4.898640499747267,25.34045431945367
3653.4236,4.881611747617022,30.1823684022276
3654.2642,4.875410779317174,22.920103905664632
3655.1067,4.877178842132466,18.35254117134775
3655.9475,4.879931989926141,28.433390080168085
3656.7886,4.877175129300411,26.000750382294374
3657.6318,4.866933860328835,22.581749744445247
3658.4734,4.852555470113148,26.3200074496481
3659.317,4.839567232473237,25.240327272245434
3660.1587,4.8317846386820476,27.0411981778122
3661.003,4.829251961749239,28.497028684718074
3661.845,4.8300591720742325,24.771387309051097
3662.6875,4.833632260378538,23.615925397691335
3663.532,4.8423197056544565,33.570108776251466
3664.3748,4.859093908973884,29.109234935092363
3665.2197,4.883566017930051,29.07346019064671
3666.063,4.909638788880792,20.450694670481194
3666.9084,4.928452941154509,19.92704833710765
3667.752,4.93353266259787,20.008794245861537
3668.5977,4.925178190067795,23.303989555133803
3669.4417,4.9097650149213115,19.692123511528578
3670.286,4.895175320362827,18.536044892773734
3671.132,4.886227401822711,21.810193460913204
3671.9768,4.883173378516878,26.43092760932818
3672.8235,4.883238776121867,24.52454514396887
3673.6685,4.883468210523596,20.49489185607639
3674.5156,4.882526327449976,22.739795927440454
3675.3608,4.880773695368985,28.0988814611375
3676.2063,4.878914554299447,20.81004268644531
3677.0542,4.876488818545523,22.25546768288286
3677.9,4.871789650619518,25.384427582602765
3678.748,4.86368403899557,23.524634780129595
3679.5945,4.8540053952740925,24.111041507514575
3680.4429,4.847377034711196,30.444772136885184
3681.2896,4.848108272529994,23.171931082124964
3682.1365,4.856217665535323,19.890432937239403
3682.9856,4.866599313353671,24.50709518448337
3683.8328,4.871969655203216,22.3627635388881
3684.6824,4.867706822323143,24.227022440851073
3685.53,4.854509394139262,26.713954599381918
3686.38,4.837171922817751,21.508786674132068
3687.2278,4.821103736177332,22.415903082958707
3688.0762,4.809098913416131,18.65292549438967
3688.9265,4.801411738006964,22.139712006751434
3689.7751,4.7975854025646845,19.98954811942151
3690.626,4.797647425199579,24.62515952107582
3691.475,4.801814794926006,27.139631755546453
3692.3264,4.809547714834318,23.146904855041896
3693.1758,4.819146901509928,25.218960929656824
3694.0254,4.828033850949223,24.034080854776583
3694.8772,4.832843326937384,22.250435376342686
3695.7273,4.830038143836048,25.27451026668023
3696.5793,4.817699681838991,18.9225349994328
3697.43,4.797611920249949,26.679988079742643
3698.2825,4.775325749285949,21.063663684784768
3699.1333,4.757776377003742,25.307498620351467
3699.9841,4.748883758045914,20.88984304486104
3700.8374,4.747441911043655,21.46080130770452
3701.6887,4.7486723117559935,20.294865410204995
3702.5425,4.7484178255586835,24.96257034261333
3703.3943,4.746039755555772,27.28726149911233
3704.2483,4.7433717346415785,28.02381007011712
3705.1003,4.7415339908988985,22.7761365864952
3705.9526,4.739312646708,25.700114469221568
3706.8074,4.734576853044806,24.169859388518695
3707.66,4.726556838996282,25.31595086888382
3708.515,4.716233679713041,25.742864048480445
3709.3682,4.705129944409618,20.921135362202392
3710.2234,4.6937010128179235,26.679664414344536
3711.0771,4.6813168232994355,24.43513764929237
3711.9307,4.666787159265566,24.990512922204204
3712.7866,4.649096219824559,26.83431783381351
3713.6409,4.628262715158484,24.860135208338534
3714.4973,4.605692296097145,26.51726001747371
3715.3518,4.5843514161949335,21.840181365213475
3716.2085,4.566595246506738,27.01732505123796
3717.0635,4.552437895932946,30.350139941807555
3717.9185,4.539041956230831,28.99588241505974
3718.776,4.523022061124957,30.14833468345899
3719.6313,4.503194750121166,29.640555909259433
3720.489,4.481091690743186,23.925535498830516
3721.345,4.460008977380409,24.124843659015443
3722.2031,4.4426227420108875,30.811923399337775
3723.0593,4.430245665591305,28.368896614525767
3723.9158,4.422799537855788,21.232828101211535
3724.7747,4.419869083018011,29.938686871298163
3725.6316,4.420981954733601,25.938046122847478
3726.4905,4.424986669577466,27.620182981375333
3727.348,4.429403425649334,31.58295119641182
3728.2073,4.430951873093359,25.98099238095185
3729.065,4.4273851144607645,25.52940656634264
3729.9229,4.419412491413308,25.99799854714242
3730.783,4.4106892764261705,30.60958337534095
3731.6414,4.405650776800459,32.768662650400834
3732.5017,4.406470843413799,29.686450197752556
3733.3604,4.41174741306601,28.192127795415143
3734.2214,4.4175501098632886,24.74843344091132
3735.0803,4.419980210482571,26.17267202069578
3735.9417,4.417598206705132,31.166898963462135
3736.8013,4.411760770120484,27.974209807113763
3737.661,4.4048016604596345,31.83280583147803
3738.5227,4.39772397820796,32.36165295466332
3739.3828,4.38968188450099,25.315011781621088
3740.245,4.379474471852838,28.9898808973548
3741.1055,4.3676527996607355,29.937525658027656
3741.9683,4.3563255411648765,25.577610791212905
3742.829,4.347316359225866,30.972910307980563
3743.69,4.340082575038486,26.70713983450848
3744.5532,4.332173639174277,26.61290715288141
3745.4148,4.321547332273468,24.828869888555147
3746.2786,4.308297810113603,28.13223307704479
3747.1404,4.2946063195347515,27.543974152415796
3748.0044,4.282646998845201,34.32173541851098
3748.8667,4.273196905133405,32.17062793664744
3749.729,4.265185156352056,32.18512349786684
3750.5938,4.256638288010944,25.193205102346855
3751.4565,4.245948419500563,30.02273573500238
3752.3215,4.232808859977721,30.00739391026415
3753.1848,4.219078617108441,37.3375727133457
3754.0503,4.208193821578497,30.722002688434277
3754.9138,4.203680153555493,42.40150366509383
3755.7776,4.206851468141556,27.349734187275143
3756.6438,4.216121934684411,30.89671510884928
3757.508,4.2279529294463485,30.140630729350335
3758.3745,4.238991251207249,26.870012531224354
3759.239,4.247069605505328,26.495614728601666
3760.106,4.251246249557916,32.55319829773303
3760.971,4.250948732991561,32.458328044783045
3761.8362,4.2458522815979,34.46359066815022
3762.7036,4.236268592499109,30.45067224525773
3763.5693,4.2237321124464735,30.485664570751972
3764.437,4.210596824772501,31.998199643096616
3765.3032,4.199148912741847,31.75794425587197
3766.1714,4.190136664717979,32.67499442523883
3767.0378,4.182472835351561,29.683246489253946
3767.9043,4.173963750453511,35.48188975607018
3768.7732,4.162909794535738,30.88986502961207
3769.6401,4.149201174762807,28.587364297924506
3770.5095,4.134017912563649,31.56633936201549
3771.377,4.119482561531428,30.487921886398723
3772.2466,4.107872794768036,25.194891513425294
3773.1145,4.101299795061364,33.66009806881714
3773.9824,4.100481674805343,36.58279790199483
3774.8528,4.1039053087784625,30.6839390573163
3775.721,4.108107391397157,28.666298021989476
3776.5918,4.109877561436367,35.52073236160821
3777.4604,4.108574131016988,33.05258514448988
3778.3315,4.106437750789419,31.065041507822375
3779.201,4.106333550273012,48.809882949992186
3780.0703,4.1091432415875895,30.86962940753494
3780.942,4.113371440984227,30.824279861504216
3781.8118,4.116862506449705,31.992446813635382
3782.6838,4.11868970203154,32.04014580599044
3783.554,4.1192196041472675,28.462548185001296
3784.4265,4.118887541164753,33.49126995972414
3785.297,4.117243630448362,36.29609425941877
3786.168,4.113378196604863,30.70264495408791
3787.041,4.107059566940576,33.235003615774374
3787.912,4.099228770752703,28.938772633816633
3788.7856,4.0909907264648675,28.638951579884004
3789.6572,4.082490820052519,31.763876634716173
3790.531,4.072519220185532,35.99945802542126
3791.403,4.059747598743031,33.870055968144165
3792.2754,4.043860441783456,35.32667449747487
3793.15,4.025964085004571,38.73713004531392
3794.0225,4.008107016256257,30.59887011275321
3794.8972,3.9920888935681225,39.79552339258163
3795.7703,3.979187419513056,39.36309308311518
3796.6455,3.9695688309857053,36.46953537182281
3797.519,3.9624837696205915,38.23728283610793
3798.3926,3.956726349660915,39.756530072345605
3799.2686,3.951892693543169,30.997103935149372
3800.1426,3.9490342976526116,39.52488285286952
3801.0188,3.9497504900274536,39.97968252798535
3801.8933,3.9546087948123594,37.39171592049545
3802.77,3.9623457474518395,34.08115286311392
3803.6448,3.9705164403454063,38.41442223174947
3804.522,3.9771805174870503,36.49798416855584
3805.3972,3.9818440672859308,37.70254314948553
3806.2727,3.98538754878058,34.1116230427188
3807.1504,3.9888548500785754,29.749358165456208
3808.0261,3.9924463936971706,31.450073005543604
3808.9043,3.995593225474932,28.148541490273438
3809.7805,3.9977286930732054,31.235673735708225
3810.659,3.9990328078319854,38.0338456278097
3811.5356,4.000229048341854,36.54392554315347
3812.4126,4.001843867008283,35.649110805127364
3813.2917,4.0036349138613545,32.85446902362098
3814.169,4.00472998253396,31.06846787300112
3815.0483,4.004315179943116,33.718334517514
3815.926,4.002139176262606,36.420984707308214
3816.806,3.998418221464148,32.218821937014816
3817.684,3.993401605461703,36.698683719343
3818.5623,3.987077834319885,33.707416513493584
3819.4429,3.979337951519501,36.67309016633209
3820.3215,3.9701380914483435,32.57072447946429
3821.2024,3.9590194738263347,30.199956481721365
3822.0815,3.9449519215119997,34.72860144379407
3822.963,3.9264538264341735,33.940703410469204
3823.8423,3.9028275147052702,36.03829650738648
3824.722,3.874680979451891,32.61381708152429
3825.604,3.8438919781685694,40.98514534057629
3826.4841,3.8128493244810233,36.58807795159224
3827.3665,3.782893400896955,40.342507498196056
3828.2468,3.7547870011705045,41.333166557937616
3829.1296,3.7288563965498005,42.498120276584615
3830.0105,3.7060476460923835,34.42322514979968
3830.8916,3.687143177923917,46.8312698189608
3831.7751,3.6723241130078454,46.526557814960455
3832.6565,3.661053423001163,40.55402581086188
3833.5403,3.652216515877143,39.51430402107742
3834.4224,3.64472491260696,47.531341998417986
3835.3064,3.637360563160063,42.618495158159064
3836.1887,3.6290699609894213,44.99142959583395
3837.0713,3.6195685852640773,35.79218453668543
3837.956,3.610315331259577,48.960323225247116
3838.839,3.604807593541908,32.59311251990309
3839.7244,3.607273469884205,44.16361534511744
3840.6077,3.620396512597055,49.1129456116521
3841.4932,3.6434591343566507,44.226051655772956
3842.377,3.672339382758831,47.33500780586391
3843.261,3.7022666997234928,35.75334579498475
3844.1472,3.730249987212765,39.55807776538683
3845.0315,3.7553827092352274,41.33238805700724
3845.9182,3.7778168497247284,31.750044823238373
3846.803,3.7967965205143637,34.21988005702475
3847.69,3.8111653027165926,38.80613009672999
3848.5752,3.820362386874683,36.28441350797281
3849.4604,3.8258515029066924,42.59005129018277
3850.3481,3.8308110237991824,34.819732726340156
3851.234,3.8384534513226307,40.20891899146736
3852.122,3.8500585441274175,33.01691902166398
3853.0083,3.863873631988631,37.40253940174259
3853.8967,3.876234151487065,36.60328214880753
3854.7832,3.8834504153721063,33.212104580875035
3855.6702,3.8840572152251513,31.344630631855054
3856.559,3.879589340005825,32.19938359342128
3857.4463,3.8738125594877344,35.6805509517295
3858.336,3.870175263622115,35.488562768976514
3859.2234,3.8694226767113555,39.22568453603083
3860.1135,3.869244376365756,37.29034118398845
3861.0015,3.8665777822234495,37.020438440963886
3861.8896,3.8602112858957462,41.572534362804696
3862.7803,3.851215946183477,43.38464516668282
3863.6687,3.8412912722720858,34.44868512276127
3864.5598,3.830810768515561,31.362124102194255
3865.4487,3.8190317283118365,40.55616645020075
3866.34,3.8052492189794807,38.19549530561658
3867.2297,3.7900718918895904,37.14482826545333
3868.1213,3.7747520229847016,44.76057993223603
3869.0112,3.760081521395441,40.82277938066223
3869.9014,3.7453864152800835,41.83594881338989
3870.7937,3.729264810170377,39.01425363709707
3871.684,3.7110635369053044,38.69578294910756
3872.577,3.6911176959918897,41.94302176487906
3873.4678,3.6701707279586526,37.79125484686219
3874.361,3.647758502094208,48.34262929022829
3875.2524,3.6226656941461246,38.507651605332946
3876.1438,3.593908237339503,36.853834223765
3877.0376,3.5619502873081084,50.90218018866913
3877.9297,3.52862512164722,53.17247835246141
3878.8237,3.4952802442285718,41.76956973287992
3879.716,3.4624117491334268,54.30416391108067
3880.6108,3.4292550673351747,41.27869120754064
3881.5037,3.3951211296503336,45.98546119559952
3882.3965,3.359410420555859,41.88308459288518
3883.2917,3.3218930605222994,45.678067761774784
3884.185,3.2828089983122926,42.54680703715925
3885.0808,3.242140088666467,49.23129046107805
3885.9746,3.20076937602522,47.047757652717486
3886.8706,3.1602801301647117,42.66776568942158
3887.765,3.1237944952782555,62.28557003477642
3888.6592,3.0946460031981373,59.69969189524396
3889.556,3.0756724627112333,64.40943435009808
3890.4507,3.068709721645071,60.29438978127229
3891.348,3.0743121765001167,46.894792659498954
3892.243,3.0920997649090873,57.55749234245263
3893.1406,3.1210035398588514,52.229415969625514
3894.0361,3.158845614288006,60.72281149289226
3894.932,3.2027761767455236,57.55569955261434
3895.83,3.2493250563524025,63.12389341481951
3896.7263,3.29465065611236,57.469634160312474
3897.625,3.3362456486688266,49.6144046807638
3898.5215,3.3728318090658815,57.16859115893646
3899.4207,3.4053665914764295,55.86291426784121
3900.3176,3.435606745242583,36.7025700566048
3901.2148,3.465493412358493,46.77469035546819
3902.1145,3.4956747944846938,40.56121514892021
3903.0122,3.5250037466705493,45.76997682490956
3903.912,3.5519610651771796,48.11488087134548
3904.8103,3.575653024934076,44.17308193293238
3905.7107,3.597141798843772,42.9278317228945
3906.6094,3.618321932086265,39.154127250979535
3907.508,3.640455826230652,36.95580033019512
3908.409,3.662854452887211,46.38316659125628
3909.308,3.6834646730467013,40.23863343998755
3910.2097,3.7013954027275697,36.00405235530738
3911.1091,3.718074578044636,48.583404691178565
3912.011,3.736928803679776,40.379596658760796
3912.9111,3.76063027366513,37.08535906861988
3913.8113,3.789247411160748,41.691843986576835
3914.7136,3.819814151224907,34.404032885109686
3915.6143,3.8476462467993535,39.62734983789441
3916.517,3.8692897721890573,38.508121449211934
3917.4182,3.883962609408896,33.383072784900556
3918.3215,3.894012432100325,36.87870036410653
3919.223,3.90298654316375,33.84238902194813
3920.1245,3.913735720685649,38.910647866844016
3921.0286,3.9271942439163507,37.15328163458189
3921.9307,3.942199210057141,33.6264147700842
3922.835,3.9561813255008995,41.130628776311475
3923.7373,3.9657753254158044,36.70144705896568
3924.642,3.9685552240469275,27.177390742077296
3925.5452,3.9645337219452164,33.94270369219628
3926.448,3.956660374405614,39.31594302547832
3927.3535,3.949215563440437,34.71046375709242
3928.257,3.945500767002443,37.95877464284651
3929.1628,3.94616899783074,37.44376921657489
3930.0667,3.949324353124807,33.83886290285438
3930.9731,3.951636448658892,38.52504630887433
3931.8774,3.9498339025453673,36.93739016296474
3932.782,3.9421908781421693,37.486021091398015
3933.6887,3.9291467231644464,37.28676023271964
3934.5938,3.912757305015036,34.33962176088505
3935.501,3.8947970965370597,38.57560495540698
3936.4062,3.875803683312917,36.16636185576726
3937.3142,3.855085890052245,34.80336304254296
3938.22,3.8324498019965008,38.550840450934686
