wavl,flux,ivar
3566.9744,2.524963990821368,500.08599927773855
3567.795,2.526781412853872,474.65494199451626
3568.6177,2.526809211121407,487.68191616774516
3569.4385,2.523851742921034,456.0557281336867
3570.2617,2.518320403615606,472.84946621804227
3571.083,2.5121853633012035,478.830493370682
3571.9065,2.507797279016518,465.97400438556815
3572.7283,2.5067609082588547,472.0269685429671
3573.55,2.509267027614617,475.38268471576856
3574.374,2.514280273987686,496.4343196960992
3575.1963,2.519942538138134,502.9353324323205
3576.0208,2.524281895540361,478.41495998148844
3576.8435,2.5258503175469227,454.2242944381822
3577.6682,2.524331982027911,494.1182962135328
3578.4915,2.520483934199861,498.64210122479506
3579.3145,2.5155384505944345,491.3222433046534
3580.14,2.5104874848826237,446.2332600800429
3580.9636,2.5057923908299773,488.9520781611314
3581.7893,2.5013931984223534,482.2351377900861
3582.6133,2.4971397739092214,481.96888679702136
3583.4395,2.4930129204857754,468.2949782048892
3584.264,2.489274733822741,508.18296565903097
3585.0884,2.486257468046883,495.96066538967926
3585.915,2.4842057719047057,483.8382373665919
3586.74,2.483177888218542,558.5528199316276
3587.5671,2.4830080762999147,498.4211323981552
3588.3923,2.4833844970789873,469.57509091756543
3589.22,2.483920302662917,494.35095778626174
3590.0457,2.484221337756785,524.2796072246332
3590.8716,2.483974770035164,449.7646438526112
3591.6995,2.4830198436453923,491.0957549803971
3592.526,2.481330950037561,486.69216755518676
3593.3542,2.478811644768936,531.1692599318222
3594.181,2.475198976367138,477.43638172860295
3595.0098,2.470258225619522,507.05666983036156
3595.8367,2.4643786919123034,471.65725071250284
3596.6638,2.4587635501769793,497.56728847802657
3597.4934,2.455060501436556,451.66960007924985
3598.3208,2.4544575569598703,512.5658232286639
3599.1506,2.4568387709573214,520.5770075732892
3599.9788,2.460749223924613,537.8865880977681
3600.8088,2.4641983516105306,495.89379879218615
3601.6372,2.465727834134321,527.0308711653793
3602.4678,2.4651160478330345,475.0252556344095
3603.2964,2.4630199676088975,535.8720609109803
3604.1252,2.459973050653309,495.0090961846826
3604.9565,2.4557460047049147,478.0626182342468
3605.786,2.4498121624622518,471.72317464202354
3606.6172,2.4422313005656595,472.7692564339586
3607.447,2.4341818924161034,509.2584564234495
3608.2788,2.4273293962588847,451.9189954377208
3609.109,2.4230498745491973,486.13639576359924
3609.9392,2.4217211969553807,534.8320650056073
3610.7717,2.4226818415016123,500.06685374094485
3611.6023,2.4245064472251787,480.36120007908306
3612.435,2.4257019497644894,545.0905647088166
3613.266,2.4254671599619217,515.4781471232075
3614.0994,2.4240898016907653,469.4166361335035
3614.9307,2.422603057116259,571.3625563000473
3615.7625,2.4219275490644434,505.3126424271928
3616.5962,2.422202952037372,510.76491845080835
3617.4282,2.4227267260560565,515.6845428898259
3618.2625,2.422474361760613,549.759660594403
3619.0947,2.420726719377524,522.2485188361383
3619.9292,2.4174130380962806,513.3522857545568
3620.762,2.4131477067563725,512.4375043368018
3621.595,2.4089108325211295,520.7380520681658
3622.4302,2.4056043570001844,489.6396710481118
3623.2634,2.403606184570272,535.4960117215808
3624.0989,2.4026077921665916,569.1998981722303
3624.9326,2.402082166138236,512.4090604866079
3625.7686,2.4018314269349132,537.5240356545497
3626.6028,2.402075664740972,523.662876249899
3627.437,2.4029341313595944,535.6415081211426
3628.2734,2.4039613557882378,544.2666410814568
3629.1082,2.404283110124654,533.8986195032436
3629.945,2.403225029830283,555.3037728491025
3630.78,2.400779647959534,508.29219357669945
3631.6174,2.3975558988207486,516.7176473028088
3632.453,2.3944850723309097,499.0550425915602
3633.2883,2.3924319869004154,508.19077694866525
3634.1262,2.3919859157855208,556.0467911561469
3634.9622,2.393237513227107,515.677630698028
3635.8005,2.3956234749727607,588.6183504681783
3636.637,2.398016690160622,523.8219373294045
3637.4756,2.399276027958032,516.1448652105216
3638.3123,2.3989006486663125,504.520588136884
3639.1492,2.3973598731232975,541.5154178838213
3639.9885,2.3956230694432628,551.0132050599285
3640.826,2.394320882033251,508.1570221730598
3641.6653,2.3932578725549627,487.6871755220807
3642.5032,2.3918060189237753,543.7162012427602
3643.343,2.389616951311381,577.47939261917
3644.1812,2.3870061466193953,548.6881968001494
3645.0195,2.3846745974372463,513.722800368669
3645.86,2.383234552946205,530.8351930224733
3646.699,2.3828913253119093,490.89523575308056
3647.5398,2.3833973324562736,530.9322314012483
3648.379,2.3842494573472566,521.0995845812826
3649.2202,2.384941741287729,508.60329741106204
3650.0596,2.385135296835867,511.60622574893426
3650.8994,2.3847281940455027,535.026020079656
3651.7412,2.3837925182167945,570.17057734867
3652.5813,2.382440298586831,568.2030045402561
3653.4236,2.3805974476709326,581.4014669921257
3654.2642,2.377872663449145,538.1907751055667
3655.1067,2.373571522186042,485.16093362761984
3655.9475,2.3670423917315366,522.5924278964583
3656.7886,2.358021425399422,522.8372256148466
3657.6318,2.3470427383192245,544.7373283555503
3658.4734,2.3358689880458017,576.0071026769299
3659.317,2.3272948819227426,553.9459713741853
3660.1587,2.3244509479848867,543.6492111977658
3661.003,2.3290293929537245,561.7466914735469
3661.845,2.339900402100813,571.006619641953
3662.6875,2.353299349031453,498.2323958419712
3663.532,2.364606468449709,552.8767564094629
3664.3748,2.370596265848115,541.2964276622827
3665.2197,2.3709469171609903,534.691972399227
3666.063,2.3677605618450643,592.3990276744435
3666.9084,2.363849919530532,561.2743359507181
3667.752,2.360945373798738,552.5272682066517
3668.5977,2.3589929822683438,520.308537779231
3669.4417,2.3569505462475715,525.5901069074498
3670.286,2.353953097298596,509.2958241863099
3671.132,2.3499545152469787,544.6760541000255
3671.9768,2.3455655282397125,492.32928001108644
3672.8235,2.3414296697260064,526.1042335593856
3673.6685,2.3378884626872716,545.13868174151
3674.5156,2.334874619977344,583.3706072676622
3675.3608,2.3321668567165164,548.685195414291
3676.2063,2.3295574348902286,617.1420212535136
3677.0542,2.3270372657418577,576.6024497491109
3677.9,2.3248876142587935,545.9892849538213
3678.748,2.3235641590521565,581.2169516186996
3679.5945,2.323491995151471,566.3545325039087
3680.4429,2.3247497163588715,599.1514749284138
3681.2896,2.326972727374497,591.0601978133451
3682.1365,2.3295354414216063,568.5443617445185
3682.9856,2.3318133207487595,589.1909192889472
3683.8328,2.3333458658435853,584.8554109903696
3684.6824,2.3339411265526433,509.4657377782016
3685.53,2.333627233017652,568.5273500877479
3686.38,2.3325527281349783,603.1637219968027
3687.2278,2.330875109590421,584.1050549873612
3688.0762,2.328762044048301,573.3109440411472
3688.9265,2.326494236637353,612.8756271637427
3689.7751,2.3244743271081263,635.1785221048235
3690.626,2.323066634278061,561.176087462554
3691.475,2.3225229476662617,585.8365143977605
3692.3264,2.322901490417331,594.2552254049264
3693.1758,2.323993426383236,528.6406955774207
3694.0254,2.325272820371614,535.2330596594979
3694.8772,2.3260237578610585,510.6984478311787
3695.7273,2.3256832140358226,548.5095759406557
3696.5793,2.3242513904380533,544.2890494836489
3697.43,2.3224392337974145,582.0095564838965
3698.2825,2.3212717725100926,538.6935358374558
3699.1333,2.3213349281562707,617.671676820981
3699.9841,2.322213482259319,547.3357435672837
3700.8374,2.322747145448422,548.7405364058125
3701.6887,2.3218791127620966,570.1192082326132
3702.5425,2.3193614483936407,547.0181143967499
3703.3943,2.315779788530889,576.7293343273391
3704.2483,2.311990762104238,565.3964944055102
3705.1003,2.3086836235830446,568.874154193548
3705.9526,2.3061216442499686,569.5598531338951
3706.8074,2.3042143340327677,547.16245998608
3707.66,2.3026674720828786,599.3617655283088
3708.515,2.301149884401533,559.4820071542571
3709.3682,2.299500579908847,573.3549849455267
3710.2234,2.297683003396786,597.4004903460412
3711.0771,2.295609374547,629.9455118292442
3711.9307,2.2929890787025586,620.4379247765397
3712.7866,2.289550395129145,568.9630839676845
3713.6409,2.2855341509646183,578.5044312411097
3714.4973,2.2818318497384302,572.2789418158187
3715.3518,2.2796322150658557,642.3478062240047
3716.2085,2.279592325921651,552.4083269880101
3717.0635,2.2814515386190797,631.4360463164409
3717.9185,2.2843294276440873,583.7948066993654
3718.776,2.287447145680625,597.1724155089914
3719.6313,2.2905298243115584,634.8728840524677
3720.489,2.2937200727179223,569.1011918824994
3721.345,2.297019354408638,590.8930609503662
3722.2031,2.2999584433900786,524.3833808382584
3723.0593,2.3016035175214893,564.7856267736546
3723.9158,2.301124382616923,558.2746383017704
3724.7747,2.2983465903609517,591.503057707652
3725.6316,2.293972258626534,621.3902932229347
3726.4905,2.2891229311545613,615.0630520985036
3727.348,2.2847780600938017,568.734218654664
3728.2073,2.281376819631577,615.9703050877636
3729.065,2.2790218477505038,612.0236400588892
3729.9229,2.2777411639721903,647.6974454808009
3730.783,2.277606503914218,611.6512061662288
3731.6414,2.2784914835098125,560.5753027400156
3732.5017,2.2798248999221116,555.1141140107411
3733.3604,2.2806456448903494,608.7249225344383
3734.2214,2.280019662772864,547.8836150471282
3735.0803,2.2775417170473493,554.6992795530837
3735.9417,2.273614710103275,581.9102973488615
3736.8013,2.269339715639753,579.0654789508196
3737.661,2.2658561079804844,586.0481424161148
3738.5227,2.2637428885071103,579.9599582863149
3739.3828,2.262890652289109,555.0355130196833
3740.245,2.2628614168748404,561.3154291861804
3741.1055,2.263363052763986,600.5606362909766
3741.9683,2.2644592633472147,582.7305594629994
3742.829,2.266726877659709,601.5599223208827
3743.69,2.271518246025963,556.5332761066697
3744.5532,2.2807223119159747,627.2610753957781
3745.4148,2.2951577857019307,632.7772643640376
3746.2786,2.312638554491972,622.1887523382477
3747.1404,2.3273625729804954,631.8668164691792
3748.0044,2.333134077950344,581.1328512036249
3748.8667,2.3274773137682,556.8353468370946
3749.729,2.3134328998756386,599.4008629637384
3750.5938,2.296818439311375,575.3731693286901
3751.4565,2.2823754345518914,626.1887025312913
3752.3215,2.271637286967544,578.3263751184686
3753.1848,2.2642261121093115,593.0991041650392
3754.0503,2.2594336786921287,581.7151083742925
3754.9138,2.2569853624995506,588.8701020531547
3755.7776,2.256428826454531,604.1302416509428
3756.6438,2.2567093058546734,567.6092550467906
3757.508,2.256495478557367,556.270100616443
3758.3745,2.255031339996872,620.447976418577
3759.239,2.2525888019482205,611.1045625732687
3760.106,2.2500230943785753,601.0913643889922
3760.971,2.2479644344346954,600.5667569855373
3761.8362,2.2462799516200156,534.2830858406833
3762.7036,2.2443191474980995,560.9251058759463
3763.5693,2.2415696303023243,591.3829632804369
3764.437,2.238095827900992,626.5824771521461
3765.3032,2.2345213203058925,614.1319939658888
3766.1714,2.231508272212123,624.979350497317
3767.0378,2.2293679262770993,572.008860371619
3767.9043,2.227946426476611,594.9746307688215
3768.7732,2.226930840879073,584.1261144450785
3769.6401,2.2261737819993894,587.6961833914079
3770.5095,2.225752827455317,647.8675372502869
3771.377,2.2258092632228452,610.2785764237885
3772.2466,2.22635172618632,599.0229543281158
3773.1145,2.2272503177147165,659.4732032601863
3773.9824,2.228372874456515,629.9422494674982
3774.8528,2.22966651374527,629.4700870774845
3775.721,2.231104466212903,625.02723881362
3776.5918,2.232660371748479,618.9926091078305
3777.4604,2.234320342766987,644.2391394813031
3778.3315,2.2361985482574633,636.7698227280991
3779.201,2.2384698963087204,639.7247952309755
3780.0703,2.2412155930477224,603.9550027284102
3780.942,2.2442138316414084,631.3984084498035
3781.8118,2.2468730330759716,571.7960159736853
3782.6838,2.2484672080577934,581.5739711539684
3783.554,2.2484337045986016,618.8866081223161
3784.4265,2.2466801448262204,672.5250484879631
3785.297,2.2436281608912387,618.1944849447711
3786.168,2.239966780743855,606.5439351907686
3787.041,2.236320813906142,580.0581738286081
3787.912,2.2329996733609936,568.7438801295623
3788.7856,2.2298133043962394,622.265776401306
3789.6572,2.226270798482943,564.6259302965609
3790.531,2.2219025686067755,549.6293975240671
3791.403,2.216726681481374,604.6350899981159
3792.2754,2.211212005511137,624.4714942327322
3793.15,2.205894775452831,575.9724350552021
3794.0225,2.2009219754892175,654.6553072906271
3794.8972,2.1958358247547376,632.5191731327059
3795.7703,2.1900569288768033,633.0159057220407
3796.6455,2.183390854840899,641.8498806011179
3797.519,2.1764656309778876,664.5118316061772
3798.3926,2.1704354280298563,640.3957172483932
3799.2686,2.166489697487051,652.0110566221936
3800.1426,2.165411088041876,679.2156260761044
3801.0188,2.1673549707146704,694.9408906790655
3801.8933,2.1719438714333736,630.4890645807095
3802.77,2.1784607675368712,669.7900827775434
3803.6448,2.1860160242923943,635.8027280432756
3804.522,2.19400215777882,621.8653221273823
3805.3972,2.20219762506359,642.2881833821535
3806.2727,2.2107921249212366,543.9405857010465
3807.1504,2.219892825083158,588.6178285813064
3808.0261,2.229088430809361,601.3349257047875
3808.9043,2.2376355037948037,583.4159944674165
3809.7805,2.2446765049728796,563.5299313457733
3810.659,2.2498049875370953,581.4986291268588
3811.5356,2.253049084069848,603.579625620267
3812.4126,2.2547391274667246,615.6488896116716
3813.2917,2.255099498572801,589.4742520960381
3814.169,2.254095012421533,634.4109411821445
3815.0483,2.2516373849336455,622.8121537372493
3815.926,2.248006871901033,589.3806731152497
3816.806,2.2439520495399425,601.5047342044846
3817.684,2.2403517928683154,610.8349761093746
3818.5623,2.2375166272252915,604.7757799992676
3819.4429,2.234962996814501,595.9208371394398
3820.3215,2.2318302590567503,588.7357549069875
3821.2024,2.227458447640392,633.641861074384
3822.0815,2.2216706871587526,607.9017831499185
3822.963,2.2144152737347627,639.295569367083
3823.8423,2.2056076111425904,604.8430131751568
3824.722,2.195186706975066,637.5379911897262
3825.604,2.183562310836271,643.1807584410024
3826.4841,2.171812046282672,647.8611774651476
3827.3665,2.1609906111886583,662.6063044937802
3828.2468,2.151614451431127,659.1864834435969
3829.1296,2.1431307551137477,612.8054832935633
3830.0105,2.1344552993680646,675.2158222081432
3830.8916,2.124523573078948,645.9627245601417
3831.7751,2.1128593166318432,740.1437287823535
3832.6565,2.0997801652959267,703.8176205198298
3833.5403,2.0860530017920023,747.4568498334188
3834.4224,2.073039127549732,693.4225843147424
3835.3064,2.0623227983837165,682.611931431457
3836.1887,2.0555806186667884,730.8867774373493
3837.0713,2.0538741778694227,713.2499358051384
3837.956,2.057346156190374,714.8280591188288
3838.839,2.0651681934190225,680.6146936772438
3839.7244,2.076053884249492,736.7013372133187
3840.6077,2.088686095391465,682.3787871042472
3841.4932,2.1022965956687436,660.8980690257849
3842.377,2.1165487837883172,720.9983614545528
3843.261,2.131583369511847,663.903987413535
3844.1472,2.1476106619806616,725.9753680835609
3845.0315,2.164480676122672,615.5398477119267
3845.9182,2.1818415015108186,650.8006910760671
3846.803,2.1989519032056863,609.9930395569401
3847.69,2.2152684517639605,600.2740711018124
3848.5752,2.2302985687298853,574.343141973928
3849.4604,2.243852365432149,628.0746040705828
3850.3481,2.25585646787449,607.233800179909
3851.234,2.2662826717142717,581.8367791779032
3852.122,2.2754845689656986,568.5980270334549
3853.0083,2.284011878460832,584.1557734708347
3853.8967,2.2925186539608253,567.7882780411421
3854.7832,2.301157049877154,552.2835798755907
3855.6702,2.3095090227908694,563.1083501271221
3856.559,2.316720254400775,546.864921121465
3857.4463,2.32191866370501,576.7392941747366
3858.336,2.324660104807903,546.8288993221519
3859.2234,2.3249802422487944,524.0228037345621
3860.1135,2.3234302992859504,578.8868451259038
3861.0015,2.3208875248622163,543.8794119534022
3861.8896,2.3181570801226674,589.5724734179262
3862.7803,2.3155847458726186,543.2494596813375
3863.6687,2.3130121064553992,548.846397331154
3864.5598,2.310026769749003,569.6117788537695
3865.4487,2.3062866579358126,578.9344883509384
3866.34,2.3013692075372822,580.142720606806
3867.2297,2.294671900291467,572.9108756688224
3868.1213,2.2855199809911935,557.4224409468691
3869.0112,2.2738475834352734,580.4124328396307
3869.9014,2.2603899895798225,611.7847362465931
3870.7937,2.2463287467026682,587.8876444560681
3871.684,2.232556882868351,638.4134064044729
3872.577,2.218873232184113,633.4599538220384
3873.4678,2.204402530669788,567.9823129004363
3874.361,2.1880706321072982,631.0913205230515
3875.2524,2.1697567279997187,564.7750016043769
3876.1438,2.150363005905368,641.5828044936443
3877.0376,2.1313294952053803,1189.921786495479
3877.9297,2.1136177511033134,703.9559892598196
3878.8237,2.0966351201856748,644.6245851786001
3879.716,2.078912697389628,763.4616409923373
3880.6108,2.058936019747555,729.2632071840363
3881.5037,2.0363485839362423,797.728884184191
3882.3965,2.0116440920266765,707.022131913142
3883.2917,1.9856796576651456,742.1555913411443
3884.185,1.9593053010876031,804.5311437440309
3885.0808,1.9327195857483825,749.0334275491973
3885.9746,1.9062511185305944,827.164477018851
3886.8706,1.8802567672785542,834.5200335412978
3887.765,1.8558401816942152,882.6714090108819
3888.6592,1.83448728350507,924.5976215545072
3889.556,1.8181935581860271,905.9778767235981
3890.4507,1.8092936481431707,1006.5082495113852
3891.348,1.8094991099577524,954.5223041223352
3892.243,1.8191392343447639,981.0400029689955
3893.1406,1.8368132543857723,902.9996842195039
3894.0361,1.8598489661196522,895.1205569689179
3894.932,1.885857331388767,869.4721790148511
3895.83,1.9135570559096633,820.8330729351675
3896.7263,1.9425224131631718,892.0604071671002
3897.625,1.9729438423920158,750.625511785203
3898.5215,2.004377300562902,739.4441661506195
3899.4207,2.0362496208697065,755.6861984383389
3900.3176,2.0675126065140574,655.2951516211002
3901.2148,2.0975938461788166,718.1462122927531
3902.1145,2.126240314971974,674.2061935288049
3903.0122,2.1532706556523133,631.6326091304181
3903.912,2.1789188243267787,617.7920734580257
3904.8103,2.2031810612849076,624.8864513402132
3905.7107,2.226188836321406,626.3199937012213
3906.6094,2.2478754339777316,612.6116188004223
3907.508,2.2684959889496352,596.202864675444
3908.409,2.2884621586793408,589.3567066594205
3909.308,2.307898909351384,593.6933649314992
3910.2097,2.3266787720972406,552.9835427676041
3911.1091,2.344203357243166,541.2538851543081
3912.011,2.3602686049071187,561.7419036478882
3912.9111,2.375043741022043,570.4147656848786
3913.8113,2.389154301305263,541.5963189598145
3914.7136,2.4031118034023167,496.8405645592355
3915.6143,2.4169881384819303,536.5227572444405
3916.517,2.430778451970824,523.7331412408145
3917.4182,2.4443535528384053,486.2387891747413
3918.3215,2.4576405484660335,493.5182690742782
3919.223,2.4702258717951735,508.86854337076204
3920.1245,2.481648168027047,479.20013887451955
3921.0286,2.4916218017338845,502.2018735393561
3921.9307,2.5001806527876584,488.8132066354368
3922.835,2.507641743621789,483.21887303590063
3923.7373,2.514045987272594,468.4715257921922
3924.642,2.519151943499775,469.496897478663
3925.5452,2.5225779571057956,485.7939298742914
3926.448,2.524272685595083,446.60814919409967
3927.3535,2.524607575464596,473.6536140306167
3928.257,2.5242107945288397,487.77318608288437
3929.1628,2.5236349704351855,450.20933928538335
3930.0667,2.52300928234771,476.2375847891896
3930.9731,2.521818787452992,504.21801731424944
3931.8774,2.5190831031277447,487.9502451890525
3932.782,2.5139657405586293,473.8982439237206
3933.6887,2.5064924789328478,474.6341760399591
3934.5938,2.4977880137846005,493.37928908744027
3935.501,2.4892911153672355,507.20854483327116
3936.4062,2.4818892063429354,491.6372691334248
3937.3142,2.475298611754263,497.311494688517
3938.22,2.468651281565303,510.04788002613327
3939.128,2.461210619455219,489.47098244141966
