wavl,flux,ivar
3566.9744,5.671170398411382,38.05644025513597
3567.795,5.646671191547838,33.01185339334538
3568.6177,5.622711813967715,37.64188390339612
3569.4385,5.606170897427608,50.14932555698262
3570.2617,5.60083814373918,35.80358633515032
3571.083,5.607953642415294,33.47287849149588
3571.9065,5.626028217981627,37.36905521294257
3572.7283,5.650292921406393,38.87165762591738
3573.55,5.6733939410774274,33.56320328526226
3574.374,5.687590862467792,41.715541861042276
3575.1963,5.687877299853795,38.771488685859396
3576.0208,5.673959088885224,40.266839588287496
3576.8435,5.6492959609134425,46.9574608134873
3577.6682,5.618312056312299,36.23805770888779
3578.4915,5.584870193879369,34.182564612824955
3579.3145,5.551468644614264,42.98502345386787
3580.14,5.519650547710705,39.00273013877165
3580.9636,5.491027457185754,37.46888622318171
3581.7893,5.468391233947275,35.738648707122316
3582.6133,5.457914358657282,44.39038553745899
3583.4395,5.46749848481619,46.493046193133104
3584.264,5.501185251152797,42.233084543372165
3585.0884,5.553081402392438,36.621755268518314
3585.915,5.607336957792339,42.31845930678437
3586.74,5.64505835820663,32.23945550518618
3587.5671,5.65487751181283,45.189343965537056
3588.3923,5.637013287445318,35.154192152014346
3589.22,5.600547447838542,41.90331522470323
3590.0457,5.5570047444824695,35.62730057952773
3590.8716,5.514666450619799,40.58747023163809
3591.6995,5.47773696936424,36.01652248623105
3592.526,5.447986368994353,45.98937312226479
3593.3542,5.425642635521432,53.348256510282724
3594.181,5.4102253665338225,45.803448810492945
3595.0098,5.400324577913498,50.57966450935555
3595.8367,5.394766503796713,37.35337888515712
3596.6638,5.393368704766907,34.60347585054209
3597.4934,5.396726640125846,47.566523549786204
3598.3208,5.404304762636826,46.760674175352456
3599.1506,5.413011489923974,30.99784160375503
3599.9788,5.417843274638872,38.406702528656425
3600.8088,5.414732891566215,38.57481170144463
3601.6372,5.402971322139479,32.244232769584734
3602.4678,5.385975584918004,38.73322194955453
3603.2964,5.370892897797863,34.10220589231752
3604.1252,5.36648220089082,44.47821152494191
3604.9565,5.37994517742572,45.972597753729886
3605.786,5.412702829575407,41.32613227548006
3606.6172,5.458879952879826,39.33181877705243
3607.447,5.507112222279598,37.2460734187035
3608.2788,5.546339560699293,43.19504738342015
3609.109,5.569390294734704,46.49273085367342
3609.9392,5.574552832399757,38.68140253326991
3610.7717,5.5634943445243366,35.07643090216024
3611.6023,5.539615405404141,55.42539130975018
3612.435,5.506751620212793,37.307792051199044
3613.266,5.469179151436398,30.924205051642804
3614.0994,5.430860189244782,37.434716092378935
3614.9307,5.395910678729589,41.86167357848009
3615.7625,5.367270840109126,34.44271048226798
3616.5962,5.3459923053123015,36.94331383218276
3617.4282,5.330795411756066,49.51114045842296
3618.2625,5.318928439112528,35.60992817899965
3619.0947,5.308579678314821,39.46688073096048
3619.9292,5.299896052723937,47.16162784015252
3620.762,5.294543889974095,48.474142619911404
3621.595,5.293696177149437,38.698559112838474
3622.4302,5.29679587859166,43.94140692960854
3623.2634,5.301792078866907,40.73357862536252
3624.0989,5.30657978422547,48.95709713486421
3624.9326,5.309817603012291,34.18974296291911
3625.7686,5.310679588036402,35.24064233698162
3626.6028,5.30804812246668,50.781497871807076
3627.437,5.300426955876885,61.33967312785456
3628.2734,5.286556255874736,40.67676436846087
3629.1082,5.266428912067404,46.72345955238499
3629.945,5.241311737707212,45.11565398607413
3630.78,5.213426301866154,61.297633241490296
3631.6174,5.184362505782917,42.02418766192535
3632.453,5.1552979210674845,39.62608265440414
3633.2883,5.127400705310029,46.44823311166186
3634.1262,5.103312566248357,48.01194736759602
3634.9622,5.087470151167238,57.7980793704815
3635.8005,5.0840399870934165,56.254524243425536
3636.637,5.09448958930152,44.50958588390692
3637.4756,5.1156082028268015,33.99438160013903
3638.3123,5.139947603662827,52.64434099448171
3639.1492,5.159202990463475,44.38366697599574
3639.9885,5.167451326638319,61.93709544085112
3640.826,5.1626688148481685,34.70854312747511
3641.6653,5.146250733512942,53.23273234366984
3642.5032,5.122030110647081,46.675916847716536
3643.343,5.0954717855273755,55.93501222649073
3644.1812,5.07294107187063,55.38381509841409
3645.0195,5.059133700377292,44.32648856267703
3645.86,5.055567052434911,48.003830170232106
3646.699,5.060852622568161,43.19371327459774
3647.5398,5.0722987592536395,42.62199074742246
3648.379,5.086506806115187,48.10668839046566
3649.2202,5.09894299112109,49.86425712533413
3650.0596,5.104213759448642,45.03420464188513
3650.8994,5.099291514200856,41.49360997212938
3651.7412,5.0866218088115165,56.87089574110788
3652.5813,5.073895117692929,43.80393898215918
3653.4236,5.068781842832523,54.17367783530732
3654.2642,5.0731377015303485,43.85833778626467
3655.1067,5.081210523780745,43.92412700607909
3655.9475,5.083688445366877,39.773787508648915
3656.7886,5.074278281925868,41.6689902047538
3657.6318,5.053750943014864,50.11097861732358
3658.4734,5.029889475422929,51.36368109596458
3659.317,5.013204193897718,46.045903698441315
3660.1587,5.011771720268569,52.939396266684085
3661.003,5.026705949285741,53.8382502984045
3661.845,5.051452534643043,44.30616800458178
3662.6875,5.075518628931924,45.02533485777177
3663.532,5.0895616010834965,43.11765431191887
3664.3748,5.089065686062464,48.557636244495
3665.2197,5.075227270923409,43.85181611895407
3666.063,5.053298064593195,50.687154689531994
3666.9084,5.0297003453472895,52.75299790146793
3667.752,5.0101083092640035,46.55064842713186
3668.5977,4.998129349879804,41.68980683312905
3669.4417,4.995714332670287,54.33076525347521
3670.286,5.002790281137214,57.55782042489775
3671.132,5.01682454915233,55.53485099118502
3671.9768,5.03268197822845,40.35646138935741
3672.8235,5.044370235449696,63.28981981529107
3673.6685,5.047124126253686,38.51460518898709
3674.5156,5.0390702697522824,54.14633940699102
3675.3608,5.021400358493744,50.95422385534212
3676.2063,4.997441122013015,49.800519571698096
3677.0542,4.971202910656383,54.36996653895734
3677.9,4.946190662203266,44.59825871868244
3678.748,4.924152715450968,55.11712844312427
3679.5945,4.9055876783445145,40.9650707544442
3680.4429,4.889477928240011,56.093051265277175
3681.2896,4.874092332014252,55.132312759072605
3682.1365,4.858130159169361,51.236194762811635
3682.9856,4.842658027082452,43.78626767355125
3683.8328,4.831445028329805,61.186964477204164
3684.6824,4.828195033495435,48.45724042057155
3685.53,4.833169117097743,51.32725059738106
3686.38,4.841898063047415,39.10523734264645
3687.2278,4.8478570916384385,53.57724919240385
3688.0762,4.847308584394606,57.03401804599489
3688.9265,4.841962387435622,72.58656909826766
3689.7751,4.837348761612553,55.19784525984967
3690.626,4.837866508642963,38.143543087948444
3691.475,4.8431844624467955,53.65230382679354
3692.3264,4.849137430232443,48.100873444837
3693.1758,4.851859220012396,62.52630397702808
3694.0254,4.851089094986659,45.91077531695077
3694.8772,4.849775753014251,51.16971737969169
3695.7273,4.851466375461402,52.595931749622004
3696.5793,4.85780737738678,58.725569764233285
3697.43,4.867271878569879,55.510210792604504
3698.2825,4.875464957995488,47.2822984316073
3699.1333,4.877041900953364,50.22980223438791
3699.9841,4.869042827896718,57.653233022823756
3700.8374,4.852769045178048,54.46616715834676
3701.6887,4.832992324840839,52.098187139914295
3702.5425,4.814732453493167,43.984390742029625
3703.3943,4.801487222727392,59.075472856995226
3704.2483,4.794650388465532,57.72181812490167
3705.1003,4.7941782196803455,46.542953749714016
3705.9526,4.798360132182205,47.49989368837595
3706.8074,4.80373431333102,58.300315298239795
3707.66,4.8057605607663465,62.343208696425414
3708.515,4.800813299962615,44.16105868489546
3709.3682,4.788191702135702,52.005768771159
3710.2234,4.770607334214237,73.05719582058605
3711.0771,4.752803673111251,66.67968667960739
3711.9307,4.738694404673681,44.882220102086535
3712.7866,4.72954271793556,53.41619344732489
3713.6409,4.723630945291215,60.86123878118548
3714.4973,4.716976939219222,39.47234519309419
3715.3518,4.705458596816835,40.954081247420994
3716.2085,4.687254116525895,53.47453754236866
3717.0635,4.664722680552584,41.51551345318134
3717.9185,4.643253731403417,53.110556419044144
3718.776,4.628418066411073,43.55497238483922
3719.6313,4.623213343441271,58.84880881056548
3720.489,4.62658229018636,77.10173553530304
3721.345,4.634015762466312,66.3464568846949
3722.2031,4.639513863138322,56.53114484015761
3723.0593,4.63851813973531,51.70422406507565
3723.9158,4.630559911546497,59.4626385532329
3724.7747,4.619188537003204,70.81210177327071
3725.6316,4.609486835026558,52.42085924814532
3726.4905,4.604999057256371,54.176399728826425
3727.348,4.606905583417918,61.822767856115874
3728.2073,4.614420082160895,57.480625309174485
3729.065,4.625187625699385,51.74850556922451
3729.9229,4.635671541400127,58.466501289102645
3730.783,4.641923131344504,58.039100027428034
3731.6414,4.640770779323695,49.92632758877592
3732.5017,4.630910580543886,54.28377943747378
3733.3604,4.613537554749121,55.631711378081924
3734.2214,4.592079329468823,60.0621981243003
3735.0803,4.57118827068166,57.46723711096786
3735.9417,4.554218690613037,52.04974150516529
3736.8013,4.5424510319123295,45.91056845108626
3737.661,4.535711941042859,63.71660803552338
3738.5227,4.534511025246887,56.29126992336611
3739.3828,4.540695814693804,55.72855684700774
3740.245,4.555818864453101,69.87959781797512
3741.1055,4.578260386417159,58.19676416117347
3741.9683,4.6022220666190705,56.267761427506535
3742.829,4.6191500601509095,54.17544855096996
3743.69,4.6221189798150455,62.28133110943049
3744.5532,4.608807188714209,90.86102539332916
3745.4148,4.582307303450616,53.89469209214922
3746.2786,4.549121589014955,61.77327939386124
3747.1404,4.516938912973237,59.78370915984158
3748.0044,4.491430021192693,70.08480498006384
3748.8667,4.4747974559511325,61.16657292009612
3749.729,4.464989687057419,64.3133448866395
3750.5938,4.457819997157411,56.920030940901825
3751.4565,4.4501705871165465,70.49504916590301
3752.3215,4.442231201552184,49.70771814743676
3753.1848,4.437331983554387,56.142356099890016
3754.0503,4.438962470511042,53.790898715745655
3754.9138,4.447799464804453,49.434724674756424
3755.7776,4.461290279663388,57.724143053762035
3756.6438,4.476150543589319,49.82107804234309
3757.508,4.49082171393823,49.86609176686562
3758.3745,4.505542840178053,68.4342169957757
3759.239,4.519274898792559,54.79940611691482
3760.106,4.528145803427238,60.56541446092605
3760.971,4.527287174480607,39.680231238573946
3761.8362,4.515409749784071,63.90879650420578
3762.7036,4.496583578651939,54.69511159662164
3763.5693,4.47751689255439,57.99205010967521
3764.437,4.462412181191626,57.10303747854428
3765.3032,4.451336268535996,51.16472010529941
3766.1714,4.4420303785445645,54.806872929423754
3767.0378,4.432863862968711,68.6869084578637
3767.9043,4.423380794114684,74.52960221741145
3768.7732,4.413687917126364,61.39838235186101
3769.6401,4.404480850041146,56.193437630102224
3770.5095,4.397332543279132,70.65517940551497
3771.377,4.394265377171171,59.16634484074841
3772.2466,4.395939347348533,75.94842945767961
3773.1145,4.4009390254792535,49.790195425681034
3773.9824,4.407067191627757,64.84189108664124
3774.8528,4.413161836226136,69.48864006317261
3775.721,4.419314916602156,59.595938084700634
3776.5918,4.426063952149535,64.46151775473346
3777.4604,4.433844845351897,65.16292088696437
3778.3315,4.443505961960224,89.0893957453406
3779.201,4.455801703330986,68.60060764906643
3780.0703,4.470104481059956,65.20998344900346
3780.942,4.483630564652195,68.40993331868772
3781.8118,4.492794430338999,60.56247921988973
3782.6838,4.49576494657116,56.50327785189229
3783.554,4.492960582928923,58.27198078802144
3784.4265,4.485547722796984,61.21861055600252
3785.297,4.473903140474151,52.08649368860609
3786.168,4.4577180688786475,65.33053727042852
3787.041,4.4374910195340656,65.27662146059481
3787.912,4.415649359409896,57.48915186203428
3788.7856,4.395407826234311,68.49593301532337
3789.6572,4.378992509973479,73.38767763855445
3790.531,4.365446232751473,63.36020590747373
3791.403,4.35133600923886,57.319525188793044
3792.2754,4.333088041652338,56.65665054052684
3793.15,4.309495861322169,60.27047705960011
3794.0225,4.282033992275874,57.793624590642054
3794.8972,4.252630193566367,65.24722171072096
3795.7703,4.222822509609657,76.34358617074827
3796.6455,4.193755237180981,80.2282772671505
3797.519,4.167991438275636,55.765960270968364
3798.3926,4.149241829400895,71.40075532750737
3799.2686,4.141046756788862,53.83832138420675
3800.1426,4.1446096652385975,79.48002891523257
3801.0188,4.157778327422961,77.51982299218277
3801.8933,4.176221896097541,52.2387396748799
3802.77,4.195923166208421,75.5171565346609
3803.6448,4.214484061817574,71.83227634853728
3804.522,4.231695183824382,64.33656378062352
3805.3972,4.248497093255162,64.32400868295883
3806.2727,4.266181873139947,76.86075382575994
3807.1504,4.28508195296132,68.54552283805744
3808.0261,4.303898665526486,64.55342746931281
3808.9043,4.320589008595584,74.89664352119739
3809.7805,4.333229056204202,61.68995778418107
3810.659,4.341392858783832,57.25196545411248
3811.5356,4.346409069110981,53.70105083852484
3812.4126,4.351031037438596,59.92750370542007
3813.2917,4.357672116308925,60.17807702633937
3814.169,4.366486174417856,75.47920181425563
3815.0483,4.375369460041695,55.32628462497111
3815.926,4.381812949379632,52.62180794801575
3816.806,4.384944589904418,68.9167578098466
3817.684,4.385177497764477,71.45300852964732
3818.5623,4.382545208471551,72.08712972036756
3819.4429,4.375650829865261,56.896175044858744
3820.3215,4.362459621641401,47.035041139281255
3821.2024,4.341686905649094,51.049646546015786
3822.0815,4.314103177516499,68.09915265371349
3822.963,4.281948328630297,67.69378612859938
3823.8423,4.247990552492811,70.01825172723056
3824.722,4.213472172563941,61.801410560076825
3825.604,4.177924347250437,66.76247840867445
3826.4841,4.14048615936966,79.47427325996584
3827.3665,4.100789555213016,60.35210220414957
3828.2468,4.06023426365999,77.12435600845255
3829.1296,4.020272294077398,82.49461438590782
3830.0105,3.9816133429761646,88.05415888217766
3830.8916,3.9429580443695644,76.34369139953904
3831.7751,3.9023433611103373,82.33159817632378
3832.6565,3.8592201977185274,90.3487701000819
3833.5403,3.814900098170894,81.18875456914893
3834.4224,3.7734680477379428,94.8737712890885
3835.3064,3.7399233202003033,76.78438490151761
3836.1887,3.719084534232946,85.54072909567341
3837.0713,3.713464964671284,82.71518698137068
3837.956,3.7230735453832056,75.30841181399785
3838.839,3.745778878813586,81.01441731245936
3839.7244,3.778353825320232,102.84085526251704
3840.6077,3.8161923034440424,64.358995833124
3841.4932,3.852925654690444,81.58355435092305
3842.377,3.878322255475094,82.34599467506823
3843.261,3.8784971566339386,80.6223198699533
3844.1472,3.8394956981730184,91.1462092899022
3845.0315,3.758989728978665,63.1223349367641
3845.9182,3.658523475770893,59.51780418510008
3846.803,3.5850792790765458,84.71628674006226
3847.69,3.5866819627496374,110.94881901244855
3848.5752,3.6806021987287543,67.84026148512051
3849.4604,3.8396812759729277,66.06860143448327
3850.3481,4.01235586206654,75.55636351960422
3851.234,4.154023885379819,65.90723107328063
3852.122,4.249212556119124,73.00080348371034
3853.0083,4.3050854415240964,54.75470503899896
3853.8967,4.3378562795071245,49.497802670375876
3854.7832,4.35912453013868,61.23822629353837
3855.6702,4.3733742549233625,63.8432174952097
3856.559,4.381480325711502,52.82612983762394
3857.4463,4.385874614657912,62.734698349074
3858.336,4.391983360804894,65.70854682263136
3859.2234,4.404871778112735,65.09587624020116
3860.1135,4.42537660127625,57.10720972978435
3861.0015,4.449132881250611,52.97455559780786
3861.8896,4.469944713486223,53.30828426702141
3862.7803,4.482973486821522,60.960465037787365
3863.6687,4.485716182386169,55.71219195582839
3864.5598,4.4773731818303135,55.0707834307307
3865.4487,4.458230725154963,60.47538835410174
3866.34,4.429761015485696,73.17431910361029
3867.2297,4.39502829519342,59.55986678421381
3868.1213,4.35729923674547,57.370944638723955
3869.0112,4.319309312061137,60.98293882968884
3869.9014,4.282163430558872,57.026732064309336
3870.7937,4.246049879774805,62.51797886180082
3871.684,4.211311815914194,78.58849264369209
3872.577,4.1780807466650645,77.59304015404591
3873.4678,4.146299552456625,65.01196987948411
3874.361,4.114334150447324,68.95459299488842
3875.2524,4.0798051189248135,66.2572672339833
3876.1438,4.040301368164319,65.72810042059311
3877.0376,3.9949950942120394,85.10887955103269
3877.9297,3.945557274030885,74.02166279241834
3878.8237,3.894464391308874,65.88141959531633
3879.716,3.843886381414552,78.77492319382688
3880.6108,3.793237912510183,87.8900931124015
3881.5037,3.740029773943721,82.30412972079539
3882.3965,3.680730216921349,87.00352284498162
3883.2917,3.6133166536042096,80.40595968015167
3884.185,3.5388518555546185,95.71533981865052
3885.0808,3.459211522934046,116.11579096287551
3885.9746,3.376946166232842,93.40998191411624
3886.8706,3.2938146457861537,99.75245131189641
3887.765,3.214033216410328,109.20124717141063
3888.6592,3.1443249845972403,123.1654395184585
3889.556,3.0935193968968346,111.48227041498703
3890.4507,3.0698431284260046,139.7883803375923
3891.348,3.0769529538267695,140.3723146867873
3892.243,3.1128371287171377,137.12318143666226
3893.1406,3.1709651450036658,121.80497186350335
3894.0361,3.2424789440879693,103.20013685836557
3894.932,3.320334566067236,107.70817305542619
3895.83,3.4006676478307223,118.91932344214143
3896.7263,3.481708942016324,100.58149574942524
3897.625,3.5632859412124636,79.43467086065874
3898.5215,3.6435713610140104,100.892798448542
3899.4207,3.7205681932148926,79.93536464706284
3900.3176,3.7915305130255175,90.1540731903843
3901.2148,3.855686125423338,97.8004616978829
3902.1145,3.9139148112335347,78.09085094701285
3903.0122,3.967965001881339,69.83085356477216
3903.912,4.020570506146575,91.05155356809374
3904.8103,4.073479711397887,63.47600988503653
3905.7107,4.1276224438405595,75.75457555647132
3906.6094,4.1818608951683585,67.52549454424873
3907.508,4.234000981418923,64.35003445486421
3908.409,4.281106081840942,67.275571746455
3909.308,4.320341316840345,62.58746470950782
3910.2097,4.3511108429634096,80.08824240438597
3911.1091,4.375009175335555,55.879228804041766
3912.011,4.395566137878735,72.38245854494637
3912.9111,4.416016413983817,56.295204181036496
3913.8113,4.438470583016031,62.48777854415053
3914.7136,4.463471660058983,61.63633412257164
3915.6143,4.489879073848213,60.38574124813476
3916.517,4.515660124683771,54.608809985916956
3917.4182,4.53840456669395,56.55550153958746
3918.3215,4.556910822679125,54.81230595907579
3919.223,4.571359855362254,57.33810348840768
3920.1245,4.583098648515043,59.140103773724334
3921.0286,4.593236841514958,63.37388991829975
3921.9307,4.601789145991389,48.85643348394747
3922.835,4.608389510391437,52.55338380616658
3923.7373,4.613472094433587,60.76642921662969
3924.642,4.618724559490522,54.971045811828
3925.5452,4.625575082272921,56.95656238499436
3926.448,4.633712569666235,57.287806042260016
3927.3535,4.641215406525315,56.489200898260634
3928.257,4.646042001376548,58.621195502941944
3929.1628,4.647388018856037,62.390851523509895
3930.0667,4.645572547510374,54.48602926097816
3930.9731,4.641319789446908,54.201729794222445
3931.8774,4.635118289352242,63.038852664334975
3932.782,4.626929945975104,49.41071778827313
3933.6887,4.61657898630533,58.60021375028268
3934.5938,4.604530112586188,58.38612615496631
3935.501,4.5919428902889745,52.02208138993204
3936.4062,4.580152756585794,61.42299736526431
3937.3142,4.5693925094907515,52.59491272939329
3938.22,4.558627901094074,51.26103173713061
3939.128,4.545819548671958,62.717768841393884
3940.0342,4.5288784290121304,55.574057396463296
3940.9407,4.505871529556964,61.292664162945854
3941.8494,4.475389882749794,65.97578812296211
