wavl,flux,ivar
3566.9744,0.9430805118297801,743.3899161224025
3567.795,0.9459655743433997,831.395980076605
3568.6177,0.9475331530929318,888.1303588697858
3569.4385,0.946899472532855,649.0847565136949
3570.2617,0.9440270439760492,733.9284476389721
3571.083,0.9397862322287439,1290.832568475892
3571.9065,0.9355318520819546,651.9244892206624
3572.7283,0.9324593303828393,765.6784706534119
3573.55,0.9308357729306967,654.955432367115
3574.374,0.9299752001173311,740.298502507863
3575.1963,0.9290068672341056,871.1818560331284
3576.0208,0.9277444684075877,789.2567434207531
3576.8435,0.9267618237345501,947.6067956505906
3577.6682,0.9266192137753745,778.4952896623107
3578.4915,0.927254498602591,982.5716383279752
3579.3145,0.9281681223316883,979.6669957703161
3580.14,0.9291347211439989,1288.6112033482495
3580.9636,0.930600173550251,763.6724816290932
3581.7893,0.9333361595711038,1022.9846706264029
3582.6133,0.9375278736138543,793.3765256969217
3583.4395,0.9422478415983829,723.9026005199288
3584.264,0.9457433469313073,638.670418880618
3585.0884,0.9465718772511754,885.3129507889298
3585.915,0.9444107555528265,770.2752327118018
3586.74,0.9401325139460031,762.108364095404
3587.5671,0.9351514386971613,1008.9855133064138
3588.3923,0.930821647653701,797.3717084771267
3589.22,0.9279804839112759,883.6488290120542
3590.0457,0.9269108850796989,664.6110376398858
3590.8716,0.9272596417242729,760.9240336620861
3591.6995,0.9281799476682396,748.6921592191378
3592.526,0.9287100693050208,712.9502765004122
3593.3542,0.928429433080299,752.4627058202909
3594.181,0.9278716735949881,791.3072901927982
3595.0098,0.9281689585409568,844.7557969599889
3595.8367,0.9299878138668337,777.689605197085
3596.6638,0.9326603051343245,700.060732054127
3597.4934,0.9344552168767152,653.922552875488
3598.3208,0.9338441368209587,729.5025845407628
3599.1506,0.9305844412348002,724.0474388210675
3599.9788,0.9256135263902915,807.3011294616639
3600.8088,0.9201454433961026,849.6863271231148
3601.6372,0.9152255385902454,922.3171301781857
3602.4678,0.9116677658770146,1136.8954479190343
3603.2964,0.9100694985484427,705.3531641247868
3604.1252,0.9103550502253653,1073.7046867380184
3604.9565,0.9116690788657918,629.9350406079334
3605.786,0.9128642179214902,981.393896470177
3606.6172,0.9133462475575531,835.9082924711748
3607.447,0.9134226139129654,641.3249183886827
3608.2788,0.9138946444748541,1090.908466988343
3609.109,0.9152615251359488,726.8613144473424
3609.9392,0.9173391337587152,836.445065045655
3610.7717,0.919589064909487,614.85938057579
3611.6023,0.9216495105900531,807.0401911180122
3612.435,0.9234810634666416,704.7762692689613
3613.266,0.9249887613770638,733.9549296617853
3614.0994,0.9258666310112339,802.4388134639122
3614.9307,0.9258451320480107,918.264154890322
3615.7625,0.9250615174215902,702.1185810900068
3616.5962,0.9239686108116879,701.6165979559049
3617.4282,0.9228887793365738,1039.0668141732106
3618.2625,0.9216807571104686,739.4181064306156
3619.0947,0.9199165018294181,644.6177878171156
3619.9292,0.9172529464376272,712.8521435961874
3620.762,0.913712894610999,725.7333425074224
3621.595,0.9096429099792552,1239.1697243864921
3622.4302,0.9056449657789368,867.4160492285516
3623.2634,0.902499380883159,965.8778978004146
3624.0989,0.9008633051634559,943.6923938033015
3624.9326,0.9009941897420374,865.9468966715617
3625.7686,0.9025419509743664,960.1074092655628
3626.6028,0.9047468430649604,747.3611913363953
3627.437,0.9069435203703089,825.1865616818387
3628.2734,0.9089243737095313,627.9117969831917
3629.1082,0.9107984436023899,660.6931398169272
3629.945,0.912547535742611,600.0686497627948
3630.78,0.9137925974323219,738.4440615333433
3631.6174,0.9142461118221115,562.8996655164738
3632.453,0.9142415465333363,881.1088302855843
3633.2883,0.9147002245452812,1086.5430750466237
3634.1262,0.9164745933010621,665.5602734243874
3634.9622,0.9197152540441063,1044.6806503584862
3635.8005,0.9238492506560209,748.597041265271
3636.637,0.9279414664347819,608.5049319611861
3637.4756,0.9312682386767497,650.1759838172432
3638.3123,0.9334674617249018,722.1830148656522
3639.1492,0.9344797326532185,1188.5200378265956
3639.9885,0.9342818927316677,975.5219173455346
3640.826,0.9328692077038435,706.483366241266
3641.6653,0.9304326562854203,703.865118061066
3642.5032,0.9275120506299828,964.7229927733903
3643.343,0.9248114258542348,686.1375006235659
3644.1812,0.9228732577775141,1072.0864378456397
3645.0195,0.9217139516171916,886.5252034443912
3645.86,0.9208160332532358,885.3377932725202
3646.699,0.9194884977800142,748.1400081687929
3647.5398,0.9174089724756183,957.7014148595227
3648.379,0.914945808564901,724.0572624762374
3649.2202,0.9128332342647488,756.1852258097329
3650.0596,0.9115460609239925,893.1309451717508
3650.8994,0.9108257876655618,964.4273108129607
3651.7412,0.9098828985500323,893.6122970104582
3652.5813,0.9080062330069825,664.4956230135388
3653.4236,0.9050206179232917,1301.8644021478299
3654.2642,0.9013227946046459,1083.4865919595168
3655.1067,0.8975678224598326,674.7912574743473
3655.9475,0.8946283776051782,887.210279565448
3656.7886,0.8935705788820314,699.8498025737194
3657.6318,0.8953603008508186,1036.8674347006845
3658.4734,0.8999820027114893,730.1492891385075
3659.317,0.9058766486836602,1188.2942320442119
3660.1587,0.9104172127498845,628.1414194473756
3661.003,0.9114630568582317,709.7815681564883
3661.845,0.908496168629322,1040.9759467726371
3662.6875,0.9027106906196406,1382.9927348998253
3663.532,0.8962463130793652,730.1480104216
3664.3748,0.8914232401128359,1269.5501659541314
3665.2197,0.8898835401812981,1091.5762870792553
3666.063,0.8918869854059366,1001.6985484604115
3666.9084,0.8960029754677568,751.0392590150052
3667.752,0.8999034562824982,709.1435974428741
3668.5977,0.9019604905365916,828.4326808634298
3669.4417,0.9021898432405995,1025.0873287827123
3670.286,0.9019338779654236,852.2599724499806
3671.132,0.902572249210079,1023.1704645113361
3671.9768,0.9044740374902654,1000.0794668571134
3672.8235,0.9068981828023903,591.1424252135873
3673.6685,0.9086035706793579,922.9940478152986
3674.5156,0.9085893137192965,1079.8653687128585
3675.3608,0.906461056688538,921.8518892879581
3676.2063,0.9025957383772597,972.0830194500012
3677.0542,0.8981587627932265,929.9496819644572
3677.9,0.8948373292627324,902.4395256571795
3678.748,0.8939812052945008,675.0411899791089
3679.5945,0.8958923764529267,810.5083475925544
3680.4429,0.8997123176456155,709.8446308579548
3681.2896,0.904029695911967,904.5123889173096
3682.1365,0.9076800684125679,784.6516575361331
3682.9856,0.9100515646933713,757.0534124834037
3683.8328,0.9110000158393318,829.9948444576994
3684.6824,0.910718128640613,664.8720870106687
3685.53,0.9096419916020997,811.8346207235927
3686.38,0.9083799055455397,895.1537768887817
3687.2278,0.9075510014452505,972.4619709549344
3688.0762,0.9075659436410525,684.239192882272
3688.9265,0.9085355407443982,848.9140579238049
3689.7751,0.9102117586789605,864.5852683076442
3690.626,0.9119993330049232,849.6339681072456
3691.475,0.9130859373233282,871.0974104943317
3692.3264,0.9128297372114845,1089.0897899440859
3693.1758,0.9110598386932641,1162.5765277103408
3694.0254,0.9080953846435379,621.4451427356261
3694.8772,0.9045961021371892,781.3131063894417
3695.7273,0.9015473819454223,1276.3500183483443
3696.5793,0.9001514835950128,753.6316647387025
3697.43,0.9015061228302114,966.03125508215
3698.2825,0.9059596435245051,803.7566879594381
3699.1333,0.9126590748704009,874.2369892416963
3699.9841,0.9198067213882192,774.539022446621
3700.8374,0.9253750415988657,630.3742619977252
3701.6887,0.9278215120248785,669.7182780022675
3702.5425,0.9266101628441165,923.0840968071229
3703.3943,0.9222547417692567,671.6095687128363
3704.2483,0.9161140812330371,765.261148606292
3705.1003,0.9099312925356476,865.1806472629326
3705.9526,0.9049506581322532,686.8247515513591
3706.8074,0.9014068971624695,736.0121438799798
3707.66,0.8987027669020595,873.5727254313117
3708.515,0.8961407382227162,937.2058730029003
3709.3682,0.8937064261207474,793.5232704608215
3710.2234,0.8920538005818851,888.1115653413557
3711.0771,0.8920059761127882,947.6151774978302
3711.9307,0.8940160889944314,772.9489350362704
3712.7866,0.898056823601237,609.7172128134729
3713.6409,0.903628847338662,849.163802131314
3714.4973,0.9098831034988745,678.1254018782613
3715.3518,0.9156663490567609,1008.4122603637318
3716.2085,0.9199871624972108,632.5032255441608
3717.0635,0.9223205424643776,803.8416127209267
3717.9185,0.9228464804056901,670.9391300689499
3718.776,0.9222399375946685,743.4715625230725
3719.6313,0.9213507205262502,972.3080304910143
3720.489,0.920832385623139,681.1854147213985
3721.345,0.9208691174447057,628.9093292741293
3722.2031,0.9210505102592965,910.9127066911575
3723.0593,0.920526628208918,769.8437726402983
3723.9158,0.9184531713872326,596.1445896690766
3724.7747,0.9145372415393936,803.979013728938
3725.6316,0.9094187779783968,675.0022697137382
3726.4905,0.9043996223746447,985.8578560460069
3727.348,0.9008307087525439,1398.4224942261726
3728.2073,0.899311738327672,1002.6839108083517
3729.065,0.89950877843283,990.7368204874163
3729.9229,0.9005298599571108,793.52757609612
3730.783,0.9015846395675681,546.7965031405433
3731.6414,0.9022732337103456,858.6824324615385
3732.5017,0.9024049422128858,990.13239811577
3733.3604,0.9017186078398779,750.2284217749055
3734.2214,0.900025491432568,874.0666301534335
3735.0803,0.8976808325963903,726.0154024738698
3735.9417,0.8957192023307016,840.5447537206851
3736.8013,0.8954248125923641,837.5888149147356
3737.661,0.8975080775680979,751.3799830175597
3738.5227,0.901656679249466,739.6896314540833
3739.3828,0.9066507660330265,645.3448672609127
3740.245,0.9110879327942855,1154.5403625092954
3741.1055,0.9139906797908313,797.9410264083134
3741.9683,0.9151432084603713,883.5648786886651
3742.829,0.9147726003074468,746.536681978399
3743.69,0.9131251960372998,957.3665532192119
3744.5532,0.910294143290271,821.9514542955066
3745.4148,0.9065657467856881,807.7203763954014
3746.2786,0.9027104422867777,1145.9050362385522
3747.1404,0.8998510886813115,866.0183130939843
3748.0044,0.8986791110481,771.3284917280424
3748.8667,0.8989289883875677,677.6833947795963
3749.729,0.8995596036069622,922.129168400395
3750.5938,0.8996016020280543,813.4880220769621
3751.4565,0.8988433615176021,846.1805999956406
3752.3215,0.8978316794893437,1153.3950793917422
3753.1848,0.897360242303647,587.5911180573999
3754.0503,0.8979525820238689,968.583122371999
3754.9138,0.899679302526848,840.9878117246114
3755.7776,0.9022341552114725,1009.5051093508961
3756.6438,0.9051006685678165,632.2166796500317
3757.508,0.907718173217344,715.1870955177786
3758.3745,0.9097208028820908,862.9144894847484
3759.239,0.9109716407658647,847.8058507070102
3760.106,0.9115073821277854,719.4530288530034
3760.971,0.9113450721793411,766.9154094958013
3761.8362,0.9104346297795856,751.5793620291854
3762.7036,0.9087854391711777,659.0975207428205
3763.5693,0.9067311771470727,889.7918202159261
3764.437,0.9050143096326899,776.6708819752171
3765.3032,0.9045625521716197,689.9934838811072
3766.1714,0.9058791968274268,809.0310690026506
3767.0378,0.90848534635276,1033.8308705950742
3767.9043,0.9109100122087109,818.8915723083031
3768.7732,0.9113694146925043,798.3359613093439
3769.6401,0.9087714344019314,950.9368418985757
3770.5095,0.9033446274587503,676.3855656063752
3771.377,0.8965584656836504,939.9456948929782
3772.2466,0.8902961782387577,890.0507435401413
3773.1145,0.8861036294152433,737.5625576145795
3773.9824,0.8845593865874868,794.2950595889015
3774.8528,0.8853301139848175,999.0345358057947
3775.721,0.887515732414993,701.9395140162422
3776.5918,0.8901142365243347,858.3984317353805
3777.4604,0.8923256341960518,769.2594731781486
3778.3315,0.893833588025587,784.4095754094401
3779.201,0.8948481197335566,956.4406848041821
3780.0703,0.8959774394259769,823.712410318398
3780.942,0.8978307455709285,846.5790474012915
3781.8118,0.9005718056789501,850.7885514764864
3782.6838,0.9037394491124416,771.7713453224629
3783.554,0.9064017209833597,558.1035339245706
3784.4265,0.9077356676578087,881.7827748395458
3785.297,0.9074806469731552,880.8309946720532
3786.168,0.906079749779969,1025.3387065337713
3787.041,0.904360726338348,909.9555728615705
3787.912,0.9031250838266321,707.2768619103556
3788.7856,0.902850651760267,910.2329959386329
3789.6572,0.903666555017142,873.8356664951552
3790.531,0.9053531377749615,768.3096832999998
3791.403,0.9072503702083354,1040.1769941483635
3792.2754,0.9082825744544624,742.7569075426227
3793.15,0.9073018346055775,858.3310750462016
3794.0225,0.9037464639949709,700.6823486539959
3794.8972,0.8980446143232031,1124.1137999201942
3795.7703,0.8915241014026353,910.2246633700693
3796.6455,0.8857087860662878,785.6635822823147
3797.519,0.8817736685432963,983.697911275033
3798.3926,0.8801318185637202,861.8531126449077
3799.2686,0.8806184384620732,796.7632316797395
3800.1426,0.8828591202651402,924.4696592612084
3801.0188,0.8865375132931238,838.7183684063402
3801.8933,0.8912011792672008,737.8620009954203
3802.77,0.8959897224245432,848.4035019656824
3803.6448,0.8996111325290737,720.1739386816671
3804.522,0.9010594339965099,868.0626808329989
3805.3972,0.9002911404587014,1109.5285030445775
3806.2727,0.8983755634796581,1274.1611148624584
3807.1504,0.8967987772590638,869.4631742129619
3808.0261,0.8965941147667775,1196.086559180485
3808.9043,0.8979113077496721,575.5667772765651
3809.7805,0.9002423809302667,821.3954566718114
3810.659,0.9029129249953771,1078.4838178052694
3811.5356,0.9053837454189411,1031.4988846421174
3812.4126,0.9074374096938941,877.4097564478253
3813.2917,0.909156971814578,1235.4643460177222
3814.169,0.9107255633902072,828.8705160333052
3815.0483,0.9121512450893421,943.9386087298471
3815.926,0.913125809538905,853.3652780563856
3816.806,0.9132691314313681,654.9995501131998
3817.684,0.9124171561895009,1197.5875747792725
3818.5623,0.9107109213878173,789.9635523483508
3819.4429,0.9084689995251682,888.4807579009395
3820.3215,0.906064535932229,881.7981108587682
3821.2024,0.9037311531265994,931.2549715041912
3822.0815,0.9014324097783991,780.5415289883676
3822.963,0.8987641826859439,1072.5499146424834
3823.8423,0.8952070147860011,740.2532077248587
3824.722,0.8904532478404878,790.6123118411149
3825.604,0.884646306680275,830.4001743949703
3826.4841,0.8783195319565928,988.7640239706957
3827.3665,0.8719308546310592,1140.635548525278
3828.2468,0.8657159599678863,677.4507137741392
3829.1296,0.8596543082782038,966.1206729690875
3830.0105,0.8538821325765741,945.4540129037496
3830.8916,0.8487146590217403,1128.2323634508298
3831.7751,0.8445182979337211,1155.1559576351704
3832.6565,0.8414813177183227,1123.7819946106622
3833.5403,0.8395217010020325,957.297472993238
3834.4224,0.8385639345378252,825.8886251024929
3835.3064,0.8386775443907003,1022.518775838217
3836.1887,0.8400395005107326,992.8219608849672
3837.0713,0.8427245839542722,808.3326224286965
3837.956,0.8465877345315803,870.6494752590734
3838.839,0.8512912606829531,719.2144487157221
3839.7244,0.8565473330797272,1005.2403714881203
3840.6077,0.8621731173809632,1358.6145186409678
3841.4932,0.8682044826537605,937.1776224553079
3842.377,0.8747326252278329,884.5733003962148
3843.261,0.8819179737079211,893.3305255820119
3844.1472,0.8898479532017134,1022.0748792731098
3845.0315,0.8983437824903341,795.0323774193367
3845.9182,0.9070511016811382,871.9485094585249
3846.803,0.9153946949771693,775.898991561494
3847.69,0.9229058702346336,704.3670588778266
3848.5752,0.929144165133485,862.8846552882283
3849.4604,0.9338483990300442,827.0475786269897
3850.3481,0.9369552200876407,768.2217347226573
3851.234,0.9386399541682118,734.5471726408748
3852.122,0.9392755215038503,591.7116714139642
3853.0083,0.9392249196938564,660.7463154379071
3853.8967,0.9387670416245781,859.6391598577658
3854.7832,0.9381136056977162,766.7800059794553
3855.6702,0.9374536488921867,807.0479228212878
3856.559,0.9370057572484756,785.0072411098865
3857.4463,0.9370510160162588,711.138580625721
3858.336,0.9378441066673188,737.4600650403652
3859.2234,0.9393899039343803,914.7047935075248
3860.1135,0.9413597435352873,908.2294497986352
3861.0015,0.9432850525449642,779.3710127460988
3861.8896,0.9449203524361784,846.4138993630149
3862.7803,0.9462618633351823,737.3783879799582
3863.6687,0.9472862718299875,1020.9662745528199
3864.5598,0.9477940188030051,779.5730436966444
3865.4487,0.9474872766145552,840.7255127934878
3866.34,0.9461847581849111,917.3320314635066
3867.2297,0.9439195811372352,640.7522544156809
3868.1213,0.9408660618182187,760.060375823957
3869.0112,0.937282531973788,757.8564898088379
3869.9014,0.9334011769085584,849.2772805121305
3870.7937,0.9293625787388236,804.0508901186929
3871.684,0.9251040025337068,812.8094438518173
3872.577,0.9201846384573044,765.9376846204036
3873.4678,0.9140353561693466,645.099301507389
3874.361,0.9063240216572409,844.6050930574946
3875.2524,0.8974733535381375,981.6609229047182
3876.1438,0.8883850487873597,958.6742849233742
3877.0376,0.8798118533311627,1079.4539940586396
3877.9297,0.8718121300047217,990.5875017416072
3878.8237,0.8636058803317805,967.2142826706868
3879.716,0.8543177737260704,843.5026624613862
3880.6108,0.8435301174720953,844.157374357352
3881.5037,0.8317680653478804,918.5068697297893
3882.3965,0.820113597386789,1040.9512673607014
3883.2917,0.8097372751521598,1215.5627525052812
3884.185,0.801406327428613,1123.6924329590079
3885.0808,0.7949539936704841,961.0470629369603
3885.9746,0.7894992270648138,1015.6108320110288
3886.8706,0.7838298844697212,1023.6798261746575
3887.765,0.7772476325422113,1290.1254261151244
3888.6592,0.7699676977788574,1138.051581494081
3889.556,0.7630987375141376,1273.6537306588093
3890.4507,0.7582393209504347,1234.7212554888206
3891.348,0.7567831491365129,1082.7471176113143
3892.243,0.7594923860057873,1446.5742167892122
3893.1406,0.7662082265801599,1225.0914442229073
3894.0361,0.7758990685408362,1000.8290519367247
3894.932,0.7872143473465514,1185.9916514347412
3895.83,0.7989324149658763,1250.265134123308
3896.7263,0.8101317049723255,1232.2017805576027
3897.625,0.8204896030615079,910.3752448286143
3898.5215,0.8300658799931441,993.4402841838432
3899.4207,0.8393488649926234,940.9959999012646
3900.3176,0.8487304465801214,879.9068030094417
3901.2148,0.8584802838797965,1153.7997047973734
3902.1145,0.8687277953336899,783.9825353921816
3903.0122,0.8795388242835597,819.1820142171376
3903.912,0.8911626365831595,845.2525451176119
3904.8103,0.903871385254877,831.5853951157194
3905.7107,0.918194031941824,786.1006690485023
3906.6094,0.9344649275164224,778.9163438323984
3907.508,0.9524199358547617,777.474313015905
3908.409,0.970560919256797,897.154437436892
3909.308,0.9862212972945297,759.2150612070576
3910.2097,0.9970553992309461,244.19071250009736
3911.1091,1.0022189606882534,682.176953573431
3912.011,1.0030159443690156,776.9795709150029
3912.9111,1.0018839139440294,602.0276725945532
3913.8113,1.0010835493873667,718.8353307082274
3914.7136,1.0019071813087752,711.1597940399998
3915.6143,1.0046609936151154,670.5770156951246
3916.517,1.0090425911294718,742.8217060186502
3917.4182,1.0144949390713713,688.4727571535258
3918.3215,1.0205550768095095,665.9556382264078
3919.223,1.0267934232468157,772.1489376162677
3920.1245,1.0327388107132025,606.3541702447111
3921.0286,1.0377484689195298,657.3932377285389
3921.9307,1.0411549352870335,536.7796805201499
3922.835,1.0426079936170114,720.7120215799031
3923.7373,1.0421145881269667,654.7878886575904
3924.642,1.0400315050542281,743.9805253301323
3925.5452,1.0370727772424633,683.3806728821351
3926.448,1.0342484818410795,702.5237171973188
3927.3535,1.032569547856484,671.244831143508
3928.257,1.0325679858217955,658.6264619139021
3929.1628,1.033975519600503,655.1095579146231
3930.0667,1.0359062869059492,494.2811863213776
3930.9731,1.0373583806171742,699.3097777856959
3931.8774,1.0375994200752348,692.5657745868433
3932.782,1.0363445641718583,636.2382704707733
3933.6887,1.0336923639981337,715.8484728895907
3934.5938,1.0300676810432725,564.7935069180827
3935.501,1.0260424277793345,569.2700946470759
