wavl,flux,ivar
3566.9744,1.6336154686653237,636.4822987353053
3567.795,1.6311303551598972,620.837379123042
3568.6177,1.626945517009663,647.8182717985351
3569.4385,1.6220685586644992,609.2377251195646
3570.2617,1.6179896626011863,629.4067473487356
3571.083,1.616001224928314,624.6807544973028
3571.9065,1.6164082150596668,645.7348024148233
3572.7283,1.6183160531804466,699.2574145756348
3573.55,1.6200618530803,657.5550596363985
3574.374,1.6201697571286937,581.58386335446
3575.1963,1.6181928175296618,724.8705612579188
3576.0208,1.6148172244394818,613.2056213698353
3576.8435,1.6112713687313849,756.7598984576662
3577.6682,1.6085062374855155,651.8243977967455
3578.4915,1.606826593500531,629.6415227148177
3579.3145,1.605835639716593,670.241295023573
3580.14,1.6047578856990847,654.2031760239229
3580.9636,1.6030086900749763,749.722135822845
3581.7893,1.60075421109708,649.993529326603
3582.6133,1.5990229395606186,713.6681912080091
3583.4395,1.599000003213062,763.6846871277198
3584.264,1.601089964398615,751.5323996408961
3585.0884,1.6045125773375986,595.0990651490458
3585.915,1.607821296634152,740.144118570749
3586.74,1.6097887476053272,583.2554482964356
3587.5671,1.6100294111684987,674.4336153534255
3588.3923,1.608840374759109,762.632305317003
3589.22,1.6066685585220872,644.1545018459715
3590.0457,1.6037855982452394,704.9924456627491
3590.8716,1.6004016301702388,636.0066348491237
3591.6995,1.5969980666885688,741.2708695831499
3592.526,1.594298812488508,784.3644291782731
3593.3542,1.5927539366166672,696.4632151151537
3594.181,1.5922200513869602,582.1754357236003
3595.0098,1.5920873635610209,798.381185640274
3595.8367,1.591760162270849,767.1531508847664
3596.6638,1.590968566453883,608.1270699391722
3597.4934,1.5897659337171905,726.0543697021121
3598.3208,1.5883755917184497,712.1550858738925
3599.1506,1.5869930161048258,651.5269912341032
3599.9788,1.585711103824757,767.7199881234867
3600.8088,1.5845083426655782,719.198968601107
3601.6372,1.5833839254339845,647.1944136305596
3602.4678,1.5824270972044268,662.2507640232365
3603.2964,1.5818513441489532,781.4567880645885
3604.1252,1.5819916153511444,704.4287433261024
3604.9565,1.5833211806509164,618.3621792761619
3605.786,1.5862204665103912,705.1112230226857
3606.6172,1.590575789662421,702.4750657072343
3607.447,1.595484935779619,640.6099920442855
3608.2788,1.5996010704830197,621.6902612072544
3609.109,1.6016372735376745,580.8659051197504
3609.9392,1.600834799868134,636.1691799031298
3610.7717,1.597098058366749,651.8329309013725
3611.6023,1.591198565236137,702.3595784919355
3612.435,1.584613014641491,755.7239170411531
3613.266,1.5790082643592256,742.0389262395083
3614.0994,1.5753242866842134,626.2877960504583
3614.9307,1.5736032918185083,654.4322833146947
3615.7625,1.5733249342839772,648.1766507943839
3616.5962,1.5738927907408289,634.2032276095017
3617.4282,1.5746496920061577,762.114232373681
3618.2625,1.5748195750208438,669.5451529075497
3619.0947,1.5737866007216117,602.7155551729657
3619.9292,1.571597729190208,703.5979758859302
3620.762,1.5691422793614127,713.3339050345011
3621.595,1.56763647622147,826.4122401147889
3622.4302,1.5678056482052256,620.4602002017502
3623.2634,1.5692663784809116,704.117915502304
3624.0989,1.5706257701526682,807.8559848891762
3624.9326,1.570298236926319,705.7494776553501
3625.7686,1.5675686291260513,751.2866379884344
3626.6028,1.5630614342164197,867.8224770085342
3627.437,1.558163452125818,691.0067035298997
3628.2734,1.5540024172492957,669.8547337866629
3629.1082,1.5508912757983109,869.402736273229
3629.945,1.5484783281892647,732.394101867646
3630.78,1.5464070828872718,931.9779856444746
3631.6174,1.5446316695707136,727.8154230340334
3632.453,1.5433831683234884,746.1025625834249
3633.2883,1.5428210799390882,632.1348765690371
3634.1262,1.5428208532391665,887.9672970041713
3634.9622,1.5429865970418808,724.9756049753208
3635.8005,1.542849742346593,665.8656613608573
3636.637,1.5420505060024026,715.9122999161241
3637.4756,1.5403926802094807,736.3903573295798
3638.3123,1.5378814402343535,682.1823932702166
3639.1492,1.534751928537779,828.5949033512456
3639.9885,1.5315015766860398,783.5395204791076
3640.826,1.5288113028989256,675.6822583423913
3641.6653,1.527235798948624,617.3929536822609
3642.5032,1.5269837573902343,801.9972354060055
3643.343,1.5277962968330592,748.0250778303583
3644.1812,1.5291175174661176,661.3562600028381
3645.0195,1.5304172782831345,855.0253540568845
3645.86,1.5314222164139872,794.1674262316012
3646.699,1.5321327087252261,729.0595940911384
3647.5398,1.5327046923865968,863.2593984997096
3648.379,1.5332851097985916,723.2450064209279
3649.2202,1.5339497782274725,779.4314039221036
3650.0596,1.5346884266391598,767.0392741345618
3650.8994,1.5354055609959454,714.6933925752863
3651.7412,1.5358425530026425,723.5353111896474
3652.5813,1.5355145903267393,782.7707901792738
3653.4236,1.5338328760490814,771.4308947232349
3654.2642,1.5305235185496546,656.4217751728818
3655.1067,1.5260859461649063,694.9301283271303
3655.9475,1.5219329991483133,921.6401759935525
3656.7886,1.5196941777945252,819.8859607382371
3657.6318,1.5202511110590535,905.95613698437
3658.4734,1.523142808477022,744.6954610531424
3659.317,1.5269450209180635,787.0934520322014
3660.1587,1.530189455678932,763.8457585861491
3661.003,1.5321673861866145,771.4915187325827
3661.845,1.5329907282370927,739.046884740517
3662.6875,1.5333044047978173,767.2212202487526
3663.532,1.5338564456879458,678.8567205257259
3664.3748,1.5351065211833745,794.290211418505
3665.2197,1.536873051953028,964.0581966503145
3666.063,1.5382620164037601,780.9140106376663
3666.9084,1.5382116948186741,675.1382375035563
3667.752,1.536238297521408,663.6976039139154
3668.5977,1.5327306969965007,728.4873647073679
3669.4417,1.5286208996694903,756.6313057161565
3670.286,1.5248152480082064,626.6622061962908
3671.132,1.522007431723185,776.0983091492972
3671.9768,1.5206559120325858,751.2833242438537
3672.8235,1.520801524000632,766.653093846387
3673.6685,1.521943687138312,874.5522472871119
3674.5156,1.523217982862005,795.6724501022039
3675.3608,1.5238494298433685,800.8035180597117
3676.2063,1.5235454422869148,720.2085161394211
3677.0542,1.5225065595395664,675.0637891252793
3677.9,1.5212110114743738,769.3459191991309
3678.748,1.5201131226388964,679.1889643483433
3679.5945,1.5194659785423414,850.4247970730705
3680.4429,1.5192358403062016,838.7420957072619
3681.2896,1.5192241395094672,678.4998162111111
3682.1365,1.5192957885503606,774.0644286311436
3682.9856,1.5195259678140691,879.0421787431022
3683.8328,1.5200775814031566,898.2818546447864
3684.6824,1.5209550456098955,720.2246507999282
3685.53,1.521921959090539,593.5771689459202
3686.38,1.522719333897438,850.0535785698019
3687.2278,1.5232674636095718,737.3077684856441
3688.0762,1.5236352825703028,729.3278588214602
3688.9265,1.5237906925251992,658.465151307465
3689.7751,1.5235094618387195,734.9097623465917
3690.626,1.5226094996566573,636.7111262826891
3691.475,1.5212589242408474,674.0164788141504
3692.3264,1.5199365457305973,821.5398453350774
3693.1758,1.5191124001732488,768.9236655495673
3694.0254,1.518958881021249,786.6716987825858
3694.8772,1.5193831784710918,719.4793342020196
3695.7273,1.5201341880776134,782.2585674722966
3696.5793,1.5208212329482593,664.9843271673362
3697.43,1.5209058228532295,807.2984585767335
3698.2825,1.5199092754203631,840.6561631384834
3699.1333,1.5177779193136791,717.6606270554228
3699.9841,1.5150500572714833,809.1627444013945
3700.8374,1.5125687039686864,853.9954857184875
3701.6887,1.5109344288082942,781.7027328042282
3702.5425,1.5101175357153502,674.9519871850332
3703.3943,1.509682177124621,707.3174649680293
3704.2483,1.5092420474268784,798.3960122501633
3705.1003,1.5087361330593667,769.0840064050383
3705.9526,1.5082637525972493,792.2438051239316
3706.8074,1.5077552943773542,658.5602587447357
3707.66,1.5068335378720876,705.888756778385
3708.515,1.5049807387145648,782.1902736564124
3709.3682,1.5019175335269512,832.2413159939351
3710.2234,1.4978409244597948,786.4752277647397
3711.0771,1.49347650783726,831.944144675934
3711.9307,1.4897465293611591,760.055927051614
3712.7866,1.4874039610914083,934.6905426989931
3713.6409,1.486798519416897,748.3393792475562
3714.4973,1.4878026033123484,813.4593529179314
3715.3518,1.4899172450062868,810.5995962025836
3716.2085,1.4924411471010408,835.4696580911515
3717.0635,1.4946675088015258,853.7386141928591
3717.9185,1.4961936137574927,750.4541153810337
3718.776,1.4970447787279513,787.3878054323036
3719.6313,1.497538931732439,789.6727222210083
3720.489,1.4979667973260842,792.7334234441964
3721.345,1.4983379874442384,864.8910936713794
3722.2031,1.4984603743489906,741.6529101249988
3723.0593,1.498200693341455,859.5387963512919
3723.9158,1.4976378995617206,695.1735601161055
3724.7747,1.496968503158409,804.4446286926889
3725.6316,1.4963202488501488,829.5791137086736
3726.4905,1.495616791053914,887.5524797922333
3727.348,1.4946078370014138,755.2020687524642
3728.2073,1.493003923597767,722.5479743583878
3729.065,1.490702056421671,794.4470842962272
3729.9229,1.487901423370191,741.2638675583702
3730.783,1.4850727281999887,798.3153168828633
3731.6414,1.4827636789437986,822.8935116759847
3732.5017,1.481277614639389,682.2452139080282
3733.3604,1.4805552229386005,757.4478533877019
3734.2214,1.480238041197926,805.2817673788394
3735.0803,1.479941389370886,877.2737704353297
3735.9417,1.4794397053001551,794.0206268759061
3736.8013,1.478661421691901,759.8956247697452
3737.661,1.4775537147197109,833.4710357754449
3738.5227,1.476032299293714,825.4994388998999
3739.3828,1.4740735761055497,755.7999274939874
3740.245,1.471794041798885,928.3764438897823
3741.1055,1.4695304482049154,742.0616948494092
3741.9683,1.467758925587257,833.3877305295035
3742.829,1.4669951426211234,813.8717923923316
3743.69,1.4675283258402223,842.5314962304778
3744.5532,1.4692304144501727,910.8097749768704
3745.4148,1.4714984457455027,871.8375037650259
3746.2786,1.4735247123013704,859.4242389203861
3747.1404,1.4746571961871078,936.6920097607873
3748.0044,1.4747255476200867,873.8826440822714
3748.8667,1.4740619542477797,850.0435752404308
3749.729,1.4733227036534151,881.7501715963399
3750.5938,1.4731921026438137,748.1304787001437
3751.4565,1.4741044013275115,788.3111379710919
3752.3215,1.4761146416797681,865.725006657537
3753.1848,1.4789675520378236,823.5618039138191
3754.0503,1.4823156263210266,749.1849192174928
3754.9138,1.4857444759485396,822.8381631741585
3755.7776,1.488755413655119,872.3184371083152
3756.6438,1.4907129151997778,855.6530609626868
3757.508,1.4910126037774247,704.9485334091655
3758.3745,1.4894020651339863,758.9715399404207
3759.239,1.4861821566520037,805.3560113924011
3760.106,1.4821439599369275,845.6531679858692
3760.971,1.47832031734123,728.8493396627525
3761.8362,1.4754474365617807,823.4362900383741
3762.7036,1.4736522098596145,843.8456774227081
3763.5693,1.4725153855670736,904.9463892100675
3764.437,1.471475356258907,866.9185817946469
3765.3032,1.4702472435185123,737.8539102959511
3766.1714,1.4688396458912945,704.3299154399213
3767.0378,1.4673778118488816,937.7827375568767
3767.9043,1.4659936006952548,779.86618762758
3768.7732,1.4649214241857715,797.4442535404061
3769.6401,1.4645113857264191,836.7676198218319
3770.5095,1.4649642602229722,860.5035619674926
3771.377,1.466049495282719,906.7441208845147
3772.2466,1.4671417524152988,759.0073500127038
3773.1145,1.4675768403097622,788.0988453065032
3773.9824,1.4670190566692287,803.8499973029508
3774.8528,1.465504053972256,717.5220419818676
3775.721,1.4633327520188992,758.4797042447254
3776.5918,1.4609513380984023,854.3435582872817
3777.4604,1.4589339486989719,1021.3348589665397
3778.3315,1.4577369837977234,921.0749278792339
3779.201,1.4574413043847871,751.2614654715023
3780.0703,1.4576529053612473,815.6588716699883
3780.942,1.4578817399859512,778.2296950936066
3781.8118,1.4580784835887521,808.7287417802938
3782.6838,1.458787434927701,932.523418672483
3783.554,1.4606230721592242,899.9728417645358
3784.4265,1.46355229892563,783.0125650782063
3785.297,1.4666379034136783,938.5111024447311
3786.168,1.4686407908821266,754.3027914474682
3787.041,1.4688211162589329,658.5468339784895
3787.912,1.4673414067129702,794.1068509149724
3788.7856,1.4649412899054366,792.4926529312951
3789.6572,1.462298710451158,768.9646591417724
3790.531,1.4595969113352885,978.524404203325
3791.403,1.4567206706786404,755.2016074140284
3792.2754,1.4536130042046087,855.493672009164
3793.15,1.4504498007300342,835.3139056763009
3794.0225,1.4474433665210042,867.8593054038224
3794.8972,1.4445285188958372,809.9298494026064
3795.7703,1.4414894156418656,756.0032387172025
3796.6455,1.4382722708020708,865.1096700968816
3797.519,1.4353116364894634,772.5223920025443
3798.3926,1.4333294168758992,886.3308546309826
3799.2686,1.4328518511542816,936.390381560512
3800.1426,1.4337488832488576,806.674847296115
3801.0188,1.435258240832624,944.719192137966
3801.8933,1.436545040274549,764.7406573249743
3802.77,1.437390564491892,803.6809604689116
3803.6448,1.4383776931078867,926.7010069337965
3804.522,1.4404554939071648,992.9138235404265
3805.3972,1.4441275597480512,898.2986920749969
3806.2727,1.4489715072668032,782.2066421164233
3807.1504,1.4537938934835066,836.685470833236
3808.0261,1.4573429808460894,723.1692085657056
3808.9043,1.4591956064460418,877.6357896572518
3809.7805,1.4599435869511417,773.4627765584676
3810.659,1.4607380176280134,854.6353125087528
3811.5356,1.4624473064601753,788.9172271228935
3812.4126,1.4651831948137777,872.5411975456097
3813.2917,1.4683982205450155,884.7041000280167
3814.169,1.4712790149470418,751.1168557926438
3815.0483,1.473170728950972,826.8345874072788
3815.926,1.4736998110133506,825.1341952982461
3816.806,1.4728363715761394,895.3675036220625
3817.684,1.4708484298761713,734.680606047607
3818.5623,1.4681776084932507,749.2150295178957
3819.4429,1.465229431867687,836.6621643596666
3820.3215,1.462224841314887,813.0107944914229
3821.2024,1.4591487698922436,788.399363733795
3822.0815,1.455977150151843,753.0475173693037
3822.963,1.4527376897072255,811.9882093214268
3823.8423,1.4494501572386467,863.8639380426717
3824.722,1.445845359374567,806.5631458492734
3825.604,1.4413446058674406,899.1333900384882
3826.4841,1.4353711130343296,871.9847838094585
3827.3665,1.4276519006182704,822.2384133139367
3828.2468,1.4185196295334983,841.0945549779649
3829.1296,1.4086173747147108,951.3211939081594
3830.0105,1.3987276495552674,904.691385764219
3830.8916,1.3893384251405387,824.6939367975889
3831.7751,1.3806743732620705,919.531934868383
3832.6565,1.3728304647336647,885.0011936318142
3833.5403,1.365682970773934,943.7621779340233
3834.4224,1.3591810368196173,954.9506134392917
3835.3064,1.3535193628080244,951.025502556342
3836.1887,1.3495558879805616,1196.4566293199682
3837.0713,1.3486192507862067,903.2141967099465
3837.956,1.351911547649177,930.5786625369772
3838.839,1.3596392145878262,823.0455998145162
3839.7244,1.370754867484953,852.3736153520646
3840.6077,1.3832942021517634,951.7619836447593
3841.4932,1.395498754863692,825.7164390048345
3842.377,1.406304966994811,918.5614309271209
3843.261,1.4156048689435852,868.8372862267775
3844.1472,1.4237971452840303,840.6053529217337
3845.0315,1.4313891290740033,895.5638755976513
3845.9182,1.4389066941947688,919.775110603844
3846.803,1.4465607957219606,931.3656295074533
3847.69,1.454310533045246,815.8829514188878
3848.5752,1.4618757046385742,816.7941254744132
3849.4604,1.469167171884287,870.537313516445
3850.3481,1.4763960526463469,887.3158042001905
3851.234,1.4838374030476587,787.4680599497847
3852.122,1.4916013274802284,822.1928591314584
3853.0083,1.499243244161864,762.8011552329572
3853.8967,1.5059808360985656,776.2988573391563
3854.7832,1.5109324617639703,729.2304638942852
3855.6702,1.5137151874039827,729.381510620174
3856.559,1.5146639771056871,785.0927400396844
3857.4463,1.5147125530357008,694.1205818779897
3858.336,1.5148653496345554,725.5531018428914
3859.2234,1.5156046638239893,793.2858037714649
3860.1135,1.5167038002083684,730.8178067010491
3861.0015,1.5175382768536598,755.1132926436717
3861.8896,1.5176324484437496,740.0002096615248
3862.7803,1.516908836327364,706.4567917789446
3863.6687,1.5155344673869784,694.7942558201171
3864.5598,1.513540075937909,730.664941230064
3865.4487,1.5106594557603512,765.5916373115022
3866.34,1.5064356019638134,722.5278764595588
3867.2297,1.500632922671436,589.1677864995222
3868.1213,1.493389589713095,818.5285585049363
3869.0112,1.4852083535345952,895.660404713447
3869.9014,1.4765290836628313,711.9845217426156
3870.7937,1.4675447021176995,705.8330970648681
3871.684,1.4583377413051064,816.1397984709707
3872.577,1.448938790913535,784.3596104366852
3873.4678,1.4395780907508724,831.497034948977
3874.361,1.4303883175840233,818.6234281293015
3875.2524,1.4214360981527265,852.7822569406954
3876.1438,1.4124874625981823,858.9075961652267
3877.0376,1.4030785607393335,758.5382366677146
3877.9297,1.3927170760939884,876.2142331466504
3878.8237,1.3809807226124617,971.2798236788743
3879.716,1.3679430116763163,1073.0430616240485
3880.6108,1.3539889883268175,1058.507884859949
3881.5037,1.3397584185129903,984.7855482605902
3882.3965,1.3255336223146044,839.0730408579863
3883.2917,1.3111882975312787,988.1344516815648
3884.185,1.2965214784730967,999.8381334987567
3885.0808,1.281370015060864,1015.8585425720722
3885.9746,1.266138217063481,1167.7466418483411
3886.8706,1.2515433965631924,1059.2601957201161
3887.765,1.2388082822203381,1119.4582817973562
3888.6592,1.229288883698408,1140.357493633865
3889.556,1.2243420315242204,1135.90807119119
3890.4507,1.2249625917414244,1223.8230667408823
3891.348,1.2313426859941545,1137.2451576172296
3892.243,1.242709893670522,1091.4943677179715
3893.1406,1.2577030226958115,1008.3457985918548
3894.0361,1.2746418490844786,1085.8918524007743
3894.932,1.292223648618493,1163.5819733068824
3895.83,1.30955879074765,985.3197872120084
3896.7263,1.3259838992351722,895.0358503768072
3897.625,1.3413089474610025,1035.707489745975
3898.5215,1.3555196972255952,932.8090363980576
3899.4207,1.369064800071215,877.2143520828625
3900.3176,1.3823786067533501,938.4567589792038
3901.2148,1.3959257600607131,999.8799434884864
3902.1145,1.4099641350093073,904.5003362594986
3903.0122,1.4244469015241492,850.3674661996006
3903.912,1.4393208286531327,835.8714368413315
3904.8103,1.4543134219775478,787.9208687216984
3905.7107,1.469250458544543,851.131645364136
3906.6094,1.4838889985947652,829.484839638607
3907.508,1.4982157091327784,708.4797473027229
3908.409,1.5123106079410913,743.4737276873652
3909.308,1.5260730227474328,791.3526136316501
3910.2097,1.5393234425280928,683.2225192391577
3911.1091,1.5516559365683575,713.2627657809749
3912.011,1.5629304149598244,705.978533521682
3912.9111,1.5731118751506628,709.6030307237992
3913.8113,1.5823371633320147,703.5830957948606
3914.7136,1.5907198229988595,670.3581232558943
3915.6143,1.5983433380670538,675.1962636668956
3916.517,1.605465212846309,638.3595356445655
3917.4182,1.6123160466593758,686.1634383380015
3918.3215,1.6190603326093431,638.5405132566476
3919.223,1.6255787437269906,688.327476978472
3920.1245,1.631625548437231,623.3516606527
3921.0286,1.6369296905928736,619.4338055819162
3921.9307,1.641330455706879,625.0653383712339
3922.835,1.644930624616014,650.6505044530572
3923.7373,1.6479248877122878,715.4333424639286
3924.642,1.6505148650454609,586.6579686434051
3925.5452,1.65276113365419,651.3297231089971
3926.448,1.6546056069805712,665.4069681784662
3927.3535,1.655847715964955,690.7806391106503
3928.257,1.6561935126944982,579.1735722210898
3929.1628,1.6554359771654557,622.5324527271008
3930.0667,1.6535694229737627,624.7003024878966
3930.9731,1.6506915074146775,684.3937671277906
3931.8774,1.6468676257055441,623.9071105234677
3932.782,1.6420829561433108,640.2540304122492
3933.6887,1.636462380028928,667.2307636663782
3934.5938,1.6304394803874376,650.0280725244859
3935.501,1.6244929607177088,658.3308809306019
3936.4062,1.6189258397306572,654.9888795279442
3937.3142,1.6136222263030775,633.3583412032935
3938.22,1.6082840107333405,741.5091899078126
