wavl,flux,ivar
3566.9744,1.0761170478605242,1686.0516835030494
3567.795,1.0761602457229202,1567.4514366107142
3568.6177,1.0742034639997218,1377.418858072277
3569.4385,1.0703218576421702,1676.0542996004322
3570.2617,1.06478258960133,1629.2765075498794
3571.083,1.0581679596359665,1432.3788102756182
3571.9065,1.0512973965899108,1673.4746885848942
3572.7283,1.045227344634295,1814.238950910754
3573.55,1.0408601400746815,1476.9583242053684
3574.374,1.0387273385207316,1865.7446093059714
3575.1963,1.0388447863585097,1899.2451132925298
3576.0208,1.040680701568218,1820.5679316359838
3576.8435,1.0433015931280651,1615.8830551418494
3577.6682,1.0457169348328652,1419.0170901039946
3578.4915,1.047234384768192,1862.6782163068488
3579.3145,1.0477032763955498,1771.5406382383997
3580.14,1.0473869011606594,1707.0793883396414
3580.9636,1.0467098767607066,1811.6909214941447
3581.7893,1.046079950990021,1529.7137451280464
3582.6133,1.045878386523469,1453.1380261049096
3583.4395,1.0464667430429737,1955.3267853147076
3584.264,1.0480774244432347,1377.1753584835408
3585.0884,1.0505848512763405,1787.7659862909936
3585.915,1.0533686804902502,1561.7510123406746
3586.74,1.0554859024253254,1584.294352046521
3587.5671,1.0562241418523413,1833.3753217615
3588.3923,1.0554926740330783,1640.47607981116
3589.22,1.0538167841452004,1587.2984607246588
3590.0457,1.0519785040895437,1635.352748922462
3590.8716,1.0506231934528274,1640.1626915549468
3591.6995,1.05006953375535,1686.0582838071775
3592.526,1.0501949764587615,1644.7793128484548
3593.3542,1.050447866883807,1433.3005414227193
3594.181,1.050144890173369,1451.7927459654775
3595.0098,1.0489316806552995,1486.1367171574186
3595.8367,1.0470171103245112,1640.6733684111898
3596.6638,1.0449097438597679,1754.92429137928
3597.4934,1.0429651421316777,1721.1479917055444
3598.3208,1.0411765601203764,1634.0520600586822
3599.1506,1.0393015599772413,1390.9120460321683
3599.9788,1.0372450210770292,1821.2281382713538
3600.8088,1.0352171345261705,1795.7907143099492
3601.6372,1.0336713926808134,1777.3625788356806
3602.4678,1.0329988802442645,2176.7559574203524
3603.2964,1.0333649507635485,1889.5320827509345
3604.1252,1.0347607551347242,1795.3585917484927
3604.9565,1.0372495937228114,1682.5771444552763
3605.786,1.0410521694298043,1433.8836505092154
3606.6172,1.046403008884635,1870.0739566839216
3607.447,1.0530658163699702,1914.0728068284066
3608.2788,1.0601437863238,1438.63043709514
3609.109,1.0661692190717607,1664.3751514613384
3609.9392,1.0698340282076473,1703.1843317822975
3610.7717,1.0705230982865206,1636.741284605208
3611.6023,1.0684613773594929,1403.2352967732686
3612.435,1.0643555287320121,1633.2337021493688
3613.266,1.0589998366946036,1524.4210467424757
3614.0994,1.0530547996163977,1676.6305656751852
3614.9307,1.047199994411201,1928.368897713275
3615.7625,1.0420568393462677,1605.6587935445514
3616.5962,1.0381480749386074,1669.3359381513794
3617.4282,1.0357713705488822,1798.9377230016025
3618.2625,1.034881070276081,1483.3065251038952
3619.0947,1.035171925761433,1651.2612390854533
3619.9292,1.0362018589165676,1521.0497742755394
3620.762,1.0375560127783598,1632.0551128235415
3621.595,1.0389326297707249,1623.8841864571311
3622.4302,1.0401122664925362,1951.8264133949026
3623.2634,1.0409343319419329,1565.413778071735
3624.0989,1.041370250040379,1933.7153277849295
3624.9326,1.0415402191964294,1727.26928766761
3625.7686,1.0416386851066661,1784.149727214416
3626.6028,1.0418051734123157,1625.2251096503558
3627.437,1.042103184533155,1712.4017860501358
3628.2734,1.042561323934013,1670.0412709664465
3629.1082,1.0431034132200794,1632.3373317544933
3629.945,1.0433879548739133,1576.5504967523304
3630.78,1.0427812155061755,1642.4406833155533
3631.6174,1.0406584535214833,1743.596424356436
3632.453,1.0368954915996833,1787.3223845505006
3633.2883,1.032109444048705,1781.1923270445618
3634.1262,1.0274756575010713,1912.492295645857
3634.9622,1.024190370774466,1728.166362605865
3635.8005,1.0227645089030155,2049.2107609637324
3636.637,1.0228584631530786,1708.2041083390454
3637.4756,1.0235768546145547,1514.9974050622898
3638.3123,1.0240881911865753,2049.0856299987277
3639.1492,1.0240709304599658,1748.552132218818
3639.9885,1.0237388650791603,1933.355078545843
3640.826,1.0235723197725988,1837.7949153623895
3641.6653,1.023981696239414,1789.2871134053985
3642.5032,1.0251157533705046,1823.465023735671
3643.343,1.02684678640592,1598.3128259199605
3644.1812,1.028807796957648,2145.2583405038667
3645.0195,1.0304996487314086,1738.122321084547
3645.86,1.0314313145450622,1435.3937816173607
3646.699,1.0313363428404314,1804.0294707094345
3647.5398,1.0303230123926836,1906.3147079918126
3648.379,1.028802259689307,1956.4308472480693
3649.2202,1.027251611136384,1637.989027985829
3650.0596,1.0260253790996225,1821.9731450570414
3650.8994,1.025209436588415,1498.3491441482709
3651.7412,1.024623501152732,2056.301816904607
3652.5813,1.0239296535916107,1672.4329153413848
3653.4236,1.0228606600389922,1935.0930125792481
3654.2642,1.0214971247565976,1597.7822190964666
3655.1067,1.0203243839162601,1650.1589424893923
3655.9475,1.0200003487686449,1599.0878518164973
3656.7886,1.0209053833585353,1742.222251384246
3657.6318,1.0228985239776547,1546.647305871177
3658.4734,1.0253993930571894,1837.7856020912157
3659.317,1.0277553436434104,1681.1267046962541
3660.1587,1.02950189796426,1385.6057084536485
3661.003,1.0305342402402802,1594.7913585977763
3661.845,1.031055765451706,1688.0657116539755
3662.6875,1.03145612701903,1417.5025460751767
3663.532,1.032076841293961,1659.2827797969253
3664.3748,1.0330052895367674,1434.300830886773
3665.2197,1.0340295227245302,1599.8769706539078
3666.063,1.0347883701885507,1741.6007057729523
3666.9084,1.035084538335909,1631.8218779917886
3667.752,1.0350828998052903,1674.9925583686709
3668.5977,1.035260595963768,1630.6735186960657
3669.4417,1.036090373353108,1671.7539292252354
3670.286,1.0376734002904882,1610.966631598627
3671.132,1.0395814649778023,1838.2571412922332
3671.9768,1.0410498818248919,1563.8036186000395
3672.8235,1.0414832593085073,1806.7342284526712
3673.6685,1.0408339909336597,1759.6862860348226
3674.5156,1.0395963331532978,1622.2356517228882
3675.3608,1.038419043433715,1575.7386272261788
3676.2063,1.0376581249735461,1622.3603363952964
3677.0542,1.0372640751405318,1456.363871811662
3677.9,1.0369865284094517,1669.245230199792
3678.748,1.0366466951989328,1612.966482935041
3679.5945,1.0362423089780464,1750.9944919390061
3680.4429,1.0358456776475975,1523.3634814012796
3681.2896,1.0355037988960671,1923.0650884763365
3682.1365,1.0352224447707725,1116.0227407817047
3682.9856,1.034970559497283,1961.4008969772835
3683.8328,1.0346041471483953,1777.594758323099
3684.6824,1.033810622258907,1783.73887482758
3685.53,1.0322873589424018,1703.5477866291953
3686.38,1.0300699797286408,1724.5828108361864
3687.2278,1.0277583616311698,1792.9793336172418
3688.0762,1.026258947060545,1647.2970245199836
3688.9265,1.026324949629799,1695.2665543891071
3689.7751,1.0282188430846537,1692.49311906178
3690.626,1.0317362955735399,1828.9911836627648
3691.475,1.0363128037678317,1887.092458143164
3692.3264,1.041182482485698,1819.6010081673815
3693.1758,1.0454933068305199,1751.4318880777332
3694.0254,1.0487437876490882,1839.9283596210673
3694.8772,1.0509811378674696,1706.109366225933
3695.7273,1.0526486888576705,1392.1269296229793
3696.5793,1.0541915172930143,1597.8938236406022
3697.43,1.0556888393505341,1837.7862854295786
3698.2825,1.0568508414430844,1569.1460341347808
3699.1333,1.0572042167692852,1526.6357658443985
3699.9841,1.0563848588345315,1827.5947877044428
3700.8374,1.054338542347975,1790.6272059764196
3701.6887,1.0514365319375036,1471.3808480952207
3702.5425,1.048324461926579,1773.9530990534454
3703.3943,1.0456666401793726,1622.6109280352964
3704.2483,1.0437252833628436,1566.9905372324185
3705.1003,1.0422243802131776,1577.6677903651548
3705.9526,1.040474071835449,1703.187400076504
3706.8074,1.0378462517190044,1559.4306724216913
3707.66,1.0342822812070205,1836.5531893121224
3708.515,1.0303760623949894,1758.166982150648
3709.3682,1.027095085002362,1714.102264785857
3710.2234,1.0251495967808242,1742.6735948795942
3711.0771,1.024698086611023,1779.3741165671788
3711.9307,1.0253831165740268,1606.49562723775
3712.7866,1.0266724601783097,1612.323613479282
3713.6409,1.0281111847716982,1780.123789710367
3714.4973,1.0294271519836127,1675.1989811136323
3715.3518,1.0304437401572195,1623.4978556740812
3716.2085,1.0310049979710285,1718.5091845048978
3717.0635,1.0309201163395025,1630.011191990488
3717.9185,1.0300591763890807,1745.873162823226
3718.776,1.028524697643169,1811.2888629237057
3719.6313,1.0267918229700415,1571.5758727733366
3720.489,1.0255399484473198,1710.133539582817
3721.345,1.025291083958506,1960.772424674248
3722.2031,1.0260640169427313,1671.9094665947284
3723.0593,1.0274286056851694,1748.5154953291787
3723.9158,1.0289179660882173,1617.6463585350025
3724.7747,1.030419541360222,1750.8865963235608
3725.6316,1.0321954035022316,1838.1113983558348
3726.4905,1.034554459895831,2015.1557441373525
3727.348,1.037384828215982,1900.7089942347225
3728.2073,1.0400878339749267,1738.3086308077875
3729.065,1.0419045591872165,1617.6049499670098
3729.9229,1.042486490710549,1736.5311205522141
3730.783,1.0420862242886928,1673.6280303365968
3731.6414,1.0413270492554492,1588.01882766893
3732.5017,1.040774399035134,1689.2525545118315
3733.3604,1.0407006239001935,1631.5396732828285
3734.2214,1.0410803664316735,1666.4839670312567
3735.0803,1.0416815009075944,1793.8197722798518
3735.9417,1.042155036382417,1636.5638546883179
3736.8013,1.0421397349450585,1608.021720941304
3737.661,1.0414270817154885,1886.3071784480194
3738.5227,1.0400582717039342,1630.5594866125334
3739.3828,1.038305942410288,1743.1543013430198
3740.245,1.03647818232356,1768.9030617750623
3741.1055,1.034745018211938,1686.5492589128946
3741.9683,1.0330392477781931,1756.3099592254878
3742.829,1.0312450078686397,1559.8084802526555
3743.69,1.0293892595801262,1632.49335996377
3744.5532,1.0276821647720036,1784.6250598702798
3745.4148,1.0263372298257538,1983.9342203287706
3746.2786,1.025402506235592,1651.297726572518
3747.1404,1.0249080244841413,1660.235665516666
3748.0044,1.0250687570696702,1948.2352843498454
3748.8667,1.0262652789293414,1702.8607208085475
3749.729,1.0286957207356495,1709.0105923453652
3750.5938,1.032034844514657,1823.9902668796535
3751.4565,1.0354099357718916,1680.5908528393356
3752.3215,1.0379067418291026,1720.627559450597
3753.1848,1.039079807036631,1719.0079949983244
3754.0503,1.0392459026728211,1774.1116365179737
3754.9138,1.039221550046844,1795.649724627737
3755.7776,1.0398105713151682,1593.617456885194
3756.6438,1.0413918691574657,1460.436879958063
3757.508,1.043818041104059,1727.2486087342495
3758.3745,1.046649030423493,1497.658886351423
3759.239,1.049392582002055,1659.9311960084547
3760.106,1.0517300375445644,1561.0548919618036
3760.971,1.0534789201500032,1669.168822715554
3761.8362,1.0545497677397666,1893.5675674495428
3762.7036,1.0548340358922201,1693.3388296649289
3763.5693,1.0541834354219344,1578.2493729296154
3764.437,1.052452424475899,1857.5334209709847
3765.3032,1.049609482484594,1749.2066317049253
3766.1714,1.0458402947533525,1682.3506518914946
3767.0378,1.041672830139066,1540.2330925999465
3767.9043,1.0378292935671425,1794.5702903828094
3768.7732,1.034926425166684,1818.2243231954667
3769.6401,1.0331488646529976,1896.0980501345794
3770.5095,1.0321627947387026,1705.5436567327038
3771.377,1.0315139687532497,1662.5372868358443
3772.2466,1.031004456446035,1752.8116499527607
3773.1145,1.030746251566878,1628.2738244362201
3773.9824,1.030880501547626,1745.7931509876191
3774.8528,1.0314152482632692,1591.1283683615868
3775.721,1.032346221287271,1535.0123009736353
3776.5918,1.0338507028476516,1589.6661217341314
3777.4604,1.036191948022208,1444.0417965986494
3778.3315,1.039480520306698,1656.7794625078006
3779.201,1.043461344866505,1556.608468775019
3780.0703,1.047688706111678,1504.0538906591785
3780.942,1.0518047746380106,1499.5117275162459
3781.8118,1.0557136581611675,1639.962195689222
3782.6838,1.0596068184404526,1421.379460580631
3783.554,1.0636309661448766,1539.9126631262347
3784.4265,1.0676746254560334,1533.9527503320844
3785.297,1.07119893689566,1542.029881225976
3786.168,1.0735075146877084,1386.5623250970486
3787.041,1.0740584304964682,1712.9453176011866
3787.912,1.0727468718544662,1558.3839841094987
3788.7856,1.0699337551988308,1651.3203679500555
3789.6572,1.0662519854434842,1575.4604735010325
3790.531,1.0622347266690928,1806.633419663761
3791.403,1.0581795130011489,1423.318208562149
3792.2754,1.0541342403790985,1608.3322531278736
3793.15,1.0500725868537972,1656.176081162683
3794.0225,1.0459378699005013,1846.3341957692614
3794.8972,1.0414804751334554,1990.0425805020625
3795.7703,1.036405043044202,1569.1275959864697
3796.6455,1.0306285962952788,1716.9919390984694
3797.519,1.0247081459498277,1674.6279694010693
3798.3926,1.0196976333987613,1668.2313502974287
3799.2686,1.0166927980739748,2092.607669863932
3800.1426,1.0162712426809821,1821.9457364688349
3801.0188,1.0182228531742905,1734.8524952237954
3801.8933,1.0217959455627281,1861.425780430498
3802.77,1.0261564864810977,1821.9882568453595
3803.6448,1.0306401563717515,1703.7843539195856
3804.522,1.0349154760627481,1654.3582101498703
3805.3972,1.0388754454086087,1596.7699987795215
3806.2727,1.042673754139663,1659.8539648038284
3807.1504,1.0466257853792766,1537.0111676221418
3808.0261,1.0510714870093607,1686.0353299352444
3808.9043,1.0563307879488915,1644.7288410728493
3809.7805,1.0625509163898699,1412.1155471899328
3810.659,1.0697873839723748,1634.3007952240837
3811.5356,1.0778299995654421,1405.3022917818505
3812.4126,1.0861803317661938,1560.742811670397
3813.2917,1.0938779226130935,1553.7862926354273
3814.169,1.0995425464278605,1531.8612587788016
3815.0483,1.1019976831381642,1485.8487670868137
3815.926,1.1009374955316342,1400.7150311636562
3816.806,1.0973835712055804,1417.8339098835363
3817.684,1.093244249688669,1616.966727198583
3818.5623,1.0901640904019911,1516.9821971417211
3819.4429,1.088620767362365,1428.807300557945
3820.3215,1.0878473899457286,1571.9274819501675
3821.2024,1.0864879202349593,1567.420232377006
3822.0815,1.0834948660902972,1717.5011242074797
3822.963,1.0786231564184425,1505.1989255013773
3823.8423,1.072485826215244,1693.5881448635469
3824.722,1.066043489091612,1467.4863247029914
3825.604,1.0600625677911206,1848.1981959672416
3826.4841,1.0547968257754436,1568.4360031576985
3827.3665,1.0498889712353225,1512.9834646161532
3828.2468,1.044731927062708,1569.0471679029692
3829.1296,1.0386654602814913,1628.8173551519933
3830.0105,1.0313172777681088,1643.85700841552
3830.8916,1.0226479574863905,1602.5811360045277
3831.7751,1.0129974439696259,1646.5031420375924
3832.6565,1.003029747325675,1852.7422482678526
3833.5403,0.9933609666696036,1843.4380748967162
3834.4224,0.9846713640094699,2069.6045964454515
3835.3064,0.977590265386428,1914.3232875520778
3836.1887,0.9729138538341141,2017.6509968323878
3837.0713,0.9714117718169756,2137.1649555305494
3837.956,0.9736327321722944,2076.6789262053394
3838.839,0.9795643030180424,1716.4237593309283
3839.7244,0.9885940036990551,1941.3029308737036
3840.6077,0.9996064128496226,1766.3857751965484
3841.4932,1.0114977081361451,1895.0022450395018
3842.377,1.0232926145333554,1911.9700237365082
3843.261,1.0344581044949175,1692.5864862066448
3844.1472,1.0447936451820987,1691.4500483048694
3845.0315,1.0542826647693693,1719.9697996232271
3845.9182,1.0631635842426665,1663.4472525270198
3846.803,1.0715870220503052,1581.7708199472227
3847.69,1.0795885862949903,1642.0780178197247
3848.5752,1.0868595833463184,1503.397040091334
3849.4604,1.0930804591719667,1555.639687704255
3850.3481,1.0981984026010485,1417.0162218726098
3851.234,1.1025025456570485,1593.147799811564
3852.122,1.106449054260552,1496.7215888568496
3853.0083,1.1102001777978148,1390.3046009021014
3853.8967,1.1136249201224608,1457.0606185638271
3854.7832,1.1164949872122016,1408.8466517595714
3855.6702,1.1187926857511106,1505.9584667130719
3856.559,1.1206224078352611,1457.7770858258182
3857.4463,1.1219994006290328,1386.8427454693522
3858.336,1.1228353332352397,1375.627624442652
3859.2234,1.1230820236162413,1437.2009111201085
3860.1135,1.1228665346194886,1430.2670403674956
3861.0015,1.122408252501262,1470.961672733525
3861.8896,1.1218674750125464,1460.7591340967238
3862.7803,1.1213001764164185,1436.3803743985943
3863.6687,1.1207333410769966,1283.4405059544042
3864.5598,1.120205524170015,1371.9598460017162
3865.4487,1.119711941278749,1583.2448071461336
3866.34,1.1190753521086036,1442.1266821738316
3867.2297,1.1179510300375157,1428.9534280506284
3868.1213,1.1159652816195875,1478.536017081938
3869.0112,1.1129280704061624,1387.3379387219118
3869.9014,1.1088952441128612,1483.5587552539962
3870.7937,1.1041252087821831,1589.2794043564936
3871.684,1.098978450527556,1507.7185939563778
3872.577,1.0936729018577958,1415.9834808329156
3873.4678,1.088312884356572,1599.6467276433216
3874.361,1.082875818280469,1419.2085104028815
3875.2524,1.0774620547264644,1516.3840205152367
3876.1438,1.0722052078192081,1545.6587179909852
3877.0376,1.0671274591849538,1653.9821880017917
3877.9297,1.0620096297841548,1676.2712206076403
3878.8237,1.0563591593477526,1666.5768258546905
3879.716,1.0497347061072009,1747.3889539703682
3880.6108,1.04183005313847,1736.0697998679839
3881.5037,1.0325997752909604,1653.2737952930856
3882.3965,1.0220201886513078,1857.7989640008382
3883.2917,1.0100225977400814,1896.0876575311568
3884.185,0.9965602872545127,1982.2938522091392
3885.0808,0.9814240323225745,1720.294762115511
3885.9746,0.964688534319772,1817.5351859717998
3886.8706,0.9467669389582116,1864.8895780854932
3887.765,0.9290518179696636,2188.690160149637
3888.6592,0.9136689577326658,2191.208532450084
3889.556,0.9031248548829284,2294.875074372238
3890.4507,0.8995151322818675,2767.3990020379633
3891.348,0.9035566851827735,2657.4440986357827
3892.243,0.9143580223504056,2073.847211220213
3893.1406,0.9299363383640222,2029.8190534755213
3894.0361,0.94786398775682,1853.7916761942734
3894.932,0.9662554107599023,1689.1416452727838
3895.83,0.9839003335540005,1859.9859154163937
3896.7263,1.0000364487286846,1709.944327894617
3897.625,1.0145109038688584,1681.199243773467
3898.5215,1.027413297318659,1878.9496573285408
3899.4207,1.0392626326727528,1713.7719134974225
3900.3176,1.050445778141205,1760.9164832959646
3901.2148,1.0611730087547326,1585.0705853591653
3902.1145,1.0713583636193305,1695.7352438371527
3903.0122,1.0808077191902001,1480.3035996410883
3903.912,1.0896402893610093,1689.9045946195254
3904.8103,1.0981496979702476,1640.6063708967536
3905.7107,1.1068067067697627,1420.2669430854862
3906.6094,1.1158948234648902,1484.9208084998743
3907.508,1.1254815925340607,1450.9669075766608
3908.409,1.1353496221574513,1447.716764410583
3909.308,1.1450599895370617,1421.9433747800297
3910.2097,1.154299624213655,1310.4297664646538
3911.1091,1.1627464775929979,1282.0277160595524
3912.011,1.17010817735287,1267.051083561203
3912.9111,1.175887914935454,1341.3612385441309
3913.8113,1.179749151562067,1336.6163471925552
3914.7136,1.1818138182654019,1282.8078470431547
3915.6143,1.1827362276232902,1191.814188913999
3916.517,1.1833804202936438,1289.2270672330437
3917.4182,1.1843102654684536,1161.581429889727
3918.3215,1.1855638372539141,1404.4590883863495
3919.223,1.186767100920407,1294.3002877089189
3920.1245,1.1875196755751207,1308.4344481484566
3921.0286,1.1877371997503723,1266.8176883140875
3921.9307,1.1877741633078978,1334.8913027845274
3922.835,1.1882319514097361,1358.6817533534634
3923.7373,1.1895651553957862,1309.6949484774234
3924.642,1.1917839408716229,1463.0268334063528
3925.5452,1.1944059466954138,1173.1539607049244
3926.448,1.1967449416581117,1311.4082341310764
3927.3535,1.1982069598662084,1142.1751949435131
3928.257,1.1984034589368597,1249.117720877257
3929.1628,1.1971358919713417,1298.6383699285864
3930.0667,1.194394321912158,1324.0960347036294
3930.9731,1.1904556919323883,1262.6361070238547
