wavl,flux,ivar
3566.9744,26.82164428177037,3.2131984899322075
3567.795,26.67881038271522,3.076981148630447
3568.6177,26.538294916783183,3.2859159047342295
3569.4385,26.428069604431805,2.993043335971657
3570.2617,26.356060732835772,3.186285597041298
3571.083,26.314026557118495,3.322422627370076
3571.9065,26.284137612825955,3.096340881663438
3572.7283,26.251207193995963,3.494002266524829
3573.55,26.210790237478527,3.5134627883079137
3574.374,26.17031299521451,3.161999886316078
3575.1963,26.142058665085543,3.328645426315068
3576.0208,26.132089918509216,3.3357140379675507
3576.8435,26.13437701672095,3.1759099578527175
3577.6682,26.132393401263776,3.170437601984411
3578.4915,26.107713464871324,3.234747286453178
3579.3145,26.049401706151105,3.173773070836327
3580.14,25.958681822455656,3.2759131537335486
3580.9636,25.850125851951468,3.271462608004521
3581.7893,25.747548103367933,3.428312320645967
3582.6133,25.680966104780772,3.21758270123805
3583.4395,25.676100724871358,3.2818664827963238
3584.264,25.742819381872433,3.485977181086524
3585.0884,25.86562092991262,3.1186941695018886
3585.915,26.00699456557577,3.5933003137131077
3586.74,26.121376430310008,3.120295187433075
3587.5671,26.176978955940285,3.0491073043337713
3588.3923,26.165291379872794,3.409661544675813
3589.22,26.099307214392784,3.4610851192812158
3590.0457,26.00164343244158,3.307985542949767
3590.8716,25.891775490370275,3.0992992040926133
3591.6995,25.78095122796079,3.7082437584770345
3592.526,25.67421903586285,3.455307747899289
3593.3542,25.573557776732525,3.5811683126761022
3594.181,25.483332088333874,3.2235922929978966
3595.0098,25.407744652441615,3.3860512437215102
3595.8367,25.348170931126287,3.3549889539740967
3596.6638,25.29959581900658,3.5227258885614927
3597.4934,25.254808364364752,3.299315147792149
3598.3208,25.209655639971977,3.2957017815956475
3599.1506,25.161674296485703,3.274251872053692
3599.9788,25.105958626612455,3.9063833128281487
3600.8088,25.033894006542173,3.558486560338234
3601.6372,24.94441693666992,3.4042395565446704
3602.4678,24.854895116738298,3.750518264568598
3603.2964,24.80127068943498,3.491081743764159
3604.1252,24.816668989506177,3.753787743974755
3604.9565,24.908470680376514,3.3579550886886578
3605.786,25.049034230404846,3.4567750815011964
3606.6172,25.193116867201358,3.2726306032256596
3607.447,25.301180125778014,3.34954591875406
3608.2788,25.35701250653037,3.3226640510287218
3609.109,25.364665068559216,3.5753799458175224
3609.9392,25.33843993414102,3.903527007088486
3610.7717,25.292583637849322,3.1577601912863464
3611.6023,25.23851194039471,3.2995996155633858
3612.435,25.18383497377247,3.811150148897393
3613.266,25.132458971798595,3.889676590430899
3614.0994,25.081961551228655,3.964619454219021
3614.9307,25.025641289547874,3.4164278690382655
3615.7625,24.956681443423523,3.293040669991073
3616.5962,24.8740452754784,3.72738333965397
3617.4282,24.78419330588874,3.217152427377253
3618.2625,24.69579553077586,3.3605066538240966
3619.0947,24.615972345772885,3.4843559359295724
3619.9292,24.545769137703477,3.5238711398988527
3620.762,24.482349902757534,3.501277420784877
3621.595,24.420990850867398,3.3888488750338057
3622.4302,24.35964389489037,3.6699372927200207
3623.2634,24.301210729238687,3.260764565085323
3624.0989,24.24986440016407,3.7505090166688966
3624.9326,24.20717236883296,3.689285395754943
3625.7686,24.16949502560604,3.741375140786554
3626.6028,24.132663634868017,3.9950995256829334
3627.437,24.095813802258466,3.7540201264499045
3628.2734,24.06130624614486,4.1025085894062565
3629.1082,24.031228043619222,3.8546769170975423
3629.945,24.00494694784412,3.871510042332189
3630.78,23.98090905001695,4.282147899260907
3631.6174,23.957021249572925,3.4519549764094406
3632.453,23.930356457631564,3.487692365221288
3633.2883,23.896623802985356,3.636995402248772
3634.1262,23.851824886333453,3.762512234758055
3634.9622,23.79353328745173,4.184930685810444
3635.8005,23.719577999861222,4.1534635779795295
3636.637,23.631250863304444,3.5645727210765266
3637.4756,23.536572435050125,3.811850842027966
3638.3123,23.452578520268034,4.053257497949304
3639.1492,23.395226504380545,3.7208167801636147
3639.9885,23.369542526141764,3.74175584043553
3640.826,23.367485379244307,3.9321056750736765
3641.6653,23.375050624588873,4.090982468817639
3642.5032,23.380445668808324,4.806244801965011
3643.343,23.37669645873076,4.008580812039024
3644.1812,23.361096910143807,3.7405305326360954
3645.0195,23.33446767932717,4.113201822598962
3645.86,23.299732772232236,4.0819424006776925
3646.699,23.259936967004368,4.154653225469101
3647.5398,23.216239479050756,3.7736561035391483
3648.379,23.169322415617014,4.428756867530927
3649.2202,23.12001887467783,4.229048665702492
3650.0596,23.070608777201354,4.40216927750818
3650.8994,23.02402266651595,4.221461454542786
3651.7412,22.985163347750174,4.1529764793128505
3652.5813,22.961703003777206,4.141596818041427
3653.4236,22.96113829478978,4.116319865106298
3654.2642,22.984046395164746,3.9390759023790323
3655.1067,23.01673774294357,3.790241579902349
3655.9475,23.03293280374625,4.439688571754474
3656.7886,23.00920472754772,4.562658658821681
3657.6318,22.941792172418623,4.7483703911555555
3658.4734,22.850550265118656,4.790202826307234
3659.317,22.763466112243712,4.323053357645693
3660.1587,22.700092728406855,4.603970243103386
3661.003,22.663573555896313,4.354546615603304
3661.845,22.647524180469706,4.188444379703366
3662.6875,22.644220734155873,4.63755537971893
3663.532,22.64962649453334,3.8815019867396603
3664.3748,22.66258629570283,4.56278474669883
3665.2197,22.6822744365021,4.318575756084452
3666.063,22.70524229610591,4.617688910680775
3666.9084,22.723952541281044,3.6306174519689267
3667.752,22.727369056168932,4.313755164650398
3668.5977,22.706152064882918,4.302557363621783
3669.4417,22.659347376790464,4.479764696999291
3670.286,22.597151223462948,4.656128460241355
3671.132,22.53626842751825,5.156166394947368
3671.9768,22.49001056355653,4.425036472822689
3672.8235,22.45871996704459,4.762108964526542
3673.6685,22.430656550643896,4.697914331501247
3674.5156,22.390743168874348,4.155164050401619
3675.3608,22.332444602685122,5.007482269851007
3676.2063,22.26148336534606,4.487651449859241
3677.0542,22.191462952326393,4.338304391485428
3677.9,22.13607095330493,4.0904085188645825
3678.748,22.10185763981853,4.785882767145985
3679.5945,22.08823142322643,4.985441897450328
3680.4429,22.088504947837198,4.933195182994384
3681.2896,22.092668531285938,4.170826002324373
3682.1365,22.090549775709146,4.314122481246761
3682.9856,22.076398000234242,4.483558450414617
3683.8328,22.052317949722465,4.591992234067298
3684.6824,22.025647164254664,4.394318236357216
3685.53,22.00233592163139,4.292832184339792
3686.38,21.981660438920287,4.472684254143696
3687.2278,21.958965150924957,4.575465052062936
3688.0762,21.931495829877424,4.458014752097052
3688.9265,21.902260056512898,4.473222006273245
3689.7751,21.87897351592851,4.578463475588909
3690.626,21.869479134061635,4.354466104256667
3691.475,21.877468292807485,4.488608737819219
3692.3264,21.89903494307581,5.0376405100788215
3693.1758,21.922504282280258,4.89994238616875
3694.0254,21.933206261710282,4.501983189977691
3694.8772,21.920344793906086,4.023350682146743
3695.7273,21.882497812976112,4.815408354558159
3696.5793,21.827082885358728,4.7627114067225875
3697.43,21.765859706754508,4.576178633573777
3698.2825,21.70795935983224,4.699642696653969
3699.1333,21.65661465356851,4.422450657249777
3699.9841,21.60772561339973,4.480947365155714
3700.8374,21.553859548491364,4.614334155167633
3701.6887,21.491207107191904,5.055190466697197
3702.5425,21.42312487930134,5.189603690696635
3703.3943,21.359369226451783,5.030840106529951
3704.2483,21.307362553999997,5.231419018725785
3705.1003,21.26731931327423,4.476456278807066
3705.9526,21.231847489657905,4.668172867110472
3706.8074,21.191830764143173,4.882309015901696
3707.66,21.141592479270688,5.035386533750358
3708.515,21.07958315314412,5.136601672054829
3709.3682,21.00898428276627,5.430465278174849
3710.2234,20.93607472632739,4.69733012241893
3711.0771,20.870260073034768,5.576350312622921
3711.9307,20.819830606877776,4.805865369050147
3712.7866,20.788011837674315,4.979016167072523
3713.6409,20.771045747288117,4.935993044992655
3714.4973,20.76018114515644,5.121821241840186
3715.3518,20.747738383481757,5.195694130888776
3716.2085,20.731290104742982,5.078663563324255
3717.0635,20.71429959429619,5.581120110902394
3717.9185,20.70305342542436,5.592353824829394
3718.776,20.703298710681338,5.210128146861132
3719.6313,20.717167725549828,5.34091837945869
3720.489,20.74126450323546,6.068367193068402
3721.345,20.766953937571373,5.007115166306384
3722.2031,20.78416010730676,5.213703954494654
3723.0593,20.785045306054023,4.741751268022779
3723.9158,20.766343175439804,4.848439923834674
3724.7747,20.72911440769187,5.189360714749225
3725.6316,20.678816726100948,4.900701864481872
3726.4905,20.623518770559702,5.8060439395277035
3727.348,20.57200107275312,5.499345594263852
3728.2073,20.52940021858524,4.9782353931632235
3729.065,20.49594219428494,5.3686022810038345
3729.9229,20.46731236205775,5.262672735474409
3730.783,20.43843479045454,4.954484145388267
3731.6414,20.407144535570346,5.395372504179455
3732.5017,20.37475842893769,5.535557317005965
3733.3604,20.34445250106223,5.198915294498062
3734.2214,20.317416313437416,5.715135377024694
3735.0803,20.29180171987159,5.323838985243216
3735.9417,20.263202314458745,5.204758536404617
3736.8013,20.227747942326868,5.310486816392367
3737.661,20.18399418220349,5.099405854875187
3738.5227,20.134459081940307,5.676604274439178
3739.3828,20.085988268068053,5.363834588488046
3740.245,20.04655032105043,5.8850005195839294
3741.1055,20.021883021384237,5.659384022897868
3741.9683,20.011806057990896,5.200524394236978
3742.829,20.01129667018121,5.298596002223881
3743.69,20.01334633735415,5.003942945444106
3744.5532,20.011744500656224,5.181437601579675
3745.4148,20.002158694181134,4.909408412730601
3746.2786,19.98266150832332,5.003669486612225
3747.1404,19.954580199135947,5.303379295976786
3748.0044,19.922095628697125,5.755914663004304
3748.8667,19.891373297373374,5.770708890963845
3749.729,19.867480188619147,5.284872810139697
3750.5938,19.85148629336667,5.506584193762743
3751.4565,19.838744111349964,6.181962173559735
3752.3215,19.82066081585032,5.552764124233995
3753.1848,19.791040840501584,4.990789939069585
3754.0503,19.75121779243523,5.446893698052649
3754.9138,19.710199955576023,5.750274256188588
3755.7776,19.677314497720992,5.56500836319012
3756.6438,19.655307777227776,5.596354831749347
3757.508,19.639045698723894,5.562993421746776
3758.3745,19.62041760578976,5.776167923437606
3759.239,19.59535803871183,5.702327992850189
3760.106,19.565593045167564,5.995704895423937
3760.971,19.536010286346162,5.722219460435871
3761.8362,19.509613430686805,5.952225235680659
3762.7036,19.485703261157873,5.658214093490187
3763.5693,19.4612526391196,6.291070072636071
3764.437,19.433461671412786,5.6618843822487905
3765.3032,19.40255102155369,5.890338590471922
3766.1714,19.371387226785753,6.19506764528823
3767.0378,19.34358100583035,6.056137568698666
3767.9043,19.320193528880104,6.125489301289821
3768.7732,19.299220998748435,6.2323012680944805
3769.6401,19.277614812935127,6.125694458697086
3770.5095,19.253212648329566,5.573541384606253
3771.377,19.22596193255518,5.616724966738839
3772.2466,19.196975302794225,6.571558369135378
3773.1145,19.168650304454715,6.112980993763983
3773.9824,19.14386964615112,5.602862483349499
3774.8528,19.12518807738258,6.516588151298869
3775.721,19.1138904875136,6.147137343325005
3776.5918,19.109877674869637,6.066394023470101
3777.4604,19.11310912977034,6.561045983847383
3778.3315,19.1238664271866,5.252569737671087
3779.201,19.141307885710248,5.832718683151366
3780.0703,19.161738563026976,5.929097692249319
3780.942,19.178442181203916,5.639500569615913
3781.8118,19.18409208228011,6.212020329419742
3782.6838,19.174608352971767,5.961620344917922
3783.554,19.15056728673203,5.7610314040808
3784.4265,19.114817181423728,6.009570374753004
3785.297,19.069805240801752,6.3246804717563325
3786.168,19.016684966480543,5.890108914388345
3787.041,18.957668508625645,6.418260713700534
3787.912,18.897275465165475,6.0639215841402585
3788.7856,18.839051676544305,5.790278277217448
3789.6572,18.784476157283045,6.445995228036315
3790.531,18.732622829792323,6.462390455583706
3791.403,18.683494160428523,6.364171345368725
3792.2754,18.637534675709748,5.998384599990215
3793.15,18.59427561555184,6.4150266486911915
3794.0225,18.551521662757988,6.312879954329489
3794.8972,18.50593728272017,6.499040355119566
3795.7703,18.456689872274858,6.578330736333815
3796.6455,18.406730877788664,6.256966867948149
3797.519,18.36312089862713,6.3888985915878544
3798.3926,18.332739424949374,6.574381042113416
3799.2686,18.31811212073203,6.026731687906852
3800.1426,18.31502004923485,6.596320614805222
3801.0188,18.31428445469993,7.231473022906145
3801.8933,18.307602420372067,6.856916369500479
3802.77,18.29294132693822,6.3380808691021775
3803.6448,18.275718195270166,6.435396487994891
3804.522,18.264301368839472,6.597755039606174
3805.3972,18.26436846768889,6.519064150713639
3806.2727,18.27583133430205,6.597423634465442
3807.1504,18.294317408170862,6.621154005315406
3808.0261,18.313799632493325,6.797140094070231
3808.9043,18.328839585552736,6.1112551122090375
3809.7805,18.33529321531988,6.274559590457585
3810.659,18.33174908398265,6.872810747998112
3811.5356,18.320294275047445,6.041929620268763
3812.4126,18.305509159811503,6.98349668494234
3813.2917,18.291372249700398,6.8157649413984
3814.169,18.278530974966785,7.165347470678233
3815.0483,18.2639987189607,6.432048990434262
3815.926,18.244094659482105,6.83209580919733
3816.806,18.21702061850957,6.12225127641541
3817.684,18.184125885232152,6.3989924013933575
3818.5623,18.148295697993422,6.85503349794769
3819.4429,18.111852833301608,7.2422946095253895
3820.3215,18.075154019267856,7.09749005117979
3821.2024,18.035940710903677,6.7635166063864745
3822.0815,17.991920661021506,6.793795698397389
3822.963,17.94202534197518,7.289850238466973
3823.8423,17.8873459730597,7.304226020374607
3824.722,17.828890932811706,7.65392632356156
3825.604,17.766918846088863,7.223664081914056
3826.4841,17.701838344240056,6.89971717367237
3827.3665,17.63383189304971,6.6735066961941385
3828.2468,17.564177590746663,7.215856421951576
3829.1296,17.493805468546064,7.45155300882953
3830.0105,17.424655195554905,7.129252525371616
3830.8916,17.35827130905203,6.917884189226377
3831.7751,17.29594415150639,6.867889340752193
3832.6565,17.23893547056333,8.26805661245271
3833.5403,17.187328456562472,8.045721418131551
3834.4224,17.141240684741792,7.8943530225937915
3835.3064,17.100452336235417,7.848594957427788
3836.1887,17.066210810536926,7.69498448598861
3837.0713,17.040554141677294,8.511604593361767
3837.956,17.02526434906659,7.105066854529603
3838.839,17.021419245254958,7.657616450857325
3839.7244,17.03110189736958,8.42279213387468
3840.6077,17.058850271583204,8.37993583030808
3841.4932,17.10891180970456,8.005684634532397
3842.377,17.178578680100856,7.482477027094235
3843.261,17.25603968306648,7.820603599251031
3844.1472,17.32488729836896,7.325882797962954
3845.0315,17.372779823277405,7.8695774113371435
3845.9182,17.398597774320105,6.859417868380707
3846.803,17.41049163949023,7.374069098876765
3847.69,17.42042219344,7.423258578806517
3848.5752,17.437585859771943,6.958745192447359
3849.4604,17.46517469706816,7.080290208293822
3850.3481,17.500157855993344,7.558504852423155
3851.234,17.535303257177528,7.157873287740483
3852.122,17.563735555440267,7.847936281862502
3853.0083,17.58148550670561,6.844767847413932
3853.8967,17.587975198836332,6.664085385116269
3854.7832,17.58282643848813,8.035654784474772
3855.6702,17.563897072475672,6.889528946576247
3856.559,17.528828956392886,6.950195311125251
3857.4463,17.47971178862199,7.178753544836338
3858.336,17.424611033917746,7.343466813437296
3859.2234,17.375191638813146,7.094428387877466
3860.1135,17.339393137021048,7.561292625278805
3861.0015,17.31831689373909,7.243756285611832
3861.8896,17.30642427952917,7.55324634517069
3862.7803,17.296003807320666,7.328718367780241
3863.6687,17.280649264807792,7.631034511846474
3864.5598,17.256215652261787,7.542882005364565
3865.4487,17.221058725023553,7.303600300611663
3866.34,17.175741749940205,6.759438304884394
3867.2297,17.12434769757715,7.10732737886218
3868.1213,17.072772563301466,7.435355290933221
3869.0112,17.02611480832422,8.119440229303422
3869.9014,16.9845130971818,7.358997104051226
3870.7937,16.94372743423207,7.255634095476352
3871.684,16.899354517742356,7.849675163124476
3872.577,16.849727516728144,7.829501529077391
3873.4678,16.796408498677003,7.761734000080854
3874.361,16.739824874817884,8.484595663319677
3875.2524,16.6780216926433,7.830176652642433
3876.1438,16.607223223417463,8.544623088095188
3877.0376,16.525883987812165,8.664420299075537
3877.9297,16.437359618194463,8.193722870122377
3878.8237,16.34639074833242,8.08776972666053
3879.716,16.25623100361193,7.680846350918556
3880.6108,16.16469411676858,8.58073685380356
3881.5037,16.066937053947484,8.617946587745505
3882.3965,15.957261737716262,8.40215523301366
3883.2917,15.833004024125866,8.643106546303766
3884.185,15.697641947621788,9.434463056097519
3885.0808,15.557852478928817,8.749445071161547
3885.9746,15.422576955617783,9.563165110640437
3886.8706,15.296674744479226,9.712271750464753
3887.765,15.182813365755328,9.515693246246073
3888.6592,15.082435688339181,9.663767901976406
3889.556,14.999792287584969,9.144159552595676
3890.4507,14.942716528971124,10.738776624794376
3891.348,14.91851730599167,10.347985785161091
3892.243,14.931419733652149,9.367351859853535
3893.1406,14.979988874826134,9.885759171498666
3894.0361,15.057223990144509,9.905870390435577
3894.932,15.153904394107872,9.759222264880975
3895.83,15.2616601825228,9.1380070803591
3896.7263,15.373661102826787,9.621610327516466
3897.625,15.48600820960804,8.802465115843889
3898.5215,15.594617110063378,9.414917792461722
3899.4207,15.697871721223022,8.559875486964643
3900.3176,15.795502986346882,9.455509677299526
3901.2148,15.890493834566135,8.460593118144486
3902.1145,15.986004022536365,8.77472445139308
3903.0122,16.082061033269714,8.400121368097595
3903.912,16.176256897433927,7.94248726101384
3904.8103,16.26366327022522,8.228292804759125
3905.7107,16.341460733553674,7.999949506385532
3906.6094,16.4094747111026,8.65019084547083
3907.508,16.470714439820064,8.197593116698338
3908.409,16.52813793303161,8.800474669172116
3909.308,16.582149348964105,7.605351663708198
3910.2097,16.631847036851347,7.415716249624541
3911.1091,16.676216946532087,7.965429356058398
3912.011,16.716761950815776,7.935584277470603
3912.9111,16.756091248397652,7.638692578559083
3913.8113,16.796377833843522,8.571342458590342
3914.7136,16.836988428491527,7.392534625354332
3915.6143,16.87389908586172,8.672736393008046
3916.517,16.902111479673508,7.239877519727141
3917.4182,16.917711804898534,8.007200460507567
3918.3215,16.920128447743576,8.098293983778415
3919.223,16.91206079889604,7.451461047508201
3920.1245,16.898524797053632,7.53155882891454
3921.0286,16.885443106394625,7.252546845103766
3921.9307,16.87884569955006,7.938455091990404
3922.835,16.88390039286277,7.71753302076747
3923.7373,16.903539646781763,7.469645176466998
3924.642,16.936381077046338,7.992750942905818
3925.5452,16.97518610726648,7.324062666075754
3926.448,17.00954660732233,7.6323018704138255
3927.3535,17.031040807323812,7.292714184604958
3928.257,17.037458271194435,7.278725841735121
3929.1628,17.032654575567683,7.584812002409351
3930.0667,17.021454702906706,7.028150689293948
3930.9731,17.005110319310536,7.259803861554053
3931.8774,16.98152513674438,7.109407540363199
3932.782,16.94864098534593,7.858850922306278
3933.6887,16.907557056623958,8.359749973123437
3934.5938,16.862558587878638,8.215339415151808
3935.501,16.817791960175818,7.821875843359751
3936.4062,16.775530535183936,7.864048135820065
3937.3142,16.734522453373195,8.49503911404492
