wavl,flux,ivar
3566.9744,0.8109024271590184,1395.02973812244
3567.795,0.8091416648734479,1806.8295202808756
3568.6177,0.8058266845206519,1528.1960102008843
3569.4385,0.801724012112844,1339.098444111502
3570.2617,0.7974893888002921,1974.2846811696775
3571.083,0.7934252378656851,1308.7402785911333
3571.9065,0.7895747917193453,2386.050150300269
3572.7283,0.7861851206914506,1521.7882192180716
3573.55,0.7837462031473262,1805.139607370278
3574.374,0.7827285933643279,1527.8024814864211
3575.1963,0.7831824381176602,1882.119170331717
3576.0208,0.7846025104016542,1558.6230377886507
3576.8435,0.7861900281371428,1688.1002473659632
3577.6682,0.7873045498625818,2113.0806424740313
3578.4915,0.787723140989551,2013.6764622366782
3579.3145,0.7876597033530888,1472.233169458649
3580.14,0.7875774984234354,1940.4548558021447
3580.9636,0.787964603346453,1741.3793276529268
3581.7893,0.789091797067722,1739.8880774774502
3582.6133,0.7908052771701597,1480.9156910457502
3583.4395,0.7925533114604967,1204.7302168462904
3584.264,0.7936544924020827,1444.8123925837235
3585.0884,0.793713526089285,1862.0601326422882
3585.915,0.7927478105344306,1704.2536340530594
3586.74,0.7910357637834753,1890.6780503338173
3587.5671,0.7888814945182678,1785.4531137395
3588.3923,0.7866365358320082,1840.726791126376
3589.22,0.7847893654076242,1733.5171264497299
3590.0457,0.7839877416653597,2024.7436824587473
3590.8716,0.7847160354242144,1592.3488391260723
3591.6995,0.7869759553191116,2151.0073926310733
3592.526,0.7901567149941496,1854.4401088751629
3593.3542,0.7933137792204891,1593.7988000168557
3594.181,0.7955331295791438,1874.2667133584166
3595.0098,0.796306173676312,1720.5883852430386
3595.8367,0.7955847330491169,1449.3675530736482
3596.6638,0.7936116311956458,1647.190286217648
3597.4934,0.7905792304220939,1685.5840698621244
3598.3208,0.7865485347244974,1820.2761913983766
3599.1506,0.7816476751412537,1616.781379772513
3599.9788,0.7764964155867703,1771.7168990230753
3600.8088,0.7720318694223454,2099.368421021482
3601.6372,0.7690793653985534,2009.0041769332572
3602.4678,0.7678609295165615,2030.5988308502135
3603.2964,0.7680783024471991,1951.4108851899919
3604.1252,0.7691815098092882,1909.4526888757648
3604.9565,0.7706150548768113,2087.9371513414567
3605.786,0.7718809904431448,2080.733904074015
3606.6172,0.7725871887740422,1371.38182014529
3607.447,0.7724353626064733,1775.125678209725
3608.2788,0.7712807406653754,1637.4326754316348
3609.109,0.7692783537464017,1750.9525221052788
3609.9392,0.7669853922440582,1899.1614064266898
3610.7717,0.7652489754795805,1535.4700399861665
3611.6023,0.7648510057680551,2332.1911984235358
3612.435,0.7660862814716197,1814.4177491003127
3613.266,0.7685730237147819,1616.8460733864808
3614.0994,0.7713685871634419,2053.188943766782
3614.9307,0.7732952307904795,1778.3807574081475
3615.7625,0.7734824940404982,1820.0407314005352
3616.5962,0.7717306955415603,1597.5204720341558
3617.4282,0.7686309582092196,1831.1118141708666
3618.2625,0.7652457761743827,1613.4628494302706
3619.0947,0.7626569821528715,1656.0638696329465
3619.9292,0.7614581129721795,1766.9655935285741
3620.762,0.7615952931287143,1996.4616861739985
3621.595,0.7624462109859491,1818.9733063907097
3622.4302,0.7631953708410657,1799.5222693998853
3623.2634,0.7632467459392499,1736.2784974576714
3624.0989,0.7624448078665704,1989.075371786435
3624.9326,0.7609553720910569,1835.0600177167496
3625.7686,0.7590029140899597,1708.0388802708974
3626.6028,0.7568093506312343,1365.1092917681594
3627.437,0.7546595531470419,2060.111425549111
3628.2734,0.7529624039491267,1797.1435767326268
3629.1082,0.7521441090516787,1723.8707271409478
3629.945,0.7524377930925452,1666.7533193295178
3630.78,0.75376642368771,1675.1268662549887
3631.6174,0.7557000423791229,1816.4152199543391
3632.453,0.7574838883290936,1784.5399831129243
3633.2883,0.7582751600484995,2798.9273765797493
3634.1262,0.7574595583943186,1621.532991710877
3634.9622,0.7550138292042804,1549.680649661147
3635.8005,0.7516210820295175,1797.1086659071766
3636.637,0.748457982051796,1229.2684689573416
3637.4756,0.7465364783807631,1640.6192822659816
3638.3123,0.7462031080583378,1798.6709614339743
3639.1492,0.7470380819082549,2283.8506494295207
3639.9885,0.7483340811131534,1726.6380363119633
3640.826,0.7496142154386192,1831.395680275605
3641.6653,0.7508426313070741,1405.166570335975
3642.5032,0.7521815370248073,1671.5942955156177
3643.343,0.75367951626711,1578.1108060537433
3644.1812,0.7551026785394053,1719.9536261241979
3645.0195,0.7560611657308364,1572.5848552941786
3645.86,0.7562058731898068,1718.2095213538196
3646.699,0.7553920434147209,1916.166924006427
3647.5398,0.7537183981360163,1769.610250127131
3648.379,0.7514725288129225,2098.6995284722225
3649.2202,0.7490028386974568,1976.884446846976
3650.0596,0.7467200701547455,1700.339341286635
3650.8994,0.7450818133787444,2050.020095211702
3651.7412,0.7445508989710561,1913.521837052617
3652.5813,0.7453129283924033,1514.4415735775651
3653.4236,0.7469927436248401,2212.1261479420405
3654.2642,0.7486951517098851,1589.5054166728773
3655.1067,0.7494495410236652,1381.7353851192752
3655.9475,0.7486452695536716,1811.5929236710415
3656.7886,0.7462466001573796,1558.554841833907
3657.6318,0.7427215526180331,1374.3445909355341
3658.4734,0.7388621721355123,1343.6452422957107
3659.317,0.7353940280223545,1693.5238139029827
3660.1587,0.7327314586761624,1807.3524445500075
3661.003,0.7308488159677994,1909.2003826379573
3661.845,0.7295007140760841,1698.4974486387136
3662.6875,0.7283970924880107,2049.5382304172936
3663.532,0.7273657909259758,2514.198180612191
3664.3748,0.7264628006633258,1710.5217839368963
3665.2197,0.7260087935622151,2035.6529254543955
3666.063,0.7264625620094893,1842.0648822167914
3666.9084,0.7281111541805486,1730.0537988755132
3667.752,0.7308203609547452,1617.241431877578
3668.5977,0.734062501330759,1923.06507686817
3669.4417,0.7370396497795942,1913.0599097890304
3670.286,0.738991247244943,1788.2649429102544
3671.132,0.7395113916731643,1963.3478233177732
3671.9768,0.7388801176916956,1732.657001985343
3672.8235,0.73802959620678,2251.6217488465786
3673.6685,0.7379493210914086,2202.5465695437706
3674.5156,0.7389070661615414,1997.1718976671525
3675.3608,0.7402112356140512,1867.0070900751227
3676.2063,0.7408098706478212,1858.2292869693242
3677.0542,0.7401722520536449,1909.4811855208563
3677.9,0.7387268613234077,1777.4696355818162
3678.748,0.7374854624923749,2055.606155829141
3679.5945,0.7372581507106187,2195.9222309681877
3680.4429,0.737999750353776,2226.7001747895724
3681.2896,0.7387818794679676,1512.5552891999819
3682.1365,0.7384052325210938,1920.88429976823
3682.9856,0.7362846666016453,1777.864361374579
3683.8328,0.7330892900889016,1565.008907205669
3684.6824,0.7304992660124586,2069.144032850898
3685.53,0.7301798754081855,1774.5463172341852
3686.38,0.7324900980191046,2492.8118003653412
3687.2278,0.7360768975284508,1607.6098552013095
3688.0762,0.7387719176942923,1753.168110664191
3688.9265,0.7390407782733353,1839.0778466848717
3689.7751,0.7368925075672411,1806.8695663578103
3690.626,0.7335909810139984,2151.3565502645038
3691.475,0.7306628403592654,1702.8307553549216
3692.3264,0.7289835252892827,1539.1529373234814
3693.1758,0.7285852109867189,1772.9509013080813
3694.0254,0.7288955585425742,2192.2063072620417
3694.8772,0.7291787457572549,1976.850408846127
3695.7273,0.7288757242508273,2180.1677142878852
3696.5793,0.7278158962399172,1965.2929593139236
3697.43,0.7262527846408375,2713.2468778988014
3698.2825,0.7246791452556138,1879.349660174136
3699.1333,0.7235691895023824,1850.4276242788794
3699.9841,0.7231549107494376,2360.7694086067845
3700.8374,0.7234189680350649,1881.0338548949985
3701.6887,0.7241757184541956,2165.0910189964698
3702.5425,0.7251620223618057,1962.5797152865935
3703.3943,0.726063062365319,1948.6854418581056
3704.2483,0.7265631700662136,2137.9046112300766
3705.1003,0.7264123770884399,2095.108317590217
3705.9526,0.7255298152446364,2148.5057827632686
3706.8074,0.7239802411743294,2076.2180265736947
3707.66,0.7218522872160763,1770.5321731301165
3708.515,0.7191255806631565,2062.313841990101
3709.3682,0.7158274036945274,2294.8338704318176
3710.2234,0.7122215274027459,1904.7093443102249
3711.0771,0.7089629732010709,1933.7034000961253
3711.9307,0.7068423896276319,2168.3438972631
3712.7866,0.7064023571867539,2351.4965443133433
3713.6409,0.7076431217021665,2203.2070406924154
3714.4973,0.7100978259136578,1863.4753274262123
3715.3518,0.713134015959263,1829.9169003185725
3716.2085,0.716181812117371,2071.0915970177934
3717.0635,0.7186446749731926,1892.8184065738394
3717.9185,0.7199900882865826,1736.0618490515415
3718.776,0.7200161431586646,1650.578411358209
3719.6313,0.719113566768855,1991.0991921403293
3720.489,0.7180950728574099,2073.0714026770547
3721.345,0.7176634502166531,2037.2123445804802
3722.2031,0.7179244781862054,1762.2204064014081
3723.0593,0.7183463605829898,1927.1585314871813
3723.9158,0.7181398627403929,1744.9000547546507
3724.7747,0.7167576262703319,1861.8252547684551
3725.6316,0.714219244742185,2244.5637625519003
3726.4905,0.7110344433137128,2284.5130568325753
3727.348,0.7079158001864867,2186.7022276659372
3728.2073,0.7053882827247722,1979.8300088195115
3729.065,0.7037106717228477,1831.67213247153
3729.9229,0.7029483436292824,1647.0397868331208
3730.783,0.7031170081680933,2333.5825839483596
3731.6414,0.7041097374131647,2097.077510914485
3732.5017,0.7055559512598684,1823.4932788897622
3733.3604,0.7068224744652762,2138.5454105759095
3734.2214,0.7072871376400991,1666.720431515816
3735.0803,0.7066366836264495,2055.458505707532
3735.9417,0.7049902488037391,2120.936936918644
3736.8013,0.7027327643228918,1983.054780795202
3737.661,0.7001652668599577,2470.0942066892526
3738.5227,0.6973137796187295,1828.0370530519892
3739.3828,0.6940708161662306,1931.5147002876972
3740.245,0.6904678025255923,2220.9960574385595
3741.1055,0.6869349920334359,2257.379449015247
3741.9683,0.6840806278081487,2694.072148791546
3742.829,0.6823636427813395,1861.6766271538966
3743.69,0.6818047078189626,2380.6467292995894
3744.5532,0.6821792869366409,2081.19221512795
3745.4148,0.6833535331263924,2024.1338717557048
3746.2786,0.6854055612628593,2002.6447908093933
3747.1404,0.6883159992785586,2525.224880052606
3748.0044,0.6916196021155384,1881.1098791511129
3748.8667,0.6943225964822723,1974.378027594468
3749.729,0.6954313144309836,1759.668150638622
3750.5938,0.6945775602256988,1838.9467030428368
3751.4565,0.6923329767648397,1851.2435273072879
3752.3215,0.6898378344656024,2030.048273903276
3753.1848,0.68808182092313,2304.021385609668
3754.0503,0.6873162950063483,1817.7545663790781
3754.9138,0.6871557343535332,2174.217773638533
3755.7776,0.6871449942846203,2054.41208931615
3756.6438,0.6872880773053504,1745.1762540224597
3757.508,0.6879993310731657,1923.5584584091864
3758.3745,0.6895585938709708,2154.6571641428363
3759.239,0.6916122782390567,1905.4851797123508
3760.106,0.693304964019281,1871.679629277187
3760.971,0.6938739422057371,1764.3063235869156
3761.8362,0.6932370326728647,1868.777645968763
3762.7036,0.6919522417701148,2411.4921103351303
3763.5693,0.6907334846008505,1999.3630099224501
3764.437,0.6899752707650607,1801.33232931312
3765.3032,0.6897332542438596,2645.9205978110385
3766.1714,0.6899497953188823,2247.1864731074506
3767.0378,0.6905792669424929,2632.637099903256
3767.9043,0.6914639375335623,1948.6779091114663
3768.7732,0.6922049337993821,1949.0581241192592
3769.6401,0.692289666137479,2081.082679966452
3770.5095,0.6914653404892678,2005.1853626764712
3771.377,0.6900026488714663,2152.3891871737405
3772.2466,0.6885473833553274,2606.188112767474
3773.1145,0.687662098433817,2161.1699481066826
3773.9824,0.6873792142292441,1862.4473287555008
3774.8528,0.6872113510183053,1989.6233295774448
3775.721,0.6865373256271057,2146.211553215687
3776.5918,0.6850328889827572,2123.3145895058324
3777.4604,0.6828977093911898,1948.048867907636
3778.3315,0.6807459634967344,2032.9176093751526
3779.201,0.6793234140970202,1920.6517178249892
3780.0703,0.6790509341438922,2094.947166475173
3780.942,0.6798189273642081,1970.7943881424387
3781.8118,0.6811359420278246,2194.2237899072225
3782.6838,0.6825131802117775,1670.8685494903873
3783.554,0.6836528285866487,1955.0067380386904
3784.4265,0.684412106689582,2208.0034642572105
3785.297,0.684662366685801,1945.1988044654852
3786.168,0.6842869932934662,2648.397141832089
3787.041,0.6832347421346978,1910.2699735003719
3787.912,0.6816239270709017,1481.166126614438
3788.7856,0.6797816841802529,2722.6216247152706
3789.6572,0.6781887300484125,2184.4159582425646
3790.531,0.6771716680827374,2476.86561166807
3791.403,0.6766540888354163,2406.285173519838
3792.2754,0.6761489211754802,2208.9624813981122
3793.15,0.6750943529059041,2293.4705046527292
3794.0225,0.6732387362327096,2675.310929595958
3794.8972,0.670792021075271,2534.468617438069
3795.7703,0.6684079862955092,2284.752625306103
3796.6455,0.6669432779749049,2110.2335295160447
3797.519,0.6671401708185698,2206.6743320565347
3798.3926,0.6691963065533003,2223.160161453933
3799.2686,0.6726182739830301,2186.0281421560444
3800.1426,0.6764216948708522,2001.1311842215455
3801.0188,0.6796814142682768,2267.892927595094
3801.8933,0.6818458587816772,2322.147276061467
3802.77,0.6828726453825937,2021.4794134844983
3803.6448,0.6830524312866781,2006.2057905562267
3804.522,0.6828094621392528,1957.4809584389056
3805.3972,0.6824768420113368,2150.1419836459345
3806.2727,0.6821594848198148,2245.7219062793924
3807.1504,0.6817581889906869,1826.9974167574287
3808.0261,0.6811441037130836,2534.5970078728465
3808.9043,0.680339462796632,2409.6967719868317
3809.7805,0.679600848954358,2144.6703664755987
3810.659,0.679334691039589,2054.9032285412513
3811.5356,0.6799447320911316,1712.509810067141
3812.4126,0.6816133442109893,2084.874575914258
3813.2917,0.6841095490112827,2206.85167330799
3814.169,0.6867190271728573,2606.777203391472
3815.0483,0.6885554230750294,1968.1680384558147
3815.926,0.6890157963188758,2298.7425751460996
3816.806,0.6881396433492045,2162.582984578128
3817.684,0.6864569558245732,2220.3152698062568
3818.5623,0.684518022047774,2046.4137926423816
3819.4429,0.6825668104561069,2566.873129711112
3820.3215,0.6805915331088167,1941.4287490780403
3821.2024,0.6784903170556256,2544.833236964385
3822.0815,0.67622296060696,2111.2901393574575
3822.963,0.6737639558583942,2104.715383051574
3823.8423,0.6711188859673974,2654.9420999099384
3824.722,0.6682904347262121,2376.299185621543
3825.604,0.6652818823038384,2343.6954753106393
3826.4841,0.6620641417981196,2701.726108771106
3827.3665,0.6584968590420107,2274.5815126715434
3828.2468,0.6544880852547897,1855.513595662445
3829.1296,0.6500794528085975,2389.788960378667
3830.0105,0.6455567859762188,2240.6981628083786
3830.8916,0.6412371806379191,2234.781937744115
3831.7751,0.6373505627973143,2179.4340933987946
3832.6565,0.6340349936421352,2378.6794036321694
3833.5403,0.6313115230634737,2335.106085328682
3834.4224,0.6291646001481028,2399.0447027132645
3835.3064,0.6274922480360303,2317.792007041951
3836.1887,0.6262495417011222,2447.697245310377
3837.0713,0.6256046625638275,2768.176667082009
3837.956,0.6259887331094963,2704.475431273037
3838.839,0.6278134863971454,2753.1226376223312
3839.7244,0.6311160129075054,3006.9959500784075
3840.6077,0.6354500893669476,2078.690559228373
3841.4932,0.6402552457423158,2436.592983806873
3842.377,0.6451746220877432,2334.3495240107177
3843.261,0.6502639601874222,2504.1002273597583
3844.1472,0.6557762745312307,2351.119645014735
3845.0315,0.661770268842112,2320.481943257926
3845.9182,0.6679437530957014,1860.345517980223
3846.803,0.6735818740032715,1806.223294326291
3847.69,0.6780688187928876,2380.3366013432405
3848.5752,0.6812222396229527,2283.998826709799
3849.4604,0.6834686456141423,2206.7842869143533
3850.3481,0.6854885580749743,2199.9534863397957
3851.234,0.6877574952712276,1916.8573420857635
3852.122,0.6903782642784276,2463.3016969772807
3853.0083,0.6931712493270199,2106.8863174392104
3853.8967,0.6959513318921432,1935.775137900658
3854.7832,0.698520796808571,2131.44668635274
3855.6702,0.7006123449583607,2198.4014656728536
3856.559,0.7018771685800296,1760.5298871645248
3857.4463,0.7021205753602939,2032.0875656240632
3858.336,0.701526507023635,1941.9414059823248
3859.2234,0.7005695148979444,1956.2331795415464
3860.1135,0.6996811484439517,1884.4047970613037
3861.0015,0.6990095365382434,2193.087776439308
3861.8896,0.6984108439616031,2555.367873798323
3862.7803,0.6976410372163068,2134.7156612038802
3863.6687,0.6965300209500462,2033.8254294144729
3864.5598,0.6950394903809775,1761.725353421855
3865.4487,0.693296016966468,1595.0898900789127
3866.34,0.6915154690060773,2970.2996792582185
3867.2297,0.6899258368020893,1965.6755540622275
3868.1213,0.6886090511469735,2134.7603208974047
3869.0112,0.6874787098673585,2248.0594191310947
3869.9014,0.6863154110341881,2045.4966729272505
3870.7937,0.684866421536809,2387.089658911541
3871.684,0.6829159474017978,2014.2701761393055
3872.577,0.6802704601773315,2216.9444978477177
3873.4678,0.6767891594781625,2004.7253030899483
3874.361,0.672326861494199,2322.4029995409664
3875.2524,0.6668175798855872,2336.6426225220844
3876.1438,0.6602324098390672,2228.580247154936
3877.0376,0.6526421098939257,2045.6921697555417
3877.9297,0.6443488426006925,2064.716030306339
3878.8237,0.6357816515892788,3173.315855203334
3879.716,0.6275274330336974,2800.6896580030207
3880.6108,0.6199662196415536,2433.743911921619
3881.5037,0.6131882021772367,2554.6473681255857
3882.3965,0.6068048070662527,2259.3547194543576
3883.2917,0.6002204381626393,2634.495920208723
3884.185,0.5930843461762729,2947.3010557671796
3885.0808,0.5854623997229889,3128.1201891315677
3885.9746,0.5779124623177442,2712.9624040670146
3886.8706,0.5710328245358999,3429.567114414629
3887.765,0.565385166192658,2606.67657673197
3888.6592,0.5614353050341084,2705.458700619248
3889.556,0.5597296171820283,3520.250555606301
3890.4507,0.5608155589971511,3124.1480168060334
3891.348,0.5649361621555371,3285.943250249282
3892.243,0.5717286851532241,2906.3289461195313
3893.1406,0.5802748976663623,3093.180027153536
3894.0361,0.5892298777539486,3390.755678850284
3894.932,0.5974472627081563,3189.459447590541
3895.83,0.6043856927652578,2650.4449357848684
3896.7263,0.6102791062208424,2746.489366219901
3897.625,0.6160008126880255,2415.401498724979
3898.5215,0.6223462281184258,3170.2067798461817
3899.4207,0.6296538640189028,1907.3554082381859
3900.3176,0.6375890485147221,3365.5574137690164
3901.2148,0.6455975841086783,2131.42977040206
3902.1145,0.6532467514475211,2776.136276369533
3903.0122,0.6603869355033725,2675.375162721855
3903.912,0.667240906715673,2350.5473175793413
3904.8103,0.6740426512701918,1968.1331008467637
3905.7107,0.6808990185061501,2272.3397808909763
3906.6094,0.6875851037769755,2320.4623117384244
3907.508,0.6938516678279187,2051.063173809219
3908.409,0.699713798121557,2424.2244039824727
3909.308,0.7055269169664756,2544.0932215908947
3910.2097,0.711810513741852,2190.908233250098
3911.1091,0.7186816693678738,2604.4691786082485
3912.011,0.7257546450322638,1601.32475033421
3912.9111,0.7322412054563687,2491.555021681552
3913.8113,0.7375987880463077,1774.8383155524941
3914.7136,0.7418692951225218,1778.3294060778871
3915.6143,0.7455649904808994,1798.7720527686436
3916.517,0.7492467199116967,1731.2707188806044
3917.4182,0.7530013790846448,1855.9391466913712
3918.3215,0.7564682388010235,1603.2243082484224
3919.223,0.7591482310711076,1807.2699129356213
3920.1245,0.7608666311367982,1690.6871118760484
3921.0286,0.7617962628385982,2116.1071217449094
3921.9307,0.7621698616369551,1832.0791584285362
3922.835,0.7620333620465511,1989.1748552942797
3923.7373,0.7613110860555751,1846.9945719529107
3924.642,0.7600705764966105,1791.8192727005235
3925.5452,0.7586291314144398,1665.4178942020503
3926.448,0.7573258998001802,1842.244370306598
3927.3535,0.7562528504135644,1754.3098444189498
3928.257,0.7552380213328392,1694.0901361207025
3929.1628,0.7540810130393777,1794.713814359397
3930.0667,0.7528397764217658,1729.1550554267192
3930.9731,0.7518004875268132,1677.289083546933
