wavl,flux,ivar
3566.9744,1.5808796906053115,236.26708892210462
3567.795,1.5768207449881897,217.56779332541515
3568.6177,1.5723459287760286,214.25882049281947
3569.4385,1.56849228175953,299.3043408351102
3570.2617,1.5660205307485922,267.39650641859316
3571.083,1.5652461841269703,234.57071557226442
3571.9065,1.56596693305046,247.2571571296926
3572.7283,1.567675490103132,281.4637237702207
3573.55,1.5698234684062637,250.2538272096893
3574.374,1.571985511476725,281.32809033857
3575.1963,1.5738349897154074,224.25355332166427
3576.0208,1.5750675320220242,229.58851767496864
3576.8435,1.5752867864983853,225.72056519876338
3577.6682,1.5741320078549943,227.8136809629687
3578.4915,1.5715914042247938,282.7756442505328
3579.3145,1.5682454506032149,229.77780310435725
3580.14,1.5651119662047956,213.74719672626847
3580.9636,1.5631634615475343,239.28182478274826
3581.7893,1.5627976768901621,245.66623471326682
3582.6133,1.5637814004504123,221.04396124332752
3583.4395,1.5655027650402973,221.7168859528799
3584.264,1.5673048045018614,214.05218576977336
3585.0884,1.5687155462710471,234.64486175895678
3585.915,1.5694101726874834,284.1871001242793
3586.74,1.5690540524952823,226.5571640948581
3587.5671,1.567278341927501,204.8250164072368
3588.3923,1.5639060603260595,241.9988181459
3589.22,1.559150642517918,249.32760825092384
3590.0457,1.5536796336608976,233.02685069317224
3590.8716,1.5483348054759052,196.23788809437252
3591.6995,1.5439747432288635,264.05868833209047
3592.526,1.5412714341681615,223.46410011225262
3593.3542,1.5402892274421436,267.40430563621425
3594.181,1.5402482503072263,235.14643743805206
3595.0098,1.5397270035539004,254.11971826410854
3595.8367,1.5374444586673706,225.64406988446086
3596.6638,1.5330133720735708,294.1425561363084
3597.4934,1.527080568305277,272.8224883732056
3598.3208,1.5208709206350783,239.14097334864033
3599.1506,1.5153115657834406,256.91471644173777
3599.9788,1.5107522849353106,312.3482511346071
3600.8088,1.5070804183494668,311.4298405148104
3601.6372,1.5043973665894292,237.65098694311098
3602.4678,1.5032582671603625,287.9149713012752
3603.2964,1.5042985845006718,307.87572868899827
3604.1252,1.5074504444266366,224.5389721200184
3604.9565,1.5117536149713264,251.10342307190018
3605.786,1.5159394746051729,225.67966488788764
3606.6172,1.5193050858391122,280.20306948555304
3607.447,1.5217273655085855,258.33755030359265
3608.2788,1.5231601110464412,219.292942583262
3609.109,1.5232060922659985,217.8768792901203
3609.9392,1.5214077348582642,284.9808780313391
3610.7717,1.5177991754568967,306.6508607106817
3611.6023,1.513219109479872,263.19209679078625
3612.435,1.5089419485020066,319.6033461888158
3613.266,1.5060804727576815,286.44301953405693
3614.0994,1.5048796415788395,252.27871604656696
3614.9307,1.5045742539741327,280.449437447616
3615.7625,1.5038199496392983,250.8566408661976
3616.5962,1.5015865863048148,253.40744970997713
3617.4282,1.4978341445563998,248.4688948765888
3618.2625,1.4933348587799171,280.54272402130135
3619.0947,1.4889739429809161,289.5520805594369
3619.9292,1.4850758336336345,254.18550437957984
3620.762,1.481585833418197,278.79512901059474
3621.595,1.4784879391851469,282.6501995393354
3622.4302,1.4760554552813783,311.590714785896
3623.2634,1.4746309435858924,253.7364883628542
3624.0989,1.4742723458566818,264.39544600790174
3624.9326,1.4747237235972732,271.46341350871137
3625.7686,1.4755965152534458,281.8284177167877
3626.6028,1.4766000463789737,264.83607405961345
3627.437,1.4776400930253415,277.20926901086705
3628.2734,1.4786561133906737,279.4442455462377
3629.1082,1.4793240290006067,348.22794307623656
3629.945,1.4789925871398464,275.41725880515577
3630.78,1.4770225834372672,283.9142763349024
3631.6174,1.4732552855421013,288.4590471468369
3632.453,1.4681694888194459,308.87006726024885
3633.2883,1.4624725703782036,244.00433313741524
3634.1262,1.4567418990597418,272.0024904572824
3634.9622,1.451458287795294,277.6009429426026
3635.8005,1.4470352090720553,269.7455165746885
3636.637,1.443778762714363,239.73603576454522
3637.4756,1.441410571559105,288.86342737719036
3638.3123,1.4390761189365202,267.9541729134054
3639.1492,1.4358918843728068,272.0789354125477
3639.9885,1.4317388418609134,286.7838388031812
3640.826,1.4275015694631064,301.9668533345201
3641.6653,1.4244027853870471,306.40336078129565
3642.5032,1.42322452933369,321.30872058539603
3643.343,1.4238124814942605,282.0107130578906
3644.1812,1.4252419438949337,303.9134988156294
3645.0195,1.4263203965401876,322.7875205273918
3645.86,1.4260688254931273,310.4981312111166
3646.699,1.423960788141004,309.5836052771876
3647.5398,1.4198806011405198,261.24054924428157
3648.379,1.4140667706347982,305.64527448473007
3649.2202,1.4070534546973055,260.4579920192573
3650.0596,1.3998131582159117,309.4688950540704
3650.8994,1.3934760014030358,333.8094974020611
3651.7412,1.3889924558735753,327.9216191065091
3652.5813,1.3867580985790418,303.20871479677083
3653.4236,1.3865063208152368,291.62536189916614
3654.2642,1.3876512439706832,339.2908753538737
3655.1067,1.389645059856991,254.05744058582397
3655.9475,1.392094262154277,321.1527877462323
3656.7886,1.3946441611842952,288.8937081350105
3657.6318,1.396805703117601,286.2467878818551
3658.4734,1.398019871698531,331.35020029692987
3659.317,1.397998977607857,270.0531832974861
3660.1587,1.3969685019154634,280.7785377331998
3661.003,1.3955812288753324,317.53829545752706
3661.845,1.3944817540300798,343.2180525177696
3662.6875,1.3938338807485557,282.4666191761458
3663.532,1.3933205037341232,257.0499689865369
3664.3748,1.392567847387299,274.7872516551573
3665.2197,1.391554769732714,311.5857019126501
3666.063,1.3906549695698929,299.6991260732121
3666.9084,1.39031337734246,305.22871211415315
3667.752,1.3906865792787708,311.21725509497
3668.5977,1.391415227600959,301.7073805502796
3669.4417,1.3917106764473903,295.2705859162315
3670.286,1.3908144996602414,333.75977708822364
3671.132,1.3885230991069684,328.7248990702986
3671.9768,1.3854016514756524,326.836131961036
3672.8235,1.3824528224779573,289.16745177626893
3673.6685,1.3806504050657544,312.14335046317603
3674.5156,1.3804989650598427,332.1952285306132
3675.3608,1.3818748800897491,260.4891666575798
3676.2063,1.384058874020547,328.2098454066938
3677.0542,1.3860498563928092,310.32746604583286
3677.9,1.3870178163417848,297.9568782869717
3678.748,1.3866687348279731,297.5679909647899
3679.5945,1.385155692503295,337.0241023611315
3680.4429,1.382746905359478,278.7059773638775
3681.2896,1.3796595790998905,286.207754416025
3682.1365,1.3761216459240917,327.62526800607264
3682.9856,1.3724937504528252,340.65663831836196
3683.8328,1.3691720308793554,320.35151074177276
3684.6824,1.3662743284877599,307.80532880943116
3685.53,1.3636350698352717,382.6167957143161
3686.38,1.360972637509474,244.252462959028
3687.2278,1.3582903586216917,316.7776508274476
3688.0762,1.3559979756097584,306.8615546725471
3688.9265,1.3547829618947576,332.08177277918344
3689.7751,1.3552155189851915,335.65320421474246
3690.626,1.3573406073105136,351.6021648566507
3691.475,1.3604976207120691,324.27384996733235
3692.3264,1.3635849574970749,301.80837653625184
3693.1758,1.3656244132977833,263.7368723881868
3694.0254,1.3664228538589898,333.1898761687726
3694.8772,1.3666185038963112,315.657667207558
3695.7273,1.3671187881076767,329.0521369489232
3696.5793,1.3683902417768303,323.9189176973782
3697.43,1.3702018873751387,320.51023992857824
3698.2825,1.371941986501354,309.5286746348106
3699.1333,1.3730146824328902,319.46338625874665
3699.9841,1.3730550025337607,332.5515572580872
3700.8374,1.371875151220873,284.58199898024884
3701.6887,1.3694278850474482,319.9634983257603
3702.5425,1.3657935034163975,310.8965019385858
3703.3943,1.361245930918732,304.35290929307536
3704.2483,1.356116284507705,327.5761826475041
3705.1003,1.3507660231243286,370.861250673376
3705.9526,1.3454602729569483,322.45732684576654
3706.8074,1.3404789469675336,326.659755209046
3707.66,1.3362516793917256,335.6917426218581
3708.515,1.333237388249715,373.6725860735289
3709.3682,1.3317773113273288,374.1085928093618
3710.2234,1.3317111376913318,322.7645300691241
3711.0771,1.3322412859557737,313.5424430976607
3711.9307,1.3321463058932546,290.4483134805732
3712.7866,1.3304032902846419,317.1530157027715
3713.6409,1.3269230195650334,314.2344268342972
3714.4973,1.3227740465895115,332.26260945820025
3715.3518,1.3196659501930637,410.6362238184279
3716.2085,1.3187888467337343,303.37795489153723
3717.0635,1.320082585093416,342.86708377412674
3717.9185,1.3223800730390556,334.8272604616349
3718.776,1.3243423154283829,367.4274313795896
3719.6313,1.3252871615964004,317.4323745252738
3720.489,1.3253767625779074,301.52032325416485
3721.345,1.3250820288424643,344.1702484527507
3722.2031,1.3245623616288424,325.8829598199179
3723.0593,1.3234714429607588,366.5267745968543
3723.9158,1.3212786183402507,310.82282908378187
3724.7747,1.3177650882842211,357.0724052354658
3725.6316,1.3133136869661404,309.36392591609865
3726.4905,1.3087114206748653,303.81514959529596
3727.348,1.3048917866101482,385.8633858332394
3728.2073,1.302560931189058,357.3216134350178
3729.065,1.3020177501036978,290.27039323092316
3729.9229,1.3029494152251795,295.55510133081896
3730.783,1.3044727068129287,342.17974337163116
3731.6414,1.3054267670176725,341.9837146324327
3732.5017,1.304904834863849,358.01517577057143
3733.3604,1.3026278217256115,346.0319472039964
3734.2214,1.2989497847865688,363.944532609359
3735.0803,1.2946236680764407,361.6978736046754
3735.9417,1.290378195183141,313.89313208478666
3736.8013,1.2867654236574047,406.67544940884596
3737.661,1.2840544004912386,377.13905546698135
3738.5227,1.282395795049009,357.66508695959203
3739.3828,1.2819416052186787,351.8751993368453
3740.245,1.2827271771356425,393.81407008029913
3741.1055,1.284419397456002,354.98816956385394
3741.9683,1.2862440933677404,332.29925519995544
3742.829,1.287292607812837,335.1773002122028
3743.69,1.287098272229666,345.47865378796155
3744.5532,1.2858901435004597,406.99173142879636
3745.4148,1.2844026665885862,385.6031423431872
3746.2786,1.2833840391124889,372.24320017046796
3747.1404,1.2832601135720736,360.2976072355743
3748.0044,1.284049402149993,343.8936364175534
3748.8667,1.285504335298868,355.0941704472311
3749.729,1.2873179478608392,382.4737625619674
3750.5938,1.289259016250519,344.31981988586455
3751.4565,1.291142215170975,364.2854299099342
3752.3215,1.2927430310941745,336.86961207015594
3753.1848,1.2937168758663342,337.1975749259785
3754.0503,1.2938097176692647,361.05281365822015
3754.9138,1.293126836659509,336.22606788215626
3755.7776,1.2921488748248757,389.58480723229184
3756.6438,1.2913286078210962,348.2833759480573
3757.508,1.2906857727995322,341.7149933719438
3758.3745,1.2898699077395486,305.904993677017
3759.239,1.288669297707383,378.22205022142884
3760.106,1.2872701879280595,362.84375278500704
3760.971,1.2859803633251252,354.87569992276525
3761.8362,1.2847231018815632,356.9806448782724
3762.7036,1.2830126384404896,369.478357085866
3763.5693,1.2804632253271455,366.4556588023558
3764.437,1.2772449500358771,370.39966957920694
3765.3032,1.2740553651874469,378.50739295316214
3766.1714,1.2714885985402031,334.8358781486488
3767.0378,1.2695193472801525,391.19331347435264
3767.9043,1.2674274284845048,430.9062499986958
3768.7732,1.2643303062986229,359.738096712807
3769.6401,1.259909014193096,413.29322933592664
3770.5095,1.2547563693323833,340.1777479286169
3771.377,1.250314106915057,352.1156393588091
3772.2466,1.2481113680602876,358.34793941655425
3773.1145,1.248946035417923,370.25154103356994
3773.9824,1.252247520653186,424.5466709539354
3774.8528,1.2562648826089167,321.26912310877475
3775.721,1.2588802498903229,345.188641840771
3776.5918,1.2587253683998427,347.5200899573302
3777.4604,1.2557435538584016,373.5601007440729
3778.3315,1.2510528352577328,406.9468145280364
3779.201,1.2463178136873772,410.890611137269
3780.0703,1.2429471503869414,455.68468819524094
3780.942,1.2417375071033618,415.72642967945586
3781.8118,1.2428445660005236,396.16533117465167
3782.6838,1.2458601293748917,412.5837695453283
3783.554,1.24987155389947,369.10365727988795
3784.4265,1.25371452114514,392.55250823783615
3785.297,1.2563370559632676,377.80870903576414
3786.168,1.2573121339567692,312.6875940182264
3787.041,1.2569289197470443,339.9554188592571
3787.912,1.2559688242173175,357.7021008681254
3788.7856,1.255273486245202,329.1765015626989
3789.6572,1.255355419592138,371.242415768228
3790.531,1.25612323305325,411.3884180847119
3791.403,1.256880287560686,354.71597816953033
3792.2754,1.2566816880419152,363.1189958751435
3793.15,1.2548488853998565,334.8855527963248
3794.0225,1.2513302046188817,355.19058930322103
3794.8972,1.2466055511697867,391.70856885977383
3795.7703,1.2414267065326294,351.00940606685197
3796.6455,1.2364162968617534,377.5481456258334
3797.519,1.231986313575859,374.3675215697773
3798.3926,1.2282813049495334,353.1798748655137
3799.2686,1.2253403850380455,367.8946650610068
3800.1426,1.2231635735968653,441.71427013983583
3801.0188,1.2215426607511408,402.85655411928076
3801.8933,1.2200097982416231,414.21901293936287
3802.77,1.2180052642988242,377.7903167120064
3803.6448,1.215346264022218,429.9950201839795
3804.522,1.2124280829795042,438.9719606870423
3805.3972,1.2100473914782999,435.30940413191587
3806.2727,1.2088981153476883,363.0491379846379
3807.1504,1.2093494054846092,371.59393793827417
3808.0261,1.2114440467048324,429.28889490855806
3808.9043,1.2149658568757027,358.3408490031687
3809.7805,1.2194062041457079,406.15115200677684
3810.659,1.2241395020170798,352.78247860884096
3811.5356,1.228577605489526,377.53358067875183
3812.4126,1.232371494577043,422.6140986701203
3813.2917,1.2352896942730043,347.8906208793565
3814.169,1.2370684922333186,439.92561818597784
3815.0483,1.237452870044244,428.903367824225
3815.926,1.2362920405734035,330.1594573145801
3816.806,1.2336579353322228,404.9704952730058
3817.684,1.2298604970685783,387.60331443850134
3818.5623,1.2253065294152747,354.7223643583941
3819.4429,1.220372381693631,360.5552414832487
3820.3215,1.2153810668262208,401.12761245975287
3821.2024,1.2105284093753168,417.26412120924795
3822.0815,1.2060385161015532,391.67071270544216
3822.963,1.2021361655618896,399.47631334881123
3823.8423,1.1991065943902046,413.1169479301798
3824.722,1.1970902204190108,405.58671843754365
3825.604,1.1959400984189203,416.080599442746
3826.4841,1.195193024042739,452.2683100055603
3827.3665,1.1942855344849075,387.69293912512205
3828.2468,1.192907455064481,398.1511167433008
3829.1296,1.191123751956077,397.7226249820858
3830.0105,1.18925611894502,399.9067343639597
3830.8916,1.1875831522172469,379.70157870545023
3831.7751,1.1861664729000803,425.52236081111073
3832.6565,1.1848370952960774,384.8694892647674
3833.5403,1.1833029082280844,420.85789886473873
3834.4224,1.1813997264510974,428.70795777102853
3835.3064,1.179217662671741,429.1167498604376
3836.1887,1.1770831765375775,438.9576210582225
3837.0713,1.1753294734624449,402.2137036776409
3837.956,1.174167425084479,411.00919769017173
3838.839,1.1736815230926112,441.9382802901012
3839.7244,1.1738277839627629,393.27332055477757
3840.6077,1.1743786529650428,406.3710905466452
3841.4932,1.1748925628571183,407.54394246825336
3842.377,1.174906378121321,426.1862917751292
3843.261,1.1743633032970886,446.05485164684524
3844.1472,1.173897563147215,464.15873852725167
3845.0315,1.1745766628347332,473.1217800595153
3845.9182,1.1771021610742118,436.9725048317168
3846.803,1.1810970624710297,404.5073210188065
3847.69,1.185242825773013,361.6579566014893
3848.5752,1.1880621160806422,453.5778044832524
3849.4604,1.1888519953670351,366.5196709380901
3850.3481,1.1878797989937528,398.7118024674822
3851.234,1.1859804261085216,414.2124236737427
3852.122,1.1839074947791959,527.8444636565771
3853.0083,1.182010329131472,450.7369436554235
3853.8967,1.1802487742996917,413.1505346561801
3854.7832,1.1784819188550215,403.6264969734661
3855.6702,1.1766416643234352,408.1913740088215
3856.559,1.174804620960115,451.70726420314503
3857.4463,1.1731242873685586,455.7734857504998
3858.336,1.171659958104407,440.86970628195775
3859.2234,1.170323747071184,435.92062798496255
3860.1135,1.168944184881115,462.0401513707426
3861.0015,1.1675113733777573,394.7187487437547
3861.8896,1.1662706152411206,387.7443377795321
3862.7803,1.165603900508572,437.2303090779962
3863.6687,1.1656992619097888,431.0718947781915
3864.5598,1.1662442652381562,431.77055130575826
3865.4487,1.1664196695025792,429.7395863820835
3866.34,1.16527321019478,426.4700368744011
3867.2297,1.1622925058011888,430.17520252440323
3868.1213,1.1577669388562897,425.74901005423294
3869.0112,1.1527279103346257,479.5899098202102
3869.9014,1.1483269085506667,475.1092332163332
3870.7937,1.1452313726243513,475.6569790468521
3871.684,1.1433764567121858,425.9488946883803
3872.577,1.1421969416152205,465.200767844142
3873.4678,1.1412379782875193,428.35136052242933
3874.361,1.140516439906577,422.3349708516906
3875.2524,1.140442266410034,443.8053082753938
3876.1438,1.1413318179666039,442.5363956816186
3877.0376,1.1429948639707481,475.852230810435
3877.9297,1.144690571553739,442.38054874126624
3878.8237,1.145559902784157,443.38319191979815
3879.716,1.1451190077220996,441.88468924001626
3880.6108,1.1434764950202387,468.27886402471853
3881.5037,1.1411139915213746,435.32702198277184
3882.3965,1.138482437597563,505.1967481996675
3883.2917,1.1358502323570459,419.8990833190228
3884.185,1.1334332938427127,469.9104271678653
3885.0808,1.1314284279813092,475.66382403257523
3885.9746,1.1299359958297788,494.281431870627
3886.8706,1.12879599389771,455.57442219835855
3887.765,1.127744560021454,449.4523279331396
3888.6592,1.1266810551943736,478.6753439756457
3889.556,1.125790444870934,454.94434960096027
3890.4507,1.1253694065741975,472.6226393229864
3891.348,1.1255511259978555,502.3257296076154
3892.243,1.1262248625253397,445.8771165682466
3893.1406,1.1271679181684553,452.4457498243956
3894.0361,1.1282465949200964,462.33385962614085
3894.932,1.1295666392067583,449.79478926842944
3895.83,1.1314019368115673,460.78597337329205
3896.7263,1.1339180802110091,493.17659100283726
3897.625,1.1369682993419403,477.23529052634296
3898.5215,1.1400787556388083,486.1698902060898
3899.4207,1.1427799577359468,441.8653158138806
3900.3176,1.144746706354778,545.22319259503
3901.2148,1.1458316814773808,470.7325422795658
3902.1145,1.146026690441019,548.6203236974239
3903.0122,1.1456670416617563,405.65854734089805
3903.912,1.1455702213156387,488.3175616838902
3904.8103,1.1467349516468512,443.5213950357189
3905.7107,1.1497511576977058,445.6104723293673
3906.6094,1.1544339985347198,426.0003360415149
3907.508,1.1600546264317944,451.60627839265806
3908.409,1.165764447201165,436.0510171664772
3909.308,1.170777080356338,395.58651633451507
3910.2097,1.1744380822876126,417.40644150387186
3911.1091,1.1761641357688897,383.74663554519515
3912.011,1.1757481674242631,440.16164506299003
3912.9111,1.1735867478318214,417.659175017542
3913.8113,1.1706351756961477,433.17303423900034
3914.7136,1.167985758390889,416.53852909910637
3915.6143,1.1664277135176588,401.5487962916868
3916.517,1.166192824378398,433.2776944712833
3917.4182,1.1670248187617929,468.66864146052563
3918.3215,1.1683449144105322,430.9944804739104
3919.223,1.1694799065178592,433.8124201000988
3920.1245,1.1699462897992063,477.75281580773253
3921.0286,1.1696148704966964,426.85207807319637
3921.9307,1.168696729829895,418.1549221836713
3922.835,1.1675307344608896,427.2999516490087
3923.7373,1.1663552891914357,432.0789278073781
3924.642,1.1651671412565117,470.7032020758268
3925.5452,1.1638045738979839,431.17281505588403
3926.448,1.1621046840131608,473.58462129028914
3927.3535,1.1600485189412155,424.496354536863
3928.257,1.1577912039195914,387.6277018574193
3929.1628,1.1555024651322967,428.8469399629459
3930.0667,1.1532480465653536,409.7820039186622
3930.9731,1.1508680276933398,439.6223232131435
3931.8774,1.1480974002822144,458.1757378952487
3932.782,1.1447228234901357,471.6151211132711
3933.6887,1.1408076832881875,436.49862600870057
3934.5938,1.1368031209273783,436.9719422554335
