wavl,flux,ivar
3566.9744,0.7737604552271554,703.1636396828653
3567.795,0.7715654140561045,561.7094848366827
3568.6177,0.7703482407788854,483.16496395851306
3569.4385,0.7696038823697567,782.952245873649
3570.2617,0.7686931585838217,529.84604975637
3571.083,0.767461275324598,942.7619263444445
3571.9065,0.7663680953640816,639.1587862058007
3572.7283,0.7660418193040915,565.1683252599505
3573.55,0.7666851513548556,634.5403444311262
3574.374,0.7679708915299294,763.549593598278
3575.1963,0.7693679297066354,547.1090149113544
3576.0208,0.7705392162395818,725.9834279532067
3576.8435,0.7713932022964359,658.6592757400362
3577.6682,0.7719343149927358,626.591408465134
3578.4915,0.7721061601416773,545.1684871894197
3579.3145,0.7718468035490882,584.6155287069002
3580.14,0.7712373055702438,594.8970701132065
3580.9636,0.7705915205792008,798.0454930377834
3581.7893,0.7703215138773973,513.1095535208907
3582.6133,0.7706583027785051,741.9456096809477
3583.4395,0.7714312804823102,530.6680097483494
3584.264,0.7721371072302758,572.5149963990963
3585.0884,0.7722908568278086,620.0897367519577
3585.915,0.7717459078329768,649.6153845941865
3586.74,0.7707651008656524,684.5303650080754
3587.5671,0.7697928747382581,557.1697306230833
3588.3923,0.7691580206514258,557.3978450343441
3589.22,0.768853708227815,597.7536045144335
3590.0457,0.76854472955727,590.4826002707526
3590.8716,0.7677380103046193,603.3626579679858
3591.6995,0.7660674248517462,716.2348321214495
3592.526,0.7635760985597885,699.8951702424155
3593.3542,0.7607620224682624,808.3238859557691
3594.181,0.7583887311494898,575.0585225980802
3595.0098,0.7570485321917028,877.7085184631427
3595.8367,0.7569374352513613,832.4801228976457
3596.6638,0.757859777916738,632.0614985930728
3597.4934,0.7594569442360718,494.8521033201709
3598.3208,0.7613499278843168,497.39601252117626
3599.1506,0.7631998157602315,545.3717153652457
3599.9788,0.7645979219633239,736.9872254069236
3600.8088,0.7650683500607237,602.559337677309
3601.6372,0.7642378369783736,769.1532476330104
3602.4678,0.7622224028699742,414.44601888185355
3603.2964,0.7598107230515547,722.3093988452787
3604.1252,0.7580005756988077,787.9617978719399
3604.9565,0.7572286241970538,501.9786835723881
3605.786,0.7569804482010671,528.8076975580861
3606.6172,0.7561995511896022,574.615692720743
3607.447,0.7541494435728308,846.4745050454442
3608.2788,0.7509661142130308,788.9059964698755
3609.109,0.7476568508150547,678.1992707776186
3609.9392,0.7455165810131832,815.3855328382863
3610.7717,0.7454159068301517,830.8641399649418
3611.6023,0.7472187027040476,605.8111098956986
3612.435,0.7497679314233028,817.5911796791602
3613.266,0.7514790830619797,684.6990432801462
3614.0994,0.7512408521586664,574.5987008397751
3614.9307,0.7489472912687879,675.1554346787672
3615.7625,0.7454425741120309,613.0846900388889
3616.5962,0.7420028766352254,680.6871269795549
3617.4282,0.7397327641101255,1023.0465233506318
3618.2625,0.7390696684501015,927.2570705544485
3619.0947,0.7397398894713606,581.5924795852259
3619.9292,0.7410346373584988,721.4636064332049
3620.762,0.7422567534919094,599.6099168616388
3621.595,0.7430737810560729,814.6739603919668
3622.4302,0.7435840334938927,698.745704020536
3623.2634,0.7441523790216856,628.0627910747052
3624.0989,0.7451282187707602,525.0854976421549
3624.9326,0.7465785874571808,564.9623821101527
3625.7686,0.7482663707650035,667.5298399391054
3626.6028,0.7498388193684516,607.3533361783918
3627.437,0.751130117909536,740.9247853264617
3628.2734,0.7521864016799605,551.1774358786653
3629.1082,0.7529792858050798,787.2543886389691
3629.945,0.7531376426464583,751.2580789133266
3630.78,0.7520553638736996,540.7468540659693
3631.6174,0.7494040989192773,617.6854962733171
3632.453,0.7456063427343443,826.6064807539979
3633.2883,0.7417227126827051,722.4999184459202
3634.1262,0.7389022343549398,878.4323131095404
3634.9622,0.7377750011419945,636.7073268392628
3635.8005,0.7381356449185841,590.137733953705
3636.637,0.7391969344188675,725.7640298401531
3637.4756,0.740120994063926,670.0567715326362
3638.3123,0.7404529946708659,866.5906162525761
3639.1492,0.7401940973964823,745.7931899827527
3639.9885,0.7395354933464817,417.10780955532044
3640.826,0.7386545152885565,750.0466266925191
3641.6653,0.7377124617012779,629.8539932393792
3642.5032,0.7369518260197361,718.2818589657353
3643.343,0.7366493382573849,477.36633061493075
3644.1812,0.7369894075833047,730.3625783294005
3645.0195,0.7379101384884951,689.4434176431444
3645.86,0.7390217208218989,675.9512660438575
3646.699,0.7396896148903264,664.9035542568365
3647.5398,0.7394085915856694,660.1142809447281
3648.379,0.7381984049099783,722.4089215607031
3649.2202,0.7366478567396787,653.1410723483812
3650.0596,0.73551839471621,844.5326474655965
3650.8994,0.7352009536440915,622.3018340497796
3651.7412,0.7355345761575679,547.6179594648204
3652.5813,0.735969895901864,645.7557230320768
3653.4236,0.7358831248193585,769.1153323243755
3654.2642,0.7348331497439906,650.3419523656476
3655.1067,0.7327424553421881,556.0261879920749
3655.9475,0.7300074665210383,605.8339588240517
3656.7886,0.7273998714118928,770.905487055402
3657.6318,0.7258261895386012,513.6453060781846
3658.4734,0.7259500057803027,792.7020171938125
3659.317,0.7277845913877469,622.8987089054602
3660.1587,0.730540379785182,631.9089992449057
3661.003,0.7329589643736372,511.23327461218
3661.845,0.7339200388193751,701.5711989814877
3662.6875,0.7330100832147858,639.0921280040952
3663.532,0.730533266827001,563.4770897657079
3664.3748,0.7272144263102848,721.8797808244
3665.2197,0.7237610583712641,602.9030746170952
3666.063,0.720679246418317,556.6721087623699
3666.9084,0.7181804910708637,797.6197885570559
3667.752,0.7163197239021956,736.3394454345129
3668.5977,0.7150130554976426,679.0660698509693
3669.4417,0.7140912485866263,669.4194391608479
3670.286,0.7133548791691313,681.8197307818742
3671.132,0.7127716840201336,698.2372933352665
3671.9768,0.7125873933727579,787.8248588091612
3672.8235,0.7131446906287552,744.5742227790677
3673.6685,0.7144979109113939,875.4804550472387
3674.5156,0.7162065427719424,761.793797253913
3675.3608,0.7175622729638959,933.2477784612503
3676.2063,0.7181514776866694,533.6468373306244
3677.0542,0.7181175463858539,620.3773023103128
3677.9,0.7179030099374171,822.803647238835
3678.748,0.717758772971961,844.679151052068
3679.5945,0.7175879142621582,600.3194305418425
3680.4429,0.7172188246602315,661.5277595597033
3681.2896,0.7167002315439687,715.2377188989357
3682.1365,0.7162356953034843,699.1999648269061
3682.9856,0.7158881580204489,649.1505294326774
3683.8328,0.7154100112845752,722.2218731382578
3684.6824,0.7143525727721067,705.6241645277057
3685.53,0.712370709577917,549.5242763967368
3686.38,0.7094843553485042,1014.097669771815
3687.2278,0.7062560294445481,713.3333529393408
3688.0762,0.703572278706227,661.5887287162178
3688.9265,0.7021681947892712,684.486546921805
3689.7751,0.7021417863634207,670.5871218570146
3690.626,0.7029616758803579,719.2861350634587
3691.475,0.7040014279466977,826.7568610678245
3692.3264,0.7050095798436551,658.571333864865
3693.1758,0.7060367483069067,517.8487447685575
3694.0254,0.7070954782136881,994.118823348827
3694.8772,0.7080130720921691,640.5716202881944
3695.7273,0.7086265884282633,732.4486972780485
3696.5793,0.7090059078836369,663.7751516595036
3697.43,0.7093883928103664,753.2982880508645
3698.2825,0.7099412981133987,800.9599872972104
3699.1333,0.710535754890609,644.292494608082
3699.9841,0.7107161393851732,616.8067653100343
3700.8374,0.7099055355686978,581.3613663052943
3701.6887,0.7078317614359078,689.1964524740135
3702.5425,0.70484757832965,589.967721812685
3703.3943,0.7018917375406903,896.4352844035657
3704.2483,0.6999200955348996,654.1576333507008
3705.1003,0.699398496152763,655.0645641392758
3705.9526,0.7001000691748325,684.1390412327457
3706.8074,0.7013915295464355,658.5986641173039
3707.66,0.7025848385864134,580.1341349343794
3708.515,0.7031780354865573,783.6973500413665
3709.3682,0.7028986273642226,594.8508912777197
3710.2234,0.7017754057909072,740.832719885595
3711.0771,0.7001954654749607,707.4099880536211
3711.9307,0.6987440491424536,922.5973594280085
3712.7866,0.6978144397290159,609.6108775863571
3713.6409,0.6973070743465888,937.6533836965571
3714.4973,0.6967557309412233,625.0413472385657
3715.3518,0.6958188497803335,541.4062473345328
3716.2085,0.6945416844470407,769.6108391953842
3717.0635,0.693186444001108,864.5785661813067
3717.9185,0.6919090913581425,630.5383650458566
3718.776,0.6907623564615345,739.7405359283947
3719.6313,0.6899042159258659,943.4802379094021
3720.489,0.6895762991276547,692.1160749831279
3721.345,0.6898229747602757,885.9849138316258
3722.2031,0.6902700599070939,765.6706380220968
3723.0593,0.6903414366241795,590.3374366393921
3723.9158,0.6897606270112432,721.3948835474755
3724.7747,0.6887848576018307,861.4277853152396
3725.6316,0.6879391431773498,855.0165596779302
3726.4905,0.6875130878700019,752.8455343679097
3727.348,0.6873611758849859,746.4766959306805
3728.2073,0.687058843731689,768.6024121902013
3729.065,0.6862297413621377,877.7725062232822
3729.9229,0.6848220948290382,850.5436304222854
3730.783,0.6832337501177538,922.0996694479752
3731.6414,0.6821845059124734,675.7839403956339
3732.5017,0.6822940050458093,618.0228382741849
3733.3604,0.6836929306964761,870.8433101903395
3734.2214,0.6859032832966481,775.9208787162221
3735.0803,0.6880205092055116,648.408885426566
3735.9417,0.6891593056226069,835.0011389446386
3736.8013,0.6888583209393798,787.3922315771995
3737.661,0.6873621082289483,782.9843035689792
3738.5227,0.6854557563053869,737.2724067425887
3739.3828,0.6839492239203386,927.5326054557205
3740.245,0.6830790071817732,766.9570143932309
3741.1055,0.6824098818511944,632.9204254180396
3741.9683,0.6812736458298605,746.9225275928673
3742.829,0.6794551769252425,818.8373380534036
3743.69,0.6774652746221839,1027.2680885448824
3744.5532,0.6762096572232004,774.295678181293
3745.4148,0.676339249753503,1023.3266282460113
3746.2786,0.6778040752931037,753.1341008576788
3747.1404,0.6799411460593148,812.5893532117199
3748.0044,0.6819376482693562,729.4010417113627
3748.8667,0.68320996732968,797.9545038364428
3749.729,0.6835744249389502,824.3550320866082
3750.5938,0.6831203335007021,719.0502730429912
3751.4565,0.6820725703007245,837.3654379419671
3752.3215,0.6807314843457724,834.7931387309104
3753.1848,0.6794812473871811,768.5184852546722
3754.0503,0.678676211252585,755.8828579487265
3754.9138,0.678491016013767,657.1822069397293
3755.7776,0.678805458725309,954.9140590666236
3756.6438,0.6792788982770878,644.6931546430824
3757.508,0.6795273487962477,725.9687164356482
3758.3745,0.6793168652890434,740.0670654877212
3759.239,0.6786511047435203,707.3133466029835
3760.106,0.6777452803823486,790.3516716772269
3760.971,0.676939148607658,713.4785305432613
3761.8362,0.6765458029511977,946.8507090535717
3762.7036,0.6767342089673382,733.7355442080848
3763.5693,0.6774681390224198,730.9429075590531
3764.437,0.6785465025486631,795.409694649642
3765.3032,0.6796617861698364,730.3187784874891
3766.1714,0.6804711279944359,952.2806360026235
3767.0378,0.6806671835070199,671.9029814149092
3767.9043,0.6801349842653045,708.6550783435516
3768.7732,0.6790397420688231,701.4949212596653
3769.6401,0.6777438758183105,631.9711131168009
3770.5095,0.6765079014084934,827.8019830619154
3771.377,0.6753155019582306,817.5618235756807
3772.2466,0.6739721841003233,667.8368078454969
3773.1145,0.6724578541977042,1105.0240010691498
3773.9824,0.6710526479369997,692.916514158361
3774.8528,0.6701415519084756,768.397418577713
3775.721,0.6699263070859388,746.3434566535317
3776.5918,0.6703466690422694,783.3899629571654
3777.4604,0.67122226421744,708.5201291170366
3778.3315,0.6723514820620685,1005.4898767528481
3779.201,0.6734633459886401,744.1822194497606
3780.0703,0.6742163872128909,611.2724395253808
3780.942,0.6742761313628732,1015.3153840475164
3781.8118,0.6734412357563113,954.437981844203
3782.6838,0.6717227083016203,853.1553378890263
3783.554,0.6694040380473332,871.8721256469186
3784.4265,0.6669908278733759,960.7800583956043
3785.297,0.665067486756356,1044.235573939415
3786.168,0.6639116403905093,770.3249852958078
3787.041,0.6632770767699403,800.9903023264201
3787.912,0.6625632648402708,840.3058784943826
3788.7856,0.6613375397450708,870.1447341823698
3789.6572,0.6597612587964649,706.0775410948037
3790.531,0.6584214372984873,844.0840679471066
3791.403,0.657810173814922,878.2968540556617
3792.2754,0.6579444463291966,741.9958577757119
3793.15,0.6585417528463436,949.831540104368
3794.0225,0.6594071818632403,815.3933011144877
3794.8972,0.6605807385564891,789.5057934508324
3795.7703,0.6620849726400605,832.7923957887172
3796.6455,0.6636944530124749,826.6317299928453
3797.519,0.6649676055288066,786.2535903076885
3798.3926,0.6655429435959663,736.6606208238904
3799.2686,0.665296134495916,820.183877101109
3800.1426,0.6643142447616326,897.4511365187552
3801.0188,0.6628017014475869,711.0540035439184
3801.8933,0.6610675929644084,882.1757003723815
3802.77,0.6594679606215306,1109.8980602416561
3803.6448,0.6583336382247897,770.7408094596611
3804.522,0.6578280543875966,1102.1346876279267
3805.3972,0.657883333523838,872.3279729614682
3806.2727,0.6581392559435023,896.1354407716458
3807.1504,0.6580051045221008,668.8076752928787
3808.0261,0.6569272140672334,807.0738602941411
3808.9043,0.6547848396447564,831.8021619607798
3809.7805,0.6521567718364971,909.1129086250646
3810.659,0.6501054597151488,905.1835005079602
3811.5356,0.6496519881166858,967.9189229470925
3812.4126,0.6511351217938197,823.2787597310702
3813.2917,0.6539897244957978,962.5643788057687
3814.169,0.6569828121674269,748.8361281320352
3815.0483,0.658884431840446,961.4266010268468
3815.926,0.6590249590503134,752.5734232607196
3816.806,0.6575680977739344,843.5838468027431
3817.684,0.655292930922758,922.1796450939954
3818.5623,0.6530857103803729,896.268634060715
3819.4429,0.6515216369938995,783.7108448440312
3820.3215,0.6507603776587605,924.2973889064482
3821.2024,0.6506622732551681,867.1746991397315
3822.0815,0.651001337604715,852.2753044725378
3822.963,0.6515795597928764,876.4415163943956
3823.8423,0.6522354874292096,862.4460282493238
3824.722,0.6527661580684987,850.5444443020075
3825.604,0.6528215061707943,802.7323448663291
3826.4841,0.651966107208138,899.0325803918427
3827.3665,0.6499503139932435,846.0437042327342
3828.2468,0.6469870295369271,885.6725326654251
3829.1296,0.6436493217756055,908.1232316829684
3830.0105,0.6405527666853903,870.7029979676246
3830.8916,0.6379995240134584,723.4981243124299
3831.7751,0.636070659919951,875.0496898716964
3832.6565,0.6349173395293273,881.9372959880743
3833.5403,0.6348267849087703,971.5171060261328
3834.4224,0.6359801557051739,1000.7555392560525
3835.3064,0.6381073869091218,899.8930161320699
3836.1887,0.6404631760431966,976.4415383235964
3837.0713,0.642233569355458,767.7688089684067
3837.956,0.6429308919122085,792.2563090025968
3838.839,0.6425076020145604,909.0087321167321
3839.7244,0.6411983439547455,959.965948921252
3840.6077,0.6393412861478288,813.5216184989553
3841.4932,0.6373035112903824,815.5298719431186
3842.377,0.6355263802998885,879.5167724424634
3843.261,0.634460308056917,1005.4291220230725
3844.1472,0.6344639243959176,1143.355690605535
3845.0315,0.6356350081424719,950.9453442220843
3845.9182,0.6377149731857552,871.5324437897287
3846.803,0.6401382794188578,848.1399102193509
3847.69,0.6423179571752257,743.9984742091877
3848.5752,0.6438665507612901,939.8526671027342
3849.4604,0.6447100653942424,765.1007506128021
3850.3481,0.6449700549301263,827.2602272175429
3851.234,0.6448468079518197,924.4954859704281
3852.122,0.6445807112248032,946.8037462242991
3853.0083,0.6444541325900812,723.7863952756112
3853.8967,0.6447624636885515,975.0744650308627
3854.7832,0.645735187149649,809.1713211477461
3855.6702,0.6474393351679795,1034.1369858751088
3856.559,0.6497085596893242,737.5059242859973
3857.4463,0.6521314147904561,818.6725150126812
3858.336,0.654206239338072,803.7997811142012
3859.2234,0.6555029835574094,817.598208264765
3860.1135,0.6558679168396524,738.6977907760784
3861.0015,0.6554153072194846,940.5799499672319
3861.8896,0.6544045370129972,754.117829491439
3862.7803,0.6530612527521585,839.2526511461081
3863.6687,0.6515082955966451,773.7916754418551
3864.5598,0.6497610966184599,754.3596326311784
3865.4487,0.6478407231326315,745.105188220487
3866.34,0.6458028685823984,787.4415065190226
3867.2297,0.643780074557004,861.3665939916524
3868.1213,0.6418927809194398,1016.2039859196149
3869.0112,0.6402300286112278,772.4082650548826
3869.9014,0.6388135364114877,807.5681806239218
3870.7937,0.6376374639742896,810.93315066706
3871.684,0.6366888020624094,916.0239328350801
3872.577,0.6358992799539328,886.9982204804018
3873.4678,0.6351031605520776,791.5379388406087
3874.361,0.6340041149721852,779.4821579782857
3875.2524,0.6323091280893284,895.287635417868
3876.1438,0.6299262725921942,998.8444317193365
3877.0376,0.6270927278513874,1043.9208984469901
3877.9297,0.6242800500015959,932.7275490502446
3878.8237,0.6218410325317063,980.9792567080578
3879.716,0.6198082430670866,917.7878663813465
3880.6108,0.6178627448410318,1131.8032248923269
3881.5037,0.6156220050221005,856.2468139682447
3882.3965,0.6129060347493501,894.0776227764811
3883.2917,0.6098744477587142,887.2478632282717
3884.185,0.6069368284633536,1111.5225124892063
3885.0808,0.6044652438213585,1170.5226098484425
3885.9746,0.6026929312336702,871.0768758719341
3886.8706,0.6016693208994249,1249.7198995260958
3887.765,0.6013724855380151,810.3680495534127
3888.6592,0.6017426172211806,1258.6552048649166
3889.556,0.6026920158823692,1177.7397504370551
3890.4507,0.604064581567112,797.3605276803949
3891.348,0.6056426279843796,928.5289386018586
3892.243,0.6071404371679331,1307.0517034427023
3893.1406,0.608300417953814,1005.5658872483895
3894.0361,0.6089844199531489,1153.963295438206
3894.932,0.6092863855903806,976.7917776614454
3895.83,0.6094445195478512,865.6052193664973
3896.7263,0.6096414359385688,1067.615776831778
3897.625,0.6099271640112889,876.6826142058561
3898.5215,0.6104070923638422,1014.8051950670231
3899.4207,0.6114806414125652,861.386220311402
3900.3176,0.6137137893272168,1110.5994884208915
3901.2148,0.6173841117975181,1093.9248496554362
3902.1145,0.6221001618648283,969.494608875252
3903.0122,0.6268821875529005,847.5995648029225
3903.912,0.6308369635892802,956.9682496907367
3904.8103,0.6336636666526295,977.172166892034
3905.7107,0.6358363091748778,913.5613724191223
3906.6094,0.6381205899131989,792.5639681974324
3907.508,0.6409718488742969,992.049515249045
3908.409,0.6441633884218206,737.3704704598956
3909.308,0.6469315160202408,765.2666146194532
3910.2097,0.6485549882405105,904.7838549957146
3911.1091,0.6487615073069862,955.4819756536242
3912.011,0.647818362252413,991.5492816179681
3912.9111,0.6462795799188686,736.6682757276161
3913.8113,0.6447099656685852,927.0225499812127
3914.7136,0.6435616972679369,946.8135900445752
3915.6143,0.6431700117290711,976.7550166517954
3916.517,0.6437315950347078,1057.179492128853
3917.4182,0.6452535702486777,952.4218457201034
3918.3215,0.6474982230443826,889.679706319716
3919.223,0.6499668155216153,910.9120771160556
3920.1245,0.6520648991922156,815.5316691225323
3921.0286,0.6533028947901036,850.8610752413823
3921.9307,0.6534808362992149,790.2168736216315
3922.835,0.6527451227942611,895.1187280858974
3923.7373,0.6514598781890185,775.5578357882911
3924.642,0.6500151427344452,913.4435883230393
3925.5452,0.6487199272269657,815.6156853388654
3926.448,0.6477442262962708,783.8829671082224
3927.3535,0.647147960351427,776.0980045440256
3928.257,0.6468971771125309,868.5547448808351
3929.1628,0.6468350006891538,894.5728694787404
3930.0667,0.6466917978667873,1014.8496425566326
3930.9731,0.6461795220927846,837.6354493830331
3931.8774,0.64516722237195,689.2616635848402
3932.782,0.6437835278268814,991.4105377255597
3933.6887,0.6423689639732407,1010.8210364605122
3934.5938,0.6413061094905594,843.4647761284313
3935.501,0.6408066266144146,965.8307611023467
3936.4062,0.6408364768290146,754.5203239129764
