wavl,flux,ivar
3566.9744,1.918740857177522,874.5915495125018
3567.795,1.915701051400743,823.0450309910862
3568.6177,1.9140808308816317,732.9170180095664
3569.4385,1.9131749387097754,891.287472188752
3570.2617,1.9118063036901323,842.0859549789345
3571.083,1.9092703686244568,924.1532328541107
3571.9065,1.9056894199907937,888.043788140573
3572.7283,1.9018847235785368,811.420226768458
3573.55,1.8989032982067766,884.8934248002508
3574.374,1.8976098902462453,858.9062970337775
3575.1963,1.8983169176330337,979.7724135904555
3576.0208,1.9005942408038683,973.4941894253255
3576.8435,1.9034124360874567,787.8652590235218
3577.6682,1.9055766270179364,814.5218451868734
3578.4915,1.9061450551822459,959.2874729039869
3579.3145,1.9048724384826143,840.8117809556883
3580.14,1.9024470636373625,936.2931895548405
3580.9636,1.9003885770681879,910.6360436916424
3581.7893,1.9002687890804018,755.9382586184244
3582.6133,1.9027427051056616,893.6093547750952
3583.4395,1.9070775610970296,818.8912627719873
3584.264,1.911551297201106,854.5783251406889
3585.0884,1.9144856674867936,922.1919788471347
3585.915,1.9149648578614837,867.6278872544264
3586.74,1.9129552067488411,925.3296161080502
3587.5671,1.9089414678720502,872.2626882280116
3588.3923,1.9036231100298244,925.4667129410421
3589.22,1.8977909646620532,978.0985399213462
3590.0457,1.8924844992477208,890.9225763198383
3590.8716,1.888730816495926,991.7834256939101
3591.6995,1.8871951950565,787.6994146357762
3592.526,1.88771742230804,876.5435570466526
3593.3542,1.8891091246890253,914.3451159861035
3594.181,1.8895442009182553,783.882935718403
3595.0098,1.8875480248260461,780.9311048231758
3595.8367,1.8830286449381106,894.3065027874767
3596.6638,1.877442659291112,904.6126138549809
3597.4934,1.8728353705110572,838.7871732656065
3598.3208,1.8704445646099628,996.6040390054667
3599.1506,1.869877166886224,846.5832086524667
3599.9788,1.869710757723747,765.7646705925714
3600.8088,1.868752364989454,925.4825447068496
3601.6372,1.8669598125771487,1025.1632150437438
3602.4678,1.865302951248406,880.6227271455937
3603.2964,1.8649713617546162,1006.3698777316006
3604.1252,1.8666087324498453,852.9390256572482
3604.9565,1.870121285092781,919.4330679342087
3605.786,1.874843021445143,1032.4570329445633
3606.6172,1.8800130937796102,913.0471243811995
3607.447,1.8850343519565005,862.0403756279705
3608.2788,1.8895575046281488,888.606232369809
3609.109,1.8930726498242547,957.6003076964213
3609.9392,1.8947611838219265,871.5574614116855
3610.7717,1.8937802903171743,926.8128185684152
3611.6023,1.890009702540699,725.2661766551507
3612.435,1.8844265688395325,838.7948019996716
3613.266,1.8787797401146276,879.4849679935738
3614.0994,1.874567580666651,892.8846345518018
3614.9307,1.8723680035431636,826.349425648691
3615.7625,1.8716895853763922,1090.5257488225218
3616.5962,1.8715715783876374,921.5110894005061
3617.4282,1.871275035491087,896.7532405299394
3618.2625,1.87066200868553,959.3910163221788
3619.0947,1.8700546949583816,942.2525786897161
3619.9292,1.8697371471453392,840.5382307689598
3620.762,1.8695740996519281,959.58720009345
3621.595,1.8690559358536603,846.1322224334075
3622.4302,1.867733360498237,844.9277787807788
3623.2634,1.8656446229491086,830.6702877710907
3624.0989,1.8632878731460707,885.994944665806
3624.9326,1.8612191824448996,874.5337512101806
3625.7686,1.8595111935796982,876.3742081297383
3626.6028,1.8576748025610765,929.2145195483622
3627.437,1.8550431554063225,873.1434799959063
3628.2734,1.8513924576969687,852.5769149459
3629.1082,1.847258766131388,865.5853029297764
3629.945,1.84357856305534,960.713695651602
3630.78,1.8411821661840304,873.2189590179049
3631.6174,1.8403722476514077,894.5285506380566
3632.453,1.8409492783780694,952.0553175961498
3633.2883,1.8423089273978543,984.7746258713299
3634.1262,1.843679974483737,996.5090149271965
3634.9622,1.8445254481308109,890.7862560294784
3635.8005,1.844962249461531,941.2873016215373
3636.637,1.8456222014312398,887.9182942754727
3637.4756,1.8470025461263022,898.2020534245271
3638.3123,1.8488925947512187,931.2537919456818
3639.1492,1.8505046715094882,902.4666204679488
3639.9885,1.8510057887148912,953.6437493402277
3640.826,1.8499067926638113,977.2373589676678
3641.6653,1.847127725321919,867.3661938023738
3642.5032,1.8430078845521214,1001.7557314400282
3643.343,1.838252087374086,1024.2948314518992
3644.1812,1.8337302546858654,1020.6518608034019
3645.0195,1.82990130229313,999.617666978015
3645.86,1.8265328512082373,1001.217226913299
3646.699,1.822933413007871,835.3712733735942
3647.5398,1.8184775178964196,971.5183525368291
3648.379,1.813182956983198,965.2890954046736
3649.2202,1.8077332829731867,937.15020323066
3650.0596,1.8031881727798886,917.5921247348815
3650.8994,1.800244956003679,913.7912874694844
3651.7412,1.798829147208058,964.1934847207654
3652.5813,1.7981328416407514,939.4190559847339
3653.4236,1.7971449704431228,985.9753267527237
3654.2642,1.7953941927655086,949.8757579191292
3655.1067,1.79337266488745,925.6986414505894
3655.9475,1.7923582265659876,1027.6075773467378
3656.7886,1.7935562003751007,1023.0312195437116
3657.6318,1.7972565579471553,1080.7664900337527
3658.4734,1.8025346780326708,1007.7468326345307
3659.317,1.807822701723909,916.880051639382
3660.1587,1.8116500282610288,856.7637750697065
3661.003,1.8133420489162524,958.7654879537454
3661.845,1.8131784664072637,914.1713145993214
3662.6875,1.8122499237612557,924.3379037296731
3663.532,1.8119072437574308,1016.4948837294011
3664.3748,1.8130789865610255,1004.3489083697455
3665.2197,1.8157709371195336,977.5183833518105
3666.063,1.8190062287342774,1002.0691260385412
3666.9084,1.821293375599195,1003.4590128805755
3667.752,1.8212718812841513,892.9003299519231
3668.5977,1.8184212565962725,895.121344480634
3669.4417,1.8133930907051905,958.5768036510125
3670.286,1.8076852384952802,1124.731554104908
3671.132,1.802851400700679,923.5222610655886
3671.9768,1.7997527582149515,1043.4141514994817
3672.8235,1.798274413095796,916.3391845902294
3673.6685,1.7977792795223584,942.3713003934804
3674.5156,1.7976663302447031,964.9438279464775
3675.3608,1.7976650625074948,1005.9820621598554
3676.2063,1.7977136321205018,962.0823812206843
3677.0542,1.7977200918769223,1028.065784568486
3677.9,1.7974543859246563,984.1065017249971
3678.748,1.7966209867873366,981.3697342916645
3679.5945,1.7950608125455816,932.9305554604929
3680.4429,1.7929153615436002,1006.505315243184
3681.2896,1.7906194977033691,1051.8084652181947
3682.1365,1.7885698877377547,994.32984349964
3682.9856,1.7868474072604867,925.1094033372099
3683.8328,1.785269900151014,1031.8285852752804
3684.6824,1.7836723112923651,987.5201205186788
3685.53,1.7821407885800613,1031.0046177024726
3686.38,1.7809053634826622,961.8573803584052
3687.2278,1.7801849258925955,968.3482079562572
3688.0762,1.7799915625578524,991.3977831555088
3688.9265,1.7798982178953489,906.1616209066889
3689.7751,1.7788041947179338,1085.9167141856326
3690.626,1.7751519138056029,997.4394306584684
3691.475,1.7679414226861008,1119.8593030724853
3692.3264,1.7578974561612943,1051.8234912282605
3693.1758,1.7479838229070355,1245.2257157211432
3694.0254,1.7420451364922596,1077.0674603827479
3694.8772,1.7427090151055757,846.800761599033
3695.7273,1.7497417511882274,1185.931255442073
3696.5793,1.7603632208119095,1039.298454890487
3697.43,1.7710205649862905,920.9882790017562
3698.2825,1.7794107008297328,961.8073366863296
3699.1333,1.784961455213125,1012.7108715053641
3699.9841,1.7883235159172668,972.6573838263421
3700.8374,1.7902784581126263,1015.0537694810665
3701.6887,1.791201721411306,937.5081771834416
3702.5425,1.7912542377921081,981.3128454955619
3703.3943,1.7907894904744268,1076.6199516726492
3704.2483,1.7904413747481274,1004.3704888769405
3705.1003,1.7906975691724616,926.1841393229895
3705.9526,1.7913842420777355,922.7232388091693
3706.8074,1.7916177655769978,1083.5707123135007
3707.66,1.7903364705987768,956.536221147825
3708.515,1.7870540229631244,895.368274324997
3709.3682,1.7823149456916063,995.7135358449694
3710.2234,1.7773997128816221,1043.497361728329
3711.0771,1.77364764066412,1047.0847360864814
3711.9307,1.7716894609908056,1111.7209968561785
3712.7866,1.7713022840219927,995.0587573043937
3713.6409,1.7717617520820217,1070.854815390901
3714.4973,1.7723851250706908,1033.6056166871633
3715.3518,1.7729108647096754,983.0164246146669
3716.2085,1.773541422998089,1014.8154801930735
3717.0635,1.7745949368700518,937.7257001558975
3717.9185,1.775976426096843,1009.9815577306017
3718.776,1.7769145470563061,1159.3013915543443
3719.6313,1.7764370522167994,997.0281397226566
3720.489,1.774351394849323,962.5521557874777
3721.345,1.7716796208151657,853.2808642355042
3722.2031,1.7698962858741707,1047.8621339112321
3723.0593,1.7697592285472348,981.6808383740648
3723.9158,1.7708246483686727,982.3880507074746
3724.7747,1.7720793328654691,964.6902461007712
3725.6316,1.772830800336349,1019.7395807288148
3726.4905,1.7730787202428382,949.6041694216084
3727.348,1.773105262361791,965.4958947417366
3728.2073,1.7728455395142677,967.0799261270208
3729.065,1.7716863565284264,987.5808742354675
3729.9229,1.7689235272984059,968.6234953491992
3730.783,1.764425900854773,949.9522977226353
3731.6414,1.7589153269785645,1024.0297663343597
3732.5017,1.753491569827595,1149.7520014474724
3733.3604,1.749086981232121,978.5596869153777
3734.2214,1.746063775109362,1071.710725602857
3735.0803,1.7444466738304674,1121.2893760677016
3735.9417,1.7442221099008939,967.8924755503052
3736.8013,1.7455394531699002,1043.639780924461
3737.661,1.7484906859468705,1223.5019179232443
3738.5227,1.752756695079661,1015.5083642155038
3739.3828,1.757404046815128,1042.3401020324325
3740.245,1.761227370336233,1035.0519405413777
3741.1055,1.7632435795176113,960.1562055363672
3741.9683,1.763208699777644,1059.0450314744166
3742.829,1.7615845074044238,1036.4798215884982
3743.69,1.7591282153062515,1056.5744320121785
3744.5532,1.7564118985889203,1109.4261213152984
3745.4148,1.7536797345603135,1075.8376367154801
3746.2786,1.7509128267469802,930.4758513856274
3747.1404,1.7480803008577253,1059.3455133424266
3748.0044,1.745280918421048,969.5097688859162
3748.8667,1.7429518170458553,1002.2050105109377
3749.729,1.7417739012643598,1016.1042294958125
3750.5938,1.7423195962504199,1036.237953968589
3751.4565,1.7445953710110105,1154.6340735382212
3752.3215,1.748050513288214,1033.9842086962099
3753.1848,1.7520465559194023,1085.0285852449717
3754.0503,1.7564128746662482,1112.6614844757341
3754.9138,1.7613592933012716,1057.692459957394
3755.7776,1.7670835401506282,1003.8476109141831
3756.6438,1.7733085488891864,1085.6681613416577
3757.508,1.7791696918413764,1091.8987803546186
3758.3745,1.7836650565690684,998.9381386456703
3759.239,1.7860888479348536,1133.3770437430396
3760.106,1.7864854744243739,963.5435079311706
3760.971,1.7854931420749873,931.7550096632132
3761.8362,1.783780218346474,987.8961705847506
3762.7036,1.7814298419745451,987.7229840687062
3763.5693,1.7778591273771123,979.8800066124421
3764.437,1.772248200755882,996.278190801396
3765.3032,1.7642426691104311,992.4408922038128
3766.1714,1.754162768655253,1093.0881393291845
3767.0378,1.7429487086919853,1014.1562739139006
3767.9043,1.7316272835588764,1005.8057482751593
3768.7732,1.7211106820460973,1085.8160333161331
3769.6401,1.7122945696641534,1065.765028708373
3770.5095,1.7059840621340123,1097.0671360901697
3771.377,1.7030389283531249,1063.7555193814292
3772.2466,1.7040320331138943,1071.1697259620676
3773.1145,1.7090511149328247,1064.2268902666676
3773.9824,1.7176307347128283,1029.3902837632122
3774.8528,1.7289483718332768,1073.893498256337
3775.721,1.741876927766145,1071.0829856826815
3776.5918,1.7553222003929665,982.7005475012741
3777.4604,1.7680913884863154,1088.3915480335568
3778.3315,1.7793829557758647,1017.357047482416
3779.201,1.7886528216804891,852.8436462523701
3780.0703,1.7958081302684705,1033.97171297719
3780.942,1.80108611536671,956.1930392638315
3781.8118,1.8050000205232994,1000.0692957229253
3782.6838,1.8082085111598556,989.3187779936756
3783.554,1.8110263139215808,939.4613538407218
3784.4265,1.8131712942155458,1025.4941705845629
3785.297,1.8137985236188032,1043.540478489632
3786.168,1.8120207310730256,982.8513687334384
3787.041,1.8074272909223756,935.9795255932939
3787.912,1.8003857546822368,1008.2140292687603
3788.7856,1.7916401655239063,998.8637190015779
3789.6572,1.7817615716558086,1065.6475849842227
3790.531,1.77051746388822,971.2011184503444
3791.403,1.757312744857858,967.4062188224873
3792.2754,1.741782323002315,1032.1079178212192
3793.15,1.7243180249554892,1019.3032042030013
3794.0225,1.7058772201918757,1098.77137868701
3794.8972,1.6869920096611322,1064.6208749408902
3795.7703,1.6679939731827946,1134.930487399347
3796.6455,1.6494453079182043,1197.8760606778285
3797.519,1.6333202873548807,1262.9335436555366
3798.3926,1.6225594887893255,1284.8543652007313
3799.2686,1.6199041748177765,1238.0876123581043
3800.1426,1.6263085140663318,1232.2993537083566
3801.0188,1.6403486651185948,1222.2342763737424
3801.8933,1.6589606492340787,1111.1667301179828
3802.77,1.6792090881941248,1009.3992181282769
3803.6448,1.6991523656925518,1060.8280359050204
3804.522,1.718408953507568,1028.9644492146992
3805.3972,1.7371831064942538,1143.2203586282253
3806.2727,1.7558021028107087,993.3831476430233
3807.1504,1.7740387488600984,1050.3611469875816
3808.0261,1.7909956591062726,965.1626473088862
3808.9043,1.805855853186221,1029.09033134296
3809.7805,1.8180753372421192,936.6982885866419
3810.659,1.8278288690831452,1068.1339369598384
3811.5356,1.835538441266926,949.9764851094324
3812.4126,1.8417748778071166,873.6486192638275
3813.2917,1.847116478462644,1076.3833958572304
3814.169,1.852084530899278,952.3544968778572
3815.0483,1.8569556294453737,887.2773472669377
3815.926,1.8613079492473448,859.6961503716515
3816.806,1.864086531447542,918.8817441828346
3817.684,1.8640507659358523,923.1284280779325
3818.5623,1.8605401490492282,906.8677419541691
3819.4429,1.853754281348967,939.0352099156391
3820.3215,1.8445554180732295,906.4292377985289
3821.2024,1.8337914849836372,912.321148347297
3822.0815,1.8221466718602208,927.8279029658521
3822.963,1.809977556974821,1033.6241711938778
3823.8423,1.7975733727716958,1061.6847298961936
3824.722,1.784843020360647,1021.3604133580805
3825.604,1.7712780013488718,1050.6117971472952
3826.4841,1.756217955315667,1029.7633262903887
3827.3665,1.7390095052330552,1028.0761836299193
3828.2468,1.7195375417028642,1078.9424640496052
3829.1296,1.6976797033914781,1103.1594165543097
3830.0105,1.67327377490687,1050.8103142179605
3830.8916,1.6456669208927488,1139.3121465962809
3831.7751,1.6143096922766638,1219.5638002278915
3832.6565,1.5797667236813406,1306.9298953742305
3833.5403,1.5437192011130252,1350.9601270201504
3834.4224,1.5098695947048273,1347.6246516021315
3835.3064,1.4829228541631538,1516.6823683535429
3836.1887,1.4679116103296141,1926.5783066840495
3837.0713,1.4679644498805053,1710.697627060604
3837.956,1.4831877318449045,1442.5246714130033
3838.839,1.51047306789392,1343.0618303384163
3839.7244,1.5453017993718872,1370.4120785708103
3840.6077,1.5831612740698076,1342.8784975441033
3841.4932,1.6212451268429455,1242.8153439387568
3842.377,1.6578719489347273,1065.52603900015
3843.261,1.6925836815891653,1006.3668681266898
3844.1472,1.725252450598547,1072.8906422001014
3845.0315,1.7554175777545233,1065.7092035993587
3845.9182,1.78269427305223,1114.8246144980415
3846.803,1.8064110146058987,897.2425125917424
3847.69,1.8264862360705914,878.717331332902
3848.5752,1.8431856167761005,971.0587830953078
3849.4604,1.8573718043381164,862.4451021416959
3850.3481,1.870065545701974,866.0972674287526
3851.234,1.8820810053262407,858.7965936354063
3852.122,1.8941514655657992,867.3712621328729
3853.0083,1.9066708122687015,915.7274831388734
3853.8967,1.9197983341302411,819.9022312616448
3854.7832,1.9330068053527154,853.7696937374603
3855.6702,1.9452924941151253,877.5883061297254
3856.559,1.95541755101056,799.5512494196057
3857.4463,1.9624494931270602,865.9012443949334
3858.336,1.9663146094084418,794.0781847296661
3859.2234,1.967672541862702,831.3536531621814
3860.1135,1.9675554377110314,807.3557157562207
3861.0015,1.966748030239322,774.8203556952777
3861.8896,1.965457440593564,825.9632786797002
3862.7803,1.963385192381843,822.1654772178243
3863.6687,1.9601324134127533,788.9703088696799
3864.5598,1.9555414663746076,836.7068766029438
3865.4487,1.9498893923949092,851.893202289506
3866.34,1.9435959450359335,851.1939178521266
3867.2297,1.9370135036562266,834.7275487552564
3868.1213,1.9301004487295392,811.2555654485662
3869.0112,1.9225095033419572,893.2535130912945
3869.9014,1.9136244118328958,898.5831207758181
3870.7937,1.9028248404416188,916.2618906639289
3871.684,1.8898168855211768,803.9952655194178
3872.577,1.8745789713935503,982.514686600201
3873.4678,1.8575913833940052,910.8050217279007
3874.361,1.83937661079828,918.7272290286702
3875.2524,1.8205499833608976,946.9773391184739
3876.1438,1.8012107348159327,899.2059772646377
3877.0376,1.7809258771787813,968.015581527953
3877.9297,1.7591137654832594,1004.0229783148845
3878.8237,1.7351170439984094,1136.9460602206218
3879.716,1.7087830149234242,1137.2850410470317
3880.6108,1.6798757938570268,1076.1578424666313
3881.5037,1.64825753018219,1101.9724328982409
3882.3965,1.6133642384153417,1268.293302770435
3883.2917,1.574611736159879,1225.0740063796454
3884.185,1.5320482353662321,1285.4517205210786
3885.0808,1.4857870841835468,1420.6096788259504
3885.9746,1.4368985426269107,1522.2575381861936
3886.8706,1.3868425609557953,1461.181879331275
3887.765,1.3390083896393186,1792.1267722408124
3888.6592,1.2983539469210608,2002.935470713522
3889.556,1.2710220972541901,2328.9097680986624
3890.4507,1.26240216686625,2530.164576846285
3891.348,1.2743448161537794,2014.6106542390257
3892.243,1.3043251052822182,1725.1503834246014
3893.1406,1.3468802798628494,1682.2894007719806
3894.0361,1.3954259971710141,1610.4079112896304
3894.932,1.4449464386091362,1516.0404817270423
3895.83,1.4923455090594704,1354.252874866322
3896.7263,1.5359117149314383,1266.5654011403055
3897.625,1.5757320458538664,1295.0852458241807
3898.5215,1.6124186807958765,1275.9876192940148
3899.4207,1.6473413612058372,1249.0304657024433
3900.3176,1.6811606530894052,1181.7041001956652
3901.2148,1.7141865996371732,1059.5704097934752
3902.1145,1.7462911643013534,1060.6714741920955
3903.0122,1.7771306477730942,1052.9620619398627
3903.912,1.8068623639742563,997.1215563958309
3904.8103,1.8353889633758667,926.0579077338286
3905.7107,1.8626411151406126,892.8909440172239
3906.6094,1.8880987409209138,873.751949071866
3907.508,1.9114736500697738,827.4628021599177
3908.409,1.9328098063983536,868.6797645096431
3909.308,1.9524298223628245,792.7496490600433
3910.2097,1.971108847827544,861.6776108487925
3911.1091,1.9893606282363794,761.9560032618474
3912.011,2.0074315348790788,830.6822163424346
3912.9111,2.024739441745385,762.8255267372967
3913.8113,2.040377552116697,703.9222166086909
3914.7136,2.053518959291179,762.6815855477256
3915.6143,2.063806281597717,726.6750291948448
3916.517,2.071623682963439,696.610117126225
3917.4182,2.0776693670847917,672.4432537158574
3918.3215,2.082834494286343,805.4932040073481
3919.223,2.087951278035728,728.0662204100715
3920.1245,2.093774096039001,724.4597152437113
3921.0286,2.1007964554837555,715.3390684926806
3921.9307,2.1090561484664154,694.8614813802674
3922.835,2.1182129146465973,712.1798046112377
3923.7373,2.1274788389407457,745.0049434088307
3924.642,2.1360247455430774,691.9480977703323
3925.5452,2.143176030962181,649.3201043084173
3926.448,2.148790474000312,626.8701423575317
3927.3535,2.1530463171390934,654.4700478804123
3928.257,2.155968500183214,660.1651953367167
3929.1628,2.157234647250975,666.3141499396587
3930.0667,2.156355593473628,646.2647355334225
3930.9731,2.1532134271470307,697.3640376286883
3931.8774,2.1483854057296483,666.5129007362854
3932.782,2.1429043256077662,694.4157540814668
3933.6887,2.137760458728955,701.3949721703914
3934.5938,2.133468807377134,689.9074071698798
3935.501,2.1298573356016943,724.8825886959057
