wavl,flux,ivar
3566.9744,1.0436455365391386,510.3927922891559
3567.795,1.041460932570997,486.2845551661561
3568.6177,1.0386885465575877,583.7423453167293
3569.4385,1.035177794928,532.5672356402197
3570.2617,1.0309873552981688,540.9321214056017
3571.083,1.026766780671472,454.60440001090586
3571.9065,1.0235242625546177,590.0739649988569
3572.7283,1.0221558964989739,519.8148147776562
3573.55,1.0229499721785429,596.1984645127211
3574.374,1.0255931596647208,458.8907693556397
3575.1963,1.0293064427812593,494.09914240738556
3576.0208,1.0330564039723493,498.1130944657608
3576.8435,1.0357223385930898,468.57291597110407
3577.6682,1.0365663236726994,532.6148364117232
3578.4915,1.0356035874284601,479.4295450736303
3579.3145,1.0336491989862586,538.0797548681021
3580.14,1.0318036765280942,416.67223040526613
3580.9636,1.030815444619761,670.0093019852915
3581.7893,1.0307439278504709,591.6831936446486
3582.6133,1.0311910418496535,532.5485918745975
3583.4395,1.0316910515745934,616.8407757420741
3584.264,1.031886171486036,494.70021652867615
3585.0884,1.0314701688711265,501.0730537946991
3585.915,1.03014153400009,498.4951269351311
3586.74,1.0278062332173932,511.0192642881899
3587.5671,1.0248335588511837,458.7281090830466
3588.3923,1.0220995169471883,553.3318608730639
3589.22,1.020448687289996,554.9488837714595
3590.0457,1.0200867925708406,486.27467757122497
3590.8716,1.0203508722931396,500.20259930057404
3591.6995,1.0202352461560888,522.7957996377813
3592.526,1.0191263100095398,573.4816305682288
3593.3542,1.017113050759221,470.4913259587577
3594.181,1.0147487825490684,514.2766804492747
3595.0098,1.012607764918011,610.9367361893366
3595.8367,1.0111463670939407,569.251160676107
3596.6638,1.0106618484802479,637.4044565323113
3597.4934,1.0112164278896913,579.569056659432
3598.3208,1.0124294275254373,584.981036115762
3599.1506,1.0135286112355884,487.19130288185437
3599.9788,1.013732600058817,543.8702267718704
3600.8088,1.0127137297878617,606.2352921480679
3601.6372,1.0106944078258533,512.5588713296968
3602.4678,1.0081848294063398,519.3786436391376
3603.2964,1.0057763876082153,564.2672341891209
3604.1252,1.004055672277881,476.1274376531453
3604.9565,1.0035722760179755,602.1216692614545
3605.786,1.0045167880115422,825.0983215130418
3606.6172,1.0063651055398841,566.9168372502836
3607.447,1.0079989764027835,529.3764377232184
3608.2788,1.0084121783828317,537.680472812957
3609.109,1.0073338065362107,545.9118375207969
3609.9392,1.0052378912709414,624.6138465876492
3610.7717,1.0027905886895836,657.5565254885454
3611.6023,1.0003809696100414,609.5527679957291
3612.435,0.998032391696842,572.4324419499666
3613.266,0.9957681092711044,609.5719878765996
3614.0994,0.9938647984265919,550.2013106812838
3614.9307,0.9928394495856387,515.6271889492498
3615.7625,0.9929935551516005,578.1646039930084
3616.5962,0.9939992945203032,468.92809268475946
3617.4282,0.9948968567277044,485.232915227298
3618.2625,0.9946930901574761,521.3573389142682
3619.0947,0.9930385725269613,509.9475725811646
3619.9292,0.9903722052047969,590.4151347133269
3620.762,0.9874928205511284,472.2263071039094
3621.595,0.9850043619898514,476.5580932668808
3622.4302,0.9832369593359697,599.6173230987742
3623.2634,0.982417346886097,552.1544881917704
3624.0989,0.9826141221973276,530.9519817322923
3624.9326,0.983473664600611,687.6386520099271
3625.7686,0.9840867508066952,531.2246008257698
3626.6028,0.9832824814101129,531.9915993170573
3627.437,0.9801963603990785,802.3816876875186
3628.2734,0.9746760924192558,558.2251504011361
3629.1082,0.9674304498354953,501.3146003778548
3629.945,0.95965576565918,585.617479800853
3630.78,0.9526046226215,682.8095676348711
3631.6174,0.9468285863203534,645.2493857659563
3632.453,0.9420448563999894,622.7588190849648
3633.2883,0.9374206117635874,555.2577053169011
3634.1262,0.9324648419969467,644.1669923845186
3634.9622,0.9276004262732513,603.1276300147513
3635.8005,0.9237163569684825,776.5010609787156
3636.637,0.921324197704179,764.8914444003454
3637.4756,0.9199155916504167,492.11785289479445
3638.3123,0.9184011906834857,562.7891244954335
3639.1492,0.9160445178733053,842.1421784743579
3639.9885,0.91310657239135,672.2308560266102
3640.826,0.9106593938371181,727.2085282932418
3641.6653,0.9097254887112511,649.5871803410004
3642.5032,0.9105986076221712,670.8337024381699
3643.343,0.9126760496813966,740.2116385696686
3644.1812,0.9148455562354505,649.1490922463692
3645.0195,0.9161085079168618,614.164267669781
3645.86,0.9159602500470174,650.9575704524785
3646.699,0.9144173294897213,667.9384206835804
3647.5398,0.9117784088916808,647.0073412980828
3648.379,0.9084805408601072,654.9227432293386
3649.2202,0.9050860635211628,720.0888145255686
3650.0596,0.9023380631172639,766.1374969309601
3650.8994,0.9007899797181258,857.404661196401
3651.7412,0.9003663664916657,669.9621776461142
3652.5813,0.9002482543471095,662.3006675708928
3653.4236,0.8994091185969655,575.5712675193969
3654.2642,0.8973937122248911,648.3200262536926
3655.1067,0.8946220472929491,587.3676278696756
3655.9475,0.8920894185163224,765.0015850199109
3656.7886,0.8906837510994329,578.6130422977291
3657.6318,0.8907153236401405,686.9842793718618
3658.4734,0.8917962017166783,632.1249928766126
3659.317,0.8931301223331526,521.6625921916889
3660.1587,0.8939931042244617,801.1309333925046
3661.003,0.8941336317258257,653.6174410644801
3661.845,0.8937993305133616,734.0761198696375
3662.6875,0.8934706677759531,825.0410537679746
3663.532,0.8935480028842362,597.9817288139259
3664.3748,0.8942089058600191,633.1139920430045
3665.2197,0.8953849829066658,790.3735624492049
3666.063,0.8966924481931796,748.3052143035449
3666.9084,0.8974524745093109,534.511771375807
3667.752,0.8969611549287453,694.9655864332592
3668.5977,0.8949854440151513,577.0135344945007
3669.4417,0.8920298063515002,722.6570397595153
3670.286,0.8890658552488843,641.758002402628
3671.132,0.8870241223209931,814.0759918144273
3671.9768,0.886417725380712,802.9359369129656
3672.8235,0.8872343008412027,749.7880136703267
3673.6685,0.8890631707026491,544.9906025759058
3674.5156,0.891281315543143,685.6787483410153
3675.3608,0.8931760266938795,656.4576097350771
3676.2063,0.8941062877390283,812.6821354890892
3677.0542,0.8936376346676835,736.7466034464579
3677.9,0.8917813180695043,741.2656066190578
3678.748,0.8891283857435033,711.8451064800604
3679.5945,0.8867165463624717,832.1371143744695
3680.4429,0.8854605110322438,719.6403431717443
3681.2896,0.8856223919815335,681.1164056952673
3682.1365,0.8866623676139812,661.6456126493146
3682.9856,0.8876986210169427,851.8127058878946
3683.8328,0.8881506373072149,744.7061160926395
3684.6824,0.8881182368593142,660.0922716695216
3685.53,0.8882133835285617,835.1871780855755
3686.38,0.8890582825868624,653.3038117227179
3687.2278,0.8907833751253539,721.4852066135369
3688.0762,0.8928555753542505,611.5070859147154
3688.9265,0.8942826453567905,646.2783393383478
3689.7751,0.894109436340187,620.9590033837924
3690.626,0.8919729941529004,622.1884327363684
3691.475,0.8883698504144412,704.9917303799326
3692.3264,0.884400903467188,604.8738184855727
3693.1758,0.8812534006733601,647.5328656977726
3694.0254,0.8795829523266478,679.4533338281432
3694.8772,0.8793423980109202,651.2164145856988
3695.7273,0.8799635182367019,569.0364804430101
3696.5793,0.8807644335011804,740.8169422158618
3697.43,0.8812487033081022,746.042179543967
3698.2825,0.8811439890566232,612.0961901597341
3699.1333,0.8802977965736095,650.6389139541857
3699.9841,0.8786530645800669,657.541147344976
3700.8374,0.8762651931858787,646.5611861002036
3701.6887,0.8732940474298682,633.3765710348396
3702.5425,0.8699194874219831,649.7600206456914
3703.3943,0.8664668800672264,811.7582639828714
3704.2483,0.8633847211178577,749.0128462542649
3705.1003,0.8611281332797817,770.7137237474783
3705.9526,0.859831491558893,764.9894532835367
3706.8074,0.8593222194905195,734.8784231047445
3707.66,0.8594062845332346,667.3800919901554
3708.515,0.8600922501370019,739.4123481665355
3709.3682,0.8614307857593162,749.9891388236891
3710.2234,0.8631443778207368,688.5231958730819
3711.0771,0.8644994063696442,615.1268360311658
3711.9307,0.8647379982072089,758.3432591493795
3712.7866,0.8636568253753415,642.7660418428866
3713.6409,0.8618280366125856,685.007848252403
3714.4973,0.8601770370418357,858.6642509963474
3715.3518,0.8593198401160738,758.8014265082916
3716.2085,0.8590934687756601,836.3189188211779
3717.0635,0.8586821369231509,858.7509832891045
3717.9185,0.8572129380084723,686.7654694687732
3718.776,0.854416282126062,727.7459320383928
3719.6313,0.8508462925463659,804.1430850244845
3720.489,0.8473785044308977,823.204476516696
3721.345,0.8446449713082905,743.246687418449
3722.2031,0.842757451868867,845.9917464410893
3723.0593,0.8415942686399983,803.3457911843839
3723.9158,0.8410693692279149,786.2982869302547
3724.7747,0.8412398122767318,777.1159293418216
3725.6316,0.8421975910396688,719.96039801322
3726.4905,0.8439263980658179,1000.6738064082311
3727.348,0.8461744186669448,748.5390824986663
3728.2073,0.8484795894773014,771.2393341020104
3729.065,0.850281274595944,762.6837423611954
3729.9229,0.8511554016419904,632.8923583274931
3730.783,0.8509172210576136,805.9187598413416
3731.6414,0.8496384044944403,781.33757095996
3732.5017,0.8475807378293302,813.0924384922772
3733.3604,0.8451378276590519,925.1999979823784
3734.2214,0.8427015664907079,836.2769967498756
3735.0803,0.8405827812919279,766.0353137171061
3735.9417,0.8388701731327378,738.8280280801921
3736.8013,0.8374682446152798,763.3225824338306
3737.661,0.8361574423357381,814.7542177115313
3738.5227,0.8347706713363321,796.9213977565032
3739.3828,0.8333619543549166,777.1404646921541
3740.245,0.8321872590092653,760.991674430572
3741.1055,0.8314866856964922,877.2625477901764
3741.9683,0.8311704751692393,925.3357278158896
3742.829,0.8308253783368242,748.4895527843555
3743.69,0.8300417334401947,882.7295028162565
3744.5532,0.8287518028415974,985.2411758687125
3745.4148,0.8272673301188023,819.8413148878818
3746.2786,0.8259990810411766,679.6979269507844
3747.1404,0.8252068435917126,912.6668110332189
3748.0044,0.8249069489322828,861.7763324667834
3748.8667,0.825059749606483,837.210236832965
3749.729,0.8258768500662025,765.7341120011685
3750.5938,0.8281185208915359,688.2287571483059
3751.4565,0.8331158865916956,734.8054564569547
3752.3215,0.8423683367235972,745.4172096114823
3753.1848,0.8562820165273565,928.1325106457151
3754.0503,0.8729473178523732,773.9676256331986
3754.9138,0.8876446935547068,707.3640857667632
3755.7776,0.8950838192006185,61.56321208414265
3756.6438,0.8924645847194783,744.4579667576829
3757.508,0.8813891324608467,670.0048100840712
3758.3745,0.8665043198318821,831.4665669338337
3759.239,0.8525766164996376,746.4822799618637
3760.106,0.842030909708445,782.2596178681666
3760.971,0.8350367576423867,758.5724257876698
3761.8362,0.8304181572465466,799.8687663072615
3762.7036,0.8269091141073993,809.6037240450648
3763.5693,0.8237507839990328,936.5571463808834
3764.437,0.8207198434942982,933.0728714382035
3765.3032,0.8179741578205462,769.2453401795349
3766.1714,0.8157450228376935,782.454184433398
3767.0378,0.8142038466319184,901.0629238918892
3767.9043,0.8133393627528337,1088.0332454499057
3768.7732,0.8129472150571596,757.3295668779014
3769.6401,0.8126862685655677,970.890550935349
3770.5095,0.8122334064819889,1064.9770940561652
3771.377,0.8114664585859945,707.4266012913184
3772.2466,0.8104977213890806,859.5890143463423
3773.1145,0.8095577720483359,899.308668866696
3773.9824,0.8088047101009808,842.3799649055741
3774.8528,0.8082660644413955,861.4634151483892
3775.721,0.8078975079168774,966.2689346674495
3776.5918,0.8076449789165803,1076.8039067277841
3777.4604,0.8075056902898518,827.4889002917885
3778.3315,0.8075831786837773,875.7534379612854
3779.201,0.8081050930135919,678.5639881953254
3780.0703,0.8093006913651409,916.2084274177892
3780.942,0.8111974062630676,723.9047401647356
3781.8118,0.8134870947972582,668.2678571647292
3782.6838,0.815658523117486,904.418516610665
3783.554,0.8172075087676326,763.606876389216
3784.4265,0.8178804333628557,749.793059986481
3785.297,0.8176865144838584,754.6234950841766
3786.168,0.8168003548811497,748.1714042719159
3787.041,0.8154173360548185,942.4902990206193
3787.912,0.8137397242090768,778.8461280822553
3788.7856,0.8119985659898139,860.5577473440812
3789.6572,0.8104841101892558,781.5294335266531
3790.531,0.8094049610681386,851.2756218973643
3791.403,0.808770476245729,880.3724677405725
3792.2754,0.8083233173360835,863.3924228739169
3793.15,0.807682747942698,931.2219843179486
3794.0225,0.8066042676606452,783.5701547984274
3794.8972,0.8051227914302186,827.5211110355426
3795.7703,0.8034574035889485,810.2683666884801
3796.6455,0.8017215781567746,819.6063184836186
3797.519,0.7998322759319154,802.5988129257693
3798.3926,0.7976331872800762,794.0731430568937
3799.2686,0.7951660399559746,881.7408431933355
3800.1426,0.7928469091556409,889.7404521335526
3801.0188,0.791343013463464,988.5583593968705
3801.8933,0.7913216528993261,840.4890243111473
3802.77,0.7930892306694859,905.7812956560444
3803.6448,0.7963808666116527,859.6238256029728
3804.522,0.8004268252818848,756.8048670603164
3805.3972,0.8041714929672348,854.4968680667761
3806.2727,0.8067744367679605,751.2988666234546
3807.1504,0.8079569523033753,703.1479152051855
3808.0261,0.8080934328777954,835.3543472623439
3808.9043,0.807936146361186,877.213701808628
3809.7805,0.8081577120508474,793.0913018915867
3810.659,0.8090717033263042,972.5752149338728
3811.5356,0.8106127755129012,868.8997326461907
3812.4126,0.8124734427809568,842.9553654583833
3813.2917,0.8142316059607796,670.5619280893995
3814.169,0.8154767770133066,706.4445877327537
3815.0483,0.8160051802643024,894.0377450746809
3815.926,0.8158999174131508,823.2939583173252
3816.806,0.8154472286032135,731.5890431888963
3817.684,0.8148650829133605,1031.9177629317367
3818.5623,0.8140725252548415,908.0806219433306
3819.4429,0.8127299019097513,747.4205540736742
3820.3215,0.8105324440534648,859.1905059917138
3821.2024,0.8074274446281127,779.8246250166288
3822.0815,0.8036553026660569,976.2522812172624
3822.963,0.7995185739484983,739.0414198462138
3823.8423,0.7952833125246473,823.237200956839
3824.722,0.7910477995186012,917.8107184127241
3825.604,0.7867854522606629,813.2407291211841
3826.4841,0.7824434341343844,919.2926167720868
3827.3665,0.7779514728881326,871.1072032987549
3828.2468,0.7733565813325489,1017.0170216943018
3829.1296,0.7687474550119231,877.13235847232
3830.0105,0.7643137566002056,1000.5072349244333
3830.8916,0.760153541998866,1092.5751536165471
3831.7751,0.7560635419565569,855.346714308783
3832.6565,0.7511345333315269,1023.8036376484819
3833.5403,0.7429215107538804,970.2198003515939
3834.4224,0.7265946004263099,988.6120850643035
3835.3064,0.6946460762447502,1191.0997267390828
3836.1887,0.6402832422796294,1171.2694071479286
3837.0713,0.5642652459048836,668.4003640601493
3837.956,0.4821112471124203,1110.6696478377405
3838.839,0.4228852104075426,984.685984008964
3839.7244,0.4130456154487322,1027.092685709149
3840.6077,0.45890627729763095,959.5862782216338
3841.4932,0.5417444497116966,862.6078264013532
3842.377,0.6305587037842595,1010.5593642047552
3843.261,0.7018879857100414,885.4002702719152
3844.1472,0.7479826873285385,904.6857335159757
3845.0315,0.7729500390027929,899.1897982170652
3845.9182,0.7851514682278843,935.1751913857861
3846.803,0.7911242866091275,749.347434550645
3847.69,0.794590963426341,923.16298593001
3848.5752,0.7971179494762763,884.8126253904235
3849.4604,0.7992081361291488,894.8138485094144
3850.3481,0.8008969343065305,735.2111338068106
3851.234,0.8021275068269104,759.1605912842583
3852.122,0.8030271151077606,751.184348374768
3853.0083,0.8038941728475034,747.6150195188231
3853.8967,0.8049969290154776,765.3212706782733
3854.7832,0.8063432460070662,796.2280150721824
3855.6702,0.8077347110127251,829.2058169956374
3856.559,0.8089869499494734,779.1026293850136
3857.4463,0.8100761535785768,801.0737152642791
3858.336,0.8110635185053766,883.3135809264103
3859.2234,0.8118534188198816,814.5157383319738
3860.1135,0.8121178975917209,805.1636538746045
3861.0015,0.8114387044340609,766.5882760331746
3861.8896,0.8096157593834463,738.6375480150273
3862.7803,0.8068805854961615,930.7352270536637
3863.6687,0.8039067854503648,777.878004573773
3864.5598,0.8014500083800774,875.6145211392442
3865.4487,0.7999670692116925,824.0568356021126
3866.34,0.7992989822884915,999.1772982140164
3867.2297,0.7988010189470759,843.791950834359
3868.1213,0.7976854999995201,912.938561626727
3869.0112,0.7953755453361385,747.7606939746813
3869.9014,0.7916234450044041,910.4750104417445
3870.7937,0.78647726069045,950.0605004734352
3871.684,0.780264682474947,887.3774809354296
3872.577,0.7734517606381897,739.0687384246733
3873.4678,0.7666878247583183,784.8718041208924
3874.361,0.7605213285508512,981.9871862140794
3875.2524,0.7552911909340124,1009.8859471497377
3876.1438,0.7508619085250517,967.6208136309697
3877.0376,0.7467704021865826,928.3068745875312
3877.9297,0.7425703355092337,949.4643523950076
3878.8237,0.7380429667110595,842.282466077687
3879.716,0.7332785548942813,1061.1821800757039
3880.6108,0.728387325734354,1077.1739125094261
3881.5037,0.7233892867947599,1012.6311655341126
3882.3965,0.718112567597567,1112.0058165440305
3883.2917,0.7123450573248931,989.3374471129395
3884.185,0.706024448005984,1012.4787189352907
3885.0808,0.6991958015827917,1096.034868947199
3885.9746,0.6921107717888768,1174.4756779345087
3886.8706,0.6850532016490528,932.5902288155083
3887.765,0.6784497698819153,1202.962334518632
3888.6592,0.6727519379515986,1214.5027684851175
3889.556,0.668457416817097,1261.1706712700263
3890.4507,0.6660984382467862,1407.3141768426674
3891.348,0.6661142229937259,1073.4063857343958
3892.243,0.6687725768065694,1206.4963617256399
3893.1406,0.6740196418364546,1045.0923719232428
3894.0361,0.6813401551605773,1246.8996024282799
3894.932,0.6899628488219853,1248.5570013936576
3895.83,0.6991185684242822,950.2264137807159
3896.7263,0.7081813602519433,1135.4045595538068
3897.625,0.7167955970536785,1204.8395784655816
3898.5215,0.7245653904242293,1153.6336247245674
3899.4207,0.7312930110607457,845.8105734939768
3900.3176,0.7370596538303047,1204.4571453443264
3901.2148,0.7424097850424807,991.7790376062783
3902.1145,0.7479734064136219,1287.3530416536983
3903.0122,0.7540493517545123,1002.6166868148495
3903.912,0.7606179573648771,1174.1181449145865
3904.8103,0.7674366879126653,921.6383083664185
3905.7107,0.7743871594836536,774.7761130461181
3906.6094,0.781450306515188,867.2591712569492
3907.508,0.7887626443706222,893.9832870763702
3908.409,0.7964237135709603,840.9875945448618
3909.308,0.8042240133861585,758.91286919627
3910.2097,0.8116745642599474,775.0958375460997
3911.1091,0.8181081103165442,691.8329097497048
3912.011,0.8232962787726479,875.0675913439409
3912.9111,0.827577810919972,851.1012777988034
3913.8113,0.8316404462344945,894.8044776276821
3914.7136,0.8358391919150372,782.1509255513574
3915.6143,0.8398324756487612,757.7492517966538
3916.517,0.8429876715173754,807.9984392194986
3917.4182,0.8449840381858345,912.0218530168556
3918.3215,0.8461463147663211,779.3488083070602
3919.223,0.847054498652027,825.6749295491585
3920.1245,0.8480457293990813,728.3488257618287
3921.0286,0.8490877600367405,660.2812420424274
3921.9307,0.8500746563637651,748.9711958609432
3922.835,0.8511014547788783,728.2414131694468
3923.7373,0.8523223129934996,760.4031286571148
3924.642,0.8536563492646114,660.6440031361767
3925.5452,0.8546888134152658,663.007173106519
3926.448,0.8549778207419321,681.3308668573472
3927.3535,0.8543787944606724,837.249386681298
3928.257,0.8531107108401491,675.3190873225886
3929.1628,0.8515178819949912,714.384145865561
3930.0667,0.8498363218149916,762.0923773092208
3930.9731,0.8480808682030271,726.4921516861006
3931.8774,0.8461432909075614,806.0294253329573
3932.782,0.8438609514573848,747.8231070885356
3933.6887,0.8411051855910515,821.9748115701688
3934.5938,0.8378631286285326,779.0901229827884
3935.501,0.8342504838371667,774.2090792731934
3936.4062,0.8305909645195545,840.2842000756644
