wavl,flux,ivar
3566.9744,0.2806407458699379,1416.2287549583345
3567.795,0.2782931415175394,2617.1040878528515
3568.6177,0.2759159882383483,5772.818627314279
3569.4385,0.27461802678690106,2148.0444711220275
3570.2617,0.27475196606373176,6528.335126177643
3571.083,0.2758249316685018,1427.1316711135996
3571.9065,0.2770580031216677,1610.0159597513652
3572.7283,0.27797451393247913,1964.463019844927
3573.55,0.2785516280913085,24658.618184627965
3574.374,0.2789200768041876,775.5882384260726
3575.1963,0.279016921603765,2054.0330926755814
3576.0208,0.27850451873942017,2658.62852031687
3576.8435,0.2770499226287366,2235.2005250220523
3577.6682,0.2747547012995195,8525.523452264055
3578.4915,0.27236382276096716,1640.0734063966302
3579.3145,0.2708942906888015,1335.808586119098
3580.14,0.2710176343358695,3723.3422090399954
3580.9636,0.27267552824945046,1604.0997177398629
3581.7893,0.2752471818486788,3005.718054619392
3582.6133,0.2779743817060083,1823.5274375009783
3583.4395,0.28031107426593815,1883.800174034998
3584.264,0.2819544437097582,1578.7349169939143
3585.0884,0.2828772021689586,1198.4946638478646
3585.915,0.28324263904974833,1114.115112828484
3586.74,0.28320016284004007,6083.7274672678
3587.5671,0.28265763898795904,1984.7140443934327
3588.3923,0.28134472153766465,2271.4493202952026
3589.22,0.27920077989074715,1217.5690700764646
3590.0457,0.2767263639990506,5301.656963528198
3590.8716,0.2747613064092613,2313.211045359566
3591.6995,0.2739174846281989,3616.335148888956
3592.526,0.27414617549071996,1621.218891021241
3593.3542,0.27487360458698645,1886.59273064127
3594.181,0.2755858960013004,1584.1066932714357
3595.0098,0.2763019533697065,1787.2620789067876
3595.8367,0.27745600687801586,1546.279731373323
3596.6638,0.2793364364547886,2278.5257758414446
3597.4934,0.28161831486968536,1133.0520994310732
3598.3208,0.283455180650303,1566.1721441984635
3599.1506,0.2841158732962463,1976.619357094157
3599.9788,0.2834571426250157,1647.8570205306228
3600.8088,0.2819200559388167,1922.3008824352482
3601.6372,0.2800882122343888,1861.6600285778763
3602.4678,0.2782665605268355,5648.91838888276
3603.2964,0.2765426440783632,888.7388109715848
3604.1252,0.2751211070182295,2047.2014278107542
3604.9565,0.27455689115653936,3491.9901250941225
3605.786,0.27545647492467423,3411.7650543477866
3606.6172,0.27787801718834537,3200.587030149633
3607.447,0.2810422199404814,5065.153438612908
3608.2788,0.2837552591570467,2265.960389087164
3609.109,0.2851141201633488,8898.160939079116
3609.9392,0.28501581184394353,2597.3725724115097
3610.7717,0.2840024328504331,2598.5641612748022
3611.6023,0.2827841514825794,1093.3736361471863
3612.435,0.2817884324432343,3815.823481419698
3613.266,0.2810733108312573,1783.3798347445909
3614.0994,0.28048379769034193,1335.2046722803098
3614.9307,0.2798969626133644,1208.7139808116342
3615.7625,0.27928146274885735,2222.609719544792
3616.5962,0.27858180119579845,2230.629431460498
3617.4282,0.27759826864812837,1032.8313355166797
3618.2625,0.2760475536612748,1333.0642350752762
3619.0947,0.27381314794585226,1469.7111421000259
3619.9292,0.2710629336694336,1783.7167074520266
3620.762,0.26822952567435737,2960.4717707149457
3621.595,0.26577675059325384,2118.6539296488736
3622.4302,0.26404609689843045,3084.846904413371
3623.2634,0.2631715991249396,1471.7893802416977
3624.0989,0.2630557832536923,2354.914617311625
3624.9326,0.2634750649392649,3103.159163258426
3625.7686,0.264201611639786,3373.8646576207893
3626.6028,0.26510774150287675,2590.984725952574
3627.437,0.26625694888351825,2003.1726049815638
3628.2734,0.2679429745751636,3116.9817753961047
3629.1082,0.270555693419206,2870.9189551485747
3629.945,0.274255896100437,1461.3273245044245
3630.78,0.2785545351241051,2255.5838604598566
3631.6174,0.2824427821315557,1329.485276223341
3632.453,0.2849239635987581,1099.8053495537256
3633.2883,0.2857766810857226,3477.5822952243097
3634.1262,0.28565683673412834,1781.7770061313856
3634.9622,0.2855800659934102,3307.254243364748
3635.8005,0.28617610748456734,127474.72237371371
3636.637,0.28731730192096205,1085.3473963549893
3637.4756,0.28834618555006153,1440.2858405067395
3638.3123,0.28859663868616675,974.9978697251782
3639.1492,0.287836470975203,672.9772704721754
3639.9885,0.286282843981333,2549.561920801969
3640.826,0.2843146916231883,1963.351389284115
3641.6653,0.2821297306457696,2828.000829610441
3642.5032,0.2797931594674071,1961.2316027780398
3643.343,0.27749946711651746,2181.5694874657206
3644.1812,0.2757837679332208,3984.4281037236947
3645.0195,0.2752309327552002,2260.808851070142
3645.86,0.2759823426834211,1090.9249879805418
3646.699,0.27745383440585586,1985.560144235172
3647.5398,0.27869804538814164,2076.1028607827184
3648.379,0.2791451012981598,985.6329624493432
3649.2202,0.2791087559904751,2395.359319065553
3650.0596,0.2794774660702555,2347.3778274689307
3650.8994,0.28085249762363734,1831.1348903110993
3651.7412,0.28292360078971784,1239.834609843239
3652.5813,0.28461478447193483,1424.8998782213139
3653.4236,0.2848639916995872,1850.9056641134393
3654.2642,0.2832843820547963,1702.7203088733079
3655.1067,0.2803401609830184,1171.2987603157355
3655.9475,0.2770594691519467,1579.5335933707456
3656.7886,0.2744720471473679,1258.467743376749
3657.6318,0.2731924130044961,2200.164395487581
3658.4734,0.2732802862939502,1351.620184472644
3659.317,0.2744246076162059,1188.5723373575483
3660.1587,0.27628547021103095,1814.7258922462815
3661.003,0.27868914062861855,2151.3339774735323
3661.845,0.28147417113990203,1447.1615708589181
3662.6875,0.2842885118973773,1558.2778363668324
3663.532,0.28648602325769545,2859.314524057828
3664.3748,0.2873333619035475,1320.439343890602
3665.2197,0.2863802116175078,1457.4019816917507
3666.063,0.28367247274735996,1004.8471922348756
3666.9084,0.27973365470138745,4114.774964274642
3667.752,0.2754520682818402,1096.4875658838598
3668.5977,0.27178613791948236,2014.9583685682928
3669.4417,0.2695763780334177,2541.954431590861
3670.286,0.2692384496362165,2124.973204331599
3671.132,0.2706762696336562,1379.9852278319306
3671.9768,0.2733085104187852,1683.3381677746193
3672.8235,0.2762966619418145,1524.3042679829684
3673.6685,0.27878943240720805,1625.6534552834207
3674.5156,0.28024674937982924,1698.9913938456798
3675.3608,0.28056610526225373,1529.1089429728825
3676.2063,0.280055625741608,2343.352467670798
3677.0542,0.27916568457402174,1781.903318310639
3677.9,0.2782292281430633,1976.251560156821
3678.748,0.2773140765566403,1981.2714400419407
3679.5945,0.2763388191314581,1059.5803822294042
3680.4429,0.27532269931113157,1379.7926802730817
3681.2896,0.27460957323343654,1127.4414610851472
3682.1365,0.2747102326221887,1277.0072664499612
3682.9856,0.2758262426652305,1684.7825436989344
3683.8328,0.2774259722857077,1540.2921589308319
3684.6824,0.27840597606597106,2176.3777929240478
3685.53,0.277725516209103,1452.7739335079061
3686.38,0.2750617848879281,1563.5818721423059
3687.2278,0.27099347874802215,6083.4999413465375
3688.0762,0.2666342505230294,4103.25817904905
3688.9265,0.2631530258573809,1489.1105782820698
3689.7751,0.2614087175400224,2948.6360762995637
3690.626,0.2617298597905799,1784.791445836918
3691.475,0.26391618898713004,986.5587034583679
3692.3264,0.26734623465925195,2010.4043732524792
3693.1758,0.2711874899290798,1495.546894607124
3694.0254,0.2747503950978958,1180.1998693182206
3694.8772,0.2776488734936168,2451.9525964277473
3695.7273,0.27977919086207675,1158.0652303292
3696.5793,0.28125182112677133,4457.494586388364
3697.43,0.282222196360332,1557.2571083108267
3698.2825,0.28275901664672803,2211.714384258462
3699.1333,0.2826990345310403,1478.2240997204249
3699.9841,0.28174158994315357,1190.3158777573358
3700.8374,0.27978071015845213,2039.744716659553
3701.6887,0.27724101696646597,1710.2563747493261
3702.5425,0.2749407993115141,3094.0563284176615
3703.3943,0.27363769597394066,2396.552219276925
3704.2483,0.27352567008293527,1579.6232425069793
3705.1003,0.2741930484064019,2212.9613590851804
3705.9526,0.27491206265067014,1905.078502486588
3706.8074,0.27503726620075336,1864.2989619956127
3707.66,0.2743135860583432,2053.623089692256
3708.515,0.2729995709463393,2149.363693389271
3709.3682,0.27173509937049023,2056.278952117026
3710.2234,0.2711074050573083,2766.9935273360757
3711.0771,0.2711979456690521,2277.2371446156726
3711.9307,0.27141215901805016,1649.0222885260737
3712.7866,0.27084104348888255,11584.801119208867
3713.6409,0.26893618416856957,3120.2527124581075
3714.4973,0.2659636490576036,2420.5853630643214
3715.3518,0.26287793257304465,3852.8862504236063
3716.2085,0.2605881767342069,1882.1051282723715
3717.0635,0.2594067121927223,2116.5727771075235
3717.9185,0.2590204339958228,1399.179506422438
3718.776,0.2590235262269009,1514.403039537718
3719.6313,0.2593244327347711,2950.149764238513
3720.489,0.2601118665925547,1792.726141509675
3721.345,0.26155310988971886,3351.5503806288643
3722.2031,0.2636053922380418,2723.47880207529
3723.0593,0.26597755529095907,2870.9789221513047
3723.9158,0.268281624428476,2269.6731161168927
3724.7747,0.2702159235645096,2080.9081862176113
3725.6316,0.2717180969562404,3310.545653615982
3726.4905,0.27294953410130496,3084.8646262405928
3727.348,0.27398869507988716,2543.421656667266
3728.2073,0.27460718644041215,1755.4223569977783
3729.065,0.2743238068590591,1932.5934411453354
3729.9229,0.27280795499655064,1884.029463658375
3730.783,0.270294436384372,1204.3302695324178
3731.6414,0.2676910290620656,2119.9932991187893
3732.5017,0.26610118356916995,3204.237349403536
3733.3604,0.26616563864053316,2421.070819937934
3734.2214,0.26763107428837457,1860.8620900688268
3735.0803,0.26952455360026006,3702.23784460581
3735.9417,0.27077805436861707,2838.716813881876
3736.8013,0.2708196614158085,3523.2649828394797
3737.661,0.26990410865551867,1716.7784669326286
3738.5227,0.26892330027218075,2189.6364754828655
3739.3828,0.2688033057143712,3479.8843507778693
3740.245,0.26976870535963804,1333.555356861816
3741.1055,0.27104913684813225,1663.0229254227386
3741.9683,0.2713464809036055,2960.6508662300066
3742.829,0.2697754487795841,1511.328674705836
3743.69,0.26662972958941766,2026.415345250522
3744.5532,0.2632925912779736,3141.0679863483388
3745.4148,0.2613641379014554,1807.2529694707355
3746.2786,0.26154310549053555,2496.4838382457237
3747.1404,0.263294970748379,2125.3859369076977
3748.0044,0.2654374814065334,1710.1600892915358
3748.8667,0.26705764961604306,2226.5374380846265
3749.729,0.26801925792384457,1651.2777606137292
3750.5938,0.2686978056717015,1790.8588666828969
3751.4565,0.2694321811783334,1967.4131149564503
3752.3215,0.27025204845293727,1224.0421856914386
3753.1848,0.27097111570722554,2133.3007192128935
3754.0503,0.27142299321285196,1705.394135099436
3754.9138,0.2715578772147535,1678.3178002922507
3755.7776,0.27145876467593116,1871.4421643129187
3756.6438,0.2712899776466274,1736.9846735918259
3757.508,0.2711758874467271,2582.169925804011
3758.3745,0.2710722568720327,1060.271308876352
3759.239,0.2708324031363968,2075.7003959471176
3760.106,0.27046109717559386,1951.9605217765939
3760.971,0.27027551554359547,1710.1385141642327
3761.8362,0.2706976051614513,2404.802505650966
3762.7036,0.27183402859658684,1529.3958665392345
3763.5693,0.27320950763100504,1608.012615485088
3764.437,0.27396635087126714,1768.3891176135937
3765.3032,0.2733558935577676,2026.6962641077741
3766.1714,0.2712037361564176,2609.231289978428
3767.0378,0.26800422946821784,3510.711101189062
3767.9043,0.2645734520516046,1988.4144072416377
3768.7732,0.2616435355720256,2044.9247908203756
3769.6401,0.2597105308431821,1988.9591814342502
3770.5095,0.2590426281881334,2416.550899780564
3771.377,0.25974832191030245,5343.478065133035
3772.2466,0.2616468611030097,1982.9448313058301
3773.1145,0.26417066915901144,1918.262550598265
3773.9824,0.26653097024910777,2566.01003321402
3774.8528,0.2680446367991739,2215.385793231106
3775.721,0.26845171295157677,2502.522353956946
3776.5918,0.2680781871878152,1643.216347680439
3777.4604,0.26766328053421684,4208.860400077715
3778.3315,0.26791313248133425,2580.8860626925543
3779.201,0.2690298378218924,2474.9500521689533
3780.0703,0.27060172149226497,3036.42756338117
3780.942,0.2719814026912624,1458.581309819338
3781.8118,0.272793305130452,1591.4107730128344
3782.6838,0.27316907609588265,2281.9833914891237
3783.554,0.27352504577467995,2899.204721157019
3784.4265,0.2741986995047165,2713.409288689723
3785.297,0.2751692891534848,2668.503595627334
3786.168,0.2760016182552313,3143.2838669786984
3787.041,0.27598943989832087,1231.5508659935035
3787.912,0.27452668581566425,2331.504074131822
3788.7856,0.27153090008800024,1546.444485290987
3789.6572,0.2676690132703141,1982.4226866646686
3790.531,0.26406767642512174,4109.072497009168
3791.403,0.26181416299815374,2526.8065464007814
3792.2754,0.2613432133354595,2676.23042473883
3793.15,0.2622202403203476,1770.1665270289548
3794.0225,0.2632925775980446,2819.534492708586
3794.8972,0.26323676215836866,1906.9177759910442
3795.7703,0.26122290400937215,2515.948243127602
3796.6455,0.2573815261231914,1572.9723905887427
3797.519,0.2528244211883896,2434.822211686674
3798.3926,0.2490606229265776,3769.3023485688
3799.2686,0.24729349834520975,2019.6699545746715
3800.1426,0.2479527939252362,2519.563876964503
3801.0188,0.2506705609981497,1932.996768906915
3801.8933,0.254613746572418,3015.7506098464373
3802.77,0.25889880759714595,2833.73081214601
3803.6448,0.26277314472480234,1182.4065305968188
3804.522,0.26582497468889293,3327.7485592162975
3805.3972,0.26800194732902777,2142.66305502036
3806.2727,0.2696790871241008,1663.1469835989146
3807.1504,0.27144745976656215,1983.3601973187408
3808.0261,0.27370735067520785,3646.9195437808557
3808.9043,0.27632917694811543,3061.9712569545823
3809.7805,0.2786623992462432,1353.5597322640833
3810.659,0.2801307144527539,1504.9192468153403
3811.5356,0.2807679090736852,2409.061151341824
3812.4126,0.2812660377046415,1496.0807156823082
3813.2917,0.2823936819006504,1798.7676127280056
3814.169,0.28436429179761397,1716.924251484063
3815.0483,0.28671797253221604,1488.4509385164924
3815.926,0.28866276921841266,2700.433474241491
3816.806,0.2896113560793961,2428.7546847796007
3817.684,0.2894246871127037,1460.6849509779263
3818.5623,0.28836825801461824,2221.6263166307417
3819.4429,0.2868006057986293,1388.5211964520965
3820.3215,0.2848923574441832,1871.6280966449417
3821.2024,0.28252095044844605,1340.1036857672664
3822.0815,0.27949892086463973,1382.2061556462445
3822.963,0.2758004815086843,1606.0538665666247
3823.8423,0.2717493750560786,1717.2237237342406
3824.722,0.2678674891012376,1967.3319843379036
3825.604,0.264620547858721,2188.3465798224083
3826.4841,0.26212370762912385,2500.5447497939335
3827.3665,0.25996815763126957,1530.9408120810938
3828.2468,0.2574580739931095,1674.6621030825759
3829.1296,0.25389314356581805,2254.2436144263233
3830.0105,0.2488791343417867,2754.9040024661545
3830.8916,0.2424052254213066,2394.7953155826176
3831.7751,0.2349513406882002,2101.0305557706797
3832.6565,0.22757723791433812,3966.3078543905845
3833.5403,0.22156927738468407,2852.5760105393947
3834.4224,0.21809767179593134,2087.037455195448
3835.3064,0.2175920702804836,3157.608018693698
3836.1887,0.21957817145196457,3473.464404621708
3837.0713,0.22291301173028974,5238.184688103459
3837.956,0.22642343910397972,4974.21034200157
3838.839,0.2295061930234363,4429.862714908787
3839.7244,0.23240855711847302,6112.5743294593085
3840.6077,0.2358119393699742,2305.634246965299
3841.4932,0.24023465793481252,3189.34262579115
3842.377,0.2455699997567995,2273.279426688079
3843.261,0.2513186887802995,2002.0715759882496
3844.1472,0.25704000339348304,2408.3781174892692
3845.0315,0.2625931472403082,2141.308165096639
3845.9182,0.2681203803484558,2402.40896814151
3846.803,0.2736534165449302,1516.0622970526151
3847.69,0.2790809007705326,2187.9122977876173
3848.5752,0.284123437427973,1411.4064266772345
3849.4604,0.28856309017463005,1662.6659243015108
3850.3481,0.29227163497522773,1491.1671630225112
3851.234,0.2951906132371498,2783.117908325492
3852.122,0.29745541354460775,1400.1750014253018
3853.0083,0.29943903942689226,1544.7700143958286
3853.8967,0.30173633508025827,1353.9320057869375
3854.7832,0.3047597319672627,1344.7752389153316
3855.6702,0.3083489068441733,1662.19429065786
3856.559,0.31167569087706726,1823.7191826376225
3857.4463,0.31367360622451584,1548.5847604553815
3858.336,0.3137625057987592,1113.5094859908618
3859.2234,0.3122331662656008,1520.3259245729619
3860.1135,0.310070517986757,1294.545524127494
3861.0015,0.30833154000463775,1982.506484809494
3861.8896,0.307472097140216,1184.909944154722
3862.7803,0.30720931862991213,2107.035607018597
3863.6687,0.30689344824159936,1392.7160775736963
3864.5598,0.306023847299575,1624.274474701716
3865.4487,0.3044737910350836,1106.194916160062
3866.34,0.30232287574888783,1178.523741918165
3867.2297,0.2996981022185581,2743.2280944254144
3868.1213,0.2967320048009027,1697.0994189461264
3869.0112,0.29367834824427186,1253.2590345520193
3869.9014,0.2908183007568246,2219.6285007135248
3870.7937,0.288309940231615,1184.3961491995192
3871.684,0.28609427958864314,1848.3362779173042
3872.577,0.28390548401948884,1600.130635864124
3873.4678,0.2814543151144946,1648.750061485256
3874.361,0.2785047286549677,1732.7770875735282
3875.2524,0.2750113150157516,2915.9590981227243
3876.1438,0.27111499918000814,1751.273771864211
3877.0376,0.2671031138054812,1895.4559887485882
3877.9297,0.2632725789407329,2373.2887771133705
3878.8237,0.25966719890850126,2816.36673775795
3879.716,0.2560597714051462,3003.865647335611
3880.6108,0.25199617758493814,1445.8256278032482
3881.5037,0.24711742282497337,1678.3052161085775
3882.3965,0.2413267305121174,1798.9024842778003
3883.2917,0.23484069800775054,2783.911577123271
3884.185,0.22807306323449916,3140.860517194886
3885.0808,0.22132448981111627,3025.214008253089
3885.9746,0.2148755754275798,4324.156296601727
3886.8706,0.2089539345542889,2870.5564946931186
3887.765,0.20394033007987147,2886.1556623685083
3888.6592,0.2002846901435301,4118.714105350564
3889.556,0.19846822766876718,2574.8031487915587
3890.4507,0.198815063352824,3844.252071150692
3891.348,0.20126676272833172,3048.5140050431987
3892.243,0.20535497169946854,3874.798947916673
3893.1406,0.21046651808721434,2712.3258644223306
3894.0361,0.21601324015891019,5247.950869720311
3894.932,0.22160990374931644,2887.0338739644462
3895.83,0.22699235738050502,3912.9272102850737
3896.7263,0.2319533410262551,2462.2508371849494
3897.625,0.23645728500454416,5198.501264329161
3898.5215,0.24056810345640633,1748.6414942927877
3899.4207,0.2445566875291502,1733.9431373920515
3900.3176,0.2488089835305326,2128.0013509162486
3901.2148,0.2538218090110208,2674.923524448265
3902.1145,0.2599661787393483,2679.5998555978776
3903.0122,0.2671946595419093,1927.2544295181008
3903.912,0.2750848588602799,1580.4106389232638
3904.8103,0.2829176684751784,2433.7974436565955
3905.7107,0.29014436507207086,1223.604022214583
3906.6094,0.29646325300547866,2733.305431372602
3907.508,0.3018753816828569,1724.1556572566658
3908.409,0.306420099213326,1342.3044043708828
3909.308,0.3100196016074492,1064.320168786027
3910.2097,0.3126531055001247,1866.3573393281313
3911.1091,0.3145392244471664,987.8001697714119
3912.011,0.3162959311546899,1671.8863816697085
3912.9111,0.318668302072373,3211.627479596229
3913.8113,0.3221233274003207,1965.5997606775002
3914.7136,0.3265597193481584,1439.988670160845
3915.6143,0.3313533642361416,1372.0310048080364
3916.517,0.3357965022122596,836.3441920921903
3917.4182,0.33939802437913924,1394.45183240571
3918.3215,0.34211691689840545,1135.4162317680232
3919.223,0.3441951591092318,1118.1839642915725
3920.1245,0.3459277020079868,1129.6104697270548
3921.0286,0.347371008137825,1681.072966344266
3921.9307,0.3482722885871177,1061.8101902204844
3922.835,0.34831420389955936,1393.8637581826715
3923.7373,0.34746783131393116,1589.7827714299278
3924.642,0.34618473249745985,1765.7119815761223
3925.5452,0.3452112874943055,1279.990740163556
3926.448,0.34509493140172076,1177.244114876787
3927.3535,0.3457955045920072,1318.7639535722585
