wavl,flux,ivar
3566.9744,1.5522120164942201,416.51106504794456
3567.795,1.5443590311024697,422.6544306104306
3568.6177,1.5379762446116,439.4592754037047
3569.4385,1.5338422321983596,395.07437208001295
3570.2617,1.53144747612873,405.184447819004
3571.083,1.529891209403018,480.6928713646654
3571.9065,1.5287950513524653,420.9880538271615
3572.7283,1.528613999741284,458.3356132107871
3573.55,1.53005931332625,433.6987735785569
3574.374,1.5334190158617527,394.55776019052837
3575.1963,1.5383243130782156,421.1532107196767
3576.0208,1.544106698311275,402.91577746597693
3576.8435,1.5500687837125187,423.40927565691743
3577.6682,1.5557659544706026,355.61588914922953
3578.4915,1.5609686111180456,386.41605205826045
3579.3145,1.5657259982615435,391.02234770002826
3580.14,1.5701492794212024,479.14939683450683
3580.9636,1.574028675776609,328.98375668450126
3581.7893,1.576693349881152,406.9887504237562
3582.6133,1.5771493286743485,344.3531803268543
3583.4395,1.574670896415878,360.2616207907526
3584.264,1.5692865980892474,397.7502122981492
3585.0884,1.5618083513929526,431.5857725242056
3585.915,1.5534501727899288,381.7863255078032
3586.74,1.5454021759065149,342.78618885218447
3587.5671,1.5383286736457171,392.7526706074264
3588.3923,1.5324465081796979,458.8958809295338
3589.22,1.5276227566879974,385.0729092736077
3590.0457,1.5238473478477694,411.76945943850524
3590.8716,1.5212644626787066,408.4981280228248
3591.6995,1.519965686254785,425.80280247511035
3592.526,1.5195719660163363,531.4443773202264
3593.3542,1.5191096920070422,363.0611583395926
3594.181,1.5174424523987131,407.84228789448224
3595.0098,1.5139340302140936,427.586735301573
3595.8367,1.5089189119583633,431.08922052698966
3596.6638,1.5034816567816773,423.9324612486039
3597.4934,1.498855300881136,465.51050223260376
3598.3208,1.4958658805621454,524.705075678315
3599.1506,1.4946683256936253,403.73809939498426
3599.9788,1.4950064471563977,429.36899478850734
3600.8088,1.496440185929187,397.8602891864498
3601.6372,1.4984511665805864,432.8747974659757
3602.4678,1.5004549573471702,400.3738278914136
3603.2964,1.5018339490959074,459.814441609626
3604.1252,1.5022005491930146,365.7437100658868
3604.9565,1.5016133231296045,540.8384974095807
3605.786,1.500595210054809,474.9577012844785
3606.6172,1.499809013012636,414.4643549139267
3607.447,1.4996831347018895,462.60620954848633
3608.2788,1.5002644038879054,411.52695347201336
3609.109,1.501366026548799,414.133350733696
3609.9392,1.5027413294478524,462.3814283768933
3610.7717,1.504073206362583,393.4371761271675
3611.6023,1.5049114365102971,444.22248232703413
3612.435,1.5048291034048644,373.8113348196828
3613.266,1.5036554253246022,419.83842575582037
3614.0994,1.5015238432939133,449.20397322143515
3614.9307,1.4986910018691777,429.37135021381954
3615.7625,1.4953460908377092,540.7262031279838
3616.5962,1.4917088366273046,476.5550260045508
3617.4282,1.488159580071292,449.1814040914576
3618.2625,1.48504024861493,452.769035756636
3619.0947,1.4824509303103766,408.04797673081714
3619.9292,1.480186821928422,436.82011712627906
3620.762,1.4781104531909064,408.8924552148087
3621.595,1.4763486054783779,466.5798246664876
3622.4302,1.475120471580646,485.8680277653682
3623.2634,1.4743124591308867,433.3058376308756
3624.0989,1.473311463016763,426.03606450525643
3624.9326,1.4713630263280375,475.4951937282516
3625.7686,1.4680488331158876,420.4428176990137
3626.6028,1.4636037144712406,404.34140331363875
3627.437,1.4588173333290597,410.33194777138374
3628.2734,1.4547684672239298,448.99924130909886
3629.1082,1.452427723386141,504.29329979256187
3629.945,1.452145907732259,380.64456032723893
3630.78,1.4534495811761932,412.70468883196884
3631.6174,1.4551626123353525,481.34377911412986
3632.453,1.4558466672724952,399.4870432033486
3633.2883,1.4544547313628928,458.97713632769035
3634.1262,1.4508518748906143,444.2912717115396
3634.9622,1.4459897162467352,483.2181286497241
3635.8005,1.4412985791687003,504.9114074873187
3636.637,1.4378912961241872,494.5655882697192
3637.4756,1.43595822040274,421.1424124183727
3638.3123,1.4350142478302939,475.56187134518376
3639.1492,1.4343949283938893,440.46751869637296
3639.9885,1.4336472701497385,446.220543702081
3640.826,1.4326025248908214,509.51893072600535
3641.6653,1.4312819257433973,376.85199228716687
3642.5032,1.429798347061068,463.0559805105088
3643.343,1.4281988679739606,474.3799251411527
3644.1812,1.4264026224609279,481.70814484532923
3645.0195,1.4242126451696073,478.02366199947295
3645.86,1.4214321446657892,451.3377681695546
3646.699,1.4180037032004615,481.1671019807955
3647.5398,1.4140791554945713,503.65696137561406
3648.379,1.410120364540681,489.4692123192207
3649.2202,1.4066489945890148,483.9485443527643
3650.0596,1.4039925808051668,438.2505576561123
3650.8994,1.4021199283395074,488.84598322057303
3651.7412,1.4009222186209513,412.67208917227816
3652.5813,1.4004511209640504,491.49802745273996
3653.4236,1.4007957201698713,469.6721903276997
3654.2642,1.4017539949034274,499.75175039688753
3655.1067,1.4026879327388468,457.4534285124564
3655.9475,1.4027290473822556,544.3446229290515
3656.7886,1.4011901835346392,510.13271178764666
3657.6318,1.3978350488042004,488.1594311180554
3658.4734,1.3929857310024902,434.96633051056097
3659.317,1.387384209722268,441.7126002242549
3660.1587,1.3821346025290546,501.67898423139457
3661.003,1.3783822746733916,475.52505671871785
3661.845,1.3770069251120218,502.45444260907385
3662.6875,1.3781834361599268,500.5949287354155
3663.532,1.3814611844763531,416.61037989397255
3664.3748,1.3861590739722685,443.08849060275753
3665.2197,1.3918022048943604,475.85756995414397
3666.063,1.397919664495644,511.9400871400666
3666.9084,1.4037694188325214,516.6146443424047
3667.752,1.4082224020258123,472.7865786700125
3668.5977,1.4103539185590346,513.1632653175737
3669.4417,1.4098258733020257,448.45134278222287
3670.286,1.406916680037063,511.10670561177244
3671.132,1.4021794363386968,464.5720162756153
3671.9768,1.3963374557715433,462.19443988683156
3672.8235,1.3902464385289761,503.5764267471916
3673.6685,1.3848928566864631,496.0984356721638
3674.5156,1.3809500404080433,458.04406657826854
3675.3608,1.3785286918838446,546.3335118213813
3676.2063,1.3771127586839123,466.5882791710958
3677.0542,1.3759784478358257,483.3935930898782
3677.9,1.3746068821041615,503.83511085235864
3678.748,1.3727460210648605,508.1999918935507
3679.5945,1.3702382003945663,549.3860909135717
3680.4429,1.3668855895481518,510.32767134640267
3681.2896,1.362705314813663,529.1392451455829
3682.1365,1.3581253649806637,555.145178336254
3682.9856,1.353915565143281,514.2384241323729
3683.8328,1.3508168500044497,485.2452927144718
3684.6824,1.3491042204934665,617.1170755854811
3685.53,1.348607128803802,549.2096623017956
3686.38,1.3489476005364347,505.46616517560216
3687.2278,1.3498945923998604,531.08005706922
3688.0762,1.3515151790940743,531.7607965980244
3688.9265,1.3540736597260927,565.9141988238787
3689.7751,1.3577566189061565,547.7759251144356
3690.626,1.362471779435496,577.645769186271
3691.475,1.3676743737763095,516.9921493144968
3692.3264,1.3725570476836235,452.388793700479
3693.1758,1.376247986098406,507.01575959382313
3694.0254,1.3782026830797933,435.3196252630185
3694.8772,1.3783258410859864,509.40099638566744
3695.7273,1.3769890194913446,548.4001255212692
3696.5793,1.374912861929205,546.1577436667453
3697.43,1.372987883283279,516.6885404338074
3698.2825,1.3719431245208893,571.6891683376022
3699.1333,1.3719985982738216,550.8658723610421
3699.9841,1.3726599174573313,475.23011160238224
3700.8374,1.372974683530507,504.0871311096697
3701.6887,1.3721167197646655,471.6139225176693
3702.5425,1.3699014361433846,513.7145035198992
3703.3943,1.366833612431332,516.898107777104
3704.2483,1.3635940985905115,535.5283036298458
3705.1003,1.3605254998251273,464.57650894873944
3705.9526,1.357417469919338,504.7387933255852
3706.8074,1.3539045654617892,498.4013664521463
3707.66,1.3500366530898513,535.5869785227206
3708.515,1.3463758651448414,488.4153933049896
3709.3682,1.3436803640166726,587.8220008859885
3710.2234,1.3422521676806731,492.6008006472764
3711.0771,1.341733754735601,477.1002797371494
3711.9307,1.3413443786263515,479.7116758940643
3712.7866,1.3403749925582218,571.4706047298387
3713.6409,1.3384959142037078,511.9049146793101
3714.4973,1.3357062912266093,558.8640011800891
3715.3518,1.3322132092523162,467.3986744072066
3716.2085,1.3283923769800348,487.8009314552944
3717.0635,1.3250579605675399,560.7408509309294
3717.9185,1.3234561849207578,568.0013424445098
3718.776,1.3248500825239036,666.9399323301355
3719.6313,1.3296511124013115,571.4114738289074
3720.489,1.3368809741513774,531.42526563228
3721.345,1.3443750051750334,486.3397356537596
3722.2031,1.349932717675113,475.95285334130426
3723.0593,1.3522719817199118,494.77133157652713
3723.9158,1.351497459857964,494.5888642423007
3724.7747,1.348584899150296,549.2987382230605
3725.6316,1.344660665015526,601.8937194005823
3726.4905,1.3404710250991356,486.16857711929765
3727.348,1.336498968232041,512.4819671756585
3728.2073,1.3331361789958975,553.2596266012116
3729.065,1.3306907061160804,500.30006240505713
3729.9229,1.3290373112033511,516.7380224314985
3730.783,1.3275951849911807,491.6946704131767
3731.6414,1.3257358323770894,540.637282928375
3732.5017,1.3232192193431198,565.5409547632769
3733.3604,1.3202806730758885,582.9090098393365
3734.2214,1.3172888568528147,570.3129682211688
3735.0803,1.3145378168419342,564.5860415221185
3735.9417,1.312149166187113,552.5569661569092
3736.8013,1.3101855612335285,587.2667774360309
3737.661,1.308608861430055,531.6440043859496
3738.5227,1.3072615435983155,588.2736330384399
3739.3828,1.305871564827491,518.277890553017
3740.245,1.3041103319597267,584.3532521612831
3741.1055,1.3018096142394624,526.0017435836909
3741.9683,1.2991503668699538,577.931384734128
3742.829,1.2967489323779506,599.9444972455896
3743.69,1.2953211917694432,637.292284209517
3744.5532,1.2952838754530311,500.74900592819097
3745.4148,1.2965382256817755,659.1777159757436
3746.2786,1.2985974131032818,585.7792887991707
3747.1404,1.300867820164837,619.81030002192
3748.0044,1.302992701136397,594.2138244556073
3748.8667,1.3050026646353239,519.4946132538731
3749.729,1.307236043951552,603.2074173359655
3750.5938,1.3098991342121646,524.3774623229076
3751.4565,1.3126475817421452,555.810327840616
3752.3215,1.314733032405134,632.588146713114
3753.1848,1.3155235115086623,462.5675488675202
3754.0503,1.315011674554778,553.2348357254284
3754.9138,1.313720667619597,481.0617424732787
3755.7776,1.3122177113698559,538.9611746369183
3756.6438,1.3107765146426502,533.2716096671436
3757.508,1.3094871939752641,514.4501851915707
3758.3745,1.3085193078575699,555.1961593260094
3759.239,1.3082029598508322,504.5083767262384
3760.106,1.3087374284674336,562.2159375983292
3760.971,1.309874870958059,617.2269502689783
3761.8362,1.3109154687915467,605.095065951376
3762.7036,1.3110765961968858,571.1279623067446
3763.5693,1.3099540300723562,608.687654518736
3764.437,1.3076684749669627,542.5094995940515
3765.3032,1.3046174196719984,563.4820701233485
3766.1714,1.3010906706596075,531.5370778675575
3767.0378,1.297240503286858,531.9838750435717
3767.9043,1.2932175294285606,634.1328454234431
3768.7732,1.289304208919991,574.2438805663431
3769.6401,1.2858125069769526,544.7996734535867
3770.5095,1.2828050255257128,589.1191713862298
3771.377,1.2801724289583294,607.3530763264556
3772.2466,1.2778153630098117,553.4838231744069
3773.1145,1.275900154972267,621.9311479046972
3773.9824,1.2747660150246947,560.9420010960018
3774.8528,1.274689744509957,561.2118393563413
3775.721,1.2756307399325424,603.0969300042889
3776.5918,1.2771851119810822,549.6565836675661
3777.4604,1.278776515256055,618.2927078329682
3778.3315,1.2800055692300172,567.92273480492
3779.201,1.2807902841336058,618.6222792881072
3780.0703,1.2813144483160468,538.8584797362636
3780.942,1.281868223414899,517.1698566627715
3781.8118,1.2827751241038141,517.6443629434763
3782.6838,1.2843351980987763,521.2795651168806
3783.554,1.2866318768575515,549.3654217633539
3784.4265,1.2894117648971701,532.8106109741286
3785.297,1.2921232589672904,598.6543168812246
3786.168,1.294248500374982,553.6234453962859
3787.041,1.2954648625964125,537.9758407350976
3787.912,1.2955747678835747,536.1922701252902
3788.7856,1.2943937080244088,532.2514969792508
3789.6572,1.291808802337792,583.2880900799727
3790.531,1.2879219388775318,543.353378635642
3791.403,1.2831555103009538,602.0817123740094
3792.2754,1.2781242001652189,527.0900424889912
3793.15,1.273542216481905,595.9969676408426
3794.0225,1.270089259981295,611.6656795583697
3794.8972,1.2681030209109523,640.2873455098774
3795.7703,1.2674612594583474,623.7028970460481
3796.6455,1.267571395901958,623.3877723995793
3797.519,1.2676148842873023,580.0343014676482
3798.3926,1.2668686929981612,542.4030309758276
3799.2686,1.2650196007332586,590.4492610954491
3800.1426,1.2623661280844727,648.4295379141654
3801.0188,1.2596425628562145,651.0982996072548
3801.8933,1.2575932960632759,636.8991635582133
3802.77,1.2564613923839574,563.440987091704
3803.6448,1.2559658291567104,672.2060962130355
3804.522,1.2556890058797032,548.5876953331842
3805.3972,1.2555504092168916,768.1059498675536
3806.2727,1.2558297842184782,640.6107144862058
3807.1504,1.2567878005797835,601.8583831296477
3808.0261,1.258322842249709,567.1072993843169
3808.9043,1.2600638135586362,545.831822836987
3809.7805,1.2616613268949144,608.8739098367577
3810.659,1.263008606656808,550.2952881676408
3811.5356,1.264155805192589,592.3824933312568
3812.4126,1.2652005258257981,630.0192355128668
3813.2917,1.2662137199575854,551.2830098690193
3814.169,1.2672249148213233,673.281715816735
3815.0483,1.2682251213123146,616.0347946061938
3815.926,1.2691248538480067,648.9968634166489
3816.806,1.269773676618391,584.0315655365472
3817.684,1.270006135801357,566.2875028814221
3818.5623,1.2697573405773175,549.5947335034614
3819.4429,1.2691059135330847,624.2954276188391
3820.3215,1.2682241085593875,667.2659732345415
3821.2024,1.2672600339350113,632.225268178663
3822.0815,1.266315433690267,639.4045412939881
3822.963,1.2654460628830344,671.1157131778045
3823.8423,1.2646545971804393,596.9829586383563
3824.722,1.2638217738034083,641.8650282691457
3825.604,1.2627171286521737,594.2590675845502
3826.4841,1.2611126764676148,636.3031109777694
3827.3665,1.2588991182091485,588.2575243715088
3828.2468,1.2561968984193117,570.140703109067
3829.1296,1.2532722115509145,573.6016776524565
3830.0105,1.250423708869133,636.1464482593759
3830.8916,1.2477355246241204,682.2241983162813
3831.7751,1.245036540870349,702.7087179768639
3832.6565,1.2420982833119207,627.3415537031223
3833.5403,1.2389106310760036,612.0571063527171
3834.4224,1.23593218908082,605.2090125646624
3835.3064,1.2338406938437196,684.1853334339642
3836.1887,1.2330344443722856,628.8988057600889
3837.0713,1.233100883379177,691.0673428758327
3837.956,1.2328889115492019,666.7365735019648
3838.839,1.2312638414672454,576.4841988734377
3839.7244,1.228073081735778,728.5727899757094
3840.6077,1.2245308359808311,674.1458406087631
3841.4932,1.2224917856443052,1018.3585753112601
3842.377,1.2232886085309764,645.5498091933651
3843.261,1.2269146168987968,639.4828715850986
3844.1472,1.2321987795795952,658.3373858314443
3845.0315,1.2374589566019822,586.233888722024
3845.9182,1.2412783530073828,665.8938506220985
3846.803,1.2428372512806876,571.9595683658566
3847.69,1.242188634766278,625.9632315855328
3848.5752,1.2402061477297246,649.305618081454
3849.4604,1.2382114551337935,618.6688839749216
3850.3481,1.237336586158965,655.2647129923703
3851.234,1.2380081516316428,543.7764290070729
3852.122,1.2398688446078012,593.5104109377645
3853.0083,1.242119013176831,622.0070250349584
3853.8967,1.243991223053335,623.892568065659
3854.7832,1.2449860441206588,597.2458287253792
3855.6702,1.2449427418813155,620.5487368450983
3856.559,1.2439055357261704,615.660290874338
3857.4463,1.241990107918944,700.099138504149
3858.336,1.239272146851165,603.8056309248122
3859.2234,1.235825173137817,644.36962326846
3860.1135,1.23171192360934,622.4553915032084
3861.0015,1.227147897408732,614.9103384971422
3861.8896,1.2225599646879943,623.1547736847209
3862.7803,1.2186778308487063,627.9932730525916
3863.6687,1.2163544294984607,624.2993431977412
3864.5598,1.2160434215654552,691.6077128769429
3865.4487,1.2174383566156992,623.7217063994992
3866.34,1.2194590527205256,650.8610860197894
3867.2297,1.2207344271658065,642.3638716812754
3868.1213,1.2203469683043544,641.1849639206916
3869.0112,1.2182742744931874,711.4982092447797
3869.9014,1.2152642285750683,631.3174534784047
3870.7937,1.2123023563762683,610.150407361439
3871.684,1.2101782255947564,562.843119112395
3872.577,1.2092750864872532,693.764509767733
3873.4678,1.20959029185039,671.6743083030088
3874.361,1.210713973990509,652.0511571696227
3875.2524,1.21193728500085,673.3770732868372
3876.1438,1.212568415448845,717.0277781399891
3877.0376,1.212252376827038,614.8481420411193
3877.9297,1.2111156947561468,683.7452830393048
3878.8237,1.2096473736420448,691.6995048155152
3879.716,1.2084173995471719,651.2412493778619
3880.6108,1.207720068429177,700.1276416079104
3881.5037,1.2074040502962913,690.7594808931459
3882.3965,1.2069937179931651,625.1134396136256
3883.2917,1.2060801780604695,635.9190705064069
3884.185,1.2046410483231675,726.0347656601812
3885.0808,1.2029873260966464,683.8137524562225
3885.9746,1.201481510142326,623.051606952224
3886.8706,1.2002588262807705,687.2943846653686
3887.765,1.1992485996730495,607.4010972281167
3888.6592,1.1982796160611442,673.4433507413785
3889.556,1.1971581375190505,624.7016485925544
3890.4507,1.1956879050600666,691.6158678657732
3891.348,1.1937364219653548,662.6996491120816
3892.243,1.1914461610168456,756.4878303815916
3893.1406,1.1892944986024117,635.1809756003304
3894.0361,1.1879799243441003,665.4935210990434
3894.932,1.1879858079387189,772.3518368988138
3895.83,1.1892253977106237,569.8471957833755
3896.7263,1.1909567539768238,727.9872892139133
3897.625,1.1922141992204258,663.1584014620998
3898.5215,1.1924177271190306,597.7875525249382
3899.4207,1.1917515327061594,689.0578327754764
3900.3176,1.1909361305854846,669.8595297919778
3901.2148,1.1906429323603611,733.1846331452194
3902.1145,1.1911149700938448,667.0465021546219
3903.0122,1.1922395851636203,622.9585592708859
3903.912,1.1938713253224291,735.7930021589917
3904.8103,1.1959393319032972,637.2946623346546
3905.7107,1.1983270936690453,660.3998805980525
3906.6094,1.2007026130065914,702.7630724794986
3907.508,1.202700943451816,670.5611807552883
3908.409,1.2042375874174989,647.6955129983508
3909.308,1.205624274180339,679.6685232873123
3910.2097,1.2072884307822476,755.5237525140512
3911.1091,1.2092773493688274,665.9850303957289
3912.011,1.211169189019848,599.0088306568567
3912.9111,1.212401260836444,663.1207516234144
3913.8113,1.2127594188332167,663.6112643356433
3914.7136,1.2124436613640197,615.1300796338708
3915.6143,1.21177166460551,745.2925505551634
3916.517,1.2108590743958092,671.6334953033734
3917.4182,1.2096175657689565,687.5115485512879
3918.3215,1.2079695292132067,671.3576830677674
3919.223,1.2060875452561899,615.4188878876079
3920.1245,1.2044020711380012,664.2166646121116
3921.0286,1.2034443510483244,630.9671005731094
3921.9307,1.2035331795983464,659.0476259488702
3922.835,1.2044789348682134,687.033547321593
3923.7373,1.20559227078096,585.1930026852725
3924.642,1.2060727841695285,611.3180905872699
3925.5452,1.2054697313570841,621.7036353613622
3926.448,1.2038722319092467,666.8301232179272
3927.3535,1.2016680686127887,686.5786522044091
3928.257,1.1991957693690876,636.2282747057689
3929.1628,1.196495387633271,699.4732408843379
3930.0667,1.1934120996968198,719.4791148312557
3930.9731,1.1897524395132586,758.7340785473797
3931.8774,1.185572416119485,727.0224844226674
3932.782,1.1812905689078033,743.126321351248
3933.6887,1.177774732814591,663.2580055566181
3934.5938,1.176119221470737,979.9128854166313
3935.501,1.1770334926468458,713.6740890752126
3936.4062,1.1803237706900447,627.1857570352813
3937.3142,1.1848845325928046,729.1464554199907
