wavl,flux,ivar
3566.9744,2.5170002251580383,297.3097921735269
3567.795,2.5108179269205175,294.5115780158054
3568.6177,2.505310811744433,315.9654099938131
3569.4385,2.5005297012744565,330.454742137891
3570.2617,2.4966281238832133,294.56163195498135
3571.083,2.493817934956412,310.9569332675319
3571.9065,2.492092266652894,354.64120879408466
3572.7283,2.4912739485517954,309.08779714259265
3573.55,2.491181979732678,332.9948278471432
3574.374,2.4918818252965824,304.32923696998483
3575.1963,2.4936451345798756,349.0388792481412
3576.0208,2.496598389670978,293.6241313416893
3576.8435,2.500298469502238,314.146522532122
3577.6682,2.5038346355722987,298.1326702293478
3578.4915,2.506334545315606,327.6561936678417
3579.3145,2.507617236299999,331.1460865286362
3580.14,2.5082195909957106,363.2705667260342
3580.9636,2.5087769654522014,312.70061764896207
3581.7893,2.5092690156304527,274.1092298224899
3582.6133,2.5088631894129727,338.0261455562941
3583.4395,2.506601140089645,326.70271577438723
3584.264,2.502302182429052,288.5671216060869
3585.0884,2.496748412252872,334.06411388160114
3585.915,2.4910158294733917,313.3156803045524
3586.74,2.4856388066823487,295.9954914611385
3587.5671,2.480275324781952,345.88246240715665
3588.3923,2.4744595825904727,337.02485734014147
3589.22,2.4683278085548133,333.2125116512401
3590.0457,2.4628536302737563,411.40798243185714
3590.8716,2.4589985525348954,301.05538373567026
3591.6995,2.4569879984283896,321.9941338928822
3592.526,2.456197150429559,336.2287390462631
3593.3542,2.4555765069960285,311.5962651873941
3594.181,2.4541754736189283,353.9263162091145
3595.0098,2.4514969856042486,309.91886053585677
3595.8367,2.447836987668795,305.63557096257495
3596.6638,2.444242158398023,341.59119325937945
3597.4934,2.4419785846888704,341.9906666959247
3598.3208,2.4417421940692963,357.19405311477874
3599.1506,2.4432723277375814,346.8988254198439
3599.9788,2.4457058570732784,284.95260677767726
3600.8088,2.4481558045704297,318.11662205188776
3601.6372,2.4498946348443007,322.02846027479717
3602.4678,2.4503041145633953,329.34704221616914
3603.2964,2.448965003338668,343.74422415812853
3604.1252,2.4461162381113097,294.04715816172205
3604.9565,2.4428830496014458,314.44460170420024
3605.786,2.4408312345351084,338.3957140166933
3606.6172,2.440915135462351,342.43498841033795
3607.447,2.4428403954559372,362.76566049780627
3608.2788,2.4452802298785796,360.34414947236667
3609.109,2.446736460884514,304.98771530976137
3609.9392,2.4463951334497787,318.0589171559718
3610.7717,2.444313374012173,322.6555920687296
3611.6023,2.441059859570894,302.25876367109817
3612.435,2.437120180365535,333.2303104471461
3613.266,2.4327095620006265,309.6360836578089
3614.0994,2.427818016988691,363.8746093697024
3614.9307,2.4224663148651993,334.78561990214814
3615.7625,2.4166470270102742,335.7527199484907
3616.5962,2.410366970501554,325.5201131466321
3617.4282,2.4038203076991347,325.58112435383293
3618.2625,2.397454796027621,338.9002897090272
3619.0947,2.392027440548315,347.3288842652824
3619.9292,2.3881191656539413,347.4825891740755
3620.762,2.38579122155959,349.9697302672906
3621.595,2.384354794566175,362.1499294250603
3622.4302,2.38274341584224,348.24292831600485
3623.2634,2.3801896223602457,364.3068925110063
3624.0989,2.3767414257390636,322.59708651686253
3624.9326,2.37326294593927,346.118114149233
3625.7686,2.3706665337720767,347.64392219445915
3626.6028,2.3691238598149478,397.35312278234977
3627.437,2.3678274581440637,328.47282651627955
3628.2734,2.365723506121169,347.26063068767576
3629.1082,2.3624715353329333,344.11635424322367
3629.945,2.3586579643982937,374.1441862164705
3630.78,2.3552598474176456,366.52011779155515
3631.6174,2.352855698384493,371.5048440651653
3632.453,2.3514535744036404,315.98018219137447
3633.2883,2.350620348449406,420.3871013029226
3634.1262,2.349733090702113,387.8257892426279
3634.9622,2.3481925229978406,380.3113355111096
3635.8005,2.3456860164950672,369.0756626153065
3636.637,2.342434426128312,400.933799011763
3637.4756,2.339012680645504,346.8253638972688
3638.3123,2.3359511243253865,375.10690813677076
3639.1492,2.333297074047268,382.1997579580331
3639.9885,2.3306912841924055,336.6277161414542
3640.826,2.327753145801818,377.78072822038916
3641.6653,2.3243176985181826,369.47501493266697
3642.5032,2.320448279439336,358.1675866273525
3643.343,2.3161382704937794,369.2236559756618
3644.1812,2.3112548955799537,384.75022739725495
3645.0195,2.3056427530267207,382.25287381470264
3645.86,2.299444279023626,377.1937436505136
3646.699,2.293213014476296,368.4672422351231
3647.5398,2.287456315680707,356.58673033343837
3648.379,2.282238445310462,406.9232449029251
3649.2202,2.276966980913681,389.0909185409716
3650.0596,2.271002704045559,378.35381430809406
3650.8994,2.2643184863986354,354.35997849846405
3651.7412,2.2578612891666556,356.7045570040388
3652.5813,2.253088964493901,369.34673122161
3653.4236,2.250884756620753,387.49212590252444
3654.2642,2.250953064764604,446.988656491457
3655.1067,2.251985298915842,369.8775191130394
3655.9475,2.252594209802337,409.1860304287815
3656.7886,2.2522141411620553,336.67733764285117
3657.6318,2.2513304069554616,385.9104801455366
3658.4734,2.2509878539584927,436.59288601216997
3659.317,2.251922939534144,425.08464302932396
3660.1587,2.2539823092706337,373.8720281236799
3661.003,2.2562485419741267,396.2541563244471
3661.845,2.257711768726252,396.82179564906954
3662.6875,2.258121843435935,372.15684953142255
3663.532,2.2583309437035894,426.0061480554713
3664.3748,2.259915231380152,360.0956562153095
3665.2197,2.2641639995560188,395.8283959359289
3666.063,2.2709904970299295,386.4828488076327
3666.9084,2.278690355652807,351.49672750574024
3667.752,2.2845658416988814,365.59332689751227
3668.5977,2.2864047472564657,371.86778863769223
3669.4417,2.2834807709281146,381.17625694280315
3670.286,2.2767468561241238,414.7820384380126
3671.132,2.268031266756809,367.3937561482393
3671.9768,2.259109550945971,402.4344301318195
3672.8235,2.2509517361389935,406.85205171353266
3673.6685,2.24378398296331,369.5278573611472
3674.5156,2.23727664285641,385.2015714648578
3675.3608,2.2311641270566644,398.45263200154204
3676.2063,2.225505629780921,395.14370515039366
3677.0542,2.2207213935295256,387.22497522309646
3677.9,2.2172200303330096,450.058088646977
3678.748,2.214958190715221,398.23021313318475
3679.5945,2.213646981663794,395.16961054940805
3680.4429,2.2131586305964235,384.0541174419476
3681.2896,2.213724585268525,421.79843960430344
3682.1365,2.2155349455047038,453.09620629788145
3682.9856,2.218233665356895,408.8587963123095
3683.8328,2.2208385540342914,384.9271418795715
3684.6824,2.2222879698149605,439.62665852222256
3685.53,2.222018138344639,475.9687532990554
3686.38,2.220288559293951,436.26737541205597
3687.2278,2.218052886179919,404.9803699078794
3688.0762,2.2165014354588735,423.77593509408365
3688.9265,2.216537065980003,376.9782448201868
3689.7751,2.218351775517581,403.9834091018299
3690.626,2.2213900583836335,415.30162351886776
3691.475,2.2246764591439208,400.41540779102473
3692.3264,2.2273293672103915,429.8246020965396
3693.1758,2.228738754863243,383.4628886992207
3694.0254,2.228561875001643,410.95641654569636
3694.8772,2.2266404509188846,409.7136445047605
3695.7273,2.2231897763373167,393.9744542283274
3696.5793,2.218940623442201,371.06222076879226
3697.43,2.2150068185470984,381.72660911125143
3698.2825,2.212210007854249,397.1717524568637
3699.1333,2.210542339871576,411.00740483167937
3699.9841,2.2091266617096212,384.5162022640945
3700.8374,2.2069149312784146,387.6736915037491
3701.6887,2.2035151433411397,424.42876065647584
3702.5425,2.1994104971155304,415.9067325377622
3703.3943,2.1955557246284183,429.25319012275855
3704.2483,2.1925718346506002,436.7392358992321
3705.1003,2.190463058499545,417.3637605606725
3705.9526,2.1887714294558314,394.2883936033246
3706.8074,2.1869774083424325,426.5696115061947
3707.66,2.184677406261069,447.0376484647896
3708.515,2.1815519496198728,424.78537837265515
3709.3682,2.177495564267434,440.33807137337834
3710.2234,2.172700332514203,432.7891129460368
3711.0771,2.167724686442489,444.48303088591894
3711.9307,2.1631942851283568,432.1776001387091
3712.7866,2.1595008476061555,451.06947687301437
3713.6409,2.1566916575138007,432.3822607884505
3714.4973,2.154595848582849,410.8085431772094
3715.3518,2.1532637040752705,432.1443288702775
3716.2085,2.1531302205125544,474.31013197843794
3717.0635,2.1547785362251792,418.24565156633116
3717.9185,2.158382854490621,453.29608751638176
3718.776,2.163417488531058,389.74127674672206
3719.6313,2.1688267476388567,469.4125457487537
3720.489,2.1736470358188815,410.09566036451065
3721.345,2.177244829755356,416.33185039244995
3722.2031,2.1793449783086962,413.4696374090354
3723.0593,2.1797663373930276,422.17445314924714
3723.9158,2.1784116947742387,406.1257829888802
3724.7747,2.1753516585892476,479.936850248083
3725.6316,2.1709811188525725,478.96637447688636
3726.4905,2.165945438364967,413.31105681491493
3727.348,2.1610763755077205,377.1911440690343
3728.2073,2.1570786723209645,400.5781893845817
3729.065,2.1542722294580887,432.0168089135934
3729.9229,2.1523012444309035,438.71392879295064
3730.783,2.1503303893086123,459.67655449960813
3731.6414,2.147628462377119,415.57754854493686
3732.5017,2.1440652821248314,429.4995042791441
3733.3604,2.1401335563689057,465.8796279090363
3734.2214,2.1363681908111696,403.04079697030727
3735.0803,2.132983490527151,452.7008066511206
3735.9417,2.129849404759576,427.5592489665321
3736.8013,2.1268910875872074,454.04941917010603
3737.661,2.1241893279024673,435.4614841627099
3738.5227,2.121892604282119,456.9980704773345
3739.3828,2.120089739430823,461.6526647744644
3740.245,2.1187622757862297,465.88387552576415
3741.1055,2.1178638198286928,414.7251578574951
3741.9683,2.1172909443936208,443.8963826360546
3742.829,2.1168673690488324,446.39192614445574
3743.69,2.1164036796686836,427.60096002888474
3744.5532,2.115938300478055,398.7002855080149
3745.4148,2.115933986490001,441.3833700226434
3746.2786,2.1171140177878853,447.70672286780734
3747.1404,2.1199524313816074,451.28070263123425
3748.0044,2.124304217136945,448.60372302676205
3748.8667,2.129441246484419,418.50995368555107
3749.729,2.13453944745972,427.4217508159943
3750.5938,2.138945851433601,482.4359326272135
3751.4565,2.1421038898186184,463.28332623528706
3752.3215,2.143525933376204,454.3315616503602
3753.1848,2.142891273729948,394.4803032772085
3754.0503,2.1403858137665535,459.6160260969027
3754.9138,2.1367814296439596,404.37682112514864
3755.7776,2.1330302261053973,421.81869754909974
3756.6438,2.1297629771733155,427.8884571468154
3757.508,2.1270957453015598,419.94050579264814
3758.3745,2.1247516385282577,441.1262447833972
3759.239,2.1224611149664847,421.3257286231381
3760.106,2.120172886086658,462.88009751709643
3760.971,2.1181520602441997,454.099179698407
3761.8362,2.116741523086885,492.2727004483341
3762.7036,2.116061876500275,421.7976923466915
3763.5693,2.1158410593828645,456.61156632611704
3764.437,2.1155622540558485,433.0315733466799
3765.3032,2.1147789317345533,469.0841080363158
3766.1714,2.113252328918674,435.93843155046943
3767.0378,2.1108952902063476,488.42307337394647
3767.9043,2.1077030726195454,465.70422386128706
3768.7732,2.103862445177495,450.21748174033274
3769.6401,2.0998981849746112,442.7130414364065
3770.5095,2.0964606206910186,473.1503186495106
3771.377,2.0940460103056067,447.4417636410368
3772.2466,2.0926781666008027,433.07382291644797
3773.1145,2.0920140417214217,458.33349297421955
3773.9824,2.0916242786767323,450.5963966762614
3774.8528,2.091333873101314,457.5343014482461
3775.721,2.0913436513636947,459.79741394719935
3776.5918,2.092037793318033,459.67129384067476
3777.4604,2.09359078006307,472.3581219781238
3778.3315,2.095730043297075,432.47739941958486
3779.201,2.0978468098762164,415.3031834117361
3780.0703,2.0994207636394413,458.9309429584578
3780.942,2.1002346777767653,476.0440037870934
3781.8118,2.1002792190689945,463.1818968537704
3782.6838,2.0996243266059538,492.8827690692526
3783.554,2.0984819185059593,466.2438850994832
3784.4265,2.0972700628958205,469.88375949675907
3785.297,2.096402648318307,448.9426307939552
3786.168,2.0959042201808358,444.006083403029
3787.041,2.09537479160925,426.47646847976375
3787.912,2.0943305733513955,452.7033142608967
3788.7856,2.092498926323,508.83708341645297
3789.6572,2.089856499972408,440.9147591328337
3790.531,2.0865126732866526,446.074540002746
3791.403,2.0827780057888665,439.81131142207914
3792.2754,2.079117299935984,493.5815243574702
3793.15,2.0760028714440004,454.0155563995479
3794.0225,2.0737226994239597,450.7210307389915
3794.8972,2.0722669141829773,442.7326928243679
3795.7703,2.071443449034477,482.015596316491
3796.6455,2.0709540804031685,456.10047734430157
3797.519,2.070538327686769,450.2951749684157
3798.3926,2.0701124827514796,478.08244885760314
3799.2686,2.0698214887736195,470.85007898308857
3800.1426,2.0698502085393677,476.7278173112732
3801.0188,2.070076478289506,499.96387929073575
3801.8933,2.069923881837409,463.6690393339387
3802.77,2.068688294333973,450.40313855226105
3803.6448,2.0661868087179402,467.8697519875026
3804.522,2.063100947551301,475.7459319794813
3805.3972,2.060723917422644,458.9863203505564
3806.2727,2.0601713466034073,495.1841857124983
3807.1504,2.061845420303673,449.5983472861895
3808.0261,2.065333867660557,487.66902387297756
3808.9043,2.0697524161754988,453.8990699284745
3809.7805,2.0740585103066653,448.4873945342117
3810.659,2.077395786995229,460.884946336932
3811.5356,2.079181075420294,428.05534279576284
3812.4126,2.07924557274404,466.6459409569381
3813.2917,2.0778066324059403,440.7083812254529
3814.169,2.0754179943547144,496.1528666871418
3815.0483,2.072769242083691,483.8643865695411
3815.926,2.0704660505575694,466.63027130377316
3816.806,2.0687236784969585,431.67516092391236
3817.684,2.0673444351942245,481.05206202902264
3818.5623,2.065959414525588,457.57411948626105
3819.4429,2.0644099600987813,468.58579695345946
3820.3215,2.0628321819362916,495.6123685924492
3821.2024,2.061337000486352,479.77815216894834
3822.0815,2.059774774079982,444.0217593320593
3822.963,2.0577904084294296,480.07507859746664
3823.8423,2.055144170899795,485.7712571157153
3824.722,2.051832292849183,468.1828659780751
3825.604,2.04800971599436,469.97699378451637
3826.4841,2.043838525154645,497.4654670804893
3827.3665,2.039279191875523,442.12186122221027
3828.2468,2.0341795463346966,520.7620173938592
3829.1296,2.028413198749182,474.6340029845319
3830.0105,2.0222600788491065,511.4025167879077
3830.8916,2.0162739046873455,507.75217037729317
3831.7751,2.01090531101278,467.09923085718395
3832.6565,2.006164690349428,479.2482240958859
3833.5403,2.0016553620948363,526.5210700631784
3834.4224,1.9971789826085307,536.3564308846974
3835.3064,1.9929879784723001,579.174824404135
3836.1887,1.9897493092964083,552.1855036418814
3837.0713,1.9881189847594514,490.2088286270135
3837.956,1.9884780976043717,498.4617899891366
3838.839,1.9907519772766966,495.4726427776483
3839.7244,1.9944099850962003,465.90055723021567
3840.6077,1.9986439019255418,519.1095471068493
3841.4932,2.0028690603829324,464.151444680549
3842.377,2.0070435866587903,471.9014826947284
3843.261,2.0116798888710368,514.1832106245138
3844.1472,2.017274549989728,455.27898698740614
3845.0315,2.023651244893017,473.1769503101559
3845.9182,2.0299346402615823,463.9807542224334
3846.803,2.0349175066648018,470.52554009084923
3847.69,2.037822917252359,567.3089482275205
3848.5752,2.038551217780617,442.6453238927172
3849.4604,2.037675043984704,456.0918262856741
3850.3481,2.0361589350583276,476.8926958741519
3851.234,2.0350922360986665,459.2531179828728
3852.122,2.035309666887972,520.9305293332692
3853.0083,2.0370480024765856,476.2377488726167
3853.8967,2.0397830195839006,499.36572441023975
3854.7832,2.042397369359067,467.06571162126033
3855.6702,2.0437364800313143,477.8624537444086
3856.559,2.0431403151299037,472.3965408640705
3857.4463,2.04075112917322,464.34772694674103
3858.336,2.037368391876597,459.52365427958466
3859.2234,2.0340522062574915,458.00620361236435
3860.1135,2.0315618531157065,495.5145353711058
3861.0015,2.030106107826642,488.4407156020779
3861.8896,2.0293265410744055,463.0635900600992
3862.7803,2.02864449479722,497.44153452181854
3863.6687,2.027595687460054,456.0871054976192
3864.5598,2.0259406492171648,464.00148944595986
3865.4487,2.023618312455869,478.4345148258475
3866.34,2.0206373418721153,483.0644977692465
3867.2297,2.0171499511362696,482.5213827446358
3868.1213,2.013430442020304,467.6321154573266
3869.0112,2.0098537285688036,470.1413903437645
3869.9014,2.006675106361233,479.8472695898607
3870.7937,2.003903985519681,472.0524558321325
3871.684,2.001300635124249,500.9701137806967
3872.577,1.9985287969717955,500.0674511865653
3873.4678,1.995532079213851,454.85698965476064
3874.361,1.9926279138517813,508.4264951041131
3875.2524,1.990307009179861,525.176558367404
3876.1438,1.9886827428492286,484.9349063100419
3877.0376,1.9872013892812688,471.1395794086784
3877.9297,1.984775330443361,524.0481132702427
3878.8237,1.9802356121482145,523.7227563033517
3879.716,1.9729515647245683,470.2981181877067
3880.6108,1.9631079271585261,509.1376991525137
3881.5037,1.9517842251428155,520.0428967001146
3882.3965,1.9403448867816153,532.578308465318
3883.2917,1.9299175477350954,536.0531600447434
3884.185,1.921087089413965,526.5791481786101
3885.0808,1.9136661219168913,566.1767447976436
3885.9746,1.907167035473948,561.0693813536726
3886.8706,1.9011610603302962,510.34698064893934
3887.765,1.8958079856930539,517.2760195481902
3888.6592,1.8917575643592905,530.9997343367775
3889.556,1.889792879154382,551.8220023236265
3890.4507,1.8903473790749,574.1101596995929
3891.348,1.8932179441433257,558.043268087036
3892.243,1.8976184574860746,524.6569611210479
3893.1406,1.9025614966765387,565.548332321887
3894.0361,1.9072217284751543,501.27234260614193
3894.932,1.9113767536591928,552.382257243782
3895.83,1.9154129697762217,531.0898952684339
3896.7263,1.9200113317958403,587.3798859050363
3897.625,1.9257782636230316,518.982029564339
3898.5215,1.9328019190979604,475.2855885710359
3899.4207,1.9407019546290634,579.0419547105248
3900.3176,1.9487311926233786,485.27714316900347
3901.2148,1.9563470171975408,483.24104712677763
3902.1145,1.9634236670007468,571.7554189333882
3903.0122,1.9700743400135439,541.8516475944252
3903.912,1.9763422530589645,510.22102862826574
3904.8103,1.981849718470264,492.65470689937246
3905.7107,1.9862253570885313,488.6472153897165
3906.6094,1.9896023729763437,491.398805582044
3907.508,1.9928911441196773,513.655486200532
3908.409,1.9972627458933736,545.459998263297
3909.308,2.0033367146470384,469.5867349207192
3910.2097,2.0108271715381236,503.4796095478015
3911.1091,2.018625885209718,457.4615953952444
3912.011,2.0255097230488257,451.0021122221705
3912.9111,2.030529384070934,469.5064247703593
3913.8113,2.0333820924751365,515.7791583260242
3914.7136,2.034341508101966,479.9017297630977
3915.6143,2.0341344261813825,479.0108398572075
3916.517,2.033729772283991,511.7915496637555
3917.4182,2.0339775565451577,502.46928635819626
3918.3215,2.0352416708016796,492.3977324649685
3919.223,2.0373092573539013,468.77482186629277
3920.1245,2.03971284393686,492.72099234579684
3921.0286,2.042123485308482,454.30107937985974
3921.9307,2.0444493517891305,470.71157251336956
3922.835,2.0466685386170957,470.93909380110733
3923.7373,2.04852357591666,451.31571840991927
3924.642,2.0495193074275444,453.5109164757161
3925.5452,2.0491312430279534,459.6274792847092
3926.448,2.0471818757943447,451.0058729831696
3927.3535,2.0440185755242273,495.50897567240776
3928.257,2.0404136258518935,444.98507059471063
3929.1628,2.037065896777491,496.7419421099992
3930.0667,2.034230961520782,502.4612382727394
3930.9731,2.0316026854744567,475.71824545291304
3931.8774,2.0287113047997836,471.63125887596783
3932.782,2.0253077649949147,517.1131432591123
3933.6887,2.0215488578107292,486.2866218628974
3934.5938,2.0178252106748,537.0082319263896
3935.501,2.0143577313434644,513.1251281021363
3936.4062,2.0110965988020695,476.6542331359978
