wavl,flux,ivar
3566.9744,0.704746096580494,3418.075673846622
3567.795,0.7057212425668071,2824.783640919519
3568.6177,0.7077583103623392,2739.2792980499275
3569.4385,0.7111134960609776,3326.6383557187805
3570.2617,0.7152729119909345,2468.1223864048347
3571.083,0.7190757535573401,2262.1255297045623
3571.9065,0.7212884368994608,2678.6708672702416
3572.7283,0.7209753470987901,2842.169837557628
3573.55,0.7178508707318286,2161.333535856332
3574.374,0.71247409598824,2433.5408242205212
3575.1963,0.7062843493862009,2884.9087977586623
3576.0208,0.7009777986373179,2834.9492440322488
3576.8435,0.6978508759888669,2784.428866615327
3577.6682,0.6973374142804685,2853.1477051999714
3578.4915,0.6992623047038662,3034.757105818983
3579.3145,0.7031313957114523,2883.3777101626442
3580.14,0.7081373849595078,4823.401591968355
3580.9636,0.7129383642136882,2628.326531964797
3581.7893,0.7160328477585953,1894.5281662676935
3582.6133,0.7164932090719481,2819.4167062801553
3583.4395,0.7145993952048305,2819.563317105941
3584.264,0.7115576145422386,3241.7372243310683
3585.0884,0.7086098362154617,2971.8872180029452
3585.915,0.7063752271797878,2221.242574589317
3586.74,0.704818030727859,4609.767254904116
3587.5671,0.7035503619182344,2774.847129091505
3588.3923,0.7022367773735894,3260.6754385197255
3589.22,0.7007988267153404,2963.3801707568846
3590.0457,0.6994729828812091,2657.283811643567
3590.8716,0.6986100032883438,3008.415607723926
3591.6995,0.6984764387736176,2310.3950761059677
3592.526,0.6991660339059642,2525.4845604113852
3593.3542,0.7005901514747847,2587.170494232954
3594.181,0.7023885988741784,2539.649588250796
3595.0098,0.7039289408107632,3037.5861817287155
3595.8367,0.7045640375861182,2212.201460406849
3596.6638,0.7041144771576786,2665.5720525060096
3597.4934,0.7029330076615069,2811.332671396534
3598.3208,0.7014304319277411,3233.778589311891
3599.1506,0.6995580801427101,2988.9839351531923
3599.9788,0.697053849893945,2439.319311177722
3600.8088,0.6941191486230384,3165.9086222836463
3601.6372,0.6917318362495817,3128.925779820977
3602.4678,0.6909887408509566,2557.1773893137374
3603.2964,0.6922938223691817,2038.9187679306592
3604.1252,0.6951615355543227,2563.7341574949405
3604.9565,0.6988049403068062,3281.5257114939805
3605.786,0.7027284325354294,2745.1067969109067
3606.6172,0.7069048746634256,2998.2724949792755
3607.447,0.7112937269838187,2860.276483885227
3608.2788,0.7154645297889134,2624.971166648782
3609.109,0.7185054196805193,3319.593052576886
3609.9392,0.7195558388929284,2762.561530620205
3610.7717,0.7183795531503413,3524.356033376676
3611.6023,0.7156959675339971,2570.2494994680364
3612.435,0.7128401171196121,3375.4433896066594
3613.266,0.7109754990080394,2493.3853350359504
3614.0994,0.7102735585829909,3122.1341073203325
3614.9307,0.7098768258333956,2711.2543210242147
3615.7625,0.7086544093801557,3110.5265473723452
3616.5962,0.7061614090939906,3005.427573349843
3617.4282,0.7029613205633733,2996.5100509552713
3618.2625,0.7000261341310593,2588.7584760815066
3619.0947,0.6979838627894838,2560.1332699788227
3619.9292,0.6967613455493724,2622.275585504168
3620.762,0.6959707618758557,2575.5631321345118
3621.595,0.69541886573276,2801.3445396418188
3622.4302,0.6953055176151997,2574.7143556939996
3623.2634,0.6959393367898675,3229.9996690183357
3624.0989,0.6973460606325419,2728.368422981137
3624.9326,0.69917154926772,2477.9984437225316
3625.7686,0.7009491740630408,2635.3237649522025
3626.6028,0.7022935864288908,2789.6821239651076
3627.437,0.7029486733233857,2615.314174046612
3628.2734,0.7028104604154415,2667.088927399546
3629.1082,0.7021638143404462,3877.2000843849905
3629.945,0.7017953577820973,3050.6068567733555
3630.78,0.7026273061782611,2961.793979529255
3631.6174,0.7050707962135453,3001.3774415333282
3632.453,0.7086898501800756,2887.4953864186928
3633.2883,0.7125424155856498,3068.987398331655
3634.1262,0.7157434091471148,2908.9869030016885
3634.9622,0.7177834468211862,1889.2708543678666
3635.8005,0.718574674580537,2808.693487543803
3636.637,0.7182724687855313,2272.7332530514136
3637.4756,0.7172523393658724,2996.8424342263493
3638.3123,0.7161028105550711,2655.5303173230177
3639.1492,0.7154047915755413,2607.0449549776
3639.9885,0.7153256496003495,3367.7050571860395
3640.826,0.7153753431158791,2660.1514985277418
3641.6653,0.7146938541009195,3630.0244509788213
3642.5032,0.7126662181671564,3169.7742669353383
3643.343,0.7092570899945632,3132.943341652118
3644.1812,0.7049339250161062,2655.3636355686413
3645.0195,0.7003721885542222,2565.0203324116255
3645.86,0.6963639559193338,3466.936450558827
3646.699,0.693729779884816,2565.8677090617934
3647.5398,0.6929472827456421,4550.296428725286
3648.379,0.6938713909678025,3711.985424647047
3649.2202,0.6957511465825967,2558.683007153546
3650.0596,0.6976555511913702,2593.7647235089926
3650.8994,0.6989916777484406,2485.438085142007
3651.7412,0.6996399571226901,2282.5016037161536
3652.5813,0.6997150070387727,2570.835603857812
3653.4236,0.6992142243447123,2479.9258198183315
3654.2642,0.6979301378526344,2645.612920402553
3655.1067,0.6957416116016459,2765.6514287142027
3655.9475,0.6929827381140231,2584.0956873310097
3656.7886,0.6903211873980556,3260.675537208411
3657.6318,0.688252166349885,3012.4379638621344
3658.4734,0.6867454487310899,2313.1463795998193
3659.317,0.6854457658308735,2372.0423430504543
3660.1587,0.684252012707109,2298.828155317914
3661.003,0.6835275003886742,3078.20535569467
3661.845,0.6838272954254915,3458.146764535296
3662.6875,0.6854151345313794,3065.1609317530156
3663.532,0.688046373972156,3906.730139940869
3664.3748,0.6910400038756191,3478.453603384513
3665.2197,0.6936142284283178,2449.806000801806
3666.063,0.6951587092668506,2570.88013474882
3666.9084,0.69550516477641,2760.4147888371936
3667.752,0.6949705933187501,2887.337647352438
3668.5977,0.6942377205503691,3403.731269162185
3669.4417,0.6940475412420588,2748.5853389382037
3670.286,0.6948146285099902,3203.943467623876
3671.132,0.6964273854733736,2857.2436489783013
3671.9768,0.6983542155158343,3063.6941311450946
3672.8235,0.7000261099326253,2560.6232118337425
3673.6685,0.7010899113988176,3807.4603199288827
3674.5156,0.7014481257385251,2660.5920638224484
3675.3608,0.7011186485771375,2942.863144991628
3676.2063,0.7001941665720882,2760.6244169714887
3677.0542,0.6988858418927075,2850.135015332281
3677.9,0.6975647743409198,2965.258536021962
3678.748,0.6966332526343442,3424.380460676571
3679.5945,0.6963661944413895,2776.3930490095636
3680.4429,0.6967896637171943,2640.569230358963
3681.2896,0.6977607155387116,2717.5228271822652
3682.1365,0.6991414802059218,3028.595338399083
3682.9856,0.7008839357044402,2880.3935660133347
3683.8328,0.7029384999454784,3154.4847929877824
3684.6824,0.7051683421862206,2736.609545771374
3685.53,0.7072873329221919,3235.5444722859474
3686.38,0.7089781967860467,2124.753029773678
3687.2278,0.7099507710993006,2763.977513888618
3688.0762,0.710085519544811,2533.638991977254
3688.9265,0.7095390558055273,2520.989049612868
3689.7751,0.7087457173874503,3471.4037633934677
3690.626,0.7081221703336169,2691.0514926594224
3691.475,0.7077193081890172,2562.889967823694
3692.3264,0.7071914886673067,3394.193002006538
3693.1758,0.706199113727291,3095.9040547272166
3694.0254,0.704781280483559,3029.5170640064125
3694.8772,0.7033305637217094,3697.754301485159
3695.7273,0.702254909678364,2563.873093313795
3696.5793,0.7016676040942471,3530.9460890922874
3697.43,0.7014111669122218,2989.6953432125156
3698.2825,0.7012483968624849,2064.16673921988
3699.1333,0.7010361838590492,2832.715709603471
3699.9841,0.7007455105506887,3905.2004567142876
3700.8374,0.7004227171990313,2450.7802562026577
3701.6887,0.7002040878482834,2523.0462209652555
3702.5425,0.700325985248174,2853.6600601215882
3703.3943,0.7010068239146658,3340.10577137468
3704.2483,0.7022209566165091,3382.798399750245
3705.1003,0.703570884276964,2968.5619796738188
3705.9526,0.7044641164964562,2657.760037053905
3706.8074,0.7044159685333765,2892.7982389381464
3707.66,0.7032701480785866,3057.7399458277387
3708.515,0.7011801133075183,2834.9354377633986
3709.3682,0.698491743466381,2465.434599456436
3710.2234,0.6955977276599075,3311.631715994914
3711.0771,0.6929348237892601,2631.6204013495217
3711.9307,0.6908936717033113,2868.2733997831465
3712.7866,0.6897007424735008,2908.659679300432
3713.6409,0.6892399670105145,3011.0674526495895
3714.4973,0.688992854658129,2734.9420214921447
3715.3518,0.6883435194547444,2362.21588025203
3716.2085,0.6870511799474815,2496.1441680671564
3717.0635,0.6855077580934769,3448.8714334565484
3717.9185,0.6844750632575479,4350.325034334673
3718.776,0.6846178007591069,2510.5780999519125
3719.6313,0.6862183669047094,2632.3915410123436
3720.489,0.6892187721733124,3262.2920880012807
3721.345,0.6933282711468846,2904.5994717959366
3722.2031,0.6981475557673038,4098.760713348069
3723.0593,0.7031099957049037,4151.736555732444
3723.9158,0.7075629651064126,2640.4959197198923
3724.7747,0.7107878733445119,2099.522967808841
3725.6316,0.7121939497410179,2777.485906989414
3726.4905,0.711677016433689,2799.7683518794074
3727.348,0.7097140510197829,2359.896682657801
3728.2073,0.7070903326459685,2872.5112862725828
3729.065,0.7044531820784782,3034.0543607358613
3729.9229,0.7020401440416173,2532.1606061487014
3730.783,0.6998659165772747,2517.706696246479
3731.6414,0.6980271109218165,2244.2156709836163
3732.5017,0.6967183547311407,3067.043637719989
3733.3604,0.6960509377452289,2842.504530548438
3734.2214,0.6958710801623852,2605.5613985558507
3735.0803,0.6958812639558918,3174.688115839535
3735.9417,0.6958672257260714,2692.684411373128
3736.8013,0.6957658005452775,3266.2991157818064
3737.661,0.6955086158673067,2962.3047865275307
3738.5227,0.6948745723769393,3275.795171447793
3739.3828,0.693562206321343,2522.483183841763
3740.245,0.6913952968156668,3599.6857752908354
3741.1055,0.6885271487844155,3142.8476147521515
3741.9683,0.6854250653183417,2871.5821695006266
3742.829,0.6827927405700124,3457.778047012603
3743.69,0.6812597526588614,2782.9620731402706
3744.5532,0.6811173080274121,3003.712346475579
3745.4148,0.6821449891318588,2565.634927020066
3746.2786,0.6837230298173375,2961.894381933484
3747.1404,0.6852003179593262,3455.0116597292613
3748.0044,0.6863804218611368,2600.09470045298
3748.8667,0.6877258483894128,3074.3804313641044
3749.729,0.6901172148535172,2866.1708516915537
3750.5938,0.6941989296453143,2582.6387512764663
3751.4565,0.6997610897985003,2716.023510250143
3752.3215,0.7057855880207713,2500.0373379141097
3753.1848,0.7108756672424196,2978.7718837569505
3754.0503,0.7140369604079335,2353.182412399774
3754.9138,0.7150293156287789,2738.6761731430242
3755.7776,0.7144294103300829,3002.5878011981995
3756.6438,0.713236681502255,2549.1190687562525
3757.508,0.7124050060729967,2678.9832182663927
3758.3745,0.7124262784963814,2892.3084638611926
3759.239,0.7131920888809056,2982.9837349658164
3760.106,0.7141160941700989,2304.149675486607
3760.971,0.7144553074362567,2559.677812642313
3761.8362,0.7137223160297794,2840.7515214498826
3762.7036,0.7119211215603594,2886.2758292886124
3763.5693,0.709500904549976,2707.355798145447
3764.437,0.7069749064372678,2846.4643725617047
3765.3032,0.704591967932155,2773.629549943275
3766.1714,0.7021820507708486,2814.6923216114774
3767.0378,0.6993499943424036,2712.1483184671724
3767.9043,0.6957149891097526,3148.8204643178788
3768.7732,0.691192514423656,2421.391389517823
3769.6401,0.6862600283137364,2951.449126503096
3770.5095,0.6819013284980205,3087.989147137674
3771.377,0.6793557450238626,4359.317356029176
3772.2466,0.6794066765567341,3148.441416609889
3773.1145,0.6819044053533694,3285.0175430690592
3773.9824,0.685809203871744,2459.948037263849
3774.8528,0.6898742028761505,3272.687851237424
3775.721,0.6933596012176101,3794.8452294221024
3776.5918,0.6963737232180988,2877.919954161921
3777.4604,0.6994342684552973,3253.146404827149
3778.3315,0.7029634528636155,2497.268103615648
3779.201,0.7069134272711366,2518.328398624822
3780.0703,0.7109154289178321,3140.561919845229
3780.942,0.714521909207808,2768.7993183529475
3781.8118,0.7173676988953163,2676.0046103796344
3782.6838,0.7192948703968866,3127.4097113684757
3783.554,0.7203142302236041,2643.064224881582
3784.4265,0.7205851047218799,3238.4841519331485
3785.297,0.7202645637485173,3289.2242246171913
3786.168,0.7194355129451832,2045.3119253200111
3787.041,0.7181720885664443,2737.347365367216
3787.912,0.7166471456263269,2886.582957004282
3788.7856,0.7150024750010566,2589.021565732557
3789.6572,0.713141991991667,2516.01987144657
3790.531,0.7106659648174003,2840.2612354645016
3791.403,0.7072075986046323,2739.066748490856
3792.2754,0.702720988636868,2538.694188693052
3793.15,0.69746115546466,3506.5404385975003
3794.0225,0.6916774500248121,3075.824895404967
3794.8972,0.685292068262796,3293.9321561261027
3795.7703,0.6782781216306606,2957.19074414639
3796.6455,0.6711174748738922,2588.0495024337456
3797.519,0.6651414203005169,4191.296552840367
3798.3926,0.6619081710732703,3189.0318098587327
3799.2686,0.6624108874554178,2925.423340244364
3800.1426,0.6665575645107953,2568.930672932827
3801.0188,0.6733599337381697,3240.231140965773
3801.8933,0.6814009966045924,3102.751849368984
3802.77,0.6894317665767992,2925.7283588838395
3803.6448,0.6965147519657467,3177.9362531847587
3804.522,0.70223713370421,2712.2844205262927
3805.3972,0.7064903962265997,2971.798353880284
3806.2727,0.709424567541898,2572.795305485495
3807.1504,0.7113123147968,2647.4409252205496
3808.0261,0.7125977744769223,2824.2906276852564
3808.9043,0.7139358755888014,2549.695916025166
3809.7805,0.7159336194350572,3471.2712102064374
3810.659,0.7188085415900753,2524.507338145048
3811.5356,0.7221962017902269,2730.7094332718457
3812.4126,0.7254478169719415,2366.4701900357295
3813.2917,0.7280305477649492,2731.743225799679
3814.169,0.7297284573719388,2466.8584952990996
3815.0483,0.7306202731239961,2493.567323472008
3815.926,0.730891591752347,2632.2059321274623
3816.806,0.7307521808124314,2793.3936663903505
3817.684,0.7303996129381722,2241.2080941456347
3818.5623,0.730022663965155,2623.518192843741
3819.4429,0.7297702803456796,2900.3530708521635
3820.3215,0.7296374184626045,2226.4040613438015
3821.2024,0.729324188231943,2509.889071735835
3822.0815,0.7282570843630847,2830.7522277534376
3822.963,0.7258361819612582,2639.373997524687
3823.8423,0.7218254427033105,2854.93211847383
3824.722,0.7164924823870918,2840.8888836424394
3825.604,0.7104232441627615,2455.240340175278
3826.4841,0.7041661878075836,2684.4004956129074
3827.3665,0.6978178577873997,3006.4668624926003
3828.2468,0.6911487595235127,2830.860206626426
3829.1296,0.6837400707141594,2806.536832738173
3830.0105,0.6753990293868397,3236.374561148751
3830.8916,0.6661250803738367,3494.1694784353617
3831.7751,0.6560549359789454,3768.51510559563
3832.6565,0.6454846504050964,2810.4299654237147
3833.5403,0.634856778369244,3546.261817179009
3834.4224,0.6252450536574264,3525.963459079471
3835.3064,0.6181272524390652,3707.6917247812626
3836.1887,0.6149968079425115,5796.914210603231
3837.0713,0.6165646703100577,3237.4214985874282
3837.956,0.6225999552797126,3663.0384002461624
3838.839,0.6321760564585955,3035.1443986168024
3839.7244,0.6442655449562676,4249.083266022947
3840.6077,0.6577843849132855,3438.1721002837603
3841.4932,0.6717892319721414,3000.9124196486673
3842.377,0.6853016137588069,3261.1028074689416
3843.261,0.6977068611455239,2728.082199993008
3844.1472,0.7087343277315734,3332.795927378359
3845.0315,0.7182731181669308,2762.505694906007
3845.9182,0.7263587603315098,2876.950874439074
3846.803,0.732904009797987,2576.412345737471
3847.69,0.7379372905613456,2545.6470065329886
3848.5752,0.7416737779930065,2349.3358098061576
3849.4604,0.7447542915559195,2698.5169708505637
3850.3481,0.7481038280581292,2860.7114782551407
3851.234,0.7524986779041818,2695.9099517086124
3852.122,0.7581519764643491,2425.4268462274463
3853.0083,0.7644147211384302,2647.119654965354
3853.8967,0.7701104933563391,1994.322293754549
3854.7832,0.774002520855013,2250.126186920315
3855.6702,0.7755089267250891,2093.9337649661434
3856.559,0.7749668081136871,2232.5062755353892
3857.4463,0.7735040612094163,2331.0586233753984
3858.336,0.7724454517425347,2317.4401621750103
3859.2234,0.7726336327357888,2299.717482716031
3860.1135,0.7740226302519991,2079.399454447668
3861.0015,0.7758316806493388,2318.3733817112666
3861.8896,0.7771432036224244,2365.596500237448
3862.7803,0.7774243513599358,2598.390149219621
3863.6687,0.7766507262336306,2104.6590505659915
3864.5598,0.7750451829999602,2332.015521823345
3865.4487,0.7727946705312162,2553.8292146905897
3866.34,0.7699342080636356,2324.9227830125997
3867.2297,0.7664799798008375,2527.546558044721
3868.1213,0.7624526049733218,2403.1307770126127
3869.0112,0.7579050765166357,2321.1698703262477
3869.9014,0.7528113744154904,2278.519580645046
3870.7937,0.7471406419715237,2804.0430079796865
3871.684,0.741081144397045,2985.2383454893984
3872.577,0.7350685279007969,2746.693770512301
3873.4678,0.7297459459760434,3557.522276910585
3874.361,0.7254552737525919,2615.7466201355764
3875.2524,0.7220287324900133,2466.2883457973376
3876.1438,0.7187665087630395,2625.122785594677
3877.0376,0.7147949980840818,2878.06164568667
3877.9297,0.7093854393326122,2455.8507371236483
3878.8237,0.7020024452709253,2550.0702134969492
3879.716,0.6924540915161859,2854.2189313998024
3880.6108,0.6808213237528445,3268.0696990072133
3881.5037,0.667606277207926,3136.174699591509
3882.3965,0.6533569616068556,3935.0094325679343
3883.2917,0.6384632512022582,3367.11700840998
3884.185,0.6231243443506975,3838.3460715663587
3885.0808,0.6071567650237676,2970.666293816102
3885.9746,0.5906536586573947,3724.3551587142224
3886.8706,0.5741870349904209,3924.4471937540243
3887.765,0.5594230489916205,4408.499871246377
3888.6592,0.548630526317271,4860.830693284645
3889.556,0.5439831162098154,5519.693991678482
3890.4507,0.5465475293025354,5263.588792878907
3891.348,0.5557055787972732,5490.793456232609
3892.243,0.5694742623239161,3801.5010805717466
3893.1406,0.5857017776322936,3986.4859099765754
3894.0361,0.602711824382253,3909.787003736277
3894.932,0.6198053717474374,3269.193713820189
3895.83,0.6367070740221799,2953.6411965302195
3896.7263,0.6529437141523435,3127.1434245660253
3897.625,0.6680137085447571,3034.379199686796
3898.5215,0.6813504608091301,3344.2653912379888
3899.4207,0.6929598225397711,2798.8522345157016
3900.3176,0.7031925565631898,2526.930872339899
3901.2148,0.7126937382757101,2610.1073199115895
3902.1145,0.7219023222112557,2466.824921944255
3903.0122,0.7308142078228891,2611.236418732343
3903.912,0.7392874480355393,2326.899315301394
3904.8103,0.7471708361729616,2569.3251983887417
3905.7107,0.7545823354325023,2698.7074245153335
3906.6094,0.761659063950532,2398.8128499176
3907.508,0.7685144492651399,2084.778807542792
3908.409,0.7751958586814719,1846.8492086189783
3909.308,0.7817548196863537,2387.949770125129
3910.2097,0.7883715931246665,2346.7425476998733
3911.1091,0.7950724074872565,2227.39847880184
3912.011,0.8017032319763846,1890.598658881978
3912.9111,0.8078519806723183,2334.6772080993424
3913.8113,0.8132006969733296,1859.0413563771885
3914.7136,0.8176791439804663,2206.9928602663053
3915.6143,0.8214253671824185,2211.6885972297778
3916.517,0.8246680939633718,1839.6701781341342
3917.4182,0.827474930276678,2081.8159588483445
3918.3215,0.8297743755264667,2048.815475439005
3919.223,0.8314460488797657,1869.5700073909045
3920.1245,0.8325403428461244,2396.875071436564
3921.0286,0.833303495953139,1883.0738684494786
3921.9307,0.8340486474687412,1881.766698692193
3922.835,0.8349873793673827,2064.466330463777
3923.7373,0.8361257756323704,2013.3424190709136
3924.642,0.837324567090311,2079.9740656206795
3925.5452,0.8383917793641338,1764.6456940949158
3926.448,0.839195716694142,2019.8811495072837
3927.3535,0.8396651500683455,2186.2134451613974
3928.257,0.8397166725790894,1845.0782324667973
3929.1628,0.8392026571660277,1943.6907679310752
3930.0667,0.837952196202182,2054.9843504660166
3930.9731,0.8358931681123466,2212.7727308341023
3931.8774,0.83322227777795,2060.1385693106795
