wavl,flux,ivar
3566.9744,0.9601419060248864,1107.3904659249197
3567.795,0.9586977904226275,1078.980961514722
3568.6177,0.9573809795802668,1114.6822940204422
3569.4385,0.9560817154839151,1064.0098900290905
3570.2617,0.9546547219207645,1216.388082641814
3571.083,0.9530407561699598,1160.8454916786832
3571.9065,0.9512268862694916,1073.9721750047495
3572.7283,0.949098561038935,1334.347519708853
3573.55,0.9462873235923235,984.6660001666334
3574.374,0.9424053382309476,1126.292174047986
3575.1963,0.9375944307468059,1035.3448497406848
3576.0208,0.9327583911152753,1031.2387117524604
3576.8435,0.9293275495944764,1200.3699874416259
3577.6682,0.9283984101192218,998.8432429838272
3578.4915,0.930125003223947,1065.7101550689817
3579.3145,0.9336058366710048,1160.4286983835266
3580.14,0.9373915294547465,959.3253653879425
3580.9636,0.9401421438045134,1434.4678313701386
3581.7893,0.9412426036600189,1009.6527225070218
3582.6133,0.9408687515410562,1047.0442695753145
3583.4395,0.9396433022187669,1048.0214056953457
3584.264,0.9381524180095402,1085.129361019779
3585.0884,0.936765642753917,962.9080223117674
3585.915,0.9358190694837605,1306.4132660249975
3586.74,0.9357349369363732,1072.6812879073798
3587.5671,0.9367909132307767,1176.4238432597517
3588.3923,0.9387679273060039,1175.7327035320277
3589.22,0.9408793943540319,1105.8481583933544
3590.0457,0.9420712230753114,902.2538722722991
3590.8716,0.9416337742615253,1134.0614836032287
3591.6995,0.9396012752570614,991.6155355382278
3592.526,0.9367466072118206,1107.9083004749757
3593.3542,0.934053263788529,1088.0773252818028
3594.181,0.9321685691749354,879.9609090904708
3595.0098,0.931122010627266,1069.3297703346561
3595.8367,0.9305684804150821,1145.074398448735
3596.6638,0.9301620434237706,1210.0794498322953
3597.4934,0.9298336970351279,1099.4227051233254
3598.3208,0.9297881156431028,1069.796423372307
3599.1506,0.9302475863909357,1214.504758777438
3599.9788,0.9311289767878055,1512.2490320346483
3600.8088,0.9319681853188979,1002.7666968001299
3601.6372,0.9322219168418845,1350.4124501680194
3602.4678,0.9317132752552186,1074.7241407334539
3603.2964,0.9307315040022173,1105.924563109665
3604.1252,0.9297024600093429,1017.8516287584428
3604.9565,0.9288048481075886,1086.6601335617613
3605.786,0.9278851937682762,1120.424754680679
3606.6172,0.9266446703907699,1173.601737951762
3607.447,0.9249110347847618,1014.5874150057175
3608.2788,0.9226942139155095,1161.7307821341972
3609.109,0.9201240057288582,1090.8325074599
3609.9392,0.9173584027925528,1249.7173487109283
3610.7717,0.9146746432435124,1395.430528028815
3611.6023,0.9125159552089317,1375.4223433635038
3612.435,0.9112166737514052,1135.0870619561033
3613.266,0.910721811143241,1439.3740181074206
3614.0994,0.9105442498563924,1039.5217294816377
3614.9307,0.9101659814561492,1119.8374550478231
3615.7625,0.9094733559577589,1196.2201863450546
3616.5962,0.9088368352298469,1205.2761001497227
3617.4282,0.9087848157039334,1200.2484275997829
3618.2625,0.9095812073575624,1157.3113531181293
3619.0947,0.9110531855326077,1175.744318398751
3619.9292,0.9127314249242972,1244.933726382179
3620.762,0.9140911810193213,1078.7647285819278
3621.595,0.9148119197269329,1000.3248969606265
3622.4302,0.9148353167518937,1146.2949739579
3623.2634,0.914248952930817,1260.724441603715
3624.0989,0.913110176123665,1109.9636750534855
3624.9326,0.9114397035415166,1365.2606986771373
3625.7686,0.909319143705874,1383.4685585361174
3626.6028,0.9069723289039794,1555.8109586422545
3627.437,0.9046776362607862,1042.5813679073112
3628.2734,0.9027709031097413,1179.6060532948502
3629.1082,0.9016864854065463,1129.6072839522983
3629.945,0.9017709833634141,1277.4762725581268
3630.78,0.9029549220615635,1129.4707483056463
3631.6174,0.9046257336740159,957.8036449826636
3632.453,0.9060041117883604,1136.0493844399832
3633.2883,0.9067979213591352,1094.1403467924283
3634.1262,0.9073916193050995,1248.8138341482036
3634.9622,0.9083613060756619,1256.7860546268544
3635.8005,0.9097866395080951,1219.326135446318
3636.637,0.9110654573241236,1053.824078683064
3637.4756,0.9115153367278824,1042.1354416670388
3638.3123,0.9110680889416578,1111.0011154726235
3639.1492,0.9103900289463781,1184.5620347091826
3639.9885,0.9103346074103891,1176.4313252650097
3640.826,0.9113166810080214,1116.8473638818248
3641.6653,0.9130717580128763,1159.895705199477
3642.5032,0.9148073085395478,1029.6536358234457
3643.343,0.9156087588940615,1199.9386271817584
3644.1812,0.9148394489346289,1086.3693040913995
3645.0195,0.9124236345885128,1121.6445820803297
3645.86,0.9088168788429549,1101.5654057080092
3646.699,0.9047875105651481,1180.1928155081314
3647.5398,0.9009729478728793,1086.3323291901522
3648.379,0.8976150693268578,1333.3186593489595
3649.2202,0.894455581577953,1078.1454615279397
3650.0596,0.8911468512643586,1457.4203420029937
3650.8994,0.8876567021757347,1305.1112357545276
3651.7412,0.884415468115989,1209.2044237672246
3652.5813,0.8819630778260419,1438.4020160282494
3653.4236,0.8804214973085127,1233.6855899255645
3654.2642,0.8794714127540684,1237.3673103698766
3655.1067,0.8787760681505774,1065.9977691531813
3655.9475,0.8784758391262444,1378.6400480520158
3656.7886,0.8790915316531014,1496.3513265733561
3657.6318,0.8809474683344847,1274.7688547064708
3658.4734,0.8836812071409075,1221.2709880397344
3659.317,0.8863948432889062,1194.6371086487322
3660.1587,0.8881747315188335,1012.0487661350962
3661.003,0.8886262429768345,1072.4978534030759
3661.845,0.8879234702436015,1240.311678224386
3662.6875,0.8865216947455725,1330.5086204974978
3663.532,0.8848331136749109,1255.6932481059225
3664.3748,0.8832307828027969,1136.2240681143778
3665.2197,0.8822095118792848,1079.6342961101798
3666.063,0.8823995205101297,1357.2111487201173
3666.9084,0.8841926919890335,1296.5632160647
3667.752,0.8873363058827776,1312.4793826468601
3668.5977,0.8909356776683399,1156.9247860217106
3669.4417,0.8937851617652087,1400.0637659878487
3670.286,0.8949564850880719,1174.6757118745647
3671.132,0.8941822545903154,1114.3719697153856
3671.9768,0.8920280038103245,1195.7656122502278
3672.8235,0.8896411128007344,1213.8638997286555
3673.6685,0.8881723056226198,1297.8822312422528
3674.5156,0.888097195517906,1438.1851173821058
3675.3608,0.888998259257419,1363.6762425407917
3676.2063,0.8899112606139333,1234.1921774369443
3677.0542,0.8899783497712653,1176.490143535016
3677.9,0.8889145565172805,1181.8040865805435
3678.748,0.8870273038973866,1210.1766186629616
3679.5945,0.8849340187813903,1158.2134638967282
3680.4429,0.8831717847103424,1192.9270494432617
3681.2896,0.8819749745199991,1180.8165906063412
3682.1365,0.8811729910186813,1252.6683012096357
3682.9856,0.8803461649566289,1193.556150260374
3683.8328,0.8791404054803943,1228.3134962240179
3684.6824,0.8775386278726799,1193.4741711222468
3685.53,0.8759081668920802,1291.671756095994
3686.38,0.8746630110306962,1317.690569579901
3687.2278,0.8738988224385587,1096.9449416762236
3688.0762,0.8732682670617837,1288.8018450059942
3688.9265,0.8722738296509077,1192.4312771712807
3689.7751,0.870626522767216,1229.7575350913362
3690.626,0.8683428554926084,1391.8202364927592
3691.475,0.8657272162596943,1258.9456365100418
3692.3264,0.8633755602191815,1274.2568300576643
3693.1758,0.8622826021162269,1250.559722756559
3694.0254,0.8635236943076976,1504.6558806767061
3694.8772,0.8675928671164769,1257.0950716986465
3695.7273,0.8737336532887655,1432.0091289011489
3696.5793,0.8801491356105104,1214.4879467692517
3697.43,0.8848966282021162,1313.7870927327835
3698.2825,0.887104164826797,1072.964492608989
3699.1333,0.8872767947708927,1171.7581441315033
3699.9841,0.886681714720966,1130.7043503738983
3700.8374,0.8862747279026525,1297.0235392529341
3701.6887,0.8861765706434561,1268.645464715217
3702.5425,0.8859393100014715,1223.804203020945
3703.3943,0.8851555996769481,1284.0326073924034
3704.2483,0.8837820194521901,1112.877427263193
3705.1003,0.8820799602114681,1372.5681410390478
3705.9526,0.8803456101078158,1355.6202510884048
3706.8074,0.8787284194491621,1316.6527727838004
3707.66,0.8772199385832951,1121.225253453002
3708.515,0.8757620891404753,1198.0661193436636
3709.3682,0.8744365574243701,52.614614806328625
3710.2234,0.8734221015666219,1157.3212161006766
3711.0771,0.8728387838186378,1373.6561399451411
3711.9307,0.8726085951636322,1168.6491498315524
3712.7866,0.8725111349404637,1239.8293929012923
3713.6409,0.8722868440494238,1160.8250007739566
3714.4973,0.8716960153736518,1211.597015688286
3715.3518,0.8706091341079555,1488.007855291463
3716.2085,0.869134397003418,1423.3591440352832
3717.0635,0.8676920678405854,1174.463773288196
3717.9185,0.8668234228771431,1216.9911641015105
3718.776,0.8668816260300136,1122.7330522801863
3719.6313,0.8677819996258496,1493.817810108506
3720.489,0.8690432718679326,1198.2835730543056
3721.345,0.8700993350483911,1214.2317963257583
3722.2031,0.8706764633471814,1497.617220556921
3723.0593,0.8708756652711702,1615.0378324435612
3723.9158,0.8709943526151919,1170.4748341791956
3724.7747,0.8712808444127802,1493.7276297642181
3725.6316,0.8718014253050126,1093.6138412212695
3726.4905,0.8723649683151288,1363.8970485530979
3727.348,0.8724787129282476,1211.0466272315527
3728.2073,0.8715420732361769,1150.344719874352
3729.065,0.8693057078221538,1176.0008157402808
3729.9229,0.8661987470912925,1721.3347927792956
3730.783,0.8631327067828933,1179.0648336021459
3731.6414,0.8609263875261168,1334.260812445593
3732.5017,0.8598141944709887,1499.6233024540177
3733.3604,0.8595261386602977,1389.1091883566355
3734.2214,0.8595922594554455,1401.3581650899828
3735.0803,0.8595982485432949,1320.5971590762524
3735.9417,0.8592653711015164,1342.0591289890267
3736.8013,0.8585031963480342,1225.9138078022906
3737.661,0.8574650579559892,1444.9276335503444
3738.5227,0.8564944766069582,1468.237602435685
3739.3828,0.855899014477461,1301.9797458359733
3740.245,0.8556664192265505,1487.1896273436594
3741.1055,0.8554297701867718,1216.5895084138206
3741.9683,0.8547189714247743,1437.1576950124365
3742.829,0.8533300988277664,1156.3180499078007
3743.69,0.8514781812448647,1079.0374291662486
3744.5532,0.849648161230323,1256.1039319428585
3745.4148,0.8482917995211051,1226.4103518657835
3746.2786,0.8475585804960578,1378.045033247322
3747.1404,0.847329693991964,1352.0938693728353
3748.0044,0.8474226318693421,1615.372031913475
3748.8667,0.8478227892900313,1413.8231797531005
3749.729,0.848718995659753,1247.629338595505
3750.5938,0.8503060270569643,1382.9294805701686
3751.4565,0.852473489435796,1271.4042017097802
3752.3215,0.8547510641334591,1509.952356508391
3753.1848,0.8565703953118814,1132.8488138047503
3754.0503,0.8577275940257636,1543.7019700476135
3754.9138,0.8584188453529613,1304.1678773409785
3755.7776,0.8588678734314363,1255.5123762621943
3756.6438,0.8589353592981521,1406.3801551501442
3757.508,0.8582167396483544,1289.1406669073199
3758.3745,0.8564826256557511,1406.772873814372
3759.239,0.8539844915105167,1288.8914439951855
3760.106,0.8512822306495672,1304.4815746064037
3760.971,0.8489053559774077,1334.493944880636
3761.8362,0.8470532074430814,1492.3943339059456
3762.7036,0.8456639309050253,1393.178792001815
3763.5693,0.8446278950914747,1371.9822536800425
3764.437,0.8439039589000625,1426.673104172344
3765.3032,0.8434841567435973,1342.7020950799724
3766.1714,0.843226687334643,1367.4991299505682
3767.0378,0.8428066340849147,1284.2836683321966
3767.9043,0.8418762801424011,1426.4305566450878
3768.7732,0.8403646973700137,1297.1690497744326
3769.6401,0.8386893411854035,1249.8496587837424
3770.5095,0.8376042297976677,1337.8135088807767
3771.377,0.8377908184406399,1431.8091545138307
3772.2466,0.8393647882514024,1276.9466846298856
3773.1145,0.8416979061898944,1439.7076719438542
3773.9824,0.8437328247639927,1088.7793443165374
3774.8528,0.8445679106276175,1251.856614066015
3775.721,0.8439430353039997,1296.5282432908937
3776.5918,0.8423291386895542,1429.894736760551
3777.4604,0.8406276639489745,1213.44668862614
3778.3315,0.8396949318059181,1278.6855496329247
3779.201,0.8400124306270257,1232.96826448062
3780.0703,0.8415285953873125,1503.1410567374212
3780.942,0.843796451099689,1260.2182248932752
3781.8118,0.8462435831045193,1487.6633355286067
3782.6838,0.8484560537489667,1502.943880472688
3783.554,0.850146413860704,1481.341892725488
3784.4265,0.8510446497870938,1333.0325614661372
3785.297,0.8508358199920297,1285.7606266667372
3786.168,0.849358809818099,1361.8884048738414
3787.041,0.8467771961282047,1277.0216330309254
3787.912,0.8436072394287794,1316.0469591979843
3788.7856,0.8405056665243922,1400.3356741232697
3789.6572,0.8381228571507299,1348.0370090396948
3790.531,0.8368372161766017,1350.580423907312
3791.403,0.8365836953378917,1256.6427170644245
3792.2754,0.8367501577867599,1233.8566448560446
3793.15,0.8364211035001651,1385.1943350466854
3794.0225,0.8348725961595375,1350.2514306502806
3794.8972,0.8320041555183055,1255.440623437051
3795.7703,0.8284247887984546,1342.878106763621
3796.6455,0.8250337935214657,1635.7943528429228
3797.519,0.8225605665151976,1263.8816270521763
3798.3926,0.8212197712965416,1423.730514081425
3799.2686,0.8207889498250104,1318.1961943767562
3800.1426,0.8208342246813238,1597.348672511858
3801.0188,0.8209369282536415,1349.914711390579
3801.8933,0.8208733863016114,1456.0303752628226
3802.77,0.8207159606012093,1466.55005332867
3803.6448,0.8208005891636372,1396.291534802772
3804.522,0.8215334087436359,1613.0988727693903
3805.3972,0.8231332183960177,1576.7067905765196
3806.2727,0.825519141665046,1327.258464438373
3807.1504,0.8284103195703412,1073.7156347145235
3808.0261,0.8315012528329916,1371.3709744797989
3808.9043,0.8346102174510508,1540.3074794074378
3809.7805,0.837548181158333,1373.6154551089965
3810.659,0.8400658046695538,1257.543411361413
3811.5356,0.8417959085975514,1220.491091447623
3812.4126,0.8424237399452698,1300.1710247937472
3813.2917,0.841848000582266,1317.2460328217742
3814.169,0.8403329532323157,1236.4562066529413
3815.0483,0.8384620677468521,1432.992441885494
3815.926,0.8369240256838754,1412.8703671938797
3816.806,0.8361938674580007,1490.4384036330766
3817.684,0.8364131371277768,1503.5027708586542
3818.5623,0.8374152522981598,1419.5945149656152
3819.4429,0.8388216570192182,1210.6464557569336
3820.3215,0.8400638734959744,1346.9958525020568
3821.2024,0.8404788069633734,1502.3772293060354
3822.0815,0.839482361408292,1296.2905686080346
3822.963,0.8368408588385684,1270.4266279990723
3823.8423,0.8328757019558967,1458.5519536330166
3824.722,0.8283262028324995,1371.2222447148786
3825.604,0.823934039202067,1472.3106331573615
3826.4841,0.8199951422201559,1484.1395237804484
3827.3665,0.8161793416132757,1440.7113180083259
3828.2468,0.8120104972748741,1340.0931644096825
3829.1296,0.8072808147604744,1445.855128582023
3830.0105,0.8022182167885956,1357.5461637017015
3830.8916,0.7970939869735869,1561.114131489755
3831.7751,0.7919976362147113,1545.7785216207533
3832.6565,0.7869579389331586,1523.4123957967615
3833.5403,0.7821055670438603,1561.2057016498713
3834.4224,0.777884024273667,1448.592230760963
3835.3064,0.7748254431491806,1761.862480105129
3836.1887,0.7733906868772045,1628.465058402426
3837.0713,0.7737930964738543,1620.1041282573215
3837.956,0.7760536289622747,1593.0320465652665
3838.839,0.7800186748637088,1518.964406679447
3839.7244,0.7853951823441797,1562.0871954719933
3840.6077,0.791683766964529,1765.843290161039
3841.4932,0.7983988995095121,1740.1245724679975
3842.377,0.8051381295965355,1295.3197240020643
3843.261,0.8117212143105526,1438.2577925737237
3844.1472,0.8180022424949939,1245.9054249905223
3845.0315,0.8237061021515796,1432.7145239501508
3845.9182,0.8286005032800599,1530.000214356003
3846.803,0.8326015584275412,1438.6789651877805
3847.69,0.8360301132215446,1250.6657029913579
3848.5752,0.8394795029015418,1476.6305720146352
3849.4604,0.8435797361128414,1519.952903697175
3850.3481,0.8485947978797109,1377.2344482538417
3851.234,0.8541511363418218,1358.4486110712542
3852.122,0.8594558301727048,1375.7256715995259
3853.0083,0.8636148596052581,1157.6065548223594
3853.8967,0.8661716567916042,1420.9514221059037
3854.7832,0.8672536101563818,1294.4614067579535
3855.6702,0.8675227713947425,1336.331977130799
3856.559,0.8677806646091547,1314.2153772066802
3857.4463,0.8685210356317538,1260.0123950583736
3858.336,0.869664760752264,1206.0570765256575
3859.2234,0.8706475625328515,1196.3712205175425
3860.1135,0.8708428764905549,1263.9644419746407
3861.0015,0.8699763487716335,1182.3164994437884
3861.8896,0.8683048123168903,1198.664333316807
3862.7803,0.8664232684532667,1231.6490488811291
3863.6687,0.8648710037487956,1350.374815535238
3864.5598,0.86372671763441,1308.0335766687615
3865.4487,0.8625775306072874,1384.3443378711631
3866.34,0.8607850372498649,1309.1236356341255
3867.2297,0.8579371425826645,1323.5212263808787
3868.1213,0.8540291310811952,1416.4303259284525
3869.0112,0.849394663090026,1434.1897149654483
3869.9014,0.8443822006657012,1563.911902502926
3870.7937,0.8391974106938936,1244.6847303395284
3871.684,0.833926958683541,1383.0414576287912
3872.577,0.828530303176219,1443.3895445834505
3873.4678,0.8230403663222938,1488.9215917932424
3874.361,0.8175044185384064,1502.702095419354
3875.2524,0.8120159039997534,1630.829764883244
3876.1438,0.8064572710837699,1397.7870256563704
3877.0376,0.8004643299424221,1656.464034906582
3877.9297,0.7936431193766078,1691.98598772834
3878.8237,0.7857756830335882,1544.1536550983901
3879.716,0.7770972732533442,1688.2556998777761
3880.6108,0.7680282637031873,1696.1091683517552
3881.5037,0.7590418042883647,1744.4976268805653
3882.3965,0.7503279557614512,1527.9993745439565
3883.2917,0.7418658862755662,1722.9483305317074
3884.185,0.7336013392346326,1936.1065819774183
3885.0808,0.7254021073143694,1910.6407978655334
3885.9746,0.717327298845817,2069.172018629677
3886.8706,0.7096217702485481,1729.9140404568818
3887.765,0.7029809643656973,1881.809854817965
3888.6592,0.6983273033414599,2135.1362175929753
3889.556,0.6964991553034515,2236.0780365479586
3890.4507,0.6978220687667649,2031.9611177054371
3891.348,0.7019334045821858,1939.7490940450668
3892.243,0.7079653536693806,2047.264040029434
3893.1406,0.7150222213419715,1802.578005261518
3894.0361,0.7224234587862489,1841.063871712535
3894.932,0.7300108428036859,1815.314440189305
3895.83,0.738017330459957,1966.8200496935003
3896.7263,0.7467076265623471,1666.0849952808326
3897.625,0.7561944159145405,1558.5925068162437
3898.5215,0.766133331788406,1514.8055589283217
3899.4207,0.776025060655981,1713.5091035325268
3900.3176,0.7852591842182844,1607.948626791223
3901.2148,0.7935921731800297,1453.04412553768
3902.1145,0.8012544513852708,1549.58891299315
3903.0122,0.8088329635560367,1409.2089561807545
3903.912,0.8169979348072168,1457.7427706045507
3904.8103,0.825870971170253,1359.7662018046187
3905.7107,0.8349962440535724,1388.1334267270977
3906.6094,0.8434894113973046,1290.6428649745556
3907.508,0.8507156180252095,1360.0025208659827
3908.409,0.8566187627380654,1486.2979111447085
3909.308,0.8616959096713418,1318.7586918525828
3910.2097,0.8667579287547251,1233.5073871012073
3911.1091,0.8724023116023845,1289.0621129078845
3912.011,0.8788655365918288,1221.009896693695
3912.9111,0.8859273316704646,1269.1307808269007
3913.8113,0.8931841924625458,1247.193762453678
3914.7136,0.9001573141014021,1254.8162406923082
3915.6143,0.9063216698724389,1097.4653377412894
3916.517,0.9113235666211381,1176.1458342013275
3917.4182,0.9150252538696289,1270.6829270016092
3918.3215,0.9176480529776682,1121.9980325539227
3919.223,0.9196150602129661,1175.1332088266815
3920.1245,0.9214168209929795,1166.5744551326172
3921.0286,0.9233937825555215,1119.174018675404
3921.9307,0.925590281560931,1128.709040465428
3922.835,0.9278187317302526,1094.4760424860565
3923.7373,0.9298113471080416,987.434143118487
3924.642,0.9314114198570018,1259.6059969997991
3925.5452,0.932480519821284,1098.5291036307678
3926.448,0.9327710644687538,1129.4254602602484
3927.3535,0.9319201366307742,1013.6122096876933
3928.257,0.9296950712848742,1007.5919691526492
3929.1628,0.9261764675956812,1201.427907898544
3930.0667,0.9217584033841016,1200.277574219267
