wavl,flux,ivar
3566.9744,0.9617618125461556,885.7974193694179
3567.795,0.9612451392773241,888.6889043044994
3568.6177,0.9600042928481978,1006.3608893448221
3569.4385,0.9586137069290211,885.6426106138123
3570.2617,0.9574941828873658,1015.3262801850907
3571.083,0.9568966205112263,789.4600043558394
3571.9065,0.9574207001303588,1205.9373561013942
3572.7283,0.9607461069895573,909.03381459614
3573.55,0.9697728797699721,811.1191244710485
3574.374,0.9874792062186255,1119.926072480122
3575.1963,1.013999806087033,975.8528942161564
3576.0208,1.0441867042565407,1138.6237128674304
3576.8435,1.0675084508551493,1041.1730342245025
3577.6682,1.073704717996583,951.1416141487496
3578.4915,1.0592802778814037,1157.642507956162
3579.3145,1.030083750918613,979.1923343100739
3580.14,0.996787681566737,1043.9156235141331
3580.9636,0.968652172324575,1020.4894076769924
3581.7893,0.9494808909850592,1098.5007588734202
3582.6133,0.9390055919814679,1095.6295388361752
3583.4395,0.9351090158727706,1023.9945232760696
3584.264,0.9357004956000534,934.4142469996743
3585.0884,0.9389707935779622,1139.1051794932257
3585.915,0.9432487147433822,1052.134196601639
3586.74,0.946866831524786,1152.2625798297033
3587.5671,0.9485538107312903,1015.1105578097877
3588.3923,0.9478726597230297,1094.4661258454164
3589.22,0.945378610259234,1027.9662476835365
3590.0457,0.9421530824287097,910.5372510126828
3590.8716,0.9390830410570518,1111.7568578861833
3591.6995,0.9365807284725646,979.3472456407686
3592.526,0.9347804519136004,1096.9681953652876
3593.3542,0.9337740686404561,988.9679658970399
3594.181,0.9336620274027917,1199.778142343515
3595.0098,0.9343642703424312,1086.3469609106469
3595.8367,0.9355013418297106,1026.0886216595725
3596.6638,0.9364974185867085,1004.7375182546521
3597.4934,0.9368348118136969,899.7299070675406
3598.3208,0.9362597462366933,978.8331283080289
3599.1506,0.9347706494131183,850.3546702546347
3599.9788,0.9325196347082041,819.1680798176974
3600.8088,0.9298394994998544,995.84538680873
3601.6372,0.9274713103891251,1130.0192137045988
3602.4678,0.9264662796322194,1288.0614646089161
3603.2964,0.9276385897687626,1131.7496253145002
3604.1252,0.9307687627809962,1088.0609585274597
3604.9565,0.9344163079429191,980.6251942339597
3605.786,0.9366455362013861,1017.3807219729495
3606.6172,0.9363511976347351,1066.6303430968824
3607.447,0.9339193089263246,1249.3510447460658
3608.2788,0.930780686670553,1086.916540350306
3609.109,0.9283437051311546,806.8423666945914
3609.9392,0.927159588249995,1262.2326684304853
3610.7717,0.9269126964429072,1454.9611268140914
3611.6023,0.9269002882748492,1062.348934794377
3612.435,0.9266333232280082,1450.7082103616474
3613.266,0.9261911111265105,1110.478533507178
3614.0994,0.9260635789916648,1211.7702447761671
3614.9307,0.9266284413452548,948.1892464516676
3615.7625,0.9277713661376867,1085.8318015573934
3616.5962,0.9289946850250037,982.7882589586837
3617.4282,0.9297489536387292,1142.1482047866284
3618.2625,0.9296135356290773,1087.7521415821147
3619.0947,0.9282493893527854,971.5394984104734
3619.9292,0.9254406465688197,955.6814591818847
3620.762,0.9213816734711174,928.5213305894504
3621.595,0.9168717308753646,1005.380133468785
3622.4302,0.9132000525883334,1206.209332821996
3623.2634,0.911607548877405,1051.6581083587914
3624.0989,0.9125341419565731,1154.7819530661798
3624.9326,0.9152666118528806,1034.7211547458633
3625.7686,0.918192343800892,1127.3472618344092
3626.6028,0.9195982422564161,1077.0188789576368
3627.437,0.9186954226091054,1044.1698456299207
3628.2734,0.9160222118092003,1745.737233286602
3629.1082,0.9129981640337941,866.3881559470543
3629.945,0.9108042277222094,939.546201365482
3630.78,0.909618275171937,1373.7567585455508
3631.6174,0.9086398297134474,1014.4078627452323
3632.453,0.9068894648503614,1168.9068756396055
3633.2883,0.9039504252019415,975.0525689182384
3634.1262,0.9001547066024937,1143.1144700102693
3634.9622,0.8962621537217118,1182.8929585325607
3635.8005,0.8929186478046891,1152.877557744518
3636.637,0.8905407218791062,1281.9287006923864
3637.4756,0.8893364380679663,1217.57808910438
3638.3123,0.8894386173717357,1280.1287175062319
3639.1492,0.8908103674781451,1095.6280787950918
3639.9885,0.8931561436375242,1345.4216802509634
3640.826,0.8959064855065054,1228.2548779657877
3641.6653,0.8984289494078679,1339.617167969955
3642.5032,0.9001925377279651,1280.8200333760806
3643.343,0.9009424364611449,965.9723139617389
3644.1812,0.9007041472422148,1105.4352337493094
3645.0195,0.8997407096285267,987.7971864708298
3645.86,0.898423047576013,1185.7458725152055
3646.699,0.897107209500951,1212.9207951198198
3647.5398,0.8960109577825213,1194.921723223982
3648.379,0.8952017311646135,1260.2698623873246
3649.2202,0.8945812462369819,1166.1699367333442
3650.0596,0.893912318131932,1017.5380149462312
3650.8994,0.8928526428052955,1405.0879242455705
3651.7412,0.8910579697654949,1100.99492239334
3652.5813,0.8883328364836972,1143.4785249995598
3653.4236,0.8847316307960957,1245.22579002557
3654.2642,0.8806789087638895,1187.705376602783
3655.1067,0.8768362221469178,1250.1369143535985
3655.9475,0.8739598010733968,1235.2489253939016
3656.7886,0.8726133231259868,1182.4387924697796
3657.6318,0.8730366924464699,1400.1246753710461
3658.4734,0.8750221553708478,1156.7864946927036
3659.317,0.8779438191812085,1026.2802272944368
3660.1587,0.8809584510141178,1073.3880960967163
3661.003,0.8834010385684563,990.7815705830193
3661.845,0.8849442387551057,1249.732246373698
3662.6875,0.885590514900361,1143.8970287988136
3663.532,0.8855109407425901,999.6153790988913
3664.3748,0.8850949745943921,894.4469957917495
3665.2197,0.8850575452598888,1137.1625241293661
3666.063,0.8862748934912664,1303.5614102208842
3666.9084,0.8892716199554839,1332.8479372752058
3667.752,0.8937354101211704,972.9469231368822
3668.5977,0.8986637832231918,1076.3435868996423
3669.4417,0.9028838763757145,1356.0593065135595
3670.286,0.9057192038605412,1510.7584965004573
3671.132,0.9071073427136767,1066.6534552599383
3671.9768,0.907367013299278,1197.4270215283898
3672.8235,0.9068632183477497,1107.772008069893
3673.6685,0.9057607446048528,1158.7063242636964
3674.5156,0.9039590981634262,976.7530602348357
3675.3608,0.9012691552942494,1155.3490447675485
3676.2063,0.8977243294743192,1080.921067740632
3677.0542,0.8938639469456857,1034.8321062377115
3677.9,0.8906304819842032,1187.8628252995459
3678.748,0.8887445157674081,1261.8798292805923
3679.5945,0.8883211294454537,1170.3566595586185
3680.4429,0.888940335266602,1468.069487750499
3681.2896,0.8901131808341046,1087.963923234551
3682.1365,0.8915006517194353,1075.5447888685082
3682.9856,0.8927164124976583,1172.3679575404328
3683.8328,0.8931214386819759,1019.304215143409
3684.6824,0.8920560822791799,1168.0323243048733
3685.53,0.8893325969274489,1128.6247356944034
3686.38,0.8854482431475846,1278.215630385429
3687.2278,0.8813489946576402,1171.240248613697
3688.0762,0.8778796443340835,998.410838404835
3688.9265,0.8755825364941799,1055.1450293813193
3689.7751,0.8747456952953743,1419.7532638264388
3690.626,0.8754236215563282,1646.0886788869584
3691.475,0.8773837256049396,1233.4116289713888
3692.3264,0.880101963075746,1154.3369239669773
3693.1758,0.8828923541965725,1153.8363913952005
3694.0254,0.8851870772531105,1063.3289286373572
3694.8772,0.8866804239980166,1143.6434883183954
3695.7273,0.8873707830552875,1157.1883924839046
3696.5793,0.8874982925441693,1191.294765036425
3697.43,0.887347445984125,1166.2231642932877
3698.2825,0.8870707774640368,1241.0272929304645
3699.1333,0.886625330303167,1444.8923998473724
3699.9841,0.8858598359361475,1076.1340707866368
3700.8374,0.8846946346027333,1035.0169390062786
3701.6887,0.8832673772901214,1022.9376899973836
3702.5425,0.8818592517722441,1167.7066860407326
3703.3943,0.8807141676501516,1060.9006004293326
3704.2483,0.8798605920842804,1222.3849324336447
3705.1003,0.8791804930404574,1416.331892962923
3705.9526,0.8785480917619441,1053.4252976121543
3706.8074,0.8779320612729373,1024.3479343498218
3707.66,0.8773831038559753,1462.163217643169
3708.515,0.8769449597658502,1348.791756835462
3709.3682,0.8765998174142275,1144.4599884697461
3710.2234,0.8762712354401168,1032.565437080966
3711.0771,0.875914230008732,1172.6824865106225
3711.9307,0.8755541037964975,1240.9722475417898
3712.7866,0.8752104414439071,1549.2336638736924
3713.6409,0.8747847766821102,1041.9522108327803
3714.4973,0.8740456509144721,1292.7402535894337
3715.3518,0.8727723230091993,1082.868889167144
3716.2085,0.8709243666147353,1131.000910477486
3717.0635,0.8687772369189596,963.8109318939444
3717.9185,0.8668225371238933,1216.4024186385027
3718.776,0.8655299880384283,1414.7022647485069
3719.6313,0.8651166019682436,922.3063398757495
3720.489,0.8654780534302728,1232.4336794076435
3721.345,0.8663038011154218,904.9953319101356
3722.2031,0.8671882206910683,1143.6249774635403
3723.0593,0.8677123644944431,1108.9459912491388
3723.9158,0.8676019208691121,1124.336976638019
3724.7747,0.8668433296701954,1304.288109371359
3725.6316,0.8656625259972355,1236.0512462070703
3726.4905,0.8643181369436073,1394.2326702236844
3727.348,0.8629607336439664,1004.667618158353
3728.2073,0.861655233589908,1053.7659345474153
3729.065,0.8605943996946082,1173.6807358262345
3729.9229,0.860177498951603,1325.607043993459
3730.783,0.8608396091505754,1296.9323989677994
3731.6414,0.8626707885943263,1280.7478589417292
3732.5017,0.8652193399434489,1264.8455546269538
3733.3604,0.867646222087131,1224.450996973727
3734.2214,0.8692105660457057,1269.9803088939445
3735.0803,0.8696037519939434,1160.1043367851084
3735.9417,0.869038675549156,1325.3762896358182
3736.8013,0.8680176335465479,1249.1645291099462
3737.661,0.8670161732049788,1186.3114450449293
3738.5227,0.8662564059272182,1268.4138209346427
3739.3828,0.8656421755288922,1364.4843846663196
3740.245,0.8648240235905318,1077.7241959206365
3741.1055,0.8634055852617696,1382.1121837932117
3741.9683,0.8611582686374059,1361.2420713850038
3742.829,0.8582100042623461,1369.52146021717
3743.69,0.8549939559918726,1387.118548373714
3744.5532,0.8520850325939301,962.2601091331621
3745.4148,0.8499920908169615,1038.8270394836386
3746.2786,0.848920676813901,1218.7719553652553
3747.1404,0.8487372348884041,1199.3797261457767
3748.0044,0.8490399415192453,1262.850227752843
3748.8667,0.849386522412422,1191.4964562940438
3749.729,0.8495232663413178,1509.3352504115487
3750.5938,0.8495020322551746,1569.6244180196359
3751.4565,0.8496668520693965,1291.2937314165924
3752.3215,0.8505240537563128,1662.5179785253054
3753.1848,0.852504949417276,1227.4253002097291
3754.0503,0.855755702359125,1168.4518929604578
3754.9138,0.8600208525276516,1274.461521642313
3755.7776,0.8647752017225003,1165.4058902505515
3756.6438,0.8692932419231971,1155.5857389519763
3757.508,0.8726804274352329,1101.8026605794942
3758.3745,0.8741635257046695,1078.0900195886925
3759.239,0.8734187309736259,973.5802134274064
3760.106,0.8708557075296748,1297.8617704550625
3760.971,0.8674705171471163,1050.3148254658574
3761.8362,0.8643138192253341,1091.9059675400536
3762.7036,0.8620435050927736,1158.6007465492794
3763.5693,0.8607796664354984,1328.672639311627
3764.437,0.8602043784363906,1198.318534778143
3765.3032,0.8598247415861898,973.2839719384289
3766.1714,0.8591923902033369,1109.554298160549
3767.0378,0.8581157347687918,1365.2137967733192
3767.9043,0.8567376929259569,1329.087546912084
3768.7732,0.8554078480980769,1461.1281555957194
3769.6401,0.8544344671447539,1254.6209870568582
3770.5095,0.8538950732985047,1049.9564669858419
3771.377,0.8536951402051399,1340.24886837467
3772.2466,0.8536919589754873,1142.1290600998527
3773.1145,0.8537709043383853,1071.2189116273396
3773.9824,0.853814675824541,1375.701170085926
3774.8528,0.853662393959827,1084.5474020821403
3775.721,0.8531547695849782,1238.6775455132085
3776.5918,0.8522371601251127,1110.9744372511884
3777.4604,0.8510255340207161,1348.570732198751
3778.3315,0.8497313875557357,1090.1589085108737
3779.201,0.8486141126979161,1021.8964371238061
3780.0703,0.8479666508965858,1235.9479207136087
3780.942,0.8481296167752792,1322.9811254146982
3781.8118,0.8493404313346774,1296.8539719940416
3782.6838,0.8514951244232213,1167.942937197259
3783.554,0.8540184487427107,1291.298435885774
3784.4265,0.8560890400130805,1385.6005046312127
3785.297,0.8569964473966328,1509.7635903388998
3786.168,0.8565480153074688,1140.1812001951723
3787.041,0.8551462964957731,1174.4343510316978
3787.912,0.853543913104558,1289.5003856953829
3788.7856,0.8523156279605183,1288.7373201413302
3789.6572,0.8515237427488549,1273.7002180390023
3790.531,0.850776465616063,1234.8704994891962
3791.403,0.8496614208951884,1492.6593264901082
3792.2754,0.8480784688682628,1371.0785583614868
3793.15,0.8462491289761114,1319.773384250319
3794.0225,0.8444712495356747,1245.0011268322862
3794.8972,0.8428185697517427,1313.6702728922714
3795.7703,0.8411247871198408,1360.0994392846385
3796.6455,0.8391735083503961,1337.6466901524113
3797.519,0.8370445823553617,1134.6771635263278
3798.3926,0.8351984751427817,1317.5785265434447
3799.2686,0.8342471485482618,1267.0085112763177
3800.1426,0.834520086902892,1331.0330780313602
3801.0188,0.8357903497643537,1173.829899865918
3801.8933,0.8374227372462703,1205.028536811154
3802.77,0.8388033580222805,1307.4299897287583
3803.6448,0.8396268254137366,1370.5296482496644
3804.522,0.8399310483562273,1645.2104518953804
3805.3972,0.839912621323792,1450.1984495969434
3806.2727,0.8398065794753742,1536.6896031616097
3807.1504,0.8398547498604985,1254.8759447809248
3808.0261,0.8402679428220788,1312.452098482361
3808.9043,0.8411171324566846,1073.468792684751
3809.7805,0.8422517772761031,1222.2083210316457
3810.659,0.8434152029406689,1421.5676328295026
3811.5356,0.8444278630538051,1305.6766978105677
3812.4126,0.8452928452133174,1187.8204833073487
3813.2917,0.8460734722019037,1419.1247905400076
3814.169,0.8467283783598596,1261.369594409146
3815.0483,0.8471196774347968,1145.1383955759707
3815.926,0.8471574818970917,1204.1044138010666
3816.806,0.8469109836920422,1275.4286640472912
3817.684,0.8465089206862917,1323.6819346547181
3818.5623,0.8459603031977202,1373.879557603877
3819.4429,0.84514545735159,1101.6743467771705
3820.3215,0.8440051936067214,1161.6029922414373
3821.2024,0.8426385514810758,1411.8374581497621
3822.0815,0.841196441533999,1175.3572754716658
3822.963,0.8396497861221027,1353.1556260428806
3823.8423,0.8377786040297772,1400.1645639332257
3824.722,0.8352891264017538,1407.8862451615676
3825.604,0.8319593081429095,1230.3285452809953
3826.4841,0.8277380708867051,1382.0777421806242
3827.3665,0.8227518761740953,1530.346737825693
3828.2468,0.8174492091712445,1357.825921482734
3829.1296,0.8124278849992124,1542.7828232027748
3830.0105,0.8082366061574087,1550.9071057178342
3830.8916,0.8049615683239397,1500.5996647481716
3831.7751,0.8022111521308296,1302.0289375661134
3832.6565,0.7994249307203943,1536.7120273978803
3833.5403,0.7962613166785698,1563.5671805779402
3834.4224,0.7929067905258386,1394.058736519796
3835.3064,0.7899325547107304,1381.8823046173736
3836.1887,0.788066222429587,1293.2999662825405
3837.0713,0.7879110732920052,1478.236761251307
3837.956,0.7898573576783456,1433.2667021179536
3838.839,0.7939280860935946,1610.2884616734
3839.7244,0.7996683587172894,1619.1519733152104
3840.6077,0.8060986173862982,1329.0715965788984
3841.4932,0.8121912923037293,1086.2767744148289
3842.377,0.8173263532920643,1278.1764618099235
3843.261,0.8216753028340593,1219.0159479097401
3844.1472,0.8259003608475629,1255.1863996659522
3845.0315,0.8305734652926153,1462.6961082735488
3845.9182,0.8358787384362317,1142.2755533493546
3846.803,0.8415565179310573,1189.3959494545572
3847.69,0.847264827498034,1407.9224473411023
3848.5752,0.8526927770281423,1201.5038541639494
3849.4604,0.8577337192034076,1496.3704491142782
3850.3481,0.8624368489718337,1284.419464964747
3851.234,0.866881870118768,1192.1005987696717
3852.122,0.8711247761871158,1195.865175831376
3853.0083,0.8750018759772935,1142.5621624897533
3853.8967,0.8782203983830779,1219.246379330329
3854.7832,0.8804322541259773,1284.3785862553705
3855.6702,0.8814807545056877,1272.1610096641527
3856.559,0.8814678386116106,1181.52720004825
3857.4463,0.8807203929365505,1175.8750341347186
3858.336,0.8796364657582514,1235.9988324736048
3859.2234,0.8785468020964989,1298.5420100128667
3860.1135,0.8776125890988261,1171.1220012639333
3861.0015,0.8768457593463884,1260.2124786311222
3861.8896,0.8761529900715667,1146.9961200301593
3862.7803,0.8754298381946009,1443.1854781428126
3863.6687,0.8746064092705881,1053.4463842186308
3864.5598,0.8735709574644337,1349.8340995817737
3865.4487,0.8720669035698905,1285.1078507238342
3866.34,0.8696483771595476,1285.1446931991502
3867.2297,0.865916870007012,1240.0486113567424
3868.1213,0.8607955237901143,1317.3700353069858
3869.0112,0.8547588681153486,1324.7729762991457
3869.9014,0.8485965598723686,1296.920390526499
3870.7937,0.8430322390721793,1473.1667084866099
3871.684,0.8384049616989362,1186.9904883479078
3872.577,0.8345401976820047,1228.0896288138385
3873.4678,0.8310897381666822,1186.1127579199963
3874.361,0.8277352637365466,1506.5808943163709
3875.2524,0.8244086997051637,1299.8845584138394
3876.1438,0.8213634121519839,1337.5008191291092
3877.0376,0.819469292489081,1353.3964923306344
3877.9297,0.8203700113658978,1090.2291866687171
3878.8237,0.8257501618206582,1299.9052371116265
3879.716,0.8353986013076038,1350.376393692483
3880.6108,0.8454888102475835,1571.8235873060366
3881.5037,0.8491842623544649,1741.4310960803227
3882.3965,0.840856866645554,1383.290113266047
3883.2917,0.820196465307868,1772.9034434215027
3884.185,0.7929286032676964,1393.9147099489462
3885.0808,0.7665552443751504,1677.7445960326027
3885.9746,0.7462981337711981,1796.0687984580052
3886.8706,0.7330669933709744,1928.504469285196
3887.765,0.7252916264565342,1687.559865434666
3888.6592,0.7209224358533881,1809.546113656098
3889.556,0.7187818244063323,1845.6871624670305
3890.4507,0.7185503936317953,1797.02592014463
3891.348,0.720194665182901,2040.4359262055636
3892.243,0.7235662803985824,1827.4560125337352
3893.1406,0.7284120898938286,1685.6893105068052
3894.0361,0.7344570214308042,1778.0098715973454
3894.932,0.7415246994083236,2143.7877846813985
3895.83,0.7494065404028318,1533.5897614977405
3896.7263,0.7577631150098819,1476.2147782563038
3897.625,0.7663923177437428,1519.7262356694896
3898.5215,0.7751634668958641,1562.5053243953648
3899.4207,0.7840819367836737,1394.3201574679704
3900.3176,0.7929393392722647,1358.7658700709394
3901.2148,0.801560604750034,1481.7393931946367
3902.1145,0.8099937848828259,1628.0554206759575
3903.0122,0.8185379917044051,1239.896490179722
3903.912,0.827619046185588,1145.6828099803747
3904.8103,0.8372770377000778,1168.5063509040313
3905.7107,0.8472246869817048,1317.540411992257
3906.6094,0.8568310202840422,1196.9589683993406
3907.508,0.8654732072329193,1180.805530043011
3908.409,0.8726658066478379,1164.2521536757106
3909.308,0.8782322240137332,1185.9491954944747
3910.2097,0.8825349650456723,1049.4269733677675
3911.1091,0.8862201989431711,1297.7111409128877
3912.011,0.8899440335908962,1158.9057272267946
3912.9111,0.8940296532001573,1065.5820449612802
3913.8113,0.8985692247032332,1230.4800947557053
3914.7136,0.9035981884031733,1043.03353183702
3915.6143,0.9091205954581898,1046.025778236363
3916.517,0.915068915736753,1075.7037589371587
3917.4182,0.9210947181097044,878.8257248100176
3918.3215,0.9267453404222075,1088.3986996710744
3919.223,0.9316090288807731,898.1697861860515
3920.1245,0.9356243408311641,1042.9717372533594
3921.0286,0.9390419105655481,1162.2444603931103
3921.9307,0.9422039149916803,1015.6983464880559
3922.835,0.945336912138165,1056.875223193614
3923.7373,0.9483460440754712,980.1496136321516
3924.642,0.9509282115985161,1147.7226023069857
3925.5452,0.9527288613707897,966.1584321718493
3926.448,0.9536038196590992,1056.371437040322
3927.3535,0.9536539564168296,982.7877807314649
3928.257,0.9530826583399076,1039.988600212601
3929.1628,0.9519663348433101,902.5238926482879
3930.0667,0.9501505370395894,920.890294365187
3930.9731,0.9473330588445978,965.5843712064304
