wavl,flux,ivar
3566.9744,10.629381787250248,17.020169564630514
3567.795,10.587823081346041,20.098321768039067
3568.6177,10.544386476257385,20.23401685745145
3569.4385,10.50711955897576,20.569299698963462
3570.2617,10.476059544784155,22.07942367147339
3571.083,10.446975229741042,20.132044957126002
3571.9065,10.41517891985809,20.85386438717337
3572.7283,10.37948186529547,19.484243458164173
3573.55,10.342340689826132,23.57568679512647
3574.374,10.308161399437672,21.93437943344388
3575.1963,10.280826986878836,28.286259163255405
3576.0208,10.261635454426205,23.05661621905188
3576.8435,10.250010250841287,25.10477664513961
3577.6682,10.243624160519527,21.324034295833997
3578.4915,10.238368296126016,22.617894145590903
3579.3145,10.228337552207256,21.790114102184873
3580.14,10.208138712168104,21.86989345655267
3580.9636,10.17745660801669,22.411252251149378
3581.7893,10.144119842866536,20.875884618614865
3582.6133,10.123482857702799,20.569217321397506
3583.4395,10.131318830938122,24.859497898137146
3584.264,10.17482235356115,20.470238682595934
3585.0884,10.246595250188001,24.916074945271475
3585.915,10.326736555482187,24.974653396521546
3586.74,10.391244825038802,17.04633570299805
3587.5671,10.42428836521118,19.481403431030003
3588.3923,10.422548434300781,24.95168999943297
3589.22,10.392746689456615,20.579375638463112
3590.0457,10.34439927614458,22.15461808275698
3590.8716,10.284712517401553,21.090806359840116
3591.6995,10.218914548397265,20.576995429192774
3592.526,10.153179336977402,20.422533326672497
3593.3542,10.09487916283085,21.049477995867782
3594.181,10.052218046211465,23.28748971974229
3595.0098,10.029739599720669,22.66380611418807
3595.8367,10.025586684093419,22.893277790193487
3596.6638,10.031126467892127,22.400657438260694
3597.4934,10.0360431813278,21.398260231242535
3598.3208,10.033911214023464,17.955731004094154
3599.1506,10.023667635962024,20.916998890808244
3599.9788,10.006314318070553,24.64575854717422
3600.8088,9.981536699326229,20.48000460387374
3601.6372,9.949373716574367,22.11079978569715
3602.4678,9.914324771327927,20.465965517124864
3603.2964,9.887820305837568,25.789372283660178
3604.1252,9.883221750186737,25.776579819863414
3604.9565,9.908388429899183,23.337171675675652
3605.786,9.960054903624632,22.28756954827955
3606.6172,10.025423772141302,23.671696622582147
3607.447,10.087249443904765,22.40287983554127
3608.2788,10.131898553854185,21.64464388865197
3609.109,10.153599765762882,21.88999699287381
3609.9392,10.155829340554078,22.860794471199608
3610.7717,10.146682070953712,19.17218819550629
3611.6023,10.133205929471107,24.831927996886073
3612.435,10.11755684058966,22.29947057256651
3613.266,10.09764464120343,25.046770366639432
3614.0994,10.070046092307066,22.55912344491603
3614.9307,10.033856809780334,22.242541413685792
3615.7625,9.99157591079192,21.572911280965673
3616.5962,9.947986306740175,24.57316668582979
3617.4282,9.907827764265253,22.205888268159157
3618.2625,9.873423886028126,22.605319444932213
3619.0947,9.845545409014163,23.110456664009952
3619.9292,9.823897562433817,21.5914148866001
3620.762,9.808245217760987,20.942102579964875
3621.595,9.797424960102317,18.326533689671002
3622.4302,9.788822870528522,26.318012365528602
3623.2634,9.77873697657029,21.601286963978925
3624.0989,9.763310781248368,24.58243363917593
3624.9326,9.739517412311228,27.095829371830153
3625.7686,9.705460254331028,23.2097426461014
3626.6028,9.662396238589222,23.35490900025671
3627.437,9.615812473431543,24.3495997183138
3628.2734,9.57446795377342,26.163087061373194
3629.1082,9.5463503574732,22.799282358460903
3629.945,9.533475830316176,25.111973157376923
3630.78,9.531176811481357,24.381179558521715
3631.6174,9.530487663074767,22.03261002996277
3632.453,9.522958903773098,22.147781071835674
3633.2883,9.505051880400181,20.25648579961602
3634.1262,9.480178812493175,23.011780566698782
3634.9622,9.457174261374096,26.607540567571103
3635.8005,9.444257690639505,28.093066714708023
3636.637,9.443381654373903,27.58891416464199
3637.4756,9.44803618605286,20.470456052637818
3638.3123,9.447346407777717,29.68406162329272
3639.1492,9.433336275149362,23.587489778034154
3639.9885,9.406087352661444,27.180098204314135
3640.826,9.373777355348707,29.94672294704261
3641.6653,9.34673361775314,23.77631919810811
3642.5032,9.331463123898576,23.276767239581527
3643.343,9.327086831595972,25.17608477598446
3644.1812,9.326933443180712,22.461177724128987
3645.0195,9.32261856100045,31.18892274417173
3645.86,9.308674993520906,24.050665410426586
3646.699,9.285674178025996,20.930716688074707
3647.5398,9.259533724354323,32.654236494955
3648.379,9.237785273425018,25.691031510333495
3649.2202,9.224228741226277,29.83662969738608
3650.0596,9.217186007791815,24.440352370399694
3650.8994,9.211027131779767,24.715878758181866
3651.7412,9.199666566928732,30.327329305840532
3652.5813,9.179313022996048,28.548607929443904
3653.4236,9.149994603182794,21.974680438807656
3654.2642,9.116777883298981,20.172796978351577
3655.1067,9.087877728588401,24.855201754220232
3655.9475,9.070760610778748,32.542872144464766
3656.7886,9.066889255097191,25.931922519046864
3657.6318,9.071144867696125,26.33346284909939
3658.4734,9.076133334405284,26.85102443183236
3659.317,9.078358675775037,27.941568698198335
3660.1587,9.080507384927172,28.480798157504402
3661.003,9.088122968105717,27.513692668753137
3661.845,9.103588804602218,23.055583096698406
3662.6875,9.123126612841638,28.713220162859553
3663.532,9.139080910459617,23.212972501447652
3664.3748,9.145509811118998,34.208242462652095
3665.2197,9.14242644099063,26.587483255964987
3666.063,9.134698847068073,27.640620941506
3666.9084,9.127464765051688,22.545189225339254
3667.752,9.122778885697118,26.770811404669033
3668.5977,9.120133985310348,32.20486449967679
3669.4417,9.119370466602644,34.82424361920633
3670.286,9.121588008296218,28.571792735187675
3671.132,9.127310219884182,24.3861096245036
3671.9768,9.134437009352876,21.61287834512145
3672.8235,9.138631005107207,33.701758760527575
3673.6685,9.135206299105601,24.762400431267206
3674.5156,9.12097711211593,25.76046627200587
3675.3608,9.095581667678799,27.022661760015488
3676.2063,9.061985529754114,24.672124477744298
3677.0542,9.02599623969561,30.37314625394054
3677.9,8.994243349487967,27.383750400371305
3678.748,8.970376775936867,27.93073873539218
3679.5945,8.954133358105134,28.204865061435953
3680.4429,8.941811746537518,29.4964385435797
3681.2896,8.928893049005945,26.882782944048984
3682.1365,8.911799409291365,28.400894640022063
3682.9856,8.88930777441906,24.468923438527455
3683.8328,8.863682458933834,33.26145554093415
3684.6824,8.840061950349144,30.773025322091044
3685.53,8.824788488056786,28.851888874606693
3686.38,8.821822347902236,23.802060579742545
3687.2278,8.830892351055754,27.741972027460875
3688.0762,8.847653608730573,30.84513882594585
3688.9265,8.866210387151348,29.608829524558185
3689.7751,8.882233010879872,26.44096976170068
3690.626,8.895238230702487,27.103834256816434
3691.475,8.907278443991423,25.822910532416923
3692.3264,8.919868599406911,33.53616273806912
3693.1758,8.93125928268553,25.890806349782558
3694.0254,8.937352438088627,29.418922897511862
3694.8772,8.934474975557642,27.94256829629408
3695.7273,8.921862393381582,32.786926553574894
3696.5793,8.901919577389364,28.539491865705184
3697.43,8.87913668601653,26.113297282074228
3698.2825,8.85783648511761,29.2781958145683
3699.1333,8.840347369695946,29.00577086185293
3699.9841,8.825322883915643,28.698474297950433
3700.8374,8.808851364849923,27.58590091912051
3701.6887,8.788003497015067,27.115437724065828
3702.5425,8.763550236180222,31.18847446101396
3703.3943,8.739816010854758,27.985694089540846
3704.2483,8.72053891342652,32.21159121593818
3705.1003,8.706488363292575,29.32193324154468
3705.9526,8.69572820036462,27.24714218189047
3706.8074,8.685998310756114,30.911862267683016
3707.66,8.675281773095959,28.975679199542434
3708.515,8.660274060904472,27.52270744249918
3709.3682,8.636503136092497,27.116874229466283
3710.2234,8.601105571051255,26.86670328830536
3711.0771,8.557298806220933,32.68271367397431
3711.9307,8.514290131132299,32.0298773746767
3712.7866,8.482416557369516,37.39708674603373
3713.6409,8.46701062947003,34.309550195628454
3714.4973,8.465639160153545,25.14623439255267
3715.3518,8.471840505257006,25.194519258253774
3716.2085,8.480058224639581,36.72493048482887
3717.0635,8.487524168623901,30.67211080554097
3717.9185,8.4930593345494,35.713663855169166
3718.776,8.4956838839491,30.280011701443264
3719.6313,8.494955277311636,27.004545598435605
3720.489,8.491458480360095,36.23683433001837
3721.345,8.485726271758159,30.272893813180975
3722.2031,8.476617678800602,33.90142949867369
3723.0593,8.461810860050466,30.61372832132095
3723.9158,8.440387326202357,30.58039082715217
3724.7747,8.415365672518087,26.71876973475662
3725.6316,8.393348933205205,33.201283080586265
3726.4905,8.380286463644673,33.87543564185846
3727.348,8.377835617355668,32.272976590888035
3728.2073,8.381965889276817,30.65174924850249
3729.065,8.385130252616655,34.86994706015213
3729.9229,8.380378777987689,33.12613998346378
3730.783,8.365459875009067,34.408169416776374
3731.6414,8.344913260031205,29.30475172520699
3732.5017,8.32743818309594,31.510836901633834
3733.3604,8.320514031446379,34.82993182207808
3734.2214,8.325630035832814,30.34321317794238
3735.0803,8.338314068344754,34.93391276259614
3735.9417,8.35130043971038,34.58061070217851
3736.8013,8.357000141751062,30.58922586497063
3737.661,8.349205154308864,26.733166390895704
3738.5227,8.325095023755214,30.009072248219493
3739.3828,8.288206990933771,33.63141102916077
3740.245,8.247647614963551,36.43704099116575
3741.1055,8.213799587371923,31.644327946177427
3741.9683,8.19199207986385,29.984121034982493
3742.829,8.181553271274188,39.06516906935251
3743.69,8.178191255532472,33.50074739821939
3744.5532,8.177702992409447,37.449435201736364
3745.4148,8.177266027229354,30.63026869394119
3746.2786,8.17531694246199,34.03995304230226
3747.1404,8.171658258421628,32.06777862497386
3748.0044,8.167666434287387,35.997719967235135
3748.8667,8.165639556160396,37.42338004190947
3749.729,8.16714213289453,31.372344480984946
3750.5938,8.172033915736646,35.40236308519737
3751.4565,8.178643077804539,36.48416261292471
3752.3215,8.184555741158208,45.52842082449961
3753.1848,8.18715059288926,32.45155260096147
3754.0503,8.184898754273426,32.71355488846896
3754.9138,8.178954309402265,37.04704796434521
3755.7776,8.173097334359474,34.29322679567407
3756.6438,8.171043149061163,37.943127390131316
3757.508,8.173390624715893,37.78233628182053
3758.3745,8.17717490607421,37.20171860814338
3759.239,8.177921610647815,35.754527332679544
3760.106,8.171845337967236,34.46135303990471
3760.971,8.157094306107028,31.484850993170706
3761.8362,8.134467705966074,34.5888359544724
3762.7036,8.107635718127117,37.333291207614195
3763.5693,8.08207838692905,44.706811537511136
3764.437,8.061928463415473,37.52017577291866
3765.3032,8.047981802459475,37.731944363460805
3766.1714,8.037170200827802,36.174345860529336
3767.0378,8.02497060721029,36.80541082847304
3767.9043,8.008269383431397,35.69594787971047
3768.7732,7.987261883418887,34.17490945876283
3769.6401,7.965337576774219,36.29870452147722
3770.5095,7.946699052950079,33.609509181994746
3771.377,7.9344109742604445,35.52524949596663
3772.2466,7.928473032338227,35.964349523205094
3773.1145,7.925985219269598,39.31041191943901
3773.9824,7.922918617007595,35.38826703263156
3774.8528,7.917236391087275,36.02823378159141
3775.721,7.910845190575948,39.25919486266154
3776.5918,7.9084786105281335,38.09062701680216
3777.4604,7.914981913277419,34.06331014785795
3778.3315,7.933186157605757,34.94190025484691
3779.201,7.962823443691355,34.2380157152467
3780.0703,7.999972774146372,35.45705098175406
3780.942,8.03694651267586,32.0243266237759
3781.8118,8.064422865607698,37.49827540450276
3782.6838,8.076524678847473,29.90392513213706
3783.554,8.073392390761938,37.06448482707034
3784.4265,8.060065594046796,34.539773657943265
3785.297,8.04223170124818,37.932928520165156
3786.168,8.022686430680201,34.38116946816538
3787.041,8.001087233828938,37.796208519676206
3787.912,7.975879997952672,37.50481686289321
3788.7856,7.945691595133571,31.772146327811704
3789.6572,7.910735362509107,38.535334603669014
3790.531,7.872257360940927,39.45948948869008
3791.403,7.832458467972294,35.105520342482244
3792.2754,7.792729989161164,30.111729114906304
3793.15,7.75325766929886,41.92239572528209
3794.0225,7.7139591171682875,37.68179648676731
3794.8972,7.67526444125424,41.40319170109152
3795.7703,7.63957872284441,39.58968472016918
3796.6455,7.6099529052778285,38.861884997922544
3797.519,7.589500628235135,40.583779022565956
3798.3926,7.580340318722732,42.56903532998062
3799.2686,7.584008638106631,35.27678853778058
3800.1426,7.601283847499618,41.30453753255699
3801.0188,7.631566425858884,43.86388642550558
3801.8933,7.671534591000756,39.74567886471393
3802.77,7.715332062033226,37.29219998071072
3803.6448,7.755140727398653,38.3506453048556
3804.522,7.784587198926948,36.34425067395447
3805.3972,7.80077943216304,34.883132534981364
3806.2727,7.80602116645082,40.94812858223601
3807.1504,7.806322369484418,32.4344259028763
3808.0261,7.808735204782441,40.551691182399615
3808.9043,7.8185060639726025,34.331179711458596
3809.7805,7.8373199044923085,34.668243182915276
3810.659,7.863491840676204,37.44037084913018
3811.5356,7.892632448118363,39.63707188832091
3812.4126,7.919122402662537,38.2502684765823
3813.2917,7.937075679216188,29.84247200789715
3814.169,7.942095314309777,34.728295140717385
3815.0483,7.933704761376216,34.36432509321961
3815.926,7.91582098858131,37.73446630560511
3816.806,7.894122249518022,39.19741842564117
3817.684,7.872406093146924,37.12013571392237
3818.5623,7.8506099346432245,34.889747663970944
3819.4429,7.826656307409702,37.32032317313281
3820.3215,7.799279226043886,39.397338707548016
3821.2024,7.768382973575325,36.10384074611756
3822.0815,7.7346216266944605,38.77443632011885
3822.963,7.697813209322042,44.64774570406561
3823.8423,7.657085671845487,36.30412512164595
3824.722,7.610175964771813,35.20638008012458
3825.604,7.554044458461004,36.797712746127864
3826.4841,7.486787106584804,37.68046304139245
3827.3665,7.408626524125148,37.588544114939495
3828.2468,7.324241164450083,37.38963664769356
3829.1296,7.239949303827827,43.69569398114306
3830.0105,7.161834680918925,51.17395569204245
3830.8916,7.091275496616564,47.91656419639939
3831.7751,7.025923828013696,44.57180024858051
3832.6565,6.963858266964194,43.91663780896709
3833.5403,6.906362036396819,49.82851350604986
3834.4224,6.859723312461551,54.78973470592139
3835.3064,6.830899407088035,52.382569738690876
3836.1887,6.824168044822793,46.22510315608566
3837.0713,6.839116659840166,49.556274839406605
3837.956,6.872717342081356,53.821883751941165
3838.839,6.921525586650119,46.12907997117151
3839.7244,6.983265081549128,50.60266618283211
3840.6077,7.054905226566413,62.135892827482095
3841.4932,7.132624377626872,43.95558543926831
3842.377,7.211234976989157,42.65889660487488
3843.261,7.287545389628459,51.99601293502495
3844.1472,7.361193808491293,49.66294571892771
3845.0315,7.433101526183839,46.195958955084336
3845.9182,7.504081061012534,40.06121351628599
3846.803,7.571740475408729,37.13392039696774
3847.69,7.632748993152863,41.20041529034874
3848.5752,7.684382271898202,37.10820995504437
3849.4604,7.727668347892425,39.00105797565199
3850.3481,7.766479720344824,37.75236733358284
3851.234,7.804592999564722,34.876325131902355
3852.122,7.843811811566546,40.246429692711274
3853.0083,7.882299408605726,34.961766674525045
3853.8967,7.915608840350292,36.74672359870807
3854.7832,7.936453844863943,35.70327568293261
3855.6702,7.936232903693347,36.22870048428079
3856.559,7.907301715139061,33.55273631146883
3857.4463,7.848420991321017,36.32931174486822
3858.336,7.769662961755966,40.61132214664946
3859.2234,7.694618813085061,38.53657119796533
3860.1135,7.650894420588152,39.448387801675366
3861.0015,7.655720285445133,40.06953210411634
3861.8896,7.703086647464726,36.44609574946805
3862.7803,7.76767550289376,36.52763775484291
3863.6687,7.82019847637394,37.01611123485829
3864.5598,7.84381376133036,34.540402684730914
3865.4487,7.836552311258036,37.40889082105741
3866.34,7.8051286723866244,38.79588308862033
3867.2297,7.757416965261643,34.91407908869206
3868.1213,7.699215177675374,37.48286716478356
3869.0112,7.635709227385838,37.02262719524177
3869.9014,7.57138105521416,38.233264466079916
3870.7937,7.509622639052516,36.97502724362455
3871.684,7.451996216667036,40.08958001447345
3872.577,7.397033145394812,42.651897655256626
3873.4678,7.342498362099352,40.6451857709344
3874.361,7.285962126247385,42.8202952921485
3875.2524,7.226748607826869,46.19606071687482
3876.1438,7.16425842638861,45.277753110081285
3877.0376,7.096807674246255,47.31306057280503
3877.9297,7.021650945151359,43.184434757200144
3878.8237,6.935113140793191,40.64129380522528
3879.716,6.836022024961147,48.820340646308786
3880.6108,6.725421268135508,46.70810054080224
3881.5037,6.607689460146781,51.76827137908052
3882.3965,6.48683021756203,53.42770782142285
3883.2917,6.365663288282215,55.77849146520694
3884.185,6.24681664121441,60.31595033562421
3885.0808,6.131563944461754,55.511260872804016
3885.9746,6.0229804637219235,69.14127430925274
3886.8706,5.924054528958253,70.28790888927064
3887.765,5.839876165297948,74.62962250002067
3888.6592,5.77630419344294,61.46125466478938
3889.556,5.740204368540843,78.06070326008266
3890.4507,5.737352483219898,73.3113105784652
3891.348,5.768950547416104,67.43385240331057
3892.243,5.8302424130695565,68.98566075107068
3893.1406,5.912942422630092,68.8155585091856
3894.0361,6.007826358835965,55.93307679969266
3894.932,6.109097312123602,59.86018556457121
3895.83,6.2139168599871955,58.48427926710047
3896.7263,6.319542831793569,58.49239935245677
3897.625,6.42341031786925,45.33328019524502
3898.5215,6.521633844063257,48.15148615363269
3899.4207,6.613437210636033,54.71437801439537
3900.3176,6.700732731882065,50.31430511794521
3901.2148,6.789035803414751,51.581674173118586
3902.1145,6.883648252551388,50.827451070711064
3903.0122,6.985925367528486,43.28649917924953
3903.912,7.093991195288566,47.6975875453617
3904.8103,7.2026174253275785,43.251469039528885
3905.7107,7.308001914388459,44.55563600639637
3906.6094,7.407850307377255,41.90976873620066
3907.508,7.502622924734921,42.88712878053574
3908.409,7.592998705576923,46.41687262410449
3909.308,7.677916744719146,33.560445028946724
3910.2097,7.756408875944071,30.719453285185526
3911.1091,7.827383024067488,39.30714830179091
3912.011,7.891828332074409,38.80885966742683
3912.9111,7.95099641020194,33.298905096618654
3913.8113,8.006757132056121,34.582940308459854
3914.7136,8.06022476948327,36.05639330842038
3915.6143,8.110209826464613,36.583914858243105
3916.517,8.153542537780828,32.33591658837251
3917.4182,8.185821099975339,33.87453996358011
3918.3215,8.20539246629922,33.455491624971344
3919.223,8.215197287047708,35.14906385873432
3920.1245,8.222165928412338,34.938745731771654
3921.0286,8.23307548002133,33.9173746217502
3921.9307,8.250749126017622,34.865051790662115
3922.835,8.27385731929884,33.3368925918336
3923.7373,8.299363957448657,31.95822810879617
3924.642,8.325460743890774,35.420699870246736
3925.5452,8.350803468124049,29.76465523476974
3926.448,8.373034460374722,31.193682522002828
3927.3535,8.388384947989296,30.278419625359348
3928.257,8.393808380141472,33.78169881270578
3929.1628,8.389452583804317,31.701437634558264
3930.0667,8.378170935524322,28.989917090347042
3930.9731,8.36295705287869,34.981845873949666
3931.8774,8.345120640523067,32.40470912693434
3932.782,8.324110406802022,29.72443429254673
3933.6887,8.299018235633135,35.33060426322455
3934.5938,8.269732912369223,34.38994475192245
3935.501,8.236286525019663,34.83551683985335
3936.4062,8.19853540120228,33.58470339195624
3937.3142,8.155262767289852,35.085069652940255
3938.22,8.105811187086363,34.197157378663604
3939.128,8.050460112172647,34.30846966850261
3940.0342,7.991634331749666,36.85840565500673
3940.9407,7.931652305114016,36.262423674006705
