wavl,flux,ivar
3566.9744,1.7116773562839172,103.275908132231
3567.795,1.7068509258435323,114.7837543998894
3568.6177,1.7014995591582247,112.69202065687716
3569.4385,1.6962826218643352,103.3323771785732
3570.2617,1.691986496700513,94.50872188697193
3571.083,1.68907308452455,86.56987322948649
3571.9065,1.6871712127254708,105.71912753487288
3572.7283,1.6852224161429896,99.42108683867086
3573.55,1.6820396222511491,99.24364860322459
3574.374,1.6770826981025306,91.3160159223306
3575.1963,1.6709749288320013,85.53662982573016
3576.0208,1.6651887337288311,131.3622213650275
3576.8435,1.6612670594591765,99.12721293329308
3577.6682,1.6598138439483494,86.91939500111515
3578.4915,1.6603093108272449,99.79231732691623
3579.3145,1.6616086897558322,104.12911347998813
3580.14,1.6627169418992376,112.76917942085743
3580.9636,1.6631091672428042,88.93699679263756
3581.7893,1.6625738548386328,121.68105380077274
3582.6133,1.6609575468794773,99.76920880030006
3583.4395,1.6582310317344147,85.18227391401824
3584.264,1.6548239758369796,129.1045623219581
3585.0884,1.6516744421787664,127.73572754133323
3585.915,1.6498609277712148,112.4878139048459
3586.74,1.649947221157902,100.50821400637102
3587.5671,1.6514848171345216,140.5732543762609
3588.3923,1.6531192624739206,90.049511274452
3589.22,1.6532895520183921,91.7136058148519
3590.0457,1.651068608760763,110.64449145240538
3590.8716,1.6466830994259414,114.36800907248153
3591.6995,1.6413442300882053,108.06027195390278
3592.526,1.636564844459477,120.78272203479897
3593.3542,1.6331983488585622,111.94413794885234
3594.181,1.631055419320079,105.23036123909488
3595.0098,1.6290839509411597,95.6729363571021
3595.8367,1.626027544545378,124.3613202326678
3596.6638,1.6208596329531564,127.87907404290688
3597.4934,1.6130498556759385,99.44055795518892
3598.3208,1.6030410111483042,99.92663313013624
3599.1506,1.5925334099838095,119.06530637662969
3599.9788,1.5845036124718441,149.69445751284053
3600.8088,1.5816955633236849,94.87864950445851
3601.6372,1.5849450346592748,138.6057897202362
3602.4678,1.5924397014681557,108.76377551730216
3603.2964,1.600874121392167,107.04219041214805
3604.1252,1.6076791872730614,118.02588138839832
3604.9565,1.612175406698188,105.84658835285178
3605.786,1.6151153483512595,129.8863390744308
3606.6172,1.6174868708526993,103.82227644019996
3607.447,1.619622938390327,118.1709107047161
3608.2788,1.6212757680071554,98.28705632543519
3609.109,1.6219409916756882,121.43084963408364
3609.9392,1.6211181652881224,107.61624118885182
3610.7717,1.6184960123549461,118.64446287456641
3611.6023,1.6142870848274775,105.79224381639764
3612.435,1.6092634604867697,126.36475868295314
3613.266,1.6044544490232704,116.77502493179283
3614.0994,1.6004950306910706,114.15374738898757
3614.9307,1.5974235776305663,128.87011137877403
3615.7625,1.594731495079056,104.09958075193538
3616.5962,1.5917666878463386,127.80562474904512
3617.4282,1.5881631163640915,100.39957535677432
3618.2625,1.5840129510702425,106.10145082033614
3619.0947,1.5797182155507445,112.44820808193933
3619.9292,1.5754371719109876,126.886959223081
3620.762,1.5709922926031046,129.982274824472
3621.595,1.5661527295706583,122.33509593098589
3622.4302,1.5610522833637206,124.39907659984046
3623.2634,1.5560973775369102,142.12095659382177
3624.0989,1.551382400695433,104.92381727741271
3624.9326,1.546615745699503,119.75936778959753
3625.7686,1.5415081921990017,124.69935258628426
3626.6028,1.5365069142735104,120.49650767451722
3627.437,1.532733152727206,120.7946456528704
3628.2734,1.531221042132756,146.2191008083003
3629.1082,1.531947273154189,115.63870670006345
3629.945,1.533567102729807,124.66787593592657
3630.78,1.5341578045734083,132.2004414034452
3631.6174,1.532362218375631,119.99014570419521
3632.453,1.5280741103914572,131.9358724835365
3633.2883,1.5223277327850815,138.597608705548
3634.1262,1.5167101901380293,110.00358908547445
3634.9622,1.5127647001711142,121.13160415053655
3635.8005,1.5113518153699577,130.92978933511282
3636.637,1.5124180349447052,116.78980239188606
3637.4756,1.5150514940415782,132.26779688802554
3638.3123,1.517920200912345,130.7966821157328
3639.1492,1.5198272022261736,142.33610132340573
3639.9885,1.5200224353309082,133.76970926992246
3640.826,1.5183678064247927,128.58842089867758
3641.6653,1.5153350255481235,133.49619074914088
3642.5032,1.5118355038458273,128.8151233496733
3643.343,1.5088337482748677,128.4422040381523
3644.1812,1.5070436176262958,121.52799616459328
3645.0195,1.5066004062088194,168.7398614944559
3645.86,1.5068801817587243,105.74070280475084
3646.699,1.5064916293063884,126.49037611723989
3647.5398,1.5037262517889485,119.36536740515875
3648.379,1.4974264484349624,139.15435811390196
3649.2202,1.4876676169150824,153.40251131352045
3650.0596,1.475962972673581,146.72761283049624
3650.8994,1.4644043553257464,135.9929323780002
3651.7412,1.4547474935566038,144.8708722771623
3652.5813,1.447859634615245,137.03223604373633
3653.4236,1.4436792381200796,149.06761143850912
3654.2642,1.4417492760507438,135.80766067999565
3655.1067,1.4413877618179838,136.82945411774983
3655.9475,1.4418322022492294,124.73544521002142
3656.7886,1.4424452257627105,146.73383365275694
3657.6318,1.4429966883083953,136.86851625170073
3658.4734,1.443628904754636,130.8990721062578
3659.317,1.4444566603062774,129.5566613913307
3660.1587,1.4451884869516942,125.25935223818799
3661.003,1.445244030228031,152.71431514319363
3661.845,1.4442713088814496,145.81953046628007
3662.6875,1.4426359467175698,121.18137164307021
3663.532,1.4414060284725336,148.512820320664
3664.3748,1.4417100458389827,119.22813807933967
3665.2197,1.443825561295113,138.12924267623703
3666.063,1.4467793636905903,136.77209048893886
3666.9084,1.4489116435612686,134.4320653191099
3667.752,1.448831326620093,151.44147741502215
3668.5977,1.4460610206463123,113.40391489858717
3669.4417,1.4410045531939009,172.11123365802925
3670.286,1.434581985676844,172.38071129770506
3671.132,1.4279148164662359,128.79661329644145
3671.9768,1.4220107157044157,138.76457539639628
3672.8235,1.417224926959224,151.21847397115934
3673.6685,1.4131251565776843,115.9541672131906
3674.5156,1.408769709662694,176.663638825292
3675.3608,1.4036504242219054,130.8779159605843
3676.2063,1.398290539078713,163.84853958417898
3677.0542,1.3940852727976447,186.7708526616403
3677.9,1.3923375694105542,168.63141983989664
3678.748,1.3932196020349978,140.87071431146498
3679.5945,1.3956536847422143,153.56585772575397
3680.4429,1.3979922406690164,188.44045831932402
3681.2896,1.3988950275779544,148.14304379982946
3682.1365,1.3978701258332418,120.03019851819843
3682.9856,1.3951552921126997,148.80171263551253
3683.8328,1.3913097017977887,168.46179503000303
3684.6824,1.3868034333780592,148.57086141277597
3685.53,1.3821266417059104,175.47157686820432
3686.38,1.3779707852337029,164.32200192821037
3687.2278,1.3753569254893558,148.29523450996288
3688.0762,1.3751483010389107,150.61679685107273
3688.9265,1.3774658945336242,159.38969802584475
3689.7751,1.3812803277323242,161.84804683997083
3690.626,1.384748426805458,134.2001414957046
3691.475,1.38610045718432,129.8155936502016
3692.3264,1.3847155031049934,153.78520908670723
3693.1758,1.381463480817884,170.62531754747837
3694.0254,1.378085820954706,163.20726917485516
3694.8772,1.3760961812290553,216.79315783440282
3695.7273,1.375999259188861,161.66816312754966
3696.5793,1.3772867580355037,130.26194146121483
3697.43,1.379125299435896,186.70930688700764
3698.2825,1.3810226936190415,133.99377665612812
3699.1333,1.3828279491559576,144.20953547616838
3699.9841,1.3842335703675497,145.17686646765463
3700.8374,1.3843892879116433,143.14274714817654
3701.6887,1.382255998647987,160.99812638197042
3702.5425,1.377427996561784,143.99080377271437
3703.3943,1.370681244763074,144.96964039472996
3704.2483,1.3635220947030922,170.63863708601465
3705.1003,1.3573528569693973,177.0654124728951
3705.9526,1.3525953263460895,149.41682341323968
3706.8074,1.3487397973499846,167.5929253647429
3707.66,1.3450059511191645,133.8269958511806
3708.515,1.3410016165575487,175.09009731484892
3709.3682,1.3370670501070374,144.81637932960655
3710.2234,1.3338666222138056,140.91757211063356
3711.0771,1.3318398396768631,167.62159178810603
3711.9307,1.330729065392533,170.8454303455471
3712.7866,1.3296806675387836,181.29776290084732
3713.6409,1.3277926071548087,117.16460062247965
3714.4973,1.3247036348898134,172.15647593046316
3715.3518,1.3208419963667857,176.5940567664727
3716.2085,1.3170357298807613,173.09046850866906
3717.0635,1.3139790043382518,190.20227585518325
3717.9185,1.311742291189257,194.5917114824312
3718.776,1.309849176329334,166.47757217046518
3719.6313,1.3077878996599608,176.21004414237404
3720.489,1.3055282522220895,186.76667129766213
3721.345,1.3036632851527823,204.17775027326
3722.2031,1.3029135003636199,167.5778636234961
3723.0593,1.3035111512373048,174.73154634376522
3723.9158,1.3048433017974845,173.2450808769769
3724.7747,1.3056483645544246,164.3439146239975
3725.6316,1.3046453990362676,150.57938505253284
3726.4905,1.301322446999108,181.80147302736924
3727.348,1.2964060058377609,158.69753785578922
3728.2073,1.2915587905484442,162.93972192730635
3729.065,1.288510122754646,124.40351342506679
3729.9229,1.287922936915673,188.9159579099225
3730.783,1.2890155534293473,169.73202321216158
3731.6414,1.2900954719493958,171.83755214933632
3732.5017,1.289678853449508,147.64202522815
3733.3604,1.287265450833502,219.35525337052118
3734.2214,1.2833443970184313,186.4420752380166
3735.0803,1.2789803631322114,180.04976925118888
3735.9417,1.275233547806505,182.68547478522157
3736.8013,1.2728316194833929,174.4100795627027
3737.661,1.271813503237974,208.66743027506368
3738.5227,1.271538938401693,163.32732479249515
3739.3828,1.270990751258632,164.73745917777188
3740.245,1.2692081599641993,178.45647332818103
3741.1055,1.2656039850367267,181.1293999117357
3741.9683,1.260063164261009,200.4844464020796
3742.829,1.2531624779390964,175.18612163810943
3743.69,1.2461498780738058,222.97943222380042
3744.5532,1.2406459555047256,179.00782858906072
3745.4148,1.237916339662162,187.4089578906869
3746.2786,1.2380870945350422,192.74451186790412
3747.1404,1.2401685415452337,175.35498281928324
3748.0044,1.2427295353724679,170.22672721605312
3748.8667,1.2447113151341298,175.54136073345157
3749.729,1.2458824911707083,183.99334219877392
3750.5938,1.2466401417246042,188.9277348925447
3751.4565,1.247467422165766,181.3459490090526
3752.3215,1.2484466269063765,169.3454992664811
3753.1848,1.2491079435217256,170.2674019916446
3754.0503,1.248749402045621,202.10826207280587
3754.9138,1.246950265942352,179.07807950176323
3755.7776,1.2438873396993475,230.4379936246127
3756.6438,1.2401868293422917,169.47155525324192
3757.508,1.2365289173539948,179.72731913130298
3758.3745,1.2332657236225875,175.8044121560724
3759.239,1.2305035627793783,175.67339817564527
3760.106,1.2282277054034856,190.16234380308015
3760.971,1.226452468715003,192.3081123142161
3761.8362,1.2251087415892488,187.41072083910007
3762.7036,1.2239656961854164,190.3368857987003
3763.5693,1.222671926336814,166.06670478697285
3764.437,1.2209181302432586,206.02036656632464
3765.3032,1.2185984886661168,181.67699274528155
3766.1714,1.215757478641705,206.5271744533111
3767.0378,1.212563199992445,196.09979125754796
3767.9043,1.2092697169604336,182.36904508233087
3768.7732,1.2061550693504404,197.69516396988612
3769.6401,1.2033043695864323,203.2814681623027
3770.5095,1.2004287764238037,195.0702533739015
3771.377,1.1972331582879068,179.5409909915099
3772.2466,1.19384039904179,209.6493111048074
3773.1145,1.190891055973572,234.65433714274243
3773.9824,1.1889527083459641,222.61341459343774
3774.8528,1.1880394045383367,179.00706548569326
3775.721,1.1877171606649977,207.03747070505875
3776.5918,1.187639057121338,183.14664294964106
3777.4604,1.1878812641149379,200.55783027256896
3778.3315,1.1887117838629682,239.6095168722144
3779.201,1.1901435890738632,211.65493053157292
3780.0703,1.1918054510209581,199.25360824704632
3780.942,1.193158098886992,194.01817306420918
3781.8118,1.1937067213024846,222.14923529184546
3782.6838,1.1930549623800388,180.9223387935545
3783.554,1.190956765198248,183.8082684319133
3784.4265,1.1875776248620464,161.7960825857333
3785.297,1.18377688162199,243.01425902767852
3786.168,1.1807801945130931,259.27346672404417
3787.041,1.1793960005926003,182.64380745449975
3787.912,1.179298300344026,216.76268577749386
3788.7856,1.1791239232236643,210.54313168349148
3789.6572,1.1774810977565517,190.61766468906103
3790.531,1.174001234110425,190.5109818195578
3791.403,1.1695702880335177,218.15743820451974
3792.2754,1.1654636787651969,202.12070571367718
3793.15,1.1623382591692843,210.3022014973951
3794.0225,1.1599325967623428,184.86528302042703
3794.8972,1.157557134358889,216.72007672473478
3795.7703,1.1548988983982618,203.13375823239423
3796.6455,1.1522551722786873,183.63049790681083
3797.519,1.1502725074867264,209.1482289428857
3798.3926,1.14941052332038,242.2143570143301
3799.2686,1.149707521643903,213.0642019920923
3800.1426,1.1508296520669103,260.1271605881805
3801.0188,1.1522777099479578,212.73299823601462
3801.8933,1.153538196351667,201.91393655553392
3802.77,1.1542183127741372,213.01986454827895
3803.6448,1.1541268221532006,207.69501060654568
3804.522,1.1533368690717638,233.157086210938
3805.3972,1.1521382538491252,250.47599157102022
3806.2727,1.150894161645333,215.40443485017283
3807.1504,1.1498960375868286,216.128631964363
3808.0261,1.1492298728172587,226.5146543953975
3808.9043,1.1486711079965033,268.82481895485506
3809.7805,1.1478106146167484,209.42078636046236
3810.659,1.1463941237444029,236.21104504397366
3811.5356,1.1446157046635796,243.8180868936568
3812.4126,1.142916333058723,196.68852390423052
3813.2917,1.1415390535256618,194.47550572624496
3814.169,1.140414652199041,191.6361984226425
3815.0483,1.1395097186367298,210.25625646577552
3815.926,1.1391310994909916,304.57284599821264
3816.806,1.1396015805238735,212.99756252840274
3817.684,1.1406841736011528,224.70706567875706
3818.5623,1.1414940617635767,209.79892186070418
3819.4429,1.141088986981564,199.1439202485756
3820.3215,1.1391597164946188,222.40304311700208
3821.2024,1.136144723337036,243.12484547490922
3822.0815,1.1328265147709882,184.66192305633083
3822.963,1.1297716162259208,219.4808176650742
3823.8423,1.1271373448861972,234.7435225123776
3824.722,1.1246407621050734,230.29569047418076
3825.604,1.1217669960983145,201.05275891714834
3826.4841,1.118080822309549,259.08771758047084
3827.3665,1.113439051256537,231.56141843473796
3828.2468,1.1081259656393865,257.86909898912575
3829.1296,1.1026195460639823,260.9279496793085
3830.0105,1.097513754078112,259.5416429675565
3830.8916,1.0933665081822759,217.36236488861448
3831.7751,1.090748753521799,251.13887439273893
3832.6565,1.090112264218008,267.0512474195643
3833.5403,1.09143633099303,260.22331452506273
3834.4224,1.093997655392488,286.50756943968844
3835.3064,1.0965376162180198,272.71113153684405
3836.1887,1.09780303632984,238.1202419685653
3837.0713,1.097148951319345,244.7072730359598
3837.956,1.0946147036906708,281.8999868615063
3838.839,1.0906227473849304,245.18824917744422
3839.7244,1.0856476702729563,205.6928768586146
3840.6077,1.0803663115424451,326.8066221007907
3841.4932,1.0757087386417612,256.976311485935
3842.377,1.072649202375018,311.1686069022371
3843.261,1.0715155253289628,273.2987847504274
3844.1472,1.0717642066784405,213.76777416955235
3845.0315,1.0723713931874044,248.91083781220118
3845.9182,1.0725292652300176,232.19137997623056
3846.803,1.0720215304520835,276.1946732995901
3847.69,1.0711589837975666,263.35685156668245
3848.5752,1.0705209800737612,260.6607406125145
3849.4604,1.070664481237447,264.90663536228516
3850.3481,1.0718820380196052,243.71678836161166
3851.234,1.074022866019527,221.47562029679824
3852.122,1.0765438653776733,242.07733183142759
3853.0083,1.0786641141118203,285.7869614518713
3853.8967,1.0796448235436937,268.580331073244
3854.7832,1.078986680502137,250.58122532821577
3855.6702,1.0766570054914386,250.21502182999316
3856.559,1.0731387415123281,235.02529172606037
3857.4463,1.0692524678117823,244.61921811581345
3858.336,1.0657347639584358,297.8786678150385
3859.2234,1.0631085615368037,247.3884230335663
3860.1135,1.0616897879518825,277.37095599360384
3861.0015,1.0616889518785737,303.79364651475385
3861.8896,1.062993422958184,267.3955028982405
3862.7803,1.0650027834570417,307.19970485369987
3863.6687,1.0667346112364442,244.33019431853467
3864.5598,1.0672605430097244,252.76863445387227
3865.4487,1.0659467993541445,287.6271933613583
3866.34,1.0623085742068639,220.80815735760044
3867.2297,1.055605630028769,273.9783311116523
3868.1213,1.0445523728183232,221.96995472638685
3869.0112,1.0280642357106022,217.20467393017918
3869.9014,1.0067560234158828,290.6393779392175
3870.7937,0.9845274615902246,292.97498492815237
3871.684,0.9681359103582706,265.35872557636105
3872.577,0.9633136578014017,286.2728825549169
3873.4678,0.9709840377860152,273.9231408190318
3874.361,0.9864318373412148,238.2956449033971
3875.2524,1.002532811928382,299.36543880129966
3876.1438,1.0141995942399584,296.52634496259276
3877.0376,1.019976433320824,281.11064913474075
3877.9297,1.0209874154799865,306.76319465466537
3878.8237,1.0191730225001774,222.19244779896522
3879.716,1.0161438404535843,297.890942765537
3880.6108,1.0129345236150413,287.4567251735462
3881.5037,1.0101768157099047,289.88411111222996
3882.3965,1.0081869480607542,296.6963134713249
3883.2917,1.0070646349440981,332.85402367158747
3884.185,1.0067045972168858,267.84536844481556
3885.0808,1.006785862148397,289.5066588511737
3885.9746,1.006889573283124,296.4047521551207
3886.8706,1.0067129090963185,274.1849894040957
3887.765,1.0062272399970482,317.2170584811234
3888.6592,1.0056064221314598,313.00226514387464
3889.556,1.0049786773582616,273.37691678576664
3890.4507,1.004230181434512,273.6393507594353
3891.348,1.002993926489777,295.3249800539366
3892.243,1.0008685966284403,293.1189854381666
3893.1406,0.9976866668853659,258.3536234956477
3894.0361,0.9938404459282544,294.4947607316415
3894.932,0.990316877403195,341.4916362862973
3895.83,0.9884683252307729,276.23992446534555
3896.7263,0.9894060967670854,310.9194831199275
3897.625,0.9932900489051053,322.5924164762473
3898.5215,0.9989812202539788,357.0961133882967
3899.4207,1.004495294762837,281.82571947570545
3900.3176,1.0079045271795664,227.71699049227055
3901.2148,1.008429280184396,247.40241239016984
3902.1145,1.0066032977641508,266.80323544377524
3903.0122,1.0036702615532935,337.6589812814362
3903.912,1.0006838980043635,303.63942913222587
3904.8103,0.9982233735157547,276.2557883759207
3905.7107,0.9966098826783039,278.55050235947687
3906.6094,0.9962279884515246,281.352056222424
3907.508,0.9973714979598062,299.5850347788453
3908.409,0.9998894110531914,341.2798070833519
3909.308,1.0029714161048064,288.6079063572342
3910.2097,1.0054682674429862,286.38724398252754
3911.1091,1.0064823175854545,318.3134957513322
3912.011,1.0059554531522745,304.3170511112163
3912.9111,1.0046455520439506,366.0637641453201
3913.8113,1.0035346730821597,353.1948193760961
3914.7136,1.0031490485910117,317.9774985043528
3915.6143,1.0033476439534765,347.59616222762486
3916.517,1.0036320751639736,291.5627231892992
3917.4182,1.0035877383106313,272.17036541010225
3918.3215,1.003075500157361,274.56067997245384
3919.223,1.0021528630081022,283.20514522504914
3920.1245,1.0009175450092984,256.5172652441177
3921.0286,0.999428151614134,274.8758894792421
3921.9307,0.9976845522723257,276.165549187487
3922.835,0.9955724005419315,280.3265831690667
3923.7373,0.9929347175628286,298.56529944472646
3924.642,0.9896870827287311,275.9100206421086
3925.5452,0.9860389106310624,320.5003924449839
3926.448,0.9824617285140312,281.8452124837469
3927.3535,0.9795264106841217,324.28798492427006
3928.257,0.9776678451536253,310.56113347641264
3929.1628,0.9768949747533017,337.67924246283206
3930.0667,0.9767095269326562,304.31024581041197
3930.9731,0.9762264299240221,303.92082337976933
3931.8774,0.9746498722585443,296.62740941598753
3932.782,0.9718165411917222,283.82528799167744
