wavl,flux,ivar
3566.9744,2.370865307727022,97.097635383208
3567.795,2.3653798666301338,93.063607275143
3568.6177,2.357394610543006,115.4394183938019
3569.4385,2.346740725985958,97.89358333220774
3570.2617,2.3352114655799165,102.07696614813746
3571.083,2.32566437902449,106.27293429226697
3571.9065,2.3199165561454276,102.7161496656964
3572.7283,2.3178909966512933,110.36501310548208
3573.55,2.3181062251156206,105.98403746927107
3574.374,2.3191783287160908,115.05261576694897
3575.1963,2.32059957063586,122.14435633333957
3576.0208,2.322369219751688,104.85618438581821
3576.8435,2.324162887238571,114.93683508916715
3577.6682,2.325248973769684,111.52300022565598
3578.4915,2.325104809492955,110.03726154410501
3579.3145,2.3238883457240185,113.31240534471274
3580.14,2.322085428349241,122.76541984411162
3580.9636,2.31990494317993,106.64168090903979
3581.7893,2.3170719165767713,117.68518917571622
3582.6133,2.3131568150053816,107.21558856717942
3583.4395,2.307759494123969,115.62272024314655
3584.264,2.3006497627874407,122.16026346299094
3585.0884,2.2918915282731165,107.91172244000403
3585.915,2.2822496166286315,103.12578485879276
3586.74,2.27339523081261,112.26970346217551
3587.5671,2.2672180158796986,106.54593626787667
3588.3923,2.2650358867025218,117.79507463514324
3589.22,2.2668001592570737,104.33835019683939
3590.0457,2.2710955051682777,101.87819043468474
3590.8716,2.275644369074191,113.5823284023767
3591.6995,2.278020590857505,125.07528590886778
3592.526,2.2764092643427634,105.44866163590572
3593.3542,2.2703218094662976,100.82323762007528
3594.181,2.2609352358148596,102.77335920145143
3595.0098,2.2505718464912845,125.67837414245146
3595.8367,2.2417480631475724,111.87107182764652
3596.6638,2.2357978159752228,112.76927377792192
3597.4934,2.232495280833459,120.9749305798171
3598.3208,2.2306654999609945,102.76008044934596
3599.1506,2.2293271816019478,117.0814749059297
3599.9788,2.2284568374307683,118.7064962444865
3600.8088,2.2285851294325334,101.7022137879142
3601.6372,2.2298286582373454,117.81967697990153
3602.4678,2.231354001086883,111.37308559384329
3603.2964,2.2318073132632237,110.26468393025532
3604.1252,2.2303322461043913,103.88392088571486
3604.9565,2.227205294082847,108.47117398940388
3605.786,2.223727075732362,113.98529668910527
3606.6172,2.221336772600506,121.95922007018612
3607.447,2.220689156233128,106.11730419803885
3608.2788,2.2211283412021623,121.66117138288823
3609.109,2.221108237992351,102.50841680238412
3609.9392,2.21924626617136,108.23364130766022
3610.7717,2.2151615277112606,131.13638673770282
3611.6023,2.209530941336179,107.8080662467506
3612.435,2.2033586691305604,112.0843075726735
3613.266,2.1974592037685645,117.20728128563428
3614.0994,2.19218770242577,111.1056529424013
3614.9307,2.1877152253139234,122.31532908983218
3615.7625,2.1841117901094433,113.9965244383697
3616.5962,2.1814379808960838,115.67639258729834
3617.4282,2.1796710712755525,127.64364408873894
3618.2625,2.178549066059053,133.92154081372976
3619.0947,2.177506624122206,114.04346256465016
3619.9292,2.1756856257063277,131.83056088195795
3620.762,2.1722586918711566,113.94787831277404
3621.595,2.1668843831445703,116.33323219868129
3622.4302,2.160052042236151,127.10627493601552
3623.2634,2.1530334108089653,152.94093079624858
3624.0989,2.1471913938985914,122.79101599835948
3624.9326,2.14347763892107,148.54987664972103
3625.7686,2.142068502098712,146.21905478975674
3626.6028,2.1425919761028482,126.19400870934352
3627.437,2.1443924978369657,120.75028131999136
3628.2734,2.14672410098695,121.7526766880307
3629.1082,2.148718508448063,113.81757996896029
3629.945,2.1494059109005024,112.14504119494909
3630.78,2.147879922473199,120.86955394167082
3631.6174,2.143754982043835,108.70439297756907
3632.453,2.1376205504479495,114.72940269225013
3633.2883,2.1308394092863026,108.90604471508911
3634.1262,2.1247441861358833,132.88876450716626
3634.9622,2.1198348074772655,129.1108858971751
3635.8005,2.1155850625716317,129.42627760188688
3636.637,2.1113464331565988,107.3467157466369
3637.4756,2.1071517074968305,117.98644990594606
3638.3123,2.1039539828215763,130.88054490052767
3639.1492,2.102814022857445,131.2398599538664
3639.9885,2.1039336635741743,134.4186842578378
3640.826,2.1061831160464686,120.73350798679242
3641.6653,2.1076899345130475,145.0956878092201
3642.5032,2.1069729572427924,133.188412219506
3643.343,2.103798778519917,138.69523347551973
3644.1812,2.0991668407418187,152.03918686355928
3645.0195,2.0945224958656383,136.29283681681522
3645.86,2.09087909481394,140.97291336358782
3646.699,2.0883611975602188,135.7203309776759
3647.5398,2.0863788140144064,133.79594697050658
3648.379,2.0843835234569243,123.1193433263445
3649.2202,2.082298106583432,133.3972775277096
3650.0596,2.080285124818854,129.94407344503313
3650.8994,2.0780530977129,127.808969066194
3651.7412,2.074697745777092,146.70717731402115
3652.5813,2.0693828011486115,127.40545729316224
3653.4236,2.0621330615145728,133.23086699162937
3654.2642,2.054105104758149,127.82748234417384
3655.1067,2.0468127639203026,129.36619532815888
3655.9475,2.0413669182055862,141.52153360136887
3656.7886,2.037854660605629,133.17120623397608
3657.6318,2.0354625429352575,155.93939918277258
3658.4734,2.0329822533227135,136.46765861499534
3659.317,2.0294578858912686,128.42296039381455
3660.1587,2.024720389572534,137.6817685961954
3661.003,2.019307461851822,149.68331471313783
3661.845,2.014110268516553,154.9152268413105
3662.6875,2.0097798453843714,129.7549527138532
3663.532,2.0065723046094974,146.7941426406339
3664.3748,2.004429756037441,120.15138781946035
3665.2197,2.0030632295725277,148.99226729619497
3666.063,2.0019623904122734,139.7673955717539
3666.9084,2.00030915828308,128.16779791654864
3667.752,1.9972698001909976,133.67745256838012
3668.5977,1.9925427144856793,127.59207657094755
3669.4417,1.9868016433723248,144.56752880612603
3670.286,1.981344996316994,133.00346997758595
3671.132,1.977401874156333,161.64056580153365
3671.9768,1.9755769202169198,153.83705608200816
3672.8235,1.9756916017712538,145.3287863084382
3673.6685,1.9770318615806557,135.58564630926134
3674.5156,1.9786658704339228,141.97142374456263
3675.3608,1.9797385971657622,135.22158131933364
3676.2063,1.9797338909138136,140.63408149550597
3677.0542,1.9785249032328518,135.9261757044769
3677.9,1.9762572118251192,155.61561006375783
3678.748,1.9730662930642993,140.74243172164955
3679.5945,1.968993312906056,143.7042625079844
3680.4429,1.9640866704938416,154.29593680655597
3681.2896,1.9587788393097483,146.0009570329388
3682.1365,1.9538992441965513,165.70262362356308
3682.9856,1.9503868901696875,149.03044669935437
3683.8328,1.9487532417655133,147.79647172058293
3684.6824,1.9485817260802056,156.09921349287106
3685.53,1.9485059367842308,175.62255139952237
3686.38,1.9467343437630407,129.47897657252884
3687.2278,1.942133574631264,137.73713287995494
3688.0762,1.935088914426609,162.33261828988327
3688.9265,1.9273444702698366,170.49704685471843
3689.7751,1.9208205204948594,145.70334618603974
3690.626,1.9162800649297225,157.23776477239878
3691.475,1.9133318226258391,139.83429919005567
3692.3264,1.9112748750107302,142.55074580674705
3693.1758,1.9100709540754948,168.9148962912069
3694.0254,1.9103137756179245,165.16415641651776
3694.8772,1.9124455944050933,159.29373071585994
3695.7273,1.9159542901615156,163.95040198128854
3696.5793,1.919513181920627,151.21016491277283
3697.43,1.9218902119866579,157.74104534484067
3698.2825,1.922856732625612,150.2526704524803
3699.1333,1.9230229497983287,158.4899334557653
3699.9841,1.9229387446011141,148.80505227202306
3700.8374,1.9224590546667542,141.18861842531552
3701.6887,1.9210437469943595,163.21041590663816
3702.5425,1.918420395101394,145.89020968908554
3703.3943,1.9148611670457314,162.8925429143677
3704.2483,1.9108978560529775,144.23448288626594
3705.1003,1.907164559315685,170.18784685475856
3705.9526,1.9042566244703723,167.05582329300614
3706.8074,1.902524796026231,156.128031179455
3707.66,1.901641073774164,158.37737942518007
3708.515,1.9004661858034664,154.33153045598553
3709.3682,1.8977348537069811,167.5352538940205
3710.2234,1.893035693489793,140.86197560843902
3711.0771,1.8872753264561224,156.58233111308266
3711.9307,1.881954481364478,202.69604266007323
3712.7866,1.877994612009894,174.15114351725543
3713.6409,1.8751369338089083,150.37074498338217
3714.4973,1.8723300565445093,159.5934600084536
3715.3518,1.8688829361004382,147.13229374623646
3716.2085,1.865085356793365,183.7264357479365
3717.0635,1.8619380722747567,191.7293604912975
3717.9185,1.8601715613467318,182.42993989976185
3718.776,1.8597308349084654,172.01894706426796
3719.6313,1.8599964585361086,140.0815497405297
3720.489,1.8603231428834852,173.4191533694455
3721.345,1.86031107821944,154.2841479595958
3722.2031,1.8597430716023782,167.64051192073643
3723.0593,1.8584620575249666,144.03810616890328
3723.9158,1.8563127344189847,180.84042542263788
3724.7747,1.853164853316827,145.02356231847426
3725.6316,1.8491047937030678,161.7355444608249
3726.4905,1.8446088479844416,156.02604061489097
3727.348,1.8406009111039627,155.6281833727245
3728.2073,1.8378995510734928,183.7715029385907
3729.065,1.8366070024408683,167.20283177924838
3729.9229,1.8358631153752734,168.18344347319956
3730.783,1.83439314168817,175.2582134883409
3731.6414,1.8313251960060746,165.16670737286736
3732.5017,1.8265988627467116,179.27395100223504
3733.3604,1.8208571167388659,176.95080511319875
3734.2214,1.8148911880431762,188.6261113726513
3735.0803,1.8093426316201133,171.73329562802817
3735.9417,1.8044680461748552,161.63203268123777
3736.8013,1.8004134202112114,175.98289651190726
3737.661,1.7973448393629206,190.57679162946263
3738.5227,1.7954624341335494,191.1682416153205
3739.3828,1.794656100936364,201.12806932174274
3740.245,1.7941737552765973,167.3074690842934
3741.1055,1.7928665352142166,171.54993177394675
3741.9683,1.789862952990166,154.9204810856038
3742.829,1.7851330609257292,160.2945344569174
3743.69,1.7793344188591327,186.63603826337973
3744.5532,1.7733368723230416,167.4576215682262
3745.4148,1.7679960283984804,184.93079691503112
3746.2786,1.7640325632802083,179.29570686002563
3747.1404,1.761954684322466,202.50346007624685
3748.0044,1.7615518547658633,200.89336114936208
3748.8667,1.7617575499408102,183.83431887294748
3749.729,1.7612255967393406,170.76622353096414
3750.5938,1.7593930206756778,188.6127043863605
3751.4565,1.7570739059057796,182.42265787738037
3752.3215,1.7558421348040858,188.44467085566976
3753.1848,1.7566926253233641,201.29147707626151
3754.0503,1.7590678167428606,175.57057887747172
3754.9138,1.7612066124536654,161.86010865012003
3755.7776,1.7615496857812647,174.4210681557533
3756.6438,1.7598267143331898,178.17779383171964
3757.508,1.7570011557126863,190.3747651864397
3758.3745,1.7542192663484562,179.1314435918406
3759.239,1.7519666480523233,181.27950911383897
3760.106,1.7499571597339716,190.15518276731038
3760.971,1.7477094956834103,177.72759600778588
3761.8362,1.7449953735479522,189.95187687131104
3762.7036,1.741957029029417,189.45679729940147
3763.5693,1.7389390913890255,195.11021962109365
3764.437,1.7361634532872452,175.23169065586868
3765.3032,1.7335947862859489,187.83166687151433
3766.1714,1.7309658381008315,175.1731702821999
3767.0378,1.728158659943041,213.60244240392694
3767.9043,1.7254583787089735,185.89479652931846
3768.7732,1.7233943666851677,213.4408401566861
3769.6401,1.7221553214607819,204.74546754505113
3770.5095,1.721151865335002,161.6269454642453
3771.377,1.7193469428229233,200.63182625637035
3772.2466,1.715948766899481,193.10064988977766
3773.1145,1.710887893699517,202.4205876725425
3773.9824,1.704628726325012,181.9223317575952
3774.8528,1.697760132015703,185.9045286491981
3775.721,1.6908020369687178,222.38010843269825
3776.5918,1.6841079860747044,221.72587136332484
3777.4604,1.6782107352580866,223.27704836967203
3778.3315,1.6737340224864274,215.322536462629
3779.201,1.6712354224531731,212.80411494993731
3780.0703,1.6707406112157746,197.57102024445274
3780.942,1.6717536370087682,203.91537218663748
3781.8118,1.6735804439012962,209.78613471946485
3782.6838,1.6756503491334795,202.72918652696544
3783.554,1.6774701138561317,194.72195356875702
3784.4265,1.6785851105681404,214.53313878669218
3785.297,1.6787339260535932,172.88732913068029
3786.168,1.6780942434701083,240.4379506912034
3787.041,1.67708016560627,208.3501624192445
3787.912,1.6758203932668159,190.72674716841095
3788.7856,1.6738637978925281,214.96919654860054
3789.6572,1.670604913787009,184.56396874368465
3790.531,1.6659526535358444,228.4829158649962
3791.403,1.6606751444846108,226.7904549710795
3792.2754,1.65588871109267,195.40574000420685
3793.15,1.6523744321686151,227.04638725190318
3794.0225,1.6502759970881926,197.12528600621198
3794.8972,1.6492696064443708,215.71123360901254
3795.7703,1.6489370833054486,194.54114777870242
3796.6455,1.648813924150337,220.75138597340862
3797.519,1.6483435172524579,201.7158366526218
3798.3926,1.646976902538455,224.91927585359477
3799.2686,1.644386915528634,216.3028069524638
3800.1426,1.6406087900304935,202.0750416440277
3801.0188,1.6359441820573184,210.1703027861937
3801.8933,1.6309543766891428,216.5464755322779
3802.77,1.6263285162548589,223.6205657161071
3803.6448,1.622844041579127,210.37174277543232
3804.522,1.6210290574206252,205.5573861013962
3805.3972,1.6209136048641077,233.04006658070517
3806.2727,1.6218667193243501,193.7542971032685
3807.1504,1.622870805959198,216.38512839669752
3808.0261,1.6229994873808846,256.227490742736
3808.9043,1.62184131669656,196.71129728293602
3809.7805,1.6196249171795327,221.42651329820066
3810.659,1.6170200290030943,244.63381072627763
3811.5356,1.6147558661532937,221.18895827701587
3812.4126,1.6131493164176764,228.14016241629702
3813.2917,1.6120217746331407,199.19162962848753
3814.169,1.6110058783636638,235.40667528787068
3815.0483,1.6098795393539085,237.1741669715448
3815.926,1.6086476619121122,231.96235519521883
3816.806,1.6073942975241087,219.56703686159312
3817.684,1.606247169656239,212.03084906198072
3818.5623,1.6053646750792523,200.9654719027866
3819.4429,1.604858347544941,223.30088601116412
3820.3215,1.6046347179352443,233.06798475991326
3821.2024,1.6043319511417953,241.73394272253205
3822.0815,1.6034765673250635,222.91763100382235
3822.963,1.6017244405758568,215.75290293796434
3823.8423,1.5990296421277796,205.7826782620686
3824.722,1.595561925107304,248.25306870274733
3825.604,1.591556323232328,209.085959185419
3826.4841,1.5872897853253845,245.31133372729423
3827.3665,1.5830556496687784,206.94390348364888
3828.2468,1.5792039226392096,226.57910985077262
3829.1296,1.5758388970740256,221.57120992077745
3830.0105,1.5726639160313458,236.27403387071752
3830.8916,1.5689688988796808,226.27929417189168
3831.7751,1.5640130814964064,232.8069817707045
3832.6565,1.5575159086619903,206.35646700122766
3833.5403,1.5498206482624577,233.52943000440246
3834.4224,1.5419653738375954,213.90307319725122
3835.3064,1.535160639977169,260.9931169742695
3836.1887,1.5303303508246793,218.963392250359
3837.0713,1.527560544170385,231.6117257599782
3837.956,1.526152377236278,237.9650035624623
3838.839,1.5250848349450208,219.53467402508528
3839.7244,1.5236703433806884,227.12383940439997
3840.6077,1.522079356011298,257.9491552052887
3841.4932,1.521310503270171,246.260666152388
3842.377,1.5226025976962951,255.45275759794376
3843.261,1.5265301145013714,245.15747820136727
3844.1472,1.532512072767461,226.7483635532993
3845.0315,1.5390121860249066,265.73504841264315
3845.9182,1.5444528462289402,263.4231285392652
3846.803,1.5478545291385066,273.2796376488568
3847.69,1.5492125724128798,213.84669785903145
3848.5752,1.5492501375606536,223.26573148638727
3849.4604,1.5490331936249846,217.62739779886704
3850.3481,1.549546258326834,204.3032283105678
3851.234,1.5514176901715624,253.68223157524022
3852.122,1.5547921560570857,269.346720850932
3853.0083,1.5592227286634786,235.82916561838124
3853.8967,1.5637901327224972,252.29100658027116
3854.7832,1.5673296075489613,210.91471951991593
3855.6702,1.5689733704965896,213.1887799808752
3856.559,1.5684498900560586,235.29019842188578
3857.4463,1.5661347656384457,246.3976996054408
3858.336,1.562829280183026,237.4866445881541
3859.2234,1.5595439661847106,225.11925544982734
3860.1135,1.5571356675183483,235.983300317687
3861.0015,1.5560071498376045,239.63013542316534
3861.8896,1.5558609094265312,232.3025105189118
3862.7803,1.5559401253491414,208.0312587899106
3863.6687,1.5555055887313465,222.59406429608902
3864.5598,1.5541673280225035,246.0666098770309
3865.4487,1.5518200538508058,257.5406280881742
3866.34,1.548317214751125,229.7170511847649
3867.2297,1.5434056815586896,233.35069535135068
3868.1213,1.5368701862601846,229.39525878427006
3869.0112,1.5289047963555709,254.99427720843104
3869.9014,1.520082533793888,268.3671981543061
3870.7937,1.5111693724981996,241.78820386646967
3871.684,1.5028791573282443,233.5595530906989
3872.577,1.4954992391451012,243.35331678064983
3873.4678,1.4889640457355648,213.8315343673226
3874.361,1.482781810375287,255.64741781312352
3875.2524,1.4764036828904001,326.78198305146
3876.1438,1.469455569679735,283.099898552958
3877.0376,1.4620163019815393,282.4583906014583
3877.9297,1.4545996640910666,286.03683152608306
3878.8237,1.4476548007677232,288.49118870972416
3879.716,1.4413477698717343,276.8635633696615
3880.6108,1.435435375437666,259.0206102770469
3881.5037,1.4296109733611444,279.22333970008697
3882.3965,1.4235923377464272,285.9033670404269
3883.2917,1.4172145059226267,284.8252915247185
3884.185,1.410495463457414,249.92157327934535
3885.0808,1.4034948588804677,316.68847520333065
3885.9746,1.3963110454125875,295.44301914465035
3886.8706,1.3888331875093212,297.6605043417094
3887.765,1.3810293402421263,310.315220705105
3888.6592,1.3732008542324354,289.5672252984677
3889.556,1.3661908158141254,309.44437832195905
3890.4507,1.3611562500786716,338.1561979076432
3891.348,1.358968101853365,295.80104365145047
3892.243,1.3599992007421047,293.21015769521574
3893.1406,1.364032914409496,306.6753280817787
3894.0361,1.3702783165590469,315.89775731851364
3894.932,1.3775741778789437,299.09468492386475
3895.83,1.3847247567023055,301.07547468331916
3896.7263,1.3908892291782315,306.19640279311983
3897.625,1.3959546397317164,286.2145835098917
3898.5215,1.4003330191696042,326.4917268857895
3899.4207,1.4047584098581276,274.65461937217117
3900.3176,1.4098143648426225,297.09172390925306
3901.2148,1.415721469615804,271.36752444242296
3902.1145,1.4222123003315135,281.0319137247859
3903.0122,1.4286517110258141,278.05382301457115
3903.912,1.4344561401245615,267.11167975795996
3904.8103,1.439195454811583,271.97116692535985
3905.7107,1.4427618125761215,274.8129811828776
3906.6094,1.445357587329236,246.34548725545707
3907.508,1.447614118874357,240.62485931733704
3908.409,1.4503716508800202,296.86726559052505
3909.308,1.454154041554791,242.6641248699156
3910.2097,1.4587975535968398,269.0732508572415
3911.1091,1.4635115870336755,281.53570540178447
3912.011,1.4675803105417076,242.0682449896034
3912.9111,1.4708133001682817,256.7916030772083
3913.8113,1.4736103738864796,293.14480545586315
3914.7136,1.4764651022157667,280.3930067075901
3915.6143,1.4795102903589958,303.5867288865333
3916.517,1.482540997254377,247.55064251849592
3917.4182,1.4852857683405742,256.7373461547788
3918.3215,1.4877289297940974,231.32278573322552
3919.223,1.4900138913353635,237.3626996516823
3920.1245,1.4922153781726137,246.5277385893611
3921.0286,1.494142816621545,253.22096575527084
3921.9307,1.49542747835909,264.1866722089652
3922.835,1.4958366889750403,253.85730687695965
3923.7373,1.495456303322939,263.0001125577218
3924.642,1.494614908097755,258.7387714223738
3925.5452,1.4935657492262258,257.6520323718067
3926.448,1.4922048735701674,244.025816562722
3927.3535,1.4901217133113893,237.05112518590886
3928.257,1.4869838503745478,264.3309974398115
3929.1628,1.4828438789810678,270.80546433602075
3930.0667,1.4781909193794722,253.95098628140244
3930.9731,1.473516470162092,270.46290709061356
3931.8774,1.4690576631447847,247.01814111759478
3932.782,1.4647398168870935,243.12085891925963
