wavl,flux,ivar
3566.9744,1.3088575487876726,509.4828760040414
3567.795,1.3127305524362276,503.39754933548676
3568.6177,1.3167103215191736,403.46562336692773
3569.4385,1.3191612911650554,428.4229697332462
3570.2617,1.3186718855297295,476.10747878492464
3571.083,1.3147108087030033,469.73077185256517
3571.9065,1.3080518652975652,386.6754879770583
3572.7283,1.3005308506689828,558.7396080187834
3573.55,1.2939202190677042,530.6290767204329
3574.374,1.2890551451940446,374.9517698225913
3575.1963,1.2858200904445942,494.35120157571316
3576.0208,1.2836757247749302,547.246871372476
3576.8435,1.2821787897884303,521.1463523820299
3577.6682,1.2809329848280242,487.42845860604876
3578.4915,1.27952717148693,491.6189213563593
3579.3145,1.2776147131627504,454.85608473808514
3580.14,1.2750631308845446,578.0881460103761
3580.9636,1.2720282901648403,384.6957335760583
3581.7893,1.2688696331631624,444.52161235742005
3582.6133,1.2660228094939077,481.4407628396567
3583.4395,1.2635786094714139,476.73062431392276
3584.264,1.2611264178391486,454.8084721478903
3585.0884,1.2581475895089855,396.80753337665544
3585.915,1.2548758172563714,579.8710469576422
3586.74,1.25262710567376,469.2296116852578
3587.5671,1.2529685132263155,522.8647463172223
3588.3923,1.2565003990437882,434.811108678142
3589.22,1.2622728733703041,466.60692652553854
3590.0457,1.2681688584422774,501.42362658373946
3590.8716,1.2720427001889592,647.9833366644467
3591.6995,1.272601201760081,415.7841647436915
3592.526,1.269840057210688,538.4392070694566
3593.3542,1.2648624616660917,421.115362330635
3594.181,1.259334056784857,560.1389975474859
3595.0098,1.254738346406247,709.4103289469783
3595.8367,1.2519765105416083,530.3356122665575
3596.6638,1.2511371102300604,442.20629401803836
3597.4934,1.251732637234126,461.62118162642724
3598.3208,1.2530212242646201,582.7649840635115
3599.1506,1.2543416443655078,480.3832026883021
3599.9788,1.2552884336257601,595.5510370076096
3600.8088,1.2557857066188425,476.2844378788276
3601.6372,1.2559422846891977,587.82572683154
3602.4678,1.255812893614667,435.7787841776694
3603.2964,1.2552719776986307,618.050203859532
3604.1252,1.2541550305070892,481.4579134552337
3604.9565,1.252412352177307,414.57000949743764
3605.786,1.250040107579877,683.8063710261442
3606.6172,1.246945192139282,661.2204337029874
3607.447,1.2432699310203421,379.2675243494984
3608.2788,1.2397609849192353,562.1548549805832
3609.109,1.2376654348984955,496.7985724617105
3609.9392,1.2378115613509102,581.2017036663348
3610.7717,1.2398578852920246,548.7353609518627
3611.6023,1.2423411182892765,459.9861899143641
3612.435,1.2436263629224664,482.08529978128524
3613.266,1.2428831736421988,493.35724481408545
3614.0994,1.2405014884509418,582.5016924301663
3614.9307,1.2377301225117066,496.20788220750245
3615.7625,1.2358666999423538,540.0248690224798
3616.5962,1.235639972726122,611.2657199128504
3617.4282,1.2369461239566015,535.5901017158641
3618.2625,1.2389396320889723,650.7166966773473
3619.0947,1.2403759794514548,536.5562983027243
3619.9292,1.240254585287406,472.9950792810751
3620.762,1.2384249835063017,569.8629694496209
3621.595,1.235713014012697,526.7706470590324
3622.4302,1.233289777937637,638.1004573250974
3623.2634,1.2317573417660503,521.7545743697835
3624.0989,1.230675313576044,536.613074089453
3624.9326,1.2291112289407102,575.8790896659132
3625.7686,1.2266485309216761,509.4587560860667
3626.6028,1.2239997072334965,551.9913102349242
3627.437,1.222495137420935,533.5268625627656
3628.2734,1.2229847003614749,447.93867156480417
3629.1082,1.2250507883066775,497.42855145802366
3629.945,1.2271922706510399,644.3225789064929
3630.78,1.2276739281616176,470.9740963334537
3631.6174,1.2254662307451933,492.1091547417389
3632.453,1.2207528083913648,550.8511080686424
3633.2883,1.214829610760432,510.8064338857809
3634.1262,1.2094559147431228,560.9477913671859
3634.9622,1.2059984548942944,601.4653509782586
3635.8005,1.2047282990392734,708.9777243783697
3636.637,1.2049820285203774,498.37048416304975
3637.4756,1.2057435166945005,629.5730540168119
3638.3123,1.2062147116648356,505.52022679842327
3639.1492,1.2059334865732674,596.9577895134954
3639.9885,1.2045630889119125,480.67502954004055
3640.826,1.201893314277411,552.7083032016186
3641.6653,1.198144737758194,580.9064811315299
3642.5032,1.194249395469593,669.435762733911
3643.343,1.1914117371725264,546.266639275605
3644.1812,1.1903371099977567,522.0889721867501
3645.0195,1.190715104241414,572.7971719440015
3645.86,1.1915936141340784,528.1857436501003
3646.699,1.192138073263318,503.1709225211021
3647.5398,1.192107621814468,535.0704213576564
3648.379,1.1916708353856944,557.2858099412255
3649.2202,1.190923418810447,731.6274113384382
3650.0596,1.1896810219615912,654.6021259666724
3650.8994,1.1877394936478634,548.8868222011563
3651.7412,1.1852963378125145,616.9380514713224
3652.5813,1.1830154843169924,606.8611214247106
3653.4236,1.1815417279758351,497.87545771902955
3654.2642,1.1810157309748983,572.5214969703632
3655.1067,1.180966422365197,632.6326104166359
3655.9475,1.1807454512269007,573.482647524482
3656.7886,1.1800101264067668,789.8754279370262
3657.6318,1.1787795656860673,558.4665907044864
3658.4734,1.1770531753601228,652.558480777339
3659.317,1.1744519762375494,524.7467585344186
3660.1587,1.1704847432924135,648.0318622147138
3661.003,1.1651782820251189,765.13739521525
3661.845,1.159615779329246,529.5245351600709
3662.6875,1.1555208320794366,496.72322532899983
3663.532,1.1543268593308569,531.447906401224
3664.3748,1.1561824536516183,620.962050859407
3665.2197,1.1597675895495272,691.1187269600052
3666.063,1.1630903048740497,612.488222251345
3666.9084,1.1647174122818156,553.9909169461673
3667.752,1.1643144151179887,552.376898046462
3668.5977,1.1623159861345709,680.4480896394587
3669.4417,1.1592107985494364,734.6593757680716
3670.286,1.1552598299427166,497.7430023333
3671.132,1.1508546334741834,504.36632585267165
3671.9768,1.1469161164424757,632.3954243378265
3672.8235,1.1446199160310158,722.0896290457248
3673.6685,1.1447249804690607,558.1106643690277
3674.5156,1.1469590506621732,630.3117914111704
3675.3608,1.1501297540194626,553.6372531506362
3676.2063,1.152908284540044,599.1643831323015
3677.0542,1.1545790340511624,630.2252260212468
3677.9,1.1551879273900898,586.6952328850014
3678.748,1.1551154171899651,562.2311342810049
3679.5945,1.1545774725544629,580.6135334947534
3680.4429,1.153562836930317,568.4871060082639
3681.2896,1.1520085878213544,533.7304349195445
3682.1365,1.1497982440555272,706.2305516234691
3682.9856,1.1466554132959055,554.9264544432373
3683.8328,1.1423025742403283,562.1674842380606
3684.6824,1.136814167374547,656.8543959684305
3685.53,1.1310032415463058,690.5567163014149
3686.38,1.126121868502605,531.5409138438737
3687.2278,1.12335088005242,698.1108637964875
3688.0762,1.1230991841965017,551.351004950491
3688.9265,1.1247739471192082,628.5825785870013
3689.7751,1.1268920553378516,584.3044973242455
3690.626,1.127702646240739,845.5259399014434
3691.475,1.126093620315572,608.8851139880912
3692.3264,1.1223925316615042,571.5706479314417
3693.1758,1.1183700233007874,710.456579415307
3694.0254,1.116113846352787,645.2523387611283
3694.8772,1.1166817561253093,685.046951301505
3695.7273,1.1195026438319924,698.4407393981154
3696.5793,1.123031897502331,556.9560656101231
3697.43,1.1258933744177557,608.5863643395357
3698.2825,1.1276284792923297,645.9312334434252
3699.1333,1.128496159502656,589.978595952876
3699.9841,1.128841460991247,728.3114180789339
3700.8374,1.1285882680963266,618.6994803362742
3701.6887,1.1273661608335694,533.0728119952829
3702.5425,1.1250806954434869,559.3031661929896
3703.3943,1.122357509342588,674.5256517125305
3704.2483,1.1202552831361996,583.107551376705
3705.1003,1.1195495087111782,595.7663668845521
3705.9526,1.120114888631403,698.5958478520623
3706.8074,1.1210872801868526,681.0507168189573
3707.66,1.1215638135306845,593.5300384145401
3708.515,1.121253112747906,734.2863026587917
3709.3682,1.120496970537007,603.8985839688943
3710.2234,1.1198336300901115,643.1585567229101
3711.0771,1.1196402611160041,590.8364271746639
3711.9307,1.1200647910770876,788.1474008312516
3712.7866,1.121033341710105,585.6626269555611
3713.6409,1.1220715323453423,645.7570231230657
3714.4973,1.1222304227374738,536.8738626209797
3715.3518,1.1204698063667402,770.7634748141147
3716.2085,1.1164184433241728,656.1839825581947
3717.0635,1.1108583543412671,523.1439957982914
3717.9185,1.1052460588149857,660.1638668692531
3718.776,1.100732311721305,594.8871586620653
3719.6313,1.097539908830827,773.5356555397368
3720.489,1.0951260993870546,716.9804264045159
3721.345,1.0930591115339436,702.2520652718788
3722.2031,1.091510626882945,663.2304859580779
3723.0593,1.0910916334664797,1025.996227285479
3723.9158,1.0921732893043974,714.1619636268354
3724.7747,1.0944939587149527,628.9149050534254
3725.6316,1.0972951938358628,722.9008867409965
3726.4905,1.099849528118905,632.2910325685791
3727.348,1.101704934037929,818.5948444460674
3728.2073,1.1026175214842728,810.8446119388727
3729.065,1.1022821988805187,659.0992131720881
3729.9229,1.1003341088404723,731.1699332862603
3730.783,1.0966113877839674,683.4878231716139
3731.6414,1.0914910000700435,671.3554659489704
3732.5017,1.0857944496044012,671.0896689165379
3733.3604,1.0804967655991407,778.7957844009045
3734.2214,1.0762417097949732,707.2849456594926
3735.0803,1.0732921159940887,672.5795607282186
3735.9417,1.0715424975464691,648.9462357299564
3736.8013,1.0707488130302827,578.1655242343405
3737.661,1.070613063868812,617.8952454618435
3738.5227,1.0708583434528003,621.6404233231779
3739.3828,1.0711893504610002,690.5313639860049
3740.245,1.0712299968038863,922.9454900834243
3741.1055,1.0705700860338363,691.3469107507897
3741.9683,1.0689786384640625,670.8578036289778
3742.829,1.0666249316716572,799.6842106337941
3743.69,1.0640108009223774,708.8398782616044
3744.5532,1.0616763866223367,784.4526362460989
3745.4148,1.0598930822439712,675.2192316884527
3746.2786,1.0585021439725089,617.3448378198335
3747.1404,1.0571168779382378,753.7282819389758
3748.0044,1.055456442317937,585.6909910103398
3748.8667,1.0536933615508317,645.1436811242384
3749.729,1.052431978638092,682.5915077618789
3750.5938,1.0523620207801392,859.2693425751584
3751.4565,1.0538143713059935,731.3100722663224
3752.3215,1.0566192882408523,781.6090742962634
3753.1848,1.0602676828300082,684.5893363634765
3754.0503,1.0641644204439689,897.4293606690173
3754.9138,1.0676041873746154,575.7610011178448
3755.7776,1.0698977848038114,755.460151105275
3756.6438,1.0706354225354127,675.2927336470233
3757.508,1.0700199227160996,862.5963212074404
3758.3745,1.068820246024201,701.4181297018672
3759.239,1.0679322013246932,692.2513304421574
3760.106,1.0679385469595657,655.0504492172034
3760.971,1.0689664689889775,811.4796649437491
3761.8362,1.0706910858259457,735.8367088037495
3762.7036,1.0723827479183052,638.2845518839264
3763.5693,1.073053458599967,635.7215460505716
3764.437,1.0718116083259777,685.6724105515194
3765.3032,1.0681614453391033,642.4303251423169
3766.1714,1.0620908089360006,568.8890318522051
3767.0378,1.0541548163911856,691.2154009981928
3767.9043,1.0454302165284777,710.1223933102901
3768.7732,1.0373896701191558,769.7231788009763
3769.6401,1.0314669969803991,753.907515721643
3770.5095,1.0283039738530262,690.9177575881484
3771.377,1.0276111194274447,819.7256865357704
3772.2466,1.0283692309316137,951.8787280313807
3773.1145,1.029378242553615,662.261525517164
3773.9824,1.0297395693664417,658.16532898438
3774.8528,1.0291880773186368,742.8662164852444
3775.721,1.0282276788964262,823.2903368144456
3776.5918,1.02789765184475,615.3042945194029
3777.4604,1.0292199512728204,841.5279688780223
3778.3315,1.032626139022824,791.4827998377793
3779.201,1.037732776384138,843.8071846842344
3780.0703,1.043677762541581,734.7814531150175
3780.942,1.0496319439724142,727.3414929734943
3781.8118,1.0550795786652152,752.9638891604721
3782.6838,1.0598169957489345,779.1814228133898
3783.554,1.0634928357768392,861.4933113175312
3784.4265,1.06553191488753,650.2088564599219
3785.297,1.0653993288730705,572.2185389189685
3786.168,1.0631618810889012,651.4038104872022
3787.041,1.059554644050617,819.7275691225991
3787.912,1.055539573141493,762.3398621387037
3788.7856,1.051628842056425,760.6510456213244
3789.6572,1.0477382763619834,704.8063610793306
3790.531,1.0433114646183805,866.7610597757954
3791.403,1.0377451381175045,870.8300283615106
3792.2754,1.0306485807794292,833.7998715668589
3793.15,1.0221179689767101,765.4769482395394
3794.0225,1.0128252577920913,727.1085115982261
3794.8972,1.0035034402497576,803.0489423484663
3795.7703,0.9946164718057653,807.8465151274318
3796.6455,0.9861279991729118,725.6590825931158
3797.519,0.9782120955270399,809.7297542027688
3798.3926,0.9717345400272631,888.3334963037285
3799.2686,0.9682098700659624,950.2883597575745
3800.1426,0.9688688571384662,935.9591840072114
3801.0188,0.9736252020059679,786.1517947504931
3801.8933,0.9809804182591619,702.1913755010332
3802.77,0.9889989834125925,761.1692141364741
3803.6448,0.9963054737143304,765.909605978547
3804.522,1.0026885848378444,671.0892646035253
3805.3972,1.008605137428769,818.5046858484391
3806.2727,1.0145870183097503,727.9915301975731
3807.1504,1.0207131951436763,689.4625472322092
3808.0261,1.0266056120907727,759.7726531164573
3808.9043,1.0319321972099254,687.4374634015824
3809.7805,1.0366313582886966,736.3033794782547
3810.659,1.040935083569406,878.4048326991555
3811.5356,1.0448796198490788,725.0422032054927
3812.4126,1.048161153902618,624.2817506457163
3813.2917,1.0503760680922716,677.6850854050318
3814.169,1.0514803976187226,756.4758028206335
3815.0483,1.0519145620077317,725.5095122148912
3815.926,1.052176180803321,811.5215696865959
3816.806,1.0523778811832285,660.3429093416177
3817.684,1.052170455131161,704.7348389900375
3818.5623,1.0510308411510922,764.5204028384491
3819.4429,1.0485605018861508,669.3247388631922
3820.3215,1.0446414475252959,784.0080255831623
3821.2024,1.0393594217092643,849.6403682607206
3822.0815,1.0329937572263408,815.6443967573005
3822.963,1.0258429968321203,714.0181834835639
3823.8423,1.0182663070164455,852.9104309585387
3824.722,1.010516344001804,840.44267557529
3825.604,1.0027506813348404,860.2548079669766
3826.4841,0.9950550497437842,846.3060618035053
3827.3665,0.9872552880483132,759.5669451156828
3828.2468,0.9790241766508168,902.0622745365307
3829.1296,0.9697855688414833,784.5742215347407
3830.0105,0.9590932117727123,795.9468904603958
3830.8916,0.9467483874738645,845.4254157689171
3831.7751,0.9330000499622071,953.6333058853181
3832.6565,0.9185890689416748,1127.643238048749
3833.5403,0.904301013056386,832.8171197238162
3834.4224,0.8911753977206329,998.2242221103908
3835.3064,0.8803476261252289,1127.1672508973088
3836.1887,0.8732953104679283,856.9684031381838
3837.0713,0.8713037886058769,1197.5392080396457
3837.956,0.8748651590246634,931.5593046110155
3838.839,0.8831126678300386,955.5825867571486
3839.7244,0.8941936900794717,940.601021555114
3840.6077,0.9061602801996947,796.7713068799442
3841.4932,0.9181513495280214,994.0737240042808
3842.377,0.9303888480947637,1026.4706984213317
3843.261,0.9437061075917961,884.9913084611621
3844.1472,0.9585452626236334,818.0623817198306
3845.0315,0.9743245213790258,921.1472644194818
3845.9182,0.9898610887805019,1046.8610068436597
3846.803,1.0037511843323723,792.5326314490869
3847.69,1.0153731111775088,770.9482436227256
3848.5752,1.024920328037857,758.3254341645957
3849.4604,1.0332762540444647,664.2243069903955
3850.3481,1.0412630830875553,852.2296140606392
3851.234,1.0490512624593527,667.9802282918674
3852.122,1.056256354145057,674.6556052056928
3853.0083,1.062209144798159,627.3933679784966
3853.8967,1.0666229973302823,667.4149532503749
3854.7832,1.0697378304569654,713.1009040227312
3855.6702,1.0722164035897979,705.5253554747667
3856.559,1.0746405206641974,707.5949001862817
3857.4463,1.0771353559115633,736.6722168384247
3858.336,1.079421511878858,646.1699668607499
3859.2234,1.0811275044947894,601.011788886918
3860.1135,1.0821463110450797,759.7453894965528
3861.0015,1.0825569383608187,708.4530652714905
3861.8896,1.0823615524538854,636.230479062086
3862.7803,1.0813394904829465,756.697211785958
3863.6687,1.0792859079212578,688.3928087946387
3864.5598,1.0763054918622363,704.1370603843617
3865.4487,1.072848501807418,651.7466675560291
3866.34,1.06922629818764,732.2630241813993
3867.2297,1.0652584938639982,681.6469287651896
3868.1213,1.0603150803312642,645.5721190986757
3869.0112,1.0540053172112638,705.8965422362095
3869.9014,1.046570665552591,813.6724670812567
3870.7937,1.0386636384461434,722.3053141443161
3871.684,1.0307188310110669,719.47331925781
3872.577,1.022449232817742,810.9071462595344
3873.4678,1.0133308089353967,441.39770547781103
3874.361,1.0030435761953027,809.8186637514343
3875.2524,0.9918883321832457,793.4494774585074
3876.1438,0.98032618232133,787.4524344844674
3877.0376,0.9686326586250442,846.9639340646871
3877.9297,0.956859094251211,952.0188996120991
3878.8237,0.9447509526229352,886.5821287605305
3879.716,0.9320560448464618,874.2553940058453
3880.6108,0.9183314845866747,917.2004040933266
3881.5037,0.9032370073129339,915.7003167120178
3882.3965,0.8865006739032331,894.5828988109135
3883.2917,0.8681577769277556,979.0468833486985
3884.185,0.8486158064924013,1213.3946347130586
3885.0808,0.828007497385607,1153.2302466350277
3885.9746,0.8064418081670828,1044.1069766405058
3886.8706,0.7839871938315045,1411.1955138763763
3887.765,0.761756952577666,1350.853183580218
3888.6592,0.7419627986664434,1666.6103583958604
3889.556,0.7276918841856821,1650.8101828595325
3890.4507,0.7218949082754845,1880.6688945780968
3891.348,0.7258892102101252,1795.1435009010042
3892.243,0.7387480297769703,1377.6964082634338
3893.1406,0.7577116051774603,1293.8944627765186
3894.0361,0.7790962623773217,1379.1867908518407
3894.932,0.7999277868682196,1171.858213630891
3895.83,0.8185721825693911,1221.7522370016102
3896.7263,0.8346508801773037,1112.9822401860479
3897.625,0.8489067509178505,1081.7025841150996
3898.5215,0.8623570043209373,1060.232103786183
3899.4207,0.8761664806842531,1081.216336052413
3900.3176,0.8909581870344365,935.9262294978261
3901.2148,0.9068051416103834,1158.679307221429
3902.1145,0.9231956554047673,864.1529250487885
3903.0122,0.9393516003888965,944.1337172417014
3903.912,0.9549806941879572,852.412097365582
3904.8103,0.9701080222904659,880.1028782041562
3905.7107,0.985072786489381,889.6056842946779
3906.6094,0.9998605128888953,727.0685397409152
3907.508,1.0141596489610243,775.9450120925898
3908.409,1.0274688452365546,771.5357624369942
3909.308,1.0393524505962872,873.883281313281
3910.2097,1.0497938462498697,688.1016584470182
3911.1091,1.0588481850225213,725.4002840153119
3912.011,1.0667013262670857,700.3224196496266
3912.9111,1.0735150151344812,643.1765887195363
3913.8113,1.0796396443657272,799.7919343222147
3914.7136,1.0854786243771477,659.2304020945683
3915.6143,1.0912752612283987,735.9815714667344
3916.517,1.0971188487617287,707.8093704912717
3917.4182,1.1028788276023331,677.3097830089171
3918.3215,1.1083684517245465,657.6675703983783
3919.223,1.1133234049805922,581.4211854391345
3920.1245,1.1175828392970848,621.110747304383
3921.0286,1.121055420761725,626.1813020534089
3921.9307,1.1235975254681045,631.954752598342
3922.835,1.125020179509219,624.9832572902947
3923.7373,1.1252220929807135,587.7160347044064
3924.642,1.124481048268918,595.818240942315
3925.5452,1.1234637458246262,685.1521856235737
3926.448,1.1228645985276389,697.5860033456075
3927.3535,1.1229813517500764,631.6999526145855
3928.257,1.123626961986509,655.1337755800339
3929.1628,1.12445134034276,599.0524094433899
3930.0667,1.125266830679721,743.6242072012268
3930.9731,1.1260152392848084,650.9437615001453
3931.8774,1.126420641289281,596.0935628056701
3932.782,1.1258684578762421,653.3130148914565
3933.6887,1.1237338112279747,607.0478061850505
3934.5938,1.119961538709383,577.9174115896249
3935.501,1.1152290033819396,662.2903447380935
3936.4062,1.110567732845769,792.2795039409036
3937.3142,1.106531964967533,769.7367734544005
