wavl,flux,ivar
3566.9744,6.461469180512634,36.96518993351459
3567.795,6.44600636469462,35.18592543709709
3568.6177,6.417128718384386,33.18440195069039
3569.4385,6.38309730763977,39.63922004177484
3570.2617,6.3518444199787885,36.0355717774445
3571.083,6.327675184645055,32.92144139600824
3571.9065,6.309988562250583,47.53141636401813
3572.7283,6.2959318753225135,39.215615437360384
3573.55,6.28293653855623,39.995142162111634
3574.374,6.270629776201114,42.773012249667346
3575.1963,6.261003496075274,42.0840679233168
3576.0208,6.257023774872932,38.20472470612979
3576.8435,6.261023165270799,43.149534739895095
3577.6682,6.273070918204823,36.35221096273867
3578.4915,6.290283852677304,40.45847154032588
3579.3145,6.307772058708798,42.671371391322154
3580.14,6.3204665908632744,35.29386453370781
3580.9636,6.324802972584754,37.544368764481085
3581.7893,6.320002694202321,37.14336686976033
3582.6133,6.308258939672699,40.89643127445835
3583.4395,6.293930012816622,43.32878531211391
3584.264,6.281682346183439,41.12017324526004
3585.0884,6.27381231733581,42.58936289415477
3585.915,6.269507320671247,42.882940718967866
3586.74,6.266458827937328,32.272840447725756
3587.5671,6.263029285979356,38.9587576130565
3588.3923,6.258715247204179,42.3657670935843
3589.22,6.252827324853889,35.72391108528895
3590.0457,6.244312671449856,37.82568506441744
3590.8716,6.233346021042831,38.83730063117831
3591.6995,6.222624074020172,42.8524309776135
3592.526,6.2157599294622745,39.178049621853724
3593.3542,6.2136668973074265,37.081715621923934
3594.181,6.213146149116919,41.98897075908766
3595.0098,6.209108002487282,42.53058151796693
3595.8367,6.198634879120309,33.096516083132116
3596.6638,6.183085755901228,40.318140723386776
3597.4934,6.166894547945111,43.802762769432654
3598.3208,6.1545851995389125,44.0178550931018
3599.1506,6.147941881192984,43.683815688611105
3599.9788,6.145922291908432,45.92927762933491
3600.8088,6.145827905498979,47.00041918757449
3601.6372,6.144848617258484,52.400317347712395
3602.4678,6.1409583620741195,42.97809410488314
3603.2964,6.133675602713786,41.94840512599586
3604.1252,6.124413587798523,35.41468678508643
3604.9565,6.115741879191081,42.18775554122018
3605.786,6.10955782412539,42.26789058218187
3606.6172,6.105516717842749,42.1101555842325
3607.447,6.101783476248889,38.34920115360185
3608.2788,6.09694704948029,42.00209972503694
3609.109,6.09125390522016,49.40162414639156
3609.9392,6.085750488590948,41.94300485933953
3610.7717,6.08073615783291,45.00626279840805
3611.6023,6.075102449843998,45.191335270147505
3612.435,6.06681541058687,43.31811685086637
3613.266,6.0543118081779275,43.93381814992335
3614.0994,6.037721442017506,41.55560895290925
3614.9307,6.019927433764992,44.925662662639105
3615.7625,6.005528034415804,42.879662983614914
3616.5962,5.998583369430203,47.296058033415434
3617.4282,6.00019550693291,45.570980850685075
3618.2625,6.00810924380761,38.67268237042049
3619.0947,6.01857107399848,48.64666355945953
3619.9292,6.0287467371472685,47.74191314672676
3620.762,6.037485149909342,47.971766757419886
3621.595,6.044693592821699,42.484130782236505
3622.4302,6.049693563451011,44.45375411893669
3623.2634,6.05048950146035,38.73141728406876
3624.0989,6.0449677113482805,42.467587718874086
3624.9326,6.033002077123102,40.51099861857505
3625.7686,6.017208657658542,41.35975497085084
3626.6028,6.00175033213168,36.12501902820715
3627.437,5.9898267859017835,52.504666955552345
3628.2734,5.982413987429649,46.84644934946037
3629.1082,5.978007562042241,51.306017654919124
3629.945,5.972721256155624,34.57364661419655
3630.78,5.961503831628435,45.56407669809652
3631.6174,5.94061277632391,50.842106716957126
3632.453,5.91092241415878,44.89484255758568
3633.2883,5.878250709604698,46.03584899703098
3634.1262,5.850402605884811,45.73452035314209
3634.9622,5.832753952658944,48.75823543347397
3635.8005,5.825193060934744,47.031203504929785
3636.637,5.823881709397163,48.370687139369956
3637.4756,5.824748285277606,48.41417050433489
3638.3123,5.826101112161041,47.48483942300736
3639.1492,5.828070781546351,40.21611551380323
3639.9885,5.830154958515484,50.324595397392905
3640.826,5.829742533330762,50.42530222457952
3641.6653,5.823488888799092,45.01703216828699
3642.5032,5.810417019048279,46.334223822046496
3643.343,5.7935388895919555,42.07676217691238
3644.1812,5.778462945572458,50.0829200508054
3645.0195,5.7694883106116714,51.040058663752056
3645.86,5.76711239871405,44.93016200715701
3646.699,5.768322164641362,43.436702347853505
3647.5398,5.769261945039808,45.159339897677995
3648.379,5.767984135454738,46.34488264496181
3649.2202,5.7651766971098075,43.22164721008417
3650.0596,5.762811657201163,42.8415045265189
3650.8994,5.762264955185027,45.54240419275244
3651.7412,5.7634914447029715,46.09158923854212
3652.5813,5.765084089355624,51.5539171554207
3653.4236,5.76464073656585,45.60313705764452
3654.2642,5.759326733783671,41.9573373671825
3655.1067,5.746967969486651,48.519917610858336
3655.9475,5.727582896963387,50.90946960222486
3656.7886,5.703940969084669,52.228583730400395
3657.6318,5.680740359826058,46.91712551505813
3658.4734,5.6624427433949736,46.78403916218897
3659.317,5.650506673244628,55.9409450488333
3660.1587,5.643107458534427,50.92298012746089
3661.003,5.636592116208343,45.92467862506587
3661.845,5.6281112684391195,59.66064141915257
3662.6875,5.6168728511876065,55.5933739812717
3663.532,5.604049559020842,59.159655376053045
3664.3748,5.591883304847019,51.96919168540866
3665.2197,5.582372029995532,53.524950272952665
3666.063,5.576478771564699,55.69174488815107
3666.9084,5.5733270443369,60.59356756442034
3667.752,5.570497993515524,45.070040846425734
3668.5977,5.565276401115384,47.0682798085739
3669.4417,5.556695342476354,54.42849628856948
3670.286,5.546591900850749,49.41337822155566
3671.132,5.538673155216105,60.83894337321514
3671.9768,5.535876027366163,57.82343867129911
3672.8235,5.5380269384676275,49.865963530443686
3673.6685,5.54220361241336,52.92946910090912
3674.5156,5.545337320254653,46.697466804889174
3675.3608,5.546348351736894,70.73747586493486
3676.2063,5.545904890116336,51.74914717524174
3677.0542,5.544546102778373,54.21858207399765
3677.9,5.541926459287401,57.38153484271453
3678.748,5.537911537979807,51.171740339642184
3679.5945,5.533747532233682,56.81305850422558
3680.4429,5.531063366918934,58.290869888217
3681.2896,5.52968386477289,53.72652284781946
3682.1365,5.526738344973641,55.743494576317104
3682.9856,5.51852335483381,50.207490189867556
3683.8328,5.503602324979272,57.36755749945806
3684.6824,5.484198502723633,50.13183564565158
3685.53,5.465440405945533,51.9999840788957
3686.38,5.4522071956084535,61.04299930019458
3687.2278,5.44671113013976,50.72589149992487
3688.0762,5.44731427778193,51.71802166014275
3688.9265,5.450003124134044,48.76385515854958
3689.7751,5.45065394657304,49.64464291066297
3690.626,5.446573182527902,50.52132970123284
3691.475,5.4366727067695155,60.290496244224855
3692.3264,5.421185821746668,47.868088315612326
3693.1758,5.401970293949678,48.84478012152333
3694.0254,5.382128878206272,54.284214171171435
3694.8772,5.365140896749494,55.34391198628002
3695.7273,5.3536220395384415,54.373027873871024
3696.5793,5.348181952804327,53.90948499502335
3697.43,5.347510446916416,65.38910266426956
3698.2825,5.34890889722892,54.4498586198423
3699.1333,5.349581307105316,53.22525098525502
3699.9841,5.34795861687585,57.34267142588513
3700.8374,5.34411951620134,52.412359437128416
3701.6887,5.33910669227836,60.23908846202792
3702.5425,5.333645658276243,61.18677573119618
3703.3943,5.327574945961147,60.70079472725175
3704.2483,5.320106422465379,55.389290569429264
3705.1003,5.311159683400876,53.37149521650217
3705.9526,5.302355726017421,57.01122904689769
3706.8074,5.296831118171782,58.69954029936273
3707.66,5.2972908886736825,53.13246205498996
3708.515,5.303684727586063,58.82918005533369
3709.3682,5.312742778337764,49.51635895548724
3710.2234,5.319874727029433,57.275868317871314
3711.0771,5.321653858419863,58.68244938900804
3711.9307,5.317457402911231,49.181903385167224
3712.7866,5.309136230298218,57.352878544215685
3713.6409,5.299600219737636,54.48850487596718
3714.4973,5.290905856062792,75.58638125081536
3715.3518,5.283507643808104,61.40568172820469
3716.2085,5.276518379562003,59.779013673995024
3717.0635,5.2689115049015465,74.24949851777977
3717.9185,5.2599643140171395,48.12758340386628
3718.776,5.249079057744262,68.18068197710491
3719.6313,5.235683950440056,52.75048662894758
3720.489,5.219395198796399,57.9454117903785
3721.345,5.2008489429417715,52.87085741898735
3722.2031,5.181532718177487,52.846009932531636
3723.0593,5.1637372817328435,66.65568559110285
3723.9158,5.149661829560609,53.48797918636618
3724.7747,5.140852352885039,70.2384455468381
3725.6316,5.13741304593416,70.26125256353983
3726.4905,5.137656684951493,62.88526144396486
3727.348,5.1390599005010325,55.10010283846196
3728.2073,5.139589264069232,54.25016165091203
3729.065,5.138481126409636,58.85523414312566
3729.9229,5.136114728406456,63.7745155449208
3730.783,5.133319117941164,57.56344921639964
3731.6414,5.130671755147783,68.65239173100018
3732.5017,5.128108104081262,56.362082330361034
3733.3604,5.125218443347419,55.67640087716712
3734.2214,5.121693112547656,52.19075402476419
3735.0803,5.117528118455627,64.40846228147502
3735.9417,5.112689618125444,57.90372351216345
3736.8013,5.1069943970674565,58.73272684313969
3737.661,5.100122018768192,67.16910432904473
3738.5227,5.091825187568783,62.79798411095372
3739.3828,5.082123992517315,59.64233107627108
3740.245,5.071283498754991,66.76892487894365
3741.1055,5.06022534064252,69.21042451910228
3741.9683,5.050559298017898,53.04279152077072
3742.829,5.044503548254941,62.11020961877872
3743.69,5.043492897814629,60.107762790078816
3744.5532,5.046783317194211,63.815039200076704
3745.4148,5.051047327358639,58.89997375648155
3746.2786,5.0519893850738695,63.795865995630436
3747.1404,5.046648266880643,56.680899572754065
3748.0044,5.034714111291646,62.21451076851005
3748.8667,5.018405054075215,61.96389108743459
3749.729,5.00121207269544,64.27379583094981
3750.5938,4.986677016960338,67.83224405946854
3751.4565,4.977376393099693,59.37221124349749
3752.3215,4.973944776742023,59.63847822189679
3753.1848,4.975252804132873,75.37509244451462
3754.0503,4.979084044701309,54.11372636109333
3754.9138,4.983220446576232,56.08239037233661
3755.7776,4.986252463829514,63.448216006310886
3756.6438,4.987512282948299,68.67622849208969
3757.508,4.986360330209844,70.88216275084658
3758.3745,4.98130184723949,66.54544588727373
3759.239,4.969321016398633,60.30384761532052
3760.106,4.94559046448293,69.16373678266076
3760.971,4.905387807974297,65.91572923921574
3761.8362,4.848313957077055,59.958133928603445
3762.7036,4.783686536648172,66.80402000552748
3763.5693,4.730968753328382,61.71114616593189
3764.437,4.7092012829752345,66.67712226936591
3765.3032,4.724595976727234,59.95490529649634
3766.1714,4.765602074952791,65.06626325690337
3767.0378,4.811220065947954,67.9793428413357
3767.9043,4.844654080876273,78.72124857076376
3768.7732,4.859756385262087,64.17461597366227
3769.6401,4.859036398665328,65.72828703094581
3770.5095,4.848562391021843,66.19177173206279
3771.377,4.834238067836581,62.232188812318505
3772.2466,4.820505414223568,71.55745438486377
3773.1145,4.81056461562514,68.64026307109397
3773.9824,4.806217862107949,79.51997795192143
3774.8528,4.807955307071866,68.07309527017333
3775.721,4.815019010364248,66.97921937410527
3776.5918,4.825867906656946,69.58212879436641
3777.4604,4.838463190181085,56.56727190940499
3778.3315,4.850754343334356,69.96825366445444
3779.201,4.860717725939996,62.14127975789724
3780.0703,4.866991544146142,64.13440915245212
3780.942,4.869078076540584,66.5707911097306
3781.8118,4.86723401309119,61.66868775201777
3782.6838,4.862005500056852,70.67163505277377
3783.554,4.853799346914396,66.9370975539364
3784.4265,4.842596710299056,70.49976567059029
3785.297,4.828246569420471,66.34086111454906
3786.168,4.810716257148223,65.87925924068207
3787.041,4.790688933506879,66.37270032939838
3787.912,4.769890963642218,68.39464260017645
3788.7856,4.750169680157898,72.71618783655062
3789.6572,4.732861215540298,70.25498293084524
3790.531,4.717727800435204,78.63959112408023
3791.403,4.7034611995503885,73.56018178109221
3792.2754,4.68825413512312,68.07340412784202
3793.15,4.670864638130773,66.98892482031111
3794.0225,4.65151021569361,72.29727645038767
3794.8972,4.631847298506003,65.38216853570918
3795.7703,4.614727658184691,72.42203630985242
3796.6455,4.60248377074829,76.8459726036209
3797.519,4.595976851590538,72.1566443370513
3798.3926,4.594371420774576,74.66713286222418
3799.2686,4.596413891347207,91.89323236981888
3800.1426,4.601528549977286,67.59136298090291
3801.0188,4.610127303467952,68.73820281344386
3801.8933,4.622919877647342,71.41632554290575
3802.77,4.6401821200703655,82.25494279266154
3803.6448,4.660871543755152,67.14488563859334
3804.522,4.6829580671155515,71.0144531246654
3805.3972,4.703734706773635,66.02229906608373
3806.2727,4.721112543239873,79.13461195509954
3807.1504,4.734039839133002,61.224968421148056
3808.0261,4.7426587488142395,68.91386247049904
3808.9043,4.7482726919277916,74.31744294407746
3809.7805,4.7524286605303825,65.6706097923284
3810.659,4.756107593864832,64.85272220076199
3811.5356,4.759191117628024,76.96642472317859
3812.4126,4.760896907938482,69.97163878647129
3813.2917,4.760489262063857,66.1265056800271
3814.169,4.757776113510409,78.58103081916273
3815.0483,4.752996188304476,77.26806434502502
3815.926,4.746364448393073,63.19545748274786
3816.806,4.737593664912928,71.23630494711885
3817.684,4.726209022439463,65.3140538542713
3818.5623,4.712090721480096,66.17174360903189
3819.4429,4.695846234250815,72.1609029863795
3820.3215,4.67844355692506,69.51847895871548
3821.2024,4.659988733794845,72.72154096656152
3822.0815,4.639860212084463,74.56686842658002
3822.963,4.617345846946147,74.33397212817374
3823.8423,4.5931115681958605,71.25471731238217
3824.722,4.568609698911024,77.7366112114023
3825.604,4.544624956355152,73.80767424580344
3826.4841,4.520083029636141,78.48803342663012
3827.3665,4.4920134517024035,76.44403063846082
3828.2468,4.457985483891613,81.22051525962307
3829.1296,4.4174310035410205,75.40353897740127
3830.0105,4.372810121387264,86.61321026681914
3830.8916,4.32790384688923,94.23519150664664
3831.7751,4.2864803050207705,91.73085296385902
3832.6565,4.251434604024182,91.43430156751296
3833.5403,4.223800079945715,90.18725756432825
3834.4224,4.203802769780139,95.97180379921322
3835.3064,4.190755973216072,83.3982720720159
3836.1887,4.1837731224513615,88.83489839978124
3837.0713,4.181989648656602,94.09954186536619
3837.956,4.185360376639431,87.5370861549078
3838.839,4.195090186362386,79.88488903120438
3839.7244,4.2133204862487394,90.99970840812423
3840.6077,4.241384011573451,86.28525609739899
3841.4932,4.278518904448676,98.03441561940694
3842.377,4.3211622324721235,81.2324438125495
3843.261,4.3650669192646845,89.35772040770941
3844.1472,4.407074150671765,80.64338204699169
3845.0315,4.445549934845796,77.25504217311843
3845.9182,4.480327841069315,86.62621640038034
3846.803,4.511048362109402,78.28348524376496
3847.69,4.537901018819871,76.55133539924496
3848.5752,4.561704938886202,76.83329066173758
3849.4604,4.584339945519921,78.91632809172418
3850.3481,4.607497301356818,72.65053080917271
3851.234,4.631289799961922,75.85925686509728
3852.122,4.6544639016699225,62.81210165219476
3853.0083,4.6748771150339765,81.32082923195392
3853.8967,4.691217384623844,68.85984679916483
3854.7832,4.703414134990632,74.55836152559131
3855.6702,4.712804847600356,72.35716232554046
3856.559,4.721032521180433,71.70358693824825
3857.4463,4.728841903016486,73.82142510180682
3858.336,4.735661360360363,77.13595877982944
3859.2234,4.740193438100399,66.65041096907804
3860.1135,4.742026694153975,71.86723000835094
3861.0015,4.742358339764425,70.33854999312433
3861.8896,4.743183430018063,73.92108970347167
3862.7803,4.745331502853067,76.8570973161132
3863.6687,4.747118461038346,65.67791429054968
3864.5598,4.744854165602131,72.35382022529495
3865.4487,4.734803404358655,61.22386266596447
3866.34,4.715120164009337,72.41119460847914
3867.2297,4.686882298611333,66.31965654369156
3868.1213,4.653029303343788,69.1657095035221
3869.0112,4.61712536240921,72.57258929851812
3869.9014,4.581352210841558,81.41154650340395
3870.7937,4.546214515164269,77.60781525121602
3871.684,4.511452342764799,75.56554765680711
3872.577,4.476540587206952,70.06039373968497
3873.4678,4.441827857886079,83.2849795754252
3874.361,4.4073263119686725,71.2851926432491
3875.2524,4.3724683791780015,94.301020264071
3876.1438,4.335148159439368,87.2867450644478
3877.0376,4.292619243607303,86.51957808041885
3877.9297,4.243316916131495,85.79546456241454
3878.8237,4.1873150811243285,83.26834064793448
3879.716,4.126976014357037,109.63284547548595
3880.6108,4.064542662345707,91.73648320422714
3881.5037,4.001718636291296,102.70340958916847
3882.3965,3.9383572483771445,93.16632823870192
3883.2917,3.873743690578576,104.02715065854657
3884.185,3.808080888344867,96.99838908293225
3885.0808,3.7416089534935684,104.840004278117
3885.9746,3.6757889867354843,114.1018116133879
3886.8706,3.6123449940519934,129.55947436990814
3887.765,3.555179770198918,124.43318820141681
3888.6592,3.5094687122488244,143.044085186819
3889.556,3.4807400389071756,126.33988016438124
3890.4507,3.472634363052495,145.3368328189473
3891.348,3.4848285119029447,125.31104648585301
3892.243,3.5136274996013865,115.60059649969327
3893.1406,3.5544182619916733,141.10712950060596
3894.0361,3.603321837596595,113.13843724693828
3894.932,3.6585324309884144,128.4449875166107
3895.83,3.719037565869247,111.06754298403138
3896.7263,3.7827933661735913,119.53256480269161
3897.625,3.8475577432858103,123.09939759978231
3898.5215,3.910669796745396,113.73725153662204
3899.4207,3.971516475793129,91.02266708722034
3900.3176,4.030387644959077,107.63263764829534
3901.2148,4.088837528725575,97.97930034931659
3902.1145,4.148046857798457,81.7526375203327
3903.0122,4.207574408086561,77.0866026776757
3903.912,4.266067419249413,80.57027491488509
3904.8103,4.320623631069072,85.27376593084179
3905.7107,4.368918554725343,75.83992307563305
3906.6094,4.409535742816766,77.34519628034897
3907.508,4.443389895433589,89.20036184036515
3908.409,4.4731197022453095,72.26172351344545
3909.308,4.501889919044454,82.03887853990598
3910.2097,4.5324521124048935,86.75565788796155
3911.1091,4.565419609767744,77.11408475866882
3912.011,4.59970619387945,72.1214221505123
3912.9111,4.632929060949864,72.71126014924089
3913.8113,4.663601291572436,74.073412150372
3914.7136,4.691938214530124,74.65257103316888
3915.6143,4.719329193324938,75.06552336392924
3916.517,4.747426558659985,71.78147002257175
3917.4182,4.776458031265744,66.86054718721134
3918.3215,4.805546433756522,65.59611019671968
3919.223,4.832927717552566,62.38450627835085
3920.1245,4.857186401909084,76.61579588129426
3921.0286,4.877320198353878,72.42025375589195
3921.9307,4.8926844194924195,70.27196609793427
3922.835,4.903540897558949,61.3689342437005
3923.7373,4.911018417378678,60.2111720137079
3924.642,4.91699182978304,76.76001898514572
3925.5452,4.922896160268006,70.70631685774136
3926.448,4.9289395920686445,59.782840163033846
3927.3535,4.934272174796662,62.86185665344254
3928.257,4.938063235576077,63.80618586021764
3929.1628,4.94040163246933,64.36550946952366
3930.0667,4.941850081089473,67.80527785916344
3930.9731,4.942532457982434,61.63068764799777
3931.8774,4.941727299953349,65.6962362670829
3932.782,4.938349042785199,65.73792895098182
3933.6887,4.931539730928126,69.90692179536943
3934.5938,4.921031076463959,68.34832435356716
3935.501,4.907049047702869,72.73778374106453
3936.4062,4.890290217327103,65.3303364049467
3937.3142,4.871056248143492,80.66563768363257
3938.22,4.848858856034763,62.38361108834661
3939.128,4.821957120347531,66.80256239668256
3940.0342,4.788784591493843,68.13686619864703
3940.9407,4.7488927488462425,75.03929326973696
3941.8494,4.703717926080666,68.18413404132559
3942.756,4.656528270252136,72.80145919218809
