wavl,flux,ivar
3566.9744,3.396088690939414,31.710891782829286
3567.795,3.3952796028741874,24.702044455401747
3568.6177,3.3878072319066432,33.216393756170696
3569.4385,3.374055987461372,36.57208905961796
3570.2617,3.357496857244947,27.661767751589245
3571.083,3.3428979272209918,38.29912114928693
3571.9065,3.333584815256617,37.09168828822544
3572.7283,3.3305412671660686,38.718440548695746
3573.55,3.3326334341889896,35.495384519191774
3574.374,3.3379105825070847,31.482830376369545
3575.1963,3.344607479612529,42.713162240408884
3576.0208,3.351791115804571,33.12579474014998
3576.8435,3.3591513009508636,29.299267907309122
3577.6682,3.366557848384232,27.48361644990215
3578.4915,3.373157213417703,20.582930448220935
3579.3145,3.376809892606558,38.718061721666515
3580.14,3.3740209706043562,33.45858113376061
3580.9636,3.361230963051997,20.56115597734119
3581.7893,3.336733443905036,24.1654563175004
3582.6133,3.302262114102919,31.216110234538384
3583.4395,3.262730477275063,32.12794492494339
3584.264,3.226304128204987,28.69119505420317
3585.0884,3.2020472213611404,30.0911036805517
3585.915,3.196312339916348,30.78992580646689
3586.74,3.2083896220393253,36.42257508850747
3587.5671,3.230346722463342,27.39840156755512
3588.3923,3.252225414752222,24.332656377614956
3589.22,3.2685397647491614,35.10110964663213
3590.0457,3.2794016579420195,32.34620282494169
3590.8716,3.2876489960447093,36.22506224473826
3591.6995,3.295047732712431,30.479153927080677
3592.526,3.3014264692548574,28.181974350183957
3593.3542,3.3060484203196845,34.517079260810135
3594.181,3.3084754139171477,44.42674416154237
3595.0098,3.3083164642684033,32.3540578601616
3595.8367,3.304771274034243,32.27367503386722
3596.6638,3.29740946175325,32.627018799790285
3597.4934,3.2875067476061615,34.04040992198873
3598.3208,3.278274289409448,51.88994719138152
3599.1506,3.2727360115399895,28.458341817923102
3599.9788,3.271502858590213,30.069881891479575
3600.8088,3.272180109617163,37.03323139406834
3601.6372,3.271387710402,40.77134562549537
3602.4678,3.267223423917369,30.176855227031005
3603.2964,3.260106768768931,29.346819440466735
3604.1252,3.2515792742083027,35.729344288268095
3604.9565,3.2426597033449585,31.691730923448343
3605.786,3.233091871095533,25.666139368655696
3606.6172,3.221588969447292,23.404197028339862
3607.447,3.207437368587867,31.821791200285983
3608.2788,3.191728768360184,30.247816792986495
3609.109,3.177539419588424,54.270104233902764
3609.9392,3.167789875202284,57.5787376234
3610.7717,3.1634014921949554,27.852432960950512
3611.6023,3.1632625937141823,41.7527488721076
3612.435,3.1658386244970322,50.14378862530081
3613.266,3.17044176334009,36.01102871658187
3614.0994,3.1769570785054153,37.39679313849721
3614.9307,3.18468683307054,39.56159489294642
3615.7625,3.191930648596513,36.01932861527386
3616.5962,3.1964352452579208,35.81112922289616
3617.4282,3.1966924018306946,28.282922023376074
3618.2625,3.1933149226455093,38.38789779297199
3619.0947,3.1891964281055127,38.25854351607449
3619.9292,3.18778070440174,31.0941967072788
3620.762,3.1905199825685973,35.70417674110253
3621.595,3.1955263581688373,30.902630066432707
3622.4302,3.1988131268661095,30.48913993755545
3623.2634,3.1970673619002534,35.586609038017606
3624.0989,3.1899118297231217,30.177023968487394
3624.9326,3.180074125810795,28.99113914268667
3625.7686,3.1714872311119526,37.233174550905034
3626.6028,3.167196700015359,44.693950227604155
3627.437,3.1681070005100396,41.190849850211706
3628.2734,3.173359658499614,45.75262602007122
3629.1082,3.180864165339258,47.96688839179228
3629.945,3.187632088802893,38.117828551212824
3630.78,3.190167174954202,25.22906149153181
3631.6174,3.1860101000268988,26.753930938625288
3632.453,3.1753726813378425,45.641258228022444
3633.2883,3.1614787780700517,34.430315696215516
3634.1262,3.1492185310337137,41.44339844186635
3634.9622,3.143184068038598,38.42797254303427
3635.8005,3.1456839623940214,27.484403700054273
3636.637,3.155777576986123,50.83526764253551
3637.4756,3.1691654908292275,35.06996037328569
3638.3123,3.1793292962364914,53.8987196092848
3639.1492,3.180581956310722,26.285829246083274
3639.9885,3.170867168061649,24.32664753749981
3640.826,3.1529451222472655,35.39967391180065
3641.6653,3.1325041158940206,32.88297224988616
3642.5032,3.115524685240741,37.02982320557715
3643.343,3.1058816896070662,28.256232023172124
3644.1812,3.104830021763069,26.035892451327044
3645.0195,3.1107326097818175,54.488836616526136
3645.86,3.119349416322718,37.046685067375776
3646.699,3.1249634090131417,34.00704926308652
3647.5398,3.1232965216199706,29.935792439214644
3648.379,3.114112959376085,30.743623366176752
3649.2202,3.1011524473131127,33.10393960683315
3650.0596,3.0893730865458715,30.99863448777138
3650.8994,3.081681671546993,51.15850789600147
3651.7412,3.0782326414187233,39.54347422933659
3652.5813,3.0774679258936524,39.52634212449573
3653.4236,3.0772539064150237,42.232448052829604
3654.2642,3.075413147543244,35.24327950044346
3655.1067,3.070191904377771,26.806276536128582
3655.9475,3.0613076619849715,27.23866328702373
3656.7886,3.0506460486777334,30.483790502030313
3657.6318,3.0417116343054613,30.656157106077668
3658.4734,3.037810054618203,53.907281685091384
3659.317,3.040026761304862,30.132680670332437
3660.1587,3.046762626055768,42.63400716705621
3661.003,3.054899464762366,29.17589608832362
3661.845,3.061631688144115,46.82177750863097
3662.6875,3.0660363556793393,28.67205729797027
3663.532,3.0690669558604817,24.25134506708575
3664.3748,3.0724800140987836,35.18082393550092
3665.2197,3.0774444148574847,25.8325524111479
3666.063,3.0834537742959998,41.18783984707547
3666.9084,3.088346686886005,32.87439333924079
3667.752,3.0892979100326734,39.44854499927156
3668.5977,3.0845491570314945,33.10814341816469
3669.4417,3.0744253619432103,45.25634690643821
3670.286,3.060947652349481,30.378789723782173
3671.132,3.046695483379639,38.822130145843076
3671.9768,3.0339523604114147,41.78867988678737
3672.8235,3.0240799156777665,38.48828198484725
3673.6685,3.017657281238879,40.08854292088112
3674.5156,3.014455311785322,33.466297687528794
3675.3608,3.013654747045619,45.031412896835946
3676.2063,3.0136718395486133,48.37470635852171
3677.0542,3.0122232694409776,37.24549557176617
3677.9,3.0071717340875788,40.97868939704894
3678.748,2.997974177859705,32.61011652420061
3679.5945,2.9865893071853873,30.164256981469233
3680.4429,2.9762890659092407,53.47671165714675
3681.2896,2.969639519480233,35.00814893384553
3682.1365,2.966969047804556,25.359633312862577
3682.9856,2.966940163810224,40.0316697564538
3683.8328,2.9679178396317445,47.624770374188785
3684.6824,2.968792428677205,52.40700758674522
3685.53,2.9688141997965323,37.45048779222796
3686.38,2.9673073889560464,32.411789998216406
3687.2278,2.9638883290843108,32.43504480983029
3688.0762,2.9587271700066657,44.07667356906001
3688.9265,2.952168010564777,28.476902734554514
3689.7751,2.943946654591976,32.793826079502054
3690.626,2.9328586363972695,35.46672478276291
3691.475,2.917899849304483,46.8182957288282
3692.3264,2.899503621522662,38.4603972954186
3693.1758,2.88044043844929,50.789521768396014
3694.0254,2.8647205407029417,35.99086111535113
3694.8772,2.85597089573424,31.503586568586062
3695.7273,2.8555890880460892,32.98708143105953
3696.5793,2.8616909653460594,40.63336103648344
3697.43,2.86985769567721,34.26756250540615
3698.2825,2.8754489796665172,40.09468163156065
3699.1333,2.876051609340188,39.439153201654825
3699.9841,2.872640454102338,44.0738810264021
3700.8374,2.8682876492624927,40.85880416632545
3701.6887,2.865689574847164,41.053560783495094
3702.5425,2.8652998433875165,44.94933113457096
3703.3943,2.865700420404821,45.298420860574225
3704.2483,2.865364102488777,39.136114876470955
3705.1003,2.8639480212617343,35.57128867063088
3705.9526,2.861868598492519,43.39864200522862
3706.8074,2.858925656369899,43.916893935021164
3707.66,2.8538224604753206,41.60386479539761
3708.515,2.8453299870793156,35.069965106940685
3709.3682,2.834315310965944,37.26390507588407
3710.2234,2.824041306028766,47.81712830874368
3711.0771,2.818294354442375,53.36569623161532
3711.9307,2.8182388616845273,35.841668945735734
3712.7866,2.8214056617706373,33.4558971325226
3713.6409,2.8236824488454677,42.735386890231624
3714.4973,2.8227863495877163,32.125231796314
3715.3518,2.81990833096833,35.11420881815365
3716.2085,2.8181816580926955,46.230922352970374
3717.0635,2.819598154888489,71.08876642797615
3717.9185,2.8231481134746117,27.90220559550329
3718.776,2.825679739126188,44.856932188079476
3719.6313,2.8242901497122364,40.157865006553294
3720.489,2.8183361053934344,43.89316296232665
3721.345,2.809747447880424,35.891443308786386
3722.2031,2.8016068686024718,48.917992426053175
3723.0593,2.7963261285405863,40.19138569263174
3723.9158,2.7942400525916766,40.02208895510549
3724.7747,2.7938568341742434,45.56349739030661
3725.6316,2.7931473019078052,52.93113356513276
3726.4905,2.7909715840706593,51.28255017041451
3727.348,2.787591186384162,39.7844956092696
3728.2073,2.783845032519654,33.81520413847972
3729.065,2.779884126566219,51.65854279587414
3729.9229,2.774566118284876,37.01449532905002
3730.783,2.7662377663972655,42.89332682543454
3731.6414,2.754270635976199,47.061435580448546
3732.5017,2.739974815215689,39.80123599649125
3733.3604,2.7267508876022655,46.34021986518269
3734.2214,2.718652923414884,43.07383422482408
3735.0803,2.718591342923774,50.861795990683625
3735.9417,2.726348190342033,39.47551538252116
3736.8013,2.7381017315974576,39.46685484623364
3737.661,2.7479885991908573,41.810077165274095
3738.5227,2.7508115040150605,34.86294651520839
3739.3828,2.7444047367035354,36.747893860659794
3740.245,2.7303499191318097,51.03507159023274
3741.1055,2.713100369963336,46.91557169300275
3741.9683,2.6979391505677124,48.678306624595976
3742.829,2.689375966649955,49.41377073208425
3743.69,2.689295671229105,56.5055168294416
3744.5532,2.6964567583416077,55.84441259911468
3745.4148,2.7070800706093796,50.51167959959606
3746.2786,2.7168807000677027,46.65367276616826
3747.1404,2.7228065494709175,47.168253211607556
3748.0044,2.723946090813778,45.43425137373245
3748.8667,2.7210120544139462,36.11170908034536
3749.729,2.7155581845475365,39.21514387146045
3750.5938,2.7092967579420715,42.269348886940136
3751.4565,2.7037398920034845,46.292832917917636
3752.3215,2.699614146858414,44.52266061006564
3753.1848,2.69643938447263,50.063009447315935
3754.0503,2.69232072059355,43.44637874995159
3754.9138,2.6848003132954665,35.2944742210424
3755.7776,2.6723147238347082,47.95817884744498
3756.6438,2.6554526791898425,52.838851522212835
3757.508,2.6370994522589277,41.62108475220786
3758.3745,2.6207326834898566,45.48192447259309
3759.239,2.6089610088156254,42.392213132068626
3760.106,2.60223439172852,41.28676494937911
3760.971,2.5992358767746184,38.99206931814759
3761.8362,2.5976984707826842,48.96597961337045
3762.7036,2.595648023523741,55.558943262524195
3763.5693,2.592327202672996,41.428125949557604
3764.437,2.588475359918388,43.34731463399764
3765.3032,2.5857983544956165,48.86549351700237
3766.1714,2.585701910719318,55.14459583942386
3767.0378,2.5883199020234553,57.7622382318104
3767.9043,2.5924265654685055,54.680225061285014
3768.7732,2.596152818010836,48.7748281353589
3769.6401,2.597854332892424,38.99007846143825
3770.5095,2.5969523742326364,53.986044490611675
3771.377,2.5942724213651625,47.64398852315736
3772.2466,2.591518034069144,41.139509662452895
3773.1145,2.589945873029705,53.948573587731765
3773.9824,2.589237205925405,33.452714228367235
3774.8528,2.587886083086287,47.07881089104551
3775.721,2.584779815407537,46.63116539101289
3776.5918,2.5803521139662067,48.7292195538106
3777.4604,2.5762639743673743,61.58757522977678
3778.3315,2.5738090384781307,61.40326525628232
3779.201,2.572785128906595,49.482207233063406
3780.0703,2.5715261890339383,43.58075041183124
3780.942,2.56807501481901,68.26522819655682
3781.8118,2.561456648145343,40.808505426731294
3782.6838,2.5520672200146115,57.12283370185395
3783.554,2.5413385733185043,41.539124103880496
3784.4265,2.5308084691614035,45.918108263149755
3785.297,2.5218820330723806,56.20920702351463
3786.168,2.515659490853946,49.09322547451922
3787.041,2.513118724413998,48.71482208521613
3787.912,2.5147733274519326,47.1666926636364
3788.7856,2.5199802477741766,43.392369675854994
3789.6572,2.526644041559408,44.36741437962332
3790.531,2.532142399223861,42.85338728803043
3791.403,2.534754781911343,61.55694630362961
3792.2754,2.5345951334222803,40.456656645789884
3793.15,2.532929567986539,61.04297710492807
3794.0225,2.5308362995851814,54.18755987003714
3794.8972,2.5284294442870494,54.03023050449859
3795.7703,2.5253127476815265,55.65484912561452
3796.6455,2.5213486656741266,44.01428956022038
3797.519,2.516905872445957,39.27157243675448
3798.3926,2.5122894572628978,51.70224425827643
3799.2686,2.507417322260522,47.73013967449904
3800.1426,2.5023575693900133,47.644410758980484
3801.0188,2.498059999110638,47.415772227167174
3801.8933,2.496380761663045,44.512484207462876
3802.77,2.498718831939687,51.19055671786133
3803.6448,2.504597871120164,46.823461522134714
3804.522,2.5115264896103393,46.73611575306743
3805.3972,2.516073832576768,55.09240878543642
3806.2727,2.5154714485511196,86.84595360668985
3807.1504,2.508457205116808,47.18813542346148
3808.0261,2.4956395492278967,37.77002131977482
3808.9043,2.479034573362482,41.338540245447795
3809.7805,2.4616014719695234,48.17563873359502
3810.659,2.4462534126117657,46.11146005481187
3811.5356,2.4355867571488763,60.84699080149337
3812.4126,2.4309090252326517,80.0676859854272
3813.2917,2.4316927419674452,53.056936146862625
3814.169,2.4356742904707858,50.387828907079054
3815.0483,2.4401403148185645,50.94920661044743
3815.926,2.4432004334580935,46.28875827911538
3816.806,2.444205020863397,47.528513215158796
3817.684,2.443213637025847,63.95491413597802
3818.5623,2.4404514337934917,44.75396595773303
3819.4429,2.436049109435649,58.58158331416278
3820.3215,2.4301388698830415,41.885147301013525
3821.2024,2.4228420217800175,57.57255073274659
3822.0815,2.41433988278685,56.5296492012574
3822.963,2.404770271546346,53.90879261213632
3823.8423,2.3946973791682007,55.974096931136636
3824.722,2.385289255047276,57.42656995003735
3825.604,2.3780594860153577,57.37807651859706
3826.4841,2.373792891278678,62.26117461390769
3827.3665,2.3715100158651237,59.36441321469634
3828.2468,2.3690546140915107,51.37882022949313
3829.1296,2.3648712133876217,71.31182466713597
3830.0105,2.3596576019791193,58.536650806591176
3830.8916,2.356016751679178,50.74268511100533
3831.7751,2.3564641403552797,57.373244657748124
3832.6565,2.361352216028364,53.716643619154674
3833.5403,2.3685985530796483,65.37711836958445
3834.4224,2.3752432890001463,45.589102120529624
3835.3064,2.3795942480924985,52.48095337774611
3836.1887,2.381743128903608,69.41723208811311
3837.0713,2.3824971157344104,68.18013497266153
3837.956,2.38196317052025,46.27434593337278
3838.839,2.379596599970586,48.03537804537771
3839.7244,2.3754806474750922,38.635413890685925
3840.6077,2.371183001373995,49.42846414455509
3841.4932,2.3687816137912185,59.31779818069528
3842.377,2.3691374180666394,67.54494648262732
3843.261,2.371136054548198,49.218404687671104
3844.1472,2.372746554072139,44.78293633165587
3845.0315,2.372433871263331,44.52269736890273
3845.9182,2.3695648819096577,71.33402819734638
3846.803,2.364027755496969,48.36378298092424
3847.69,2.356250776977212,52.6840990994058
3848.5752,2.3479881755089047,61.38787472440725
3849.4604,2.3422367387898437,52.44621403989115
3850.3481,2.341816822142136,62.53888621026536
3851.234,2.3472607840761275,56.82580314525139
3852.122,2.3559902586385175,55.896387254228806
3853.0083,2.363601425619274,50.58570309573021
3853.8967,2.3666537814517694,53.598034981835816
3854.7832,2.364506092809502,54.387475418476484
3855.6702,2.3592314332177278,60.39994492858623
3856.559,2.3537193164681507,52.56996381706392
3857.4463,2.3497783421838987,70.9456562125039
3858.336,2.347371100706412,61.16294226678671
3859.2234,2.345390099980113,61.01894072735166
3860.1135,2.3428278005492795,45.79838017496854
3861.0015,2.3395628528817305,55.421449765640205
3861.8896,2.3361564169265856,63.20964780912642
3862.7803,2.333226279139623,58.634927565322414
3863.6687,2.3309580692508725,57.817144864100854
3864.5598,2.328867218641106,61.710490176783836
3865.4487,2.325896386432042,54.72337888542914
3866.34,2.3208104967938614,50.29991273541578
3867.2297,2.3132842575667674,64.30123030348841
3868.1213,2.3046145247683008,54.469463964809115
3869.0112,2.2971566339289837,52.97357549442647
3869.9014,2.292147689426951,77.54706735463465
3870.7937,2.28836826904036,66.58989768100791
3871.684,2.283141918855647,49.96228657514001
3872.577,2.2747890494879557,65.4784694813084
3873.4678,2.2641207501597598,50.55583748547726
3874.361,2.253135198592726,55.41419700052414
3875.2524,2.2429397838912215,55.207739807940506
3876.1438,2.232519026063555,65.01584598189494
3877.0376,2.219751871696311,47.732346137014886
3877.9297,2.2033955156595795,61.91834362706797
3878.8237,2.1841468966894606,60.25207433033756
3879.716,2.164774461472439,68.65469866214015
3880.6108,2.1484514609930243,55.73058880948196
3881.5037,2.1373420568311214,77.65939066258352
3882.3965,2.1312348950923274,59.05716708542029
3883.2917,2.1278429349991628,94.63001754507678
3884.185,2.1239842258065234,72.40692703965954
3885.0808,2.117076724269287,64.08329308875922
3885.9746,2.1063792900944422,80.60550472157392
3886.8706,2.093001813989288,53.85701908113195
3887.765,2.0792565074861167,80.37526057089454
3888.6592,2.0672827073554516,84.61009032537467
3889.556,2.058437068777299,70.46468533067885
3890.4507,2.053497095148755,70.35947886813788
3891.348,2.0530445339854397,85.17739853732904
3892.243,2.0576787739439504,89.33873990519243
3893.1406,2.067524933953928,68.37376154091328
3894.0361,2.081536967737665,80.89998104679735
3894.932,2.097605451787798,78.47291677547642
3895.83,2.11314642145298,85.06003952535997
3896.7263,2.1260271543753078,57.37339104472513
3897.625,2.135766524030401,80.04455992989367
3898.5215,2.143547311986365,63.35414176234111
3899.4207,2.1516959497965646,67.51185877546324
3900.3176,2.162089498407292,62.65603262674875
3901.2148,2.1751339705593833,55.19936317719183
3902.1145,2.189538508891039,58.01283215823567
3903.0122,2.2030229723188985,65.24131907437317
3903.912,2.21368743024513,63.06098274535712
3904.8103,2.220496272258734,66.4640164855283
3905.7107,2.223592130900384,54.8399696900754
3906.6094,2.2239681393522557,68.83889629879197
3907.508,2.223118450059548,54.34579757440162
3908.409,2.222428432977175,62.576215442970266
3909.308,2.2227582009940074,60.34064127345791
3910.2097,2.224499161623917,48.08893423448137
3911.1091,2.2279153141977446,65.65379204882163
3912.011,2.23317826437053,59.52250313021036
3912.9111,2.2398009392957463,61.0152471501735
3913.8113,2.2464611259806584,53.168627904292464
3914.7136,2.2516406282179497,53.515403017192476
3915.6143,2.254791997577651,71.47578581658752
3916.517,2.256988091313523,60.13052390636171
3917.4182,2.2600871729933973,50.78343948838978
3918.3215,2.2652608698217005,56.52415278299989
3919.223,2.272059667418569,56.0423276557795
3920.1245,2.2790606030111666,51.078602182346664
3921.0286,2.2851212160141485,59.671130406772235
3921.9307,2.2899410363689157,52.687346774621474
3922.835,2.293601193591631,65.1697165509853
3923.7373,2.2956343109687376,58.732156556694335
3924.642,2.295037807907242,55.60991748615996
3925.5452,2.2910091411153437,54.14751045094148
3926.448,2.2836876250850313,61.975372966879
3927.3535,2.2742087034285676,51.342289567637295
3928.257,2.2644243666562565,54.80748289619695
3929.1628,2.256134259609434,67.01555601285881
3930.0667,2.2504808375807492,61.07420135863019
3930.9731,2.247126391763834,60.47713850322401
3931.8774,2.2445021145503032,61.990067326851985
3932.782,2.241009076520207,71.86769854589502
3933.6887,2.2364723910275233,51.37158607965481
3934.5938,2.232299095778786,70.96903665750543
3935.501,2.230022753906916,60.74971646636158
3936.4062,2.229817197249211,60.081223223307376
3937.3142,2.230163257677894,63.70209636618484
